Name,Criss Capps
Date of Birth,"Feb 5, 1952"
Recorded Date,2023-12-20 08:32:57 -0400
Classification,Sinus Rhythm
Symptoms,
Software Version,1.90
Device,"Watch5,4"
Sample Rate,512.844 hertz


Lead,Lead I
Unit,µV

38.064
44.742
50.652
55.67
59.704
62.688
64.603
65.449
65.224
63.943
61.648
58.408
54.334
49.562
44.201
38.353
32.125
25.634
19.045
12.508
6.138
0.027
-5.767
-11.191
-16.178
-20.67
-24.629
-28.04
-30.929
-33.34
-35.298
-36.839
-38.01
-38.878
-39.556
-40.159
-40.786
-41.534
-42.491
-43.758
-45.431
-47.628
-50.506
-54.137
-58.504
-63.483
-68.783
-74.088
-79.137
-83.563
-86.895
-88.829
-89.174
-88.057
-86.165
-84.146
-82.528
-81.923
-82.763
-85.274
-89.568
-95.056
-100.15
-103.104
-102.009
-94.853
-79.963
-55.543
-19.88
27.937
86.984
154.749
228.173
303.544
378.833
453.583
525.148
590.141
642.374
671.518
670.553
634.263
560.355
453.496
318.377
162.361
-2.866
-164.6
-307.268
-417.326
-486.819
-515.797
-510.322
-477.627
-427.827
-368.343
-306.307
-252.177
-210.198
-181.975
-165.929
-154.063
-142.75
-131.405
-120.69
-114.821
-114.969
-119.404
-125.925
-131.149
-133.026
-131.448
-126.86
-120.091
-112.016
-103.285
-94.636
-86.967
-81.115
-77.478
-76.02
-76.494
-78.47
-81.517
-85.287
-89.342
-93.2
-96.553
-99.208
-101.072
-102.187
-102.58
-102.249
-101.233
-99.586
-97.364
-94.654
-91.538
-88.079
-84.372
-80.503
-76.567
-72.682
-68.943
-65.426
-62.191
-59.265
-56.664
-54.405
-52.493
-50.918
-49.666
-48.704
-48
-47.53
-47.258
-47.151
-47.165
-47.246
-47.35
-47.445
-47.499
-47.491
-47.402
-47.208
-46.893
-46.451
-45.869
-45.14
-44.253
-43.192
-41.945
-40.501
-38.848
-36.978
-34.88
-32.538
-29.943
-27.083
-23.952
-20.542
-16.848
-12.866
-8.594
-4.03
0.827
5.981
11.431
17.17
23.184
29.455
35.954
42.648
49.501
56.472
63.526
70.636
77.781
84.953
92.144
99.346
106.542
113.705
120.805
127.82
134.728
141.517
148.185
154.741
161.204
167.599
173.937
180.21
186.384
192.404
198.196
203.678
208.779
213.451
217.647
221.329
224.459
226.998
228.897
230.098
230.531
230.116
228.793
226.528
223.326
219.225
214.296
208.631
202.318
195.429
188.031
180.179
171.927
163.33
154.449
145.349
136.111
126.837
117.614
108.517
99.594
90.865
82.33
73.965
65.752
57.682
49.752
41.973
34.358
26.926
19.697
12.692
5.918
-0.629
-6.954
-13.061
-18.945
-24.588
-29.967
-35.05
-39.81
-44.222
-48.27
-51.944
-55.243
-58.172
-60.739
-62.961
-64.851
-66.419
-67.675
-68.628
-69.291
-69.679
-69.811
-69.706
-69.385
-68.87
-68.182
-67.341
-66.365
-65.27
-64.072
-62.783
-61.416
-59.984
-58.5
-56.977
-55.428
-53.865
-52.301
-50.745
-49.209
-47.701
-46.23
-44.8
-43.419
-42.09
-40.818
-39.606
-38.456
-37.371
-36.352
-35.399
-34.513
-33.694
-32.941
-32.253
-31.63
-31.069
-30.568
-30.125
-29.739
-29.406
-29.124
-28.891
-28.705
-28.563
-28.462
-28.4
-28.374
-28.382
-28.42
-28.485
-28.575
-28.686
-28.817
-28.966
-29.129
-29.305
-29.493
-29.691
-29.897
-30.11
-30.329
-30.551
-30.777
-31.004
-31.232
-31.46
-31.686
-31.912
-32.136
-32.358
-32.579
-32.799
-33.017
-33.236
-33.456
-33.676
-33.899
-34.124
-34.355
-34.593
-34.839
-35.097
-35.368
-35.655
-35.96
-36.285
-36.634
-37.008
-37.408
-37.838
-38.298
-38.792
-39.32
-39.885
-40.488
-41.131
-41.815
-42.54
-43.307
-44.115
-44.962
-45.848
-46.77
-47.726
-48.712
-49.723
-50.757
-51.811
-52.88
-53.961
-55.048
-56.135
-57.218
-58.289
-59.342
-60.364
-61.345
-62.275
-63.147
-63.951
-64.679
-65.324
-65.875
-66.327
-66.677
-66.918
-67.042
-67.036
-66.885
-66.582
-66.131
-65.54
-64.816
-63.963
-62.986
-61.898
-60.715
-59.45
-58.101
-56.655
-55.093
-53.413
-51.624
-49.749
-47.811
-45.821
-43.773
-41.661
-39.492
-37.271
-35.001
-32.664
-30.236
-27.717
-25.143
-22.584
-20.108
-17.76
-15.566
-13.539
-11.698
-10.078
-8.721
-7.664
-6.929
-6.539
-6.535
-6.98
-7.94
-9.445
-11.471
-13.955
-16.843
-20.104
-23.717
-27.666
-31.922
-36.441
-41.177
-46.093
-51.146
-56.283
-61.433
-66.504
-71.405
-76.079
-80.502
-84.675
-88.589
-92.22
-95.543
-98.54
-101.201
-103.532
-105.556
-107.306
-108.847
-110.257
-111.609
-112.993
-114.507
-116.241
-118.279
-120.701
-123.56
-126.931
-130.911
-135.529
-140.748
-146.418
-152.196
-157.678
-162.467
-166.112
-168.156
-168.323
-166.485
-162.835
-158.054
-152.946
-148.314
-144.959
-143.452
-144.081
-146.908
-151.339
-155.9
-158.062
-154.45
-142.086
-119.1
-86.323
-46.148
-0.13
51.165
110.68
181.701
264.638
357.69
453.534
542.341
613.387
654.465
655.527
609.366
514.397
375.691
205.556
21.907
-156.246
-310.254
-428.066
-505.311
-543.744
-550.517
-533.14
-499.168
-455.622
-409.829
-368.485
-334.487
-307.735
-284.126
-259.848
-234.921
-211.579
-194.007
-184.7
-182.917
-186.452
-192.158
-197.514
-201.051
-201.683
-199.093
-193.524
-185.439
-175.589
-164.772
-153.769
-143.479
-134.801
-128.24
-123.89
-121.58
-120.935
-121.57
-123.159
-125.31
-127.586
-129.67
-131.34
-132.453
-132.994
-132.955
-132.325
-131.128
-129.399
-127.168
-124.482
-121.402
-117.985
-114.296
-110.4
-106.356
-102.235
-98.124
-94.123
-90.321
-86.778
-83.526
-80.584
-77.963
-75.674
-73.714
-72.054
-70.656
-69.485
-68.509
-67.705
-67.045
-66.491
-65.999
-65.518
-65.005
-64.428
-63.758
-62.971
-62.041
-60.946
-59.671
-58.212
-56.562
-54.714
-52.658
-50.383
-47.879
-45.139
-42.157
-38.925
-35.435
-31.681
-27.653
-23.349
-18.767
-13.903
-8.761
-3.343
2.346
8.302
14.518
20.994
27.72
34.681
41.861
49.236
56.776
64.448
72.202
79.99
87.772
95.515
103.195
110.801
118.318
125.734
133.041
140.218
147.245
154.111
160.793
167.276
173.562
179.661
185.606
191.445
197.194
202.853
208.408
213.814
219.022
223.971
228.576
232.774
236.514
239.742
242.433
244.556
246.061
246.894
246.977
246.216
244.557
241.969
238.435
233.986
228.671
222.56
215.771
208.404
200.541
192.259
183.613
174.653
165.454
156.091
146.648
137.234
127.932
118.811
109.938
101.344
93.042
85.025
77.249
69.679
62.3
55.103
48.093
41.286
34.683
28.289
22.112
16.141
10.373
4.805
-0.571
-5.751
-10.719
-15.454
-19.92
-24.085
-27.929
-31.441
-34.615
-37.454
-39.962
-42.146
-44.024
-45.606
-46.904
-47.928
-48.686
-49.19
-49.455
-49.497
-49.337
-48.994
-48.487
-47.833
-47.049
-46.148
-45.144
-44.05
-42.873
-41.624
-40.313
-38.95
-37.548
-36.117
-34.668
-33.211
-31.755
-30.311
-28.887
-27.488
-26.122
-24.793
-23.507
-22.268
-21.078
-19.941
-18.859
-17.833
-16.866
-15.957
-15.109
-14.32
-13.591
-12.921
-12.311
-11.76
-11.266
-10.83
-10.45
-10.125
-9.855
-9.637
-9.47
-9.354
-9.285
-9.261
-9.281
-9.341
-9.44
-9.573
-9.738
-9.932
-10.153
-10.397
-10.663
-10.948
-11.248
-11.563
-11.889
-12.224
-12.566
-12.913
-13.262
-13.612
-13.959
-14.303
-14.642
-14.972
-15.293
-15.604
-15.902
-16.187
-16.459
-16.715
-16.957
-17.184
-17.395
-17.592
-17.774
-17.943
-18.099
-18.243
-18.378
-18.504
-18.623
-18.739
-18.852
-18.964
-19.079
-19.197
-19.32
-19.451
-19.591
-19.743
-19.909
-20.089
-20.286
-20.501
-20.736
-20.992
-21.267
-21.561
-21.874
-22.204
-22.548
-22.905
-23.269
-23.637
-24.008
-24.376
-24.738
-25.089
-25.423
-25.735
-26.021
-26.273
-26.484
-26.643
-26.743
-26.774
-26.731
-26.606
-26.393
-26.082
-25.668
-25.145
-24.511
-23.76
-22.883
-21.869
-20.708
-19.397
-17.947
-16.363
-14.647
-12.806
-10.845
-8.776
-6.619
-4.382
-2.057
0.358
2.87
5.473
8.145
10.865
13.613
16.377
19.163
21.962
24.755
27.535
30.297
33.045
35.797
38.535
41.204
43.757
46.146
48.338
50.326
52.091
53.611
54.862
55.808
56.428
56.72
56.662
56.226
55.38
54.072
52.298
50.102
47.516
44.579
41.32
37.746
33.886
29.785
25.486
21.045
16.511
11.917
7.317
2.77
-1.659
-5.882
-9.847
-13.525
-16.886
-19.909
-22.575
-24.86
-26.77
-28.34
-29.611
-30.644
-31.507
-32.267
-33.017
-33.857
-34.894
-36.234
-37.99
-40.31
-43.288
-46.929
-51.132
-55.647
-60.172
-64.436
-68.089
-70.674
-71.873
-71.556
-69.885
-67.45
-64.897
-62.762
-61.632
-62.101
-64.462
-68.585
-73.84
-78.943
-82.353
-82.482
-76.946
-62.775
-37.689
-0.659
46.472
99.994
156.936
215.64
278.26
347.384
423.706
507.032
590.906
666.365
723.117
746.525
726.325
657.005
538.701
382.7
204.914
22.872
-145.051
-286.782
-395.765
-468.723
-508.849
-519.536
-502.966
-465.234
-410.946
-347.587
-286.988
-234.893
-194.52
-165.209
-140.055
-116.406
-94.649
-76.044
-64.698
-61.729
-65.172
-72.578
-80.548
-86.647
-89.852
-89.868
-87.074
-82.056
-75.485
-68.162
-60.877
-54.485
-49.817
-47.224
-46.645
-47.807
-50.219
-53.402
-56.98
-60.521
-63.558
-65.819
-67.177
-67.603
-67.196
-66.031
-64.147
-61.629
-58.584
-55.104
-51.307
-47.303
-43.191
-39.091
-35.102
-31.303
-27.773
-24.565
-21.713
-19.239
-17.141
-15.406
-14.028
-12.99
-12.27
-11.843
-11.668
-11.697
-11.881
-12.162
-12.492
-12.831
-13.139
-13.385
-13.544
-13.598
-13.532
-13.341
-13.011
-12.529
-11.882
-11.059
-10.048
-8.841
-7.424
-5.789
-3.926
-1.826
0.522
3.129
6.005
9.16
12.601
16.331
20.354
24.674
29.295
34.222
39.454
44.98
50.788
56.866
63.191
69.737
76.466
83.325
90.277
97.292
104.348
111.435
118.54
125.644
132.737
139.805
146.837
153.825
160.751
167.59
174.336
180.994
187.588
194.17
200.762
207.357
213.943
220.478
226.914
233.196
239.241
244.951
250.249
255.069
259.368
263.122
266.283
268.792
270.58
271.541
271.601
270.712
268.819
265.905
261.988
257.106
251.356
244.859
237.698
229.94
221.634
212.8
203.488
193.749
183.618
173.178
162.516
151.725
140.935
130.248
119.715
109.371
99.198
89.16
79.263
69.522
59.957
50.619
41.545
32.788
24.439
16.543
9.11
2.118
-4.509
-10.827
-16.849
-22.583
-28.016
-33.124
-37.909
-42.37
-46.492
-50.287
-53.776
-57.001
-60.042
-62.951
-65.742
-68.403
-70.887
-73.159
-75.211
-77.034
-78.619
-79.971
-81.086
-81.979
-82.681
-83.212
-83.579
-83.777
-83.783
-83.589
-83.205
-82.651
-81.962
-81.165
-80.282
-79.334
-78.349
-77.346
-76.341
-75.338
-74.334
-73.327
-72.324
-71.331
-70.359
-69.415
-68.503
-67.625
-66.781
-65.969
-65.188
-64.435
-63.709
-63.008
-62.334
-61.687
-61.064
-60.466
-59.894
-59.345
-58.82
-58.318
-57.83
-57.357
-56.903
-56.46
-56.031
-55.614
-55.196
-54.774
-54.359
-53.951
-53.557
-53.225
-52.986
-52.847
-52.823
-52.902
-53.027
-53.202
-53.473
-53.704
-53.728
-53.672
-53.61
-53.573
-54.028
-54.414
-53.815
-53.084
-52.587
-53.666
-58.8
-66.136
-72.88
-76.522
-72.794
-62.66
-50.688
-40.141
-36.025
-39.817
-47.557
-56.614
-63.737
-66.698
-67.983
-69.044
-70.318
-72.63
-74.637
-75.547
-75.998
-76.107
-76.133
-76.401
-76.744
-77.146
-77.874
-78.952
-80.203
-81.528
-82.819
-84.024
-85.227
-86.453
-87.644
-88.786
-89.889
-90.961
-92.027
-93.088
-94.109
-95.069
-95.951
-96.747
-97.459
-98.083
-98.613
-99.042
-99.362
-99.568
-99.654
-99.618
-99.454
-99.16
-98.731
-98.166
-97.464
-96.625
-95.649
-94.538
-93.288
-91.9
-90.375
-88.714
-86.922
-85.004
-82.965
-80.812
-78.553
-76.196
-73.751
-71.228
-68.638
-65.994
-63.307
-60.591
-57.863
-55.138
-52.436
-49.773
-47.168
-44.639
-42.202
-39.878
-37.681
-35.628
-33.73
-32.003
-30.459
-29.115
-27.985
-27.079
-26.409
-25.982
-25.808
-25.893
-26.239
-26.841
-27.695
-28.796
-30.145
-31.746
-33.601
-35.701
-38.039
-40.6
-43.363
-46.306
-49.394
-52.577
-55.809
-59.045
-62.246
-65.388
-68.437
-71.35
-74.088
-76.594
-78.829
-80.77
-82.388
-83.661
-84.608
-85.254
-85.657
-85.918
-86.104
-86.285
-86.556
-86.985
-87.666
-88.707
-90.173
-92.156
-94.766
-98.016
-101.868
-106.191
-110.653
-114.898
-118.602
-121.336
-122.701
-122.492
-120.616
-117.274
-113.066
-108.614
-104.481
-101.21
-99.155
-98.437
-99.007
-100.301
-101.124
-99.312
-91.99
-77.029
-53.244
-21.907
13.998
53.7
98.084
150.05
213.214
285.984
362.897
437.506
502.679
554.577
590.407
603.381
584.613
524.324
416.852
267.315
90.939
-89.365
-249.726
-372.898
-451.645
-490.492
-500.965
-495.672
-484.123
-468.659
-447.326
-417.619
-378.191
-331.705
-282.834
-235.938
-194.979
-162.005
-137.545
-121.358
-112.405
-109.336
-110.737
-114.95
-120.056
-124.188
-125.823
-124.274
-119.615
-112.293
-102.971
-92.397
-81.477
-71.268
-62.777
-56.521
-52.518
-50.523
-50.138
-51.007
-52.789
-55.03
-57.212
-58.929
-59.983
-60.318
-59.986
-59.037
-57.471
-55.311
-52.622
-49.489
-45.999
-42.235
-38.25
-34.081
-29.791
-25.459
-21.183
-17.086
-13.252
-9.723
-6.53
-3.688
-1.212
0.884
2.609
4.004
5.111
5.969
6.613
7.065
7.359
7.542
7.664
7.783
7.943
8.174
8.503
8.958
9.564
10.345
11.315
12.478
13.844
15.424
17.232
19.285
21.594
24.166
27.008
30.127
33.53
37.224
41.214
45.503
50.093
54.987
60.185
65.688
71.491
77.588
83.967
90.618
97.525
104.672
112.039
119.606
127.353
135.258
143.3
151.454
159.696
168.001
176.341
184.688
193.011
201.276
209.448
217.496
225.385
233.084
240.56
247.783
254.72
261.344
267.628
273.54
279.049
284.118
288.716
292.822
296.419
299.498
302.059
304.1
305.621
306.633
307.142
307.146
306.637
305.594
303.993
301.829
299.104
295.837
292.048
287.74
282.917
277.579
271.714
265.317
258.379
250.869
242.779
234.13
224.968
215.374
205.449
195.268
184.893
174.376
163.762
153.112
142.492
131.957
121.578
111.428
101.59
92.177
83.28
74.941
67.174
59.945
53.192
46.879
40.98
35.468
30.332
25.55
21.095
16.964
13.138
9.588
6.271
3.113
0.052
-2.938
-5.862
-8.696
-11.389
-13.915
-16.256
-18.387
-20.301
-21.995
-23.465
-24.732
-25.816
-26.726
-27.463
-28.011
-28.357
-28.507
-28.476
-28.29
-27.984
-27.587
-27.125
-26.628
-26.117
-25.609
-25.117
-24.641
-24.178
-23.729
-23.301
-22.899
-22.532
-22.206
-21.92
-21.674
-21.468
-21.297
-21.159
-21.048
-20.958
-20.887
-20.831
-20.79
-20.765
-20.755
-20.757
-20.772
-20.796
-20.827
-20.861
-20.896
-20.927
-20.952
-20.969
-20.975
-20.969
-20.951
-20.919
-20.873
-20.813
-20.74
-20.652
-20.552
-20.44
-20.317
-20.184
-20.043
-19.896
-19.744
-19.588
-19.432
-19.277
-19.126
-18.98
-18.842
-18.714
-18.599
-18.499
-18.416
-18.352
-18.31
-18.292
-18.301
-18.338
-18.407
-18.508
-18.644
-18.816
-19.026
-19.273
-19.56
-19.887
-20.253
-20.66
-21.107
-21.593
-22.118
-22.681
-23.281
-23.916
-24.585
-25.286
-26.016
-26.774
-27.558
-28.363
-29.187
-30.027
-30.877
-31.734
-32.594
-33.451
-34.3
-35.137
-35.954
-36.748
-37.512
-38.241
-38.927
-39.566
-40.151
-40.675
-41.132
-41.516
-41.82
-42.038
-42.165
-42.193
-42.119
-41.938
-41.643
-41.231
-40.698
-40.04
-39.255
-38.339
-37.292
-36.112
-34.799
-33.356
-31.783
-30.084
-28.262
-26.323
-24.273
-22.119
-19.868
-17.53
-15.112
-12.628
-10.087
-7.502
-4.886
-2.255
0.377
2.991
5.569
8.094
10.545
12.906
15.155
17.275
19.248
21.058
22.692
24.133
25.366
26.376
27.149
27.673
27.938
27.936
27.66
27.103
26.265
25.15
23.762
22.106
20.181
17.978
15.498
12.747
9.734
6.477
2.993
-0.695
-4.553
-8.533
-12.586
-16.663
-20.724
-24.742
-28.679
-32.489
-36.12
-39.505
-42.597
-45.365
-47.782
-49.841
-51.548
-52.921
-54.016
-54.917
-55.709
-56.491
-57.357
-58.385
-59.676
-61.313
-63.407
-66.125
-69.527
-73.595
-78.216
-83.102
-87.959
-92.558
-96.529
-99.398
-100.87
-100.747
-99.163
-96.752
-94.029
-91.406
-89.38
-88.319
-88.479
-89.983
-92.245
-93.867
-93.423
-89.283
-79.761
-63.54
-39.013
-4.686
39.932
94.576
157.723
226.042
295.939
363.384
425.028
480.019
527.462
566.257
592.713
598.325
573.626
509.509
402.021
256.42
85.495
-90.427
-249.372
-374.688
-457.758
-501.065
-514.195
-506.422
-483.385
-446.608
-396.304
-336.962
-278.565
-230.232
-197.195
-178.248
-165.487
-153.08
-139.078
-124.797
-114.734
-110.785
-112.12
-116.536
-120.75
-122.967
-122.641
-120.065
-116.446
-112.561
-108.71
-105.261
-102.303
-100.002
-98.802
-98.373
-97.755
-96.305
-93.618
-89.726
-85.213
-80.412
-75.338
-70.344
-66.051
-62.865
-61.033
-60.385
-60.289
-60.324
-60.306
-60.04
-59.367
-58.211
-56.548
-54.509
-52.403
-50.415
-48.609
-47.008
-45.551
-44.187
-42.891
-41.631
-40.365
-39.099
-37.878
-36.727
-35.684
-34.753
-33.906
-33.116
-32.356
-31.595
-30.811
-29.994
-29.149
-28.286
-27.418
-26.54
-25.628
-24.651
-23.564
-22.328
-20.907
-19.271
-17.4
-15.279
-12.902
-10.264
-7.366
-4.203
-0.764
2.962
6.986
11.317
15.956
20.902
26.15
31.691
37.514
43.607
49.956
56.55
63.376
70.421
77.672
85.114
92.73
100.5
108.402
116.411
124.501
132.646
140.815
148.98
157.109
165.173
173.139
180.978
188.657
196.145
203.41
210.422
217.149
223.56
229.626
235.318
240.609
245.472
249.882
253.817
257.257
260.182
262.576
264.425
265.715
266.439
266.588
266.156
265.143
263.548
261.374
258.629
255.32
251.461
247.066
242.151
236.738
230.847
224.502
217.73
210.557
203.014
195.132
186.941
178.477
169.773
160.864
151.786
142.575
133.266
123.896
114.5
105.113
95.769
86.5
77.34
68.319
59.466
50.809
42.375
34.186
26.265
18.632
11.305
4.298
-2.375
-8.704
-14.68
-20.297
-25.552
-30.442
-34.967
-39.131
-42.936
-46.389
-49.497
-52.269
-54.716
-56.848
-58.68
-60.224
-61.496
-62.511
-63.286
-63.837
-64.18
-64.334
-64.317
-64.144
-63.833
-63.402
-62.867
-62.243
-61.547
-60.791
-59.99
-59.157
-58.303
-57.439
-56.575
-55.718
-54.878
-54.06
-53.27
-52.513
-51.794
-51.115
-50.479
-49.887
-49.341
-48.841
-48.387
-47.978
-47.612
-47.289
-47.005
-46.758
-46.546
-46.365
-46.212
-46.083
-45.974
-45.882
-45.803
-45.734
-45.671
-45.611
-45.552
-45.49
-45.424
-45.353
-45.274
-45.188
-45.093
-44.989
-44.877
-44.756
-44.628
-44.493
-44.352
-44.207
-44.058
-43.908
-43.757
-43.609
-43.464
-43.325
-43.194
-43.073
-42.965
-42.872
-42.797
-42.743
-42.713
-42.708
-42.733
-42.789
-42.879
-43.006
-43.172
-43.378
-43.626
-43.916
-44.251
-44.629
-45.052
-45.519
-46.03
-46.585
-47.181
-47.818
-48.496
-49.211
-49.962
-50.748
-51.566
-52.413
-53.287
-54.185
-55.104
-56.04
-56.988
-57.945
-58.906
-59.866
-60.819
-61.759
-62.68
-63.575
-64.439
-65.264
-66.043
-66.77
-67.437
-68.039
-68.567
-69.016
-69.379
-69.651
-69.825
-69.896
-69.86
-69.711
-69.446
-69.06
-68.549
-67.911
-67.142
-66.24
-65.204
-64.031
-62.723
-61.28
-59.703
-57.995
-56.159
-54.201
-52.125
-49.938
-47.648
-45.263
-42.794
-40.25
-37.645
-34.991
-32.303
-29.596
-26.887
-24.194
-21.534
-18.923
-16.379
-13.92
-11.566
-9.335
-7.245
-5.314
-3.559
-1.998
-0.647
0.476
1.359
1.992
2.366
2.472
2.304
1.852
1.115
0.099
-1.191
-2.748
-4.566
-6.642
-8.964
-11.515
-14.28
-17.238
-20.371
-23.66
-27.073
-30.576
-34.134
-37.703
-41.253
-44.761
-48.208
-51.582
-54.866
-58.017
-61.004
-63.787
-66.317
-68.595
-70.61
-72.329
-73.806
-75.13
-76.428
-77.966
-79.964
-82.462
-85.498
-89.053
-92.913
-96.925
-100.806
-103.93
-105.774
-106.037
-104.496
-101.247
-96.701
-91.072
-84.741
-78.504
-73.137
-69.487
-68.299
-69.737
-73.467
-79.294
-87.04
-96.22
-106.02
-114.152
-117.414
-113.488
-101.257
-82.238
-59.197
-32.235
0.991
45.795
108.46
189.578
284.589
385.155
479.622
559.972
621.896
660.809
674.517
659.852
611.768
530.945
420.124
284.712
136.238
-16.283
-162.164
-289.786
-392.838
-463.311
-498.482
-500.352
-470.159
-417.255
-351.586
-283.109
-225.291
-182.925
-156.147
-142.088
-132.168
-122.63
-113.4
-105.769
-103.797
-108.132
-116.483
-125.834
-132.338
-134.265
-131.827
-125.611
-116.719
-106.224
-94.935
-84.047
-74.819
-67.893
-63.503
-61.547
-61.61
-63.268
-66.122
-69.653
-73.339
-76.842
-79.931
-82.481
-84.461
-85.832
-86.572
-86.695
-86.225
-85.183
-83.586
-81.471
-78.892
-75.926
-72.659
-69.17
-65.531
-61.825
-58.153
-54.601
-51.24
-48.123
-45.267
-42.697
-40.432
-38.477
-36.822
-35.443
-34.301
-33.363
-32.604
-31.988
-31.482
-31.043
-30.62
-30.174
-29.676
-29.098
-28.422
-27.627
-26.692
-25.601
-24.35
-22.928
-21.328
-19.54
-17.548
-15.34
-12.911
-10.251
-7.357
-4.221
-0.835
2.808
6.712
10.881
15.318
20.026
25.007
30.261
35.782
41.566
47.603
53.883
60.394
67.123
74.054
81.168
88.449
95.877
103.432
111.092
118.834
126.634
134.465
142.303
150.119
157.885
165.573
173.152
180.593
187.866
194.941
201.787
208.375
214.673
220.654
226.288
231.55
236.412
240.85
244.841
248.364
251.4
253.932
255.946
257.427
258.366
258.755
258.589
257.862
256.576
254.73
252.33
249.38
245.891
241.873
237.339
232.307
226.793
220.819
214.407
207.581
200.368
192.796
184.895
176.696
168.231
159.535
150.64
141.582
132.396
123.118
113.781
104.423
95.075
85.773
76.548
67.432
58.456
49.648
41.035
32.644
24.497
16.618
9.026
1.74
-5.224
-11.853
-18.133
-24.055
-29.611
-34.795
-39.603
-44.033
-48.085
-51.761
-55.066
-58.004
-60.583
-62.812
-64.702
-66.264
-67.512
-68.46
-69.123
-69.518
-69.66
-69.567
-69.256
-68.746
-68.054
-67.198
-66.196
-65.064
-63.82
-62.48
-61.06
-59.575
-58.041
-56.47
-54.876
-53.271
-51.667
-50.075
-48.505
-46.965
-45.464
-44.009
-42.607
-41.265
-39.985
-38.774
-37.633
-36.564
-35.57
-34.651
-33.807
-33.037
-32.339
-31.712
-31.153
-30.659
-30.228
-29.855
-29.538
-29.271
-29.051
-28.874
-28.735
-28.63
-28.556
-28.508
-28.484
-28.478
-28.489
-28.512
-28.544
-28.582
-28.624
-28.666
-28.705
-28.738
-28.762
-28.777
-28.781
-28.773
-28.753
-28.72
-28.669
-28.605
-28.53
-28.438
-28.324
-28.186
-28.017
-27.826
-27.627
-27.412
-27.175
-26.942
-26.732
-26.564
-26.459
-26.405
-26.366
-26.367
-26.443
-26.506
-26.449
-26.339
-26.174
-25.937
-25.865
-25.327
-23.704
-21.885
-20.138
-20.091
-23.692
-28.788
-33.948
-37.037
-35.121
-30.799
-26.271
-23.046
-23.613
-26.191
-28.971
-31.549
-32.819
-33.416
-34.156
-34.878
-35.683
-36.512
-37.193
-37.833
-38.515
-39.207
-39.898
-40.591
-41.277
-41.94
-42.567
-43.131
-43.605
-43.987
-44.277
-44.464
-44.544
-44.513
-44.362
-44.089
-43.685
-43.136
-42.432
-41.568
-40.544
-39.367
-38.05
-36.613
-35.077
-33.469
-31.806
-30.101
-28.357
-26.564
-24.713
-22.792
-20.801
-18.753
-16.659
-14.526
-12.358
-10.158
-7.912
-5.599
-3.187
-0.638
2.068
4.934
7.935
11.02
14.126
17.174
20.099
22.853
25.392
27.678
29.673
31.335
32.615
33.452
33.774
33.5
32.57
30.951
28.638
25.661
22.076
17.971
13.424
8.503
3.275
-2.204
-7.872
-13.653
-19.469
-25.241
-30.873
-36.269
-41.338
-45.997
-50.188
-53.869
-57.024
-59.677
-61.845
-63.546
-64.817
-65.696
-66.243
-66.554
-66.702
-66.757
-66.816
-66.975
-67.347
-68.058
-69.177
-70.785
-72.99
-75.806
-79.206
-83.06
-87.007
-90.679
-93.787
-95.949
-96.782
-96.059
-93.604
-89.593
-84.777
-79.863
-75.344
-71.802
-69.71
-69.376
-71.217
-74.231
-75.495
-72.433
-62.782
-46.801
-28.063
-7.764
15.573
47.377
96.735
167.352
256.818
357.575
457.515
548.628
626.859
687.496
725.874
733.318
699.19
619.368
495.787
338.239
163.759
-10.439
-167.199
-293.261
-382.624
-435.022
-456.803
-455.744
-436.966
-404.116
-358.992
-305.655
-252.582
-206.892
-172.835
-150.215
-133.377
-118.523
-104.733
-92.948
-86.478
-86.181
-90.691
-97.902
-104.761
-109.409
-111.095
-109.635
-105.649
-99.837
-92.749
-85.126
-77.661
-71.023
-65.959
-62.76
-61.306
-61.326
-62.373
-64.031
-66.015
-67.997
-69.617
-70.663
-71.004
-70.599
-69.528
-67.851
-65.605
-62.853
-59.656
-56.09
-52.263
-48.286
-44.275
-40.328
-36.508
-32.869
-29.457
-26.314
-23.484
-20.991
-18.826
-16.981
-15.446
-14.215
-13.284
-12.63
-12.206
-11.959
-11.831
-11.776
-11.761
-11.755
-11.726
-11.646
-11.491
-11.244
-10.897
-10.439
-9.852
-9.116
-8.212
-7.122
-5.836
-4.344
-2.636
-0.7
1.476
3.9
6.582
9.53
12.753
16.262
20.065
24.168
28.572
33.279
38.286
43.589
49.182
55.058
61.206
67.615
74.272
81.162
88.269
95.577
103.066
110.714
118.501
126.402
134.392
142.446
150.535
158.632
166.707
174.731
182.671
190.497
198.178
205.682
212.977
220.032
226.815
233.297
239.448
245.239
250.644
255.637
260.193
264.289
267.906
271.025
273.628
275.703
277.235
278.215
278.636
278.491
277.779
276.499
274.653
272.246
269.286
265.782
261.748
257.198
252.15
246.625
240.643
234.231
227.414
220.22
212.678
204.821
196.679
188.287
179.677
170.884
161.943
152.889
143.755
134.576
125.385
116.216
107.1
98.069
89.151
80.376
71.769
63.357
55.162
47.206
39.508
32.086
24.957
18.132
11.624
5.441
-0.408
-5.921
-11.093
-15.924
-20.416
-24.571
-28.394
-31.892
-35.072
-37.944
-40.518
-42.805
-44.819
-46.571
-48.076
-49.349
-50.405
-51.257
-51.922
-52.415
-52.751
-52.944
-53.008
-52.959
-52.81
-52.574
-52.263
-51.89
-51.465
-50.999
-50.502
-49.983
-49.45
-48.909
-48.367
-47.83
-47.302
-46.788
-46.291
-45.814
-45.358
-44.926
-44.519
-44.137
-43.78
-43.448
-43.142
-42.859
-42.6
-42.363
-42.147
-41.95
-41.773
-41.613
-41.47
-41.342
-41.228
-41.127
-41.039
-40.962
-40.896
-40.841
-40.795
-40.759
-40.733
-40.716
-40.709
-40.712
-40.725
-40.748
-40.782
-40.826
-40.882
-40.949
-41.028
-41.118
-41.221
-41.336
-41.463
-41.604
-41.757
-41.923
-42.103
-42.294
-42.499
-42.716
-42.945
-43.186
-43.439
-43.704
-43.98
-44.268
-44.567
-44.878
-45.199
-45.532
-45.876
-46.232
-46.598
-46.977
-47.367
-47.771
-48.188
-48.619
-49.065
-49.527
-50.006
-50.504
-51.02
-51.556
-52.113
-52.692
-53.293
-53.917
-54.564
-55.236
-55.931
-56.651
-57.394
-58.16
-58.948
-59.757
-60.584
-61.428
-62.285
-63.154
-64.03
-64.91
-65.79
-66.664
-67.529
-68.379
-69.208
-70.009
-70.776
-71.503
-72.182
-72.805
-73.364
-73.853
-74.262
-74.586
-74.816
-74.944
-74.965
-74.87
-74.654
-74.31
-73.833
-73.218
-72.46
-71.557
-70.504
-69.302
-67.948
-66.443
-64.788
-62.985
-61.038
-58.95
-56.729
-54.379
-51.908
-49.327
-46.645
-43.873
-41.025
-38.115
-35.156
-32.166
-29.163
-26.165
-23.192
-20.263
-17.397
-14.616
-11.938
-9.381
-6.964
-4.703
-2.614
-0.715
0.977
2.448
3.682
4.667
5.393
5.85
6.03
5.933
5.56
4.913
3.992
2.793
1.315
-0.44
-2.463
-4.746
-7.274
-10.028
-12.979
-16.085
-19.302
-22.59
-25.91
-29.231
-32.526
-35.754
-38.871
-41.83
-44.582
-47.096
-49.346
-51.295
-52.93
-54.268
-55.35
-56.256
-57.068
-57.83
-58.597
-59.439
-60.427
-61.668
-63.265
-65.28
-67.814
-70.992
-74.866
-79.426
-84.503
-89.691
-94.542
-98.645
-101.521
-102.694
-101.852
-98.885
-94.146
-88.494
-82.899
-78.218
-75.22
-74.623
-76.829
-81.69
-88.16
-94.255
-97.462
-95.256
-85.375
-65.39
-33.17
12.474
71.844
143.086
221.821
303.337
382.471
454.958
520.508
578.516
626.644
660.512
668.116
636.596
558.657
431.974
268.015
87.202
-91.171
-246.366
-367.279
-453.49
-505.366
-529.638
-530.799
-507.333
-462.945
-401.556
-331.018
-266.044
-214.727
-180.203
-160.543
-146.645
-133.581
-120.434
-108.367
-101.884
-102.378
-108.037
-116.151
-122.957
-126.181
-125.574
-121.556
-114.964
-106.674
-97.382
-87.947
-79.391
-72.637
-68.127
-65.84
-65.518
-66.721
-69.018
-72.013
-75.213
-78.126
-80.435
-81.986
-82.751
-82.793
-82.164
-80.883
-79.004
-76.602
-73.756
-70.548
-67.044
-63.311
-59.431
-55.503
-51.64
-47.938
-44.476
-41.307
-38.461
-35.955
-33.798
-31.988
-30.514
-29.355
-28.484
-27.868
-27.48
-27.286
-27.244
-27.309
-27.426
-27.545
-27.63
-27.647
-27.569
-27.376
-27.045
-26.561
-25.913
-25.092
-24.087
-22.889
-21.485
-19.863
-18.013
-15.926
-13.595
-11.012
-8.166
-5.049
-1.652
2.031
6.005
10.271
14.83
19.683
24.827
30.264
35.993
42.011
48.305
54.863
61.667
68.69
75.9
83.255
90.707
98.22
105.763
113.313
120.86
128.391
135.891
143.352
150.753
158.074
165.303
172.416
179.396
186.244
192.967
199.594
206.17
212.706
219.197
225.625
231.939
238.086
244.003
249.601
254.811
259.576
263.838
267.561
270.712
273.234
275.063
276.119
276.3
275.548
273.829
271.121
267.45
262.857
257.406
251.207
244.355
236.927
228.994
220.608
211.814
202.685
193.292
183.718
174.07
164.428
154.859
145.428
136.167
127.091
118.197
109.445
100.803
92.261
83.815
75.477
67.268
59.194
51.265
43.496
35.883
28.428
21.137
14.007
7.05
0.287
-6.255
-12.536
-18.515
-24.171
-29.484
-34.444
-39.051
-43.301
-47.198
-50.753
-53.974
-56.868
-59.442
-61.701
-63.652
-65.309
-66.685
-67.799
-68.668
-69.311
-69.743
-69.981
-70.04
-69.932
-69.67
-69.266
-68.728
-68.069
-67.301
-66.437
-65.49
-64.472
-63.396
-62.273
-61.116
-59.934
-58.736
-57.532
-56.328
-55.132
-53.949
-52.785
-51.646
-50.535
-49.457
-48.414
-47.411
-46.449
-45.531
-44.657
-43.831
-43.052
-42.322
-41.641
-41.009
-40.427
-39.895
-39.414
-38.982
-38.601
-38.268
-37.983
-37.745
-37.552
-37.401
-37.291
-37.219
-37.182
-37.179
-37.206
-37.262
-37.343
-37.449
-37.577
-37.725
-37.89
-38.071
-38.266
-38.473
-38.689
-38.912
-39.142
-39.376
-39.612
-39.848
-40.083
-40.314
-40.54
-40.759
-40.969
-41.17
-41.359
-41.535
-41.699
-41.849
-41.986
-42.11
-42.222
-42.322
-42.412
-42.493
-42.567
-42.635
-42.7
-42.763
-42.826
-42.892
-42.963
-43.041
-43.128
-43.225
-43.335
-43.459
-43.599
-43.757
-43.934
-44.13
-44.348
-44.588
-44.85
-45.136
-45.444
-45.774
-46.126
-46.497
-46.886
-47.29
-47.706
-48.129
-48.556
-48.982
-49.401
-49.808
-50.196
-50.559
-50.889
-51.179
-51.423
-51.61
-51.736
-51.79
-51.768
-51.661
-51.463
-51.167
-50.767
-50.258
-49.635
-48.893
-48.028
-47.036
-45.914
-44.661
-43.276
-41.759
-40.112
-38.335
-36.435
-34.414
-32.28
-30.039
-27.7
-25.272
-22.767
-20.196
-17.572
-14.909
-12.224
-9.532
-6.852
-4.205
-1.608
0.919
3.355
5.681
7.877
9.926
11.813
13.522
15.038
16.348
17.435
18.285
18.888
19.234
19.314
19.124
18.657
17.915
16.904
15.632
14.104
12.324
10.288
7.997
5.46
2.685
-0.31
-3.507
-6.886
-10.412
-14.042
-17.73
-21.433
-25.115
-28.75
-32.306
-35.747
-39.026
-42.085
-44.878
-47.368
-49.524
-51.33
-52.784
-53.894
-54.702
-55.272
-55.669
-55.973
-56.262
-56.603
-57.091
-57.805
-58.839
-60.351
-62.426
-65.073
-68.215
-71.593
-74.862
-77.733
-79.84
-80.716
-80.073
-77.784
-74.017
-69.492
-65.106
-61.687
-59.999
-60.672
-64.145
-70.446
-78.865
-87.897
-94.679
-96.199
-90.806
-76.326
-52.322
-19.199
25.903
83.042
151.071
229.178
310.133
388.37
461.297
524.171
575.647
611.934
624.541
606.489
551.643
458.34
330.533
177.015
11.056
-152.3
-296.019
-407.057
-480.061
-515.439
-520.585
-504.81
-474.007
-433.853
-389.472
-344.14
-302.797
-267.548
-236.452
-208.883
-183.434
-160.395
-142.867
-131.776
-126.945
-127.134
-129.365
-131.396
-131.781
-129.386
-124.111
-116.354
-106.581
-95.512
-83.915
-72.554
-62.257
-53.819
-47.638
-43.687
-41.752
-41.468
-42.453
-44.392
-46.918
-49.604
-52.134
-54.326
-56.056
-57.275
-57.959
-58.065
-57.59
-56.584
-55.09
-53.159
-50.851
-48.214
-45.308
-42.196
-38.932
-35.57
-32.185
-28.845
-25.628
-22.62
-19.875
-17.428
-15.306
-13.513
-12.038
-10.865
-9.961
-9.285
-8.801
-8.476
-8.279
-8.186
-8.159
-8.162
-8.154
-8.088
-7.926
-7.636
-7.19
-6.565
-5.744
-4.711
-3.455
-1.97
-0.243
1.735
3.975
6.49
9.291
12.385
15.779
19.476
23.473
27.772
32.375
37.288
42.518
48.062
53.908
60.039
66.44
73.092
79.977
87.068
94.331
101.74
109.278
116.943
124.731
132.629
140.61
148.635
156.663
164.669
172.64
180.568
188.431
196.211
203.891
211.477
218.978
226.384
233.647
240.685
247.419
253.794
259.773
265.335
270.454
275.089
279.193
282.728
285.669
287.99
289.649
290.582
290.718
290.025
288.523
286.277
283.349
279.78
275.594
270.812
265.471
259.614
253.283
246.507
239.307
231.717
223.793
215.615
207.272
198.819
190.276
181.632
172.883
164.044
155.139
146.188
137.205
128.202
119.203
110.25
101.385
92.64
84.03
75.556
67.22
59.034
51.028
43.239
35.698
28.429
21.451
14.786
8.457
2.483
-3.132
-8.391
-13.303
-17.868
-22.089
-25.961
-29.487
-32.674
-35.529
-38.066
-40.295
-42.228
-43.88
-45.266
-46.405
-47.314
-48.005
-48.492
-48.788
-48.906
-48.862
-48.67
-48.345
-47.9
-47.348
-46.706
-45.986
-45.202
-44.366
-43.488
-42.579
-41.649
-40.707
-39.76
-38.817
-37.884
-36.967
-36.071
-35.2
-34.359
-33.549
-32.775
-32.037
-31.337
-30.676
-30.054
-29.471
-28.927
-28.42
-27.95
-27.515
-27.115
-26.747
-26.409
-26.101
-25.819
-25.563
-25.33
-25.117
-24.922
-24.744
-24.581
-24.43
-24.29
-24.158
-24.034
-23.916
-23.803
-23.694
-23.586
-23.48
-23.375
-23.269
-23.163
-23.055
-22.945
-22.834
-22.72
-22.605
-22.487
-22.368
-22.246
-22.124
-22.001
-21.879
-21.756
-21.636
-21.517
-21.402
-21.292
-21.186
-21.088
-20.997
-20.915
-20.844
-20.785
-20.739
-20.708
-20.693
-20.696
-20.718
-20.762
-20.828
-20.918
-21.033
-21.176
-21.348
-21.549
-21.781
-22.044
-22.341
-22.671
-23.035
-23.432
-23.864
-24.33
-24.828
-25.358
-25.919
-26.508
-27.123
-27.761
-28.42
-29.096
-29.785
-30.482
-31.184
-31.885
-32.58
-33.263
-33.929
-34.571
-35.182
-35.756
-36.286
-36.764
-37.183
-37.535
-37.814
-38.013
-38.123
-38.139
-38.054
-37.862
-37.555
-37.13
-36.582
-35.905
-35.096
-34.153
-33.072
-31.855
-30.501
-29.01
-27.385
-25.628
-23.743
-21.737
-19.615
-17.383
-15.051
-12.628
-10.124
-7.552
-4.923
-2.252
0.447
3.156
5.859
8.538
11.174
13.748
16.241
18.633
20.906
23.043
25.026
26.84
28.47
29.898
31.11
32.092
32.83
33.314
33.535
33.484
33.156
32.551
31.672
30.521
29.1
27.406
25.438
23.199
20.698
17.945
14.955
11.752
8.364
4.836
1.212
-2.464
-6.153
-9.824
-13.444
-16.974
-20.373
-23.59
-26.575
-29.295
-31.721
-33.822
-35.593
-37.055
-38.252
-39.272
-40.199
-41.088
-42.01
-43.03
-44.222
-45.689
-47.521
-49.786
-52.58
-56.019
-60.152
-64.955
-70.237
-75.592
-80.58
-84.787
-87.745
-88.98
-88.162
-85.19
-80.415
-74.688
-68.951
-64.009
-60.592
-59.388
-60.786
-64.671
-70.035
-74.887
-76.854
-73.629
-62.899
-42.26
-9.684
36.331
95.192
163.613
237.647
312.882
386.869
460.162
531.722
597.819
650.432
676.772
665.279
609.714
510.734
374.992
214.844
45.872
-116.616
-254.888
-356.529
-420.059
-448.355
-451.816
-441.945
-420.71
-390.559
-354.293
-312.702
-273.246
-240.316
-211.97
-188.085
-165.89
-144.308
-127.088
-115.625
-110.085
-109.835
-112.172
-115.047
-117.495
-118.637
-117.909
-115.27
-110.925
-105.245
-98.764
-92.078
-85.653
-80.033
-75.878
-73.417
-72.54
-73.016
-74.423
-76.385
-78.65
-80.902
-82.764
-84.002
-84.497
-84.217
-83.247
-81.649
-79.449
-76.71
-73.507
-69.926
-66.074
-62.053
-57.959
-53.897
-49.951
-46.186
-42.67
-39.456
-36.579
-34.057
-31.889
-30.061
-28.563
-27.385
-26.51
-25.911
-25.549
-25.379
-25.352
-25.416
-25.528
-25.649
-25.744
-25.783
-25.74
-25.595
-25.333
-24.946
-24.418
-23.732
-22.872
-21.822
-20.567
-19.097
-17.399
-15.465
-13.285
-10.85
-8.151
-5.182
-1.932
1.604
5.434
9.565
13.999
18.736
23.776
29.113
34.74
40.649
46.83
53.269
59.952
66.864
73.988
81.304
88.793
96.433
104.201
112.072
120.021
128.02
136.042
144.056
152.035
159.947
167.761
175.446
182.97
190.303
197.413
204.268
210.838
217.091
223
228.536
233.671
238.38
242.64
246.428
249.725
252.512
254.773
256.496
257.668
258.28
258.326
257.802
256.706
255.038
252.804
250.008
246.659
242.77
238.353
233.425
228.006
222.114
215.775
209.012
201.854
194.329
186.467
178.3
169.863
161.188
152.311
143.266
134.09
124.818
115.484
106.125
96.774
87.465
78.23
69.101
60.107
51.278
42.641
34.22
26.039
18.119
10.48
3.139
-3.889
-10.591
-16.957
-22.978
-28.647
-33.961
-38.917
-43.516
-47.759
-51.652
-55.2
-58.411
-61.295
-63.862
-66.126
-68.098
-69.795
-71.229
-72.418
-73.378
-74.125
-74.676
-75.049
-75.26
-75.326
-75.263
-75.088
-74.816
-74.462
-74.04
-73.563
-73.044
-72.495
-71.927
-71.348
-70.77
-70.199
-69.644
-69.109
-68.6
-68.12
-67.674
-67.263
-66.888
-66.55
-66.249
-65.984
-65.753
-65.555
-65.388
-65.248
-65.134
-65.043
-64.969
-64.912
-64.866
-64.83
-64.799
-64.77
-64.742
-64.712
-64.676
-64.634
-64.584
-64.524
-64.453
-64.37
-64.274
-64.166
-64.045
-63.911
-63.766
-63.61
-63.445
-63.273
-63.095
-62.913
-62.729
-62.546
-62.366
-62.191
-62.024
-61.868
-61.724
-61.595
-61.484
-61.393
-61.325
-61.282
-61.265
-61.277
-61.32
-61.394
-61.502
-61.644
-61.822
-62.036
-62.289
-62.579
-62.908
-63.277
-63.685
-64.132
-64.618
-65.143
-65.706
-66.307
-66.945
-67.618
-68.326
-69.068
-69.843
-70.648
-71.482
-72.343
-73.23
-74.139
-75.069
-76.016
-76.977
-77.95
-78.93
-79.914
-80.898
-81.878
-82.849
-83.807
-84.745
-85.66
-86.545
-87.395
-88.203
-88.965
-89.673
-90.322
-90.905
-91.416
-91.847
-92.193
-92.447
-92.603
-92.654
-92.595
-92.421
-92.124
-91.702
-91.149
-90.461
-89.636
-88.669
-87.559
-86.305
-84.906
-83.363
-81.676
-79.85
-77.886
-75.788
-73.564
-71.217
-68.757
-66.191
-63.529
-60.781
-57.959
-55.075
-52.143
-49.179
-46.198
-43.218
-40.257
-37.334
-34.468
-31.678
-28.984
-26.404
-23.958
-21.662
-19.533
-17.589
-15.846
-14.322
-13.031
-11.989
-11.208
-10.699
-10.473
-10.537
-10.893
-11.541
-12.482
-13.716
-15.247
-17.079
-19.207
-21.625
-24.323
-27.284
-30.487
-33.901
-37.483
-41.19
-44.977
-48.802
-52.631
-56.427
-60.154
-63.762
-67.201
-70.422
-73.382
-76.051
-78.403
-80.426
-82.135
-83.567
-84.799
-85.91
-86.968
-88.039
-89.193
-90.504
-92.062
-93.97
-96.289
-99.105
-102.534
-106.607
-111.314
-116.539
-121.953
-127.182
-131.896
-135.669
-138.033
-138.681
-137.365
-134.137
-129.586
-124.321
-118.819
-113.635
-109.402
-106.556
-105.335
-105.551
-105.28
-102.376
-95.952
-84.344
-67.326
-44.787
-12.723
31.361
88.866
160.008
238.497
317.854
393.986
464.492
531.013
593.345
645.395
676.208
671.903
622.427
526.172
389.338
226.05
53.379
-112.068
-254.283
-363.741
-436.354
-473.669
-482.053
-466.39
-432.889
-386.865
-334.558
-286.062
-246.892
-219.837
-203.469
-190.524
-177.693
-164.276
-151.246
-143.048
-140.975
-143.43
-148.425
-152.403
-152.979
-149.891
-143.318
-133.945
-122.762
-110.52
-97.981
-86.218
-76.192
-68.359
-62.877
-59.628
-58.241
-58.36
-59.629
-61.578
-63.787
-65.993
-68.018
-69.747
-71.09
-71.958
-72.292
-72.087
-71.369
-70.155
-68.449
-66.272
-63.672
-60.72
-57.505
-54.101
-50.557
-46.926
-43.272
-39.679
-36.256
-33.082
-30.199
-27.636
-25.407
-23.521
-21.985
-20.782
-19.869
-19.205
-18.752
-18.475
-18.356
-18.364
-18.458
-18.596
-18.723
-18.797
-18.784
-18.653
-18.377
-17.928
-17.281
-16.422
-15.343
-14.035
-12.486
-10.68
-8.601
-6.236
-3.576
-0.613
2.659
6.245
10.152
14.381
18.933
23.806
28.999
34.509
40.332
46.462
52.889
59.602
66.584
73.819
81.29
88.976
96.853
104.897
113.084
121.388
129.779
138.231
146.713
155.194
163.642
172.026
180.312
188.468
196.461
204.257
211.824
219.129
226.141
232.829
239.163
245.114
250.655
255.76
260.406
264.571
268.233
271.377
273.985
276.044
277.544
278.476
278.833
278.613
277.815
276.441
274.494
271.983
268.915
265.305
261.165
256.514
251.369
245.753
239.689
233.202
226.32
219.072
211.487
203.597
195.435
187.034
178.428
169.651
160.738
151.723
142.639
133.522
124.403
115.315
106.29
97.357
88.545
79.883
71.396
63.108
55.042
47.22
39.659
32.377
25.389
18.707
12.342
6.303
0.597
-4.773
-9.804
-14.495
-18.848
-22.866
-26.554
-29.917
-32.964
-35.704
-38.147
-40.304
-42.187
-43.81
-45.184
-46.326
-47.247
-47.964
-48.49
-48.84
-49.028
-49.07
-48.979
-48.769
-48.454
-48.047
-47.561
-47.008
-46.399
-45.745
-45.055
-44.34
-43.607
-42.864
-42.117
-41.373
-40.638
-39.915
-39.209
-38.522
-37.859
-37.219
-36.606
-36.02
-35.462
-34.933
-34.433
-33.963
-33.522
-33.111
-32.729
-32.377
-32.054
-31.759
-31.492
-31.253
-31.039
-30.85
-30.686
-30.544
-30.425
-30.327
-30.248
-30.188
-30.146
-30.12
-30.109
-30.112
-30.128
-30.155
-30.193
-30.24
-30.296
-30.358
-30.426
-30.498
-30.573
-30.649
-30.723
-30.795
-30.86
-30.917
-30.962
-30.994
-31.009
-31.004
-30.977
-30.926
-30.848
-30.741
-30.603
-30.432
-30.228
-29.989
-29.714
-29.404
-29.058
-28.676
-28.261
-27.812
-27.331
-26.82
-26.281
-25.717
-25.13
-24.522
-23.897
-23.258
-22.61
-21.954
-21.297
-20.642
-19.994
-19.357
-18.738
-18.139
-17.567
-17.027
-16.521
-16.056
-15.634
-15.258
-14.933
-14.66
-14.441
-14.277
-14.169
-14.115
-14.115
-14.166
-14.266
-14.411
-14.596
-14.817
-15.067
-15.34
-15.63
-15.928
-16.227
-16.518
-16.792
-17.04
-17.252
-17.421
-17.534
-17.584
-17.56
-17.451
-17.251
-16.948
-16.534
-16.001
-15.341
-14.549
-13.617
-12.541
-11.317
-9.943
-8.417
-6.738
-4.91
-2.935
-0.818
1.436
3.819
6.321
8.931
11.638
14.425
17.279
20.18
23.113
26.056
28.989
31.891
34.742
37.52
40.206
42.78
45.219
47.501
49.605
51.51
53.194
54.639
55.824
56.734
57.352
57.67
57.682
57.385
56.774
55.843
54.583
52.994
51.081
48.856
46.331
43.523
40.451
37.149
33.661
30.029
26.294
22.483
18.619
14.728
10.843
7.01
3.289
-0.284
-3.681
-6.892
-9.915
-12.735
-15.331
-17.722
-19.962
-22.116
-24.26
-26.402
-28.499
-30.587
-32.785
-35.316
-38.431
-42.21
-46.579
-51.478
-56.916
-62.797
-68.766
-74.029
-77.606
-78.878
-77.672
-74.033
-67.992
-59.691
-49.788
-39.669
-31.152
-25.672
-23.771
-25.487
-30.868
-39.511
-50.096
-60.504
-66.856
-65.342
-54.522
-32.586
0.669
44.318
100.727
169.444
248.207
335.004
421.912
502.521
573.69
631.338
675.805
705.237
712.288
688.951
624.661
513.327
358.023
170.381
-26.981
-208.47
-351.838
-442.652
-482.116
-480.344
-450.005
-404.275
-349.156
-288.064
-228.026
-175.638
-137.017
-115.586
-106.807
-103.123
-99.997
-95.374
-91.357
-92.303
-98.983
-109.703
-121.795
-131.699
-137.611
-139.543
-137.872
-133.339
-126.784
-118.927
-110.559
-102.568
-95.693
-90.224
-86.141
-83.263
-81.249
-79.768
-78.564
-77.343
-75.843
-73.986
-71.813
-69.435
-67
-64.585
-62.186
-59.808
-57.478
-55.215
-53.053
-51.016
-49.113
-47.371
-45.823
-44.489
-43.371
-42.451
-41.674
-40.969
-40.291
-39.622
-38.978
-38.396
-37.897
-37.484
-37.159
-36.919
-36.761
-36.671
-36.62
-36.574
-36.508
-36.41
-36.283
-36.142
-35.988
-35.803
-35.562
-35.224
-34.756
-34.131
-33.319
-32.289
-31.015
-29.477
-27.667
-25.586
-23.228
-20.587
-17.653
-14.412
-10.858
-6.989
-2.804
1.694
6.501
11.611
17.014
22.698
28.649
34.856
41.306
47.987
54.885
61.984
69.263
76.702
84.28
91.973
99.756
107.601
115.48
123.364
131.226
139.036
146.764
154.38
161.856
169.16
176.264
183.139
189.755
196.084
202.1
207.774
213.083
218.001
222.507
226.578
230.195
233.34
235.998
238.155
239.798
240.918
241.507
241.56
241.073
240.047
238.482
236.384
233.759
230.616
226.969
222.829
218.214
213.141
207.632
201.707
195.39
188.708
181.685
174.352
166.736
158.869
150.781
142.503
134.068
125.508
116.855
108.141
99.398
90.657
81.949
73.303
64.748
56.313
48.023
39.904
31.979
24.27
16.798
9.58
2.634
-4.025
-10.385
-16.434
-22.164
-27.568
-32.639
-37.376
-41.776
-45.839
-49.567
-52.964
-56.034
-58.784
-61.222
-63.355
-65.194
-66.748
-68.031
-69.053
-69.829
-70.37
-70.692
-70.807
-70.731
-70.478
-70.062
-69.498
-68.799
-67.98
-67.054
-66.035
-64.936
-63.768
-62.544
-61.274
-59.971
-58.642
-57.298
-55.948
-54.598
-53.257
-51.931
-50.626
-49.347
-48.1
-46.888
-45.716
-44.587
-43.503
-42.468
-41.484
-40.552
-39.673
-38.849
-38.081
-37.369
-36.714
-36.116
-35.574
-35.088
-34.659
-34.284
-33.964
-33.696
-33.481
-33.316
-33.201
-33.133
-33.112
-33.137
-33.205
-33.315
-33.466
-33.657
-33.885
-34.149
-34.447
-34.778
-35.139
-35.529
-35.946
-36.387
-36.85
-37.333
-37.834
-38.35
-38.879
-39.418
-39.966
-40.519
-41.075
-41.632
-42.188
-42.741
-43.289
-43.831
-44.365
-44.889
-45.404
-45.907
-46.397
-46.875
-47.338
-47.788
-48.223
-48.643
-49.048
-49.438
-49.812
-50.173
-50.519
-50.852
-51.172
-51.48
-51.778
-52.066
-52.346
-52.618
-52.886
-53.148
-53.408
-53.665
-53.921
-54.178
-54.434
-54.692
-54.95
-55.209
-55.468
-55.726
-55.982
-56.234
-56.479
-56.717
-56.943
-57.156
-57.352
-57.529
-57.682
-57.809
-57.905
-57.966
-57.988
-57.966
-57.896
-57.771
-57.588
-57.341
-57.025
-56.636
-56.169
-55.619
-54.983
-54.256
-53.434
-52.516
-51.498
-50.377
-49.153
-47.826
-46.396
-44.864
-43.233
-41.506
-39.687
-37.781
-35.795
-33.735
-31.607
-29.421
-27.185
-24.91
-22.607
-20.286
-17.961
-15.646
-13.357
-11.111
-8.924
-6.813
-4.795
-2.889
-1.11
0.524
2.001
3.308
4.431
5.358
6.073
6.565
6.824
6.841
6.61
6.125
5.382
4.382
3.134
1.643
-0.083
-2.042
-4.241
-6.678
-9.348
-12.243
-15.347
-18.643
-22.11
-25.716
-29.414
-33.158
-36.901
-40.606
-44.248
-47.793
-51.204
-54.433
-57.419
-60.115
-62.486
-64.501
-66.147
-67.426
-68.355
-68.981
-69.381
-69.634
-69.833
-70.067
-70.419
-70.986
-71.85
-73.115
-74.946
-77.428
-80.569
-84.275
-88.267
-92.197
-95.772
-98.585
-100.125
-100.066
-98.229
-94.764
-90.382
-85.906
-82.075
-79.699
-79.484
-81.784
-86.632
-93.371
-100.339
-105.424
-106.354
-100.717
-86.198
-60.807
-23.04
27.845
90.699
162.458
239.333
316.627
390.791
460.714
525.198
582.358
627.194
650.614
641.944
591.882
497.017
360.16
192.064
9.823
-168.064
-322.577
-440.607
-517.035
-553.815
-558.442
-537.602
-497.296
-442.098
-377.038
-312.204
-257.277
-218.284
-196.763
-186.318
-178.199
-168.044
-154.663
-140.778
-131.105
-126.663
-125.992
-126.889
-126.352
-122.952
-117.009
-109.109
-99.997
-90.418
-80.891
-71.916
-64.157
-58.251
-54.39
-52.47
-52.26
-53.344
-55.338
-57.927
-60.68
-63.139
-65.009
-66.123
-66.416
-65.934
-64.706
-62.739
-60.089
-56.839
-53.087
-48.932
-44.461
-39.755
-34.907
-30.027
-25.238
-20.648
-16.344
-12.386
-8.809
-5.631
-2.862
-0.498
1.478
3.093
4.384
5.391
6.149
6.699
7.087
7.363
7.586
7.808
8.068
8.399
8.828
9.375
10.064
10.91
11.921
13.109
14.485
16.059
17.849
19.867
22.121
24.622
27.373
30.381
33.654
37.197
41.016
45.114
49.492
54.153
59.098
64.325
69.83
75.605
81.639
87.921
94.439
101.176
108.116
115.239
122.525
129.954
137.504
145.151
152.871
160.638
168.425
176.205
183.949
191.629
199.215
206.677
213.986
221.11
228.021
234.69
241.087
247.183
252.952
258.366
263.4
268.029
272.232
275.985
279.271
282.07
284.367
286.147
287.4
288.116
288.286
287.907
286.975
285.489
283.452
280.867
277.741
274.083
269.904
265.216
260.037
254.383
248.274
241.733
234.782
227.447
219.754
211.732
203.409
194.817
185.985
176.946
167.732
158.375
148.909
139.366
129.778
120.179
110.598
101.068
91.619
82.278
73.075
64.035
55.182
46.542
38.134
29.98
22.097
14.501
7.207
0.228
-6.428
-12.75
-18.733
-24.372
-29.664
-34.609
-39.207
-43.46
-47.373
-50.95
-54.198
-57.125
-59.74
-62.053
-64.075
-65.819
-67.297
-68.522
-69.509
-70.271
-70.824
-71.182
-71.36
-71.373
-71.235
-70.96
-70.564
-70.058
-69.458
-68.774
-68.02
-67.205
-66.342
-65.44
-64.507
-63.553
-62.586
-61.611
-60.636
-59.666
-58.707
-57.763
-56.838
-55.935
-55.057
-54.208
-53.387
-52.598
-51.84
-51.115
-50.422
-49.762
-49.133
-48.537
-47.97
-47.433
-46.925
-46.443
-45.988
-45.556
-45.148
-44.762
-44.396
-44.05
-43.722
-43.412
-43.119
-42.841
-42.579
-42.331
-42.098
-41.878
-41.672
-41.478
-41.297
-41.127
-40.969
-40.822
-40.685
-40.559
-40.442
-40.335
-40.236
-40.147
-40.066
-39.994
-39.93
-39.874
-39.827
-39.787
-39.756
-39.732
-39.716
-39.708
-39.708
-39.715
-39.73
-39.754
-39.786
-39.826
-39.874
-39.931
-39.997
-40.073
-40.157
-40.252
-40.357
-40.473
-40.601
-40.742
-40.896
-41.064
-41.246
-41.443
-41.656
-41.885
-42.131
-42.392
-42.67
-42.964
-43.274
-43.6
-43.941
-44.295
-44.662
-45.04
-45.427
-45.82
-46.217
-46.615
-47.011
-47.4
-47.781
-48.147
-48.496
-48.822
-49.121
-49.388
-49.618
-49.804
-49.942
-50.024
-50.047
-50.003
-49.889
-49.698
-49.426
-49.068
-48.619
-48.076
-47.435
-46.692
-45.844
-44.889
-43.825
-42.652
-41.369
-39.978
-38.48
-36.878
-35.176
-33.378
-31.491
-29.521
-27.474
-25.359
-23.186
-20.965
-18.706
-16.423
-14.128
-11.837
-9.567
-7.332
-5.151
-3.039
-1.014
0.908
2.71
4.379
5.901
7.264
8.452
9.452
10.25
10.836
11.199
11.33
11.223
10.872
10.274
9.436
8.36
7.05
5.508
3.728
1.708
-0.544
-3.023
-5.715
-8.605
-11.675
-14.895
-18.222
-21.614
-25.029
-28.431
-31.794
-35.087
-38.268
-41.294
-44.108
-46.663
-48.928
-50.873
-52.476
-53.733
-54.658
-55.29
-55.705
-55.982
-56.198
-56.438
-56.781
-57.326
-58.167
-59.402
-61.16
-63.516
-66.488
-70.029
-73.955
-78.005
-81.916
-85.361
-87.925
-89.307
-89.303
-87.915
-85.553
-82.772
-80.093
-78.012
-77.044
-77.654
-80.131
-84.337
-88.745
-90.753
-88.068
-79.227
-65.056
-47.499
-26.261
1.715
42.806
102.648
180.641
270.438
360.504
440.699
508.13
563.609
609.81
644.934
658.429
637.774
572.39
459.194
307.499
133.532
-43.169
-202.704
-332.532
-426.595
-483.08
-507.526
-504.871
-477.816
-433.43
-376.694
-315.005
-261.073
-219.388
-190.805
-174.004
-160.109
-146.595
-135.31
-124.977
-118.513
-115.126
-110.319
-105.228
-99.578
-93.541
-89.602
-85.979
-81.403
-76.052
-69.107
-61.775
-55.371
-50.12
-46.657
-45.055
-44.933
-46.122
-48.29
-50.999
-53.977
-56.925
-59.45
-61.315
-62.395
-62.625
-62.066
-60.791
-58.832
-56.261
-53.178
-49.681
-45.896
-41.95
-37.955
-34.035
-30.289
-26.795
-23.635
-20.862
-18.511
-16.601
-15.125
-14.065
-13.408
-13.13
-13.202
-13.592
-14.251
-15.126
-16.161
-17.297
-18.481
-19.673
-20.83
-21.92
-22.917
-23.795
-24.541
-25.141
-25.58
-25.839
-25.901
-25.747
-25.362
-24.732
-23.843
-22.686
-21.249
-19.523
-17.496
-15.161
-12.508
-9.53
-6.22
-2.573
1.416
5.744
10.411
15.409
20.731
26.368
32.308
38.537
45.04
51.799
58.798
66.016
73.434
81.027
88.772
96.644
104.615
112.659
120.746
128.847
136.93
144.965
152.92
160.764
168.464
175.989
183.307
190.387
197.197
203.709
209.892
215.72
221.165
226.202
230.808
234.961
238.641
241.83
244.512
246.673
248.301
249.387
249.924
249.906
249.331
248.199
246.512
244.275
241.495
238.182
234.349
230.009
225.181
219.883
214.137
207.965
201.393
194.449
187.16
179.556
171.668
163.529
155.171
146.626
137.93
129.116
120.217
111.268
102.301
93.35
84.446
75.621
66.903
58.323
49.906
41.68
33.669
25.894
18.377
11.135
4.187
-2.455
-8.776
-14.767
-20.421
-25.73
-30.691
-35.303
-39.564
-43.478
-47.049
-50.282
-53.184
-55.765
-58.034
-60.003
-61.685
-63.094
-64.244
-65.15
-65.829
-66.297
-66.571
-66.668
-66.604
-66.398
-66.067
-65.626
-65.094
-64.485
-63.815
-63.099
-62.352
-61.586
-60.813
-60.046
-59.294
-58.567
-57.875
-57.223
-56.62
-56.069
-55.578
-55.148
-54.783
-54.484
-54.255
-54.094
-54.001
-53.977
-54.019
-54.125
-54.294
-54.523
-54.807
-55.143
-55.528
-55.956
-56.424
-56.926
-57.457
-58.012
-58.586
-59.174
-59.772
-60.373
-60.974
-61.57
-62.157
-62.73
-63.285
-63.819
-64.328
-64.808
-65.256
-65.668
-66.044
-66.378
-66.67
-66.916
-67.115
-67.264
-67.362
-67.407
-67.398
-67.332
-67.209
-67.029
-66.792
-66.497
-66.146
-65.739
-65.279
-64.766
-64.203
-63.592
-62.934
-62.233
-61.49
-60.708
-59.891
-59.041
-58.162
-57.257
-56.333
-55.392
-54.439
-53.479
-52.516
-51.556
-50.604
-49.665
-48.744
-47.846
-46.979
-46.146
-45.355
-44.611
-43.918
-43.281
-42.702
-42.185
-41.73
-41.338
-41.008
-40.74
-40.534
-40.388
-40.301
-40.273
-40.302
-40.39
-40.534
-40.731
-40.977
-41.265
-41.586
-41.933
-42.295
-42.664
-43.026
-43.371
-43.689
-43.975
-44.22
-44.415
-44.544
-44.59
-44.539
-44.385
-44.124
-43.752
-43.269
-42.68
-42
-41.256
-40.475
-39.67
-38.845
-37.99
-37.099
-36.167
-35.195
-34.181
-33.108
-31.956
-30.711
-29.369
-27.924
-26.358
-24.63
-22.674
-20.44
-17.91
-15.092
-12.022
-8.728
-5.252
-1.645
2.021
5.643
9.127
12.402
15.414
18.113
20.429
22.258
23.475
23.985
23.735
22.705
20.898
18.312
14.967
10.916
6.253
1.105
-4.413
-10.22
-16.25
-22.426
-28.656
-34.816
-40.767
-46.404
-51.656
-56.464
-60.792
-64.596
-67.832
-70.496
-72.604
-74.206
-75.365
-76.147
-76.589
-76.72
-76.617
-76.438
-76.444
-76.878
-77.864
-79.379
-81.332
-83.788
-86.812
-90.229
-93.611
-96.355
-97.95
-98.322
-97.668
-95.899
-92.83
-88.541
-83.365
-78.152
-73.964
-71.24
-69.952
-70.194
-72.097
-75.745
-81.08
-87.323
-92.11
-92.531
-86.501
-71.999
-49.849
-23.685
5.82
38.834
78.598
133.937
207.87
299.101
402.894
505.615
596.729
668.253
710.973
721.761
696.311
631.11
529.407
394.992
237.854
71.889
-91.123
-236.843
-356.073
-443.928
-495.861
-513.188
-496.72
-449.763
-382.567
-306.206
-235.501
-182.539
-149.335
-133.062
-125.106
-116.346
-104.882
-92.008
-81.389
-77.433
-80.273
-87.614
-96.676
-104.248
-108.583
-109.606
-107.702
-103.476
-97.615
-90.722
-83.421
-76.553
-70.984
-67.084
-64.835
-64.021
-64.234
-65.105
-66.379
-67.705
-68.687
-69.095
-68.802
-67.782
-66.13
-63.92
-61.184
-57.984
-54.404
-50.53
-46.48
-42.376
-38.299
-34.325
-30.507
-26.885
-23.503
-20.404
-17.617
-15.154
-13.012
-11.186
-9.673
-8.475
-7.583
-6.969
-6.587
-6.381
-6.305
-6.324
-6.409
-6.531
-6.662
-6.774
-6.847
-6.867
-6.824
-6.701
-6.479
-6.135
-5.652
-5.016
-4.22
-3.257
-2.116
-0.786
0.748
2.496
4.469
6.679
9.141
11.872
14.883
18.184
21.774
25.656
29.832
34.307
39.086
44.169
49.545
55.203
61.131
67.312
73.724
80.333
87.093
93.959
100.895
107.877
114.892
121.923
128.951
135.955
142.916
149.832
156.705
163.528
170.29
176.979
183.599
190.174
196.752
203.369
210.033
216.726
223.411
230.05
236.602
243.01
249.202
255.073
260.531
265.504
269.936
273.777
276.959
279.385
280.937
281.525
281.096
279.626
277.117
273.573
269.017
263.505
257.131
250.024
242.295
234.028
225.29
216.147
206.681
197.002
187.229
177.458
167.761
158.198
148.819
139.674
130.796
122.188
113.819
105.639
97.618
89.748
82.035
74.486
67.101
59.869
52.78
45.842
39.062
32.45
26.013
19.749
13.672
7.804
2.185
-3.146
-8.158
-12.837
-17.175
-21.167
-24.811
-28.106
-31.058
-33.684
-35.998
-38.01
-39.732
-41.172
-42.343
-43.264
-43.956
-44.439
-44.732
-44.853
-44.818
-44.646
-44.35
-43.946
-43.445
-42.855
-42.188
-41.456
-40.67
-39.843
-38.985
-38.107
-37.218
-36.33
-35.449
-34.584
-33.74
-32.921
-32.133
-31.377
-30.658
-29.977
-29.334
-28.732
-28.17
-27.648
-27.167
-26.724
-26.32
-25.952
-25.62
-25.322
-25.057
-24.823
-24.619
-24.443
-24.295
-24.173
-24.076
-24.003
-23.95
-23.918
-23.904
-23.906
-23.922
-23.95
-23.99
-24.04
-24.098
-24.165
-24.239
-24.321
-24.409
-24.504
-24.606
-24.715
-24.83
-24.953
-25.084
-25.221
-25.367
-25.521
-25.681
-25.85
-26.024
-26.205
-26.392
-26.582
-26.775
-26.971
-27.17
-27.369
-27.57
-27.772
-27.976
-28.183
-28.392
-28.605
-28.822
-29.044
-29.271
-29.503
-29.743
-29.989
-30.242
-30.504
-30.774
-31.054
-31.345
-31.646
-31.96
-32.286
-32.625
-32.978
-33.346
-33.73
-34.132
-34.552
-34.994
-35.458
-35.948
-36.464
-37.006
-37.576
-38.172
-38.795
-39.441
-40.106
-40.789
-41.485
-42.191
-42.904
-43.62
-44.337
-45.052
-45.765
-46.472
-47.17
-47.853
-48.513
-49.145
-49.739
-50.289
-50.783
-51.215
-51.575
-51.858
-52.062
-52.182
-52.211
-52.138
-51.949
-51.634
-51.19
-50.616
-49.909
-49.075
-48.127
-47.084
-45.984
-44.851
-43.696
-42.526
-41.332
-40.108
-38.85
-37.554
-36.212
-34.817
-33.356
-31.823
-30.224
-28.546
-26.767
-24.84
-22.695
-20.289
-17.614
-14.676
-11.506
-8.147
-4.64
-1.055
2.516
5.993
9.301
12.381
15.199
17.693
19.788
21.385
22.362
22.633
22.16
20.914
18.893
16.113
12.603
8.441
3.748
-1.377
-6.845
-12.584
-18.542
-24.633
-30.748
-36.776
-42.59
-48.094
-53.219
-57.894
-62.05
-65.643
-68.638
-71.052
-72.947
-74.362
-75.338
-75.919
-76.153
-76.132
-75.952
-75.715
-75.53
-75.505
-75.747
-76.385
-77.515
-79.237
-81.683
-84.869
-88.73
-93.146
-97.806
-102.384
-106.639
-110.214
-112.708
-113.92
-113.705
-112.139
-109.822
-107.308
-104.956
-103.169
-102.243
-102.312
-103.5
-105.642
-107.043
-105.008
-97.31
-81.789
-58.599
-31.294
-1.923
29.133
63.74
109.845
173.779
256.85
357.335
464.634
565.628
649.795
705.698
727.572
712.055
655.384
559.281
425.551
261.21
82.124
-94.599
-247.37
-359.244
-427.709
-458.15
-464.035
-459.401
-446.867
-423.426
-385.651
-332.45
-272.401
-217.863
-176.515
-150.989
-136.955
-127.749
-120.13
-113.973
-111.529
-114.389
-121.658
-130.677
-138.126
-141.856
-141.376
-137.149
-130.116
-121.158
-111.023
-100.632
-91.004
-83.061
-77.296
-73.727
-72.121
-72.092
-73.243
-75.239
-77.689
-80.17
-82.404
-84.2
-85.445
-86.146
-86.315
-85.945
-85.064
-83.704
-81.886
-79.661
-77.094
-74.239
-71.167
-67.925
-64.555
-61.119
-57.691
-54.366
-51.227
-48.322
-45.677
-43.314
-41.249
-39.495
-38.052
-36.892
-35.975
-35.268
-34.739
-34.37
-34.135
-33.998
-33.916
-33.839
-33.725
-33.543
-33.269
-32.875
-32.337
-31.634
-30.75
-29.682
-28.425
-26.968
-25.299
-23.401
-21.26
-18.864
-16.204
-13.272
-10.057
-6.552
-2.752
1.346
5.741
10.433
15.424
20.72
26.325
32.24
38.456
44.961
51.736
58.755
65.983
73.382
80.913
88.54
96.235
103.981
111.769
119.591
127.441
135.303
143.148
150.952
158.689
166.341
173.895
181.35
188.716
196.011
203.26
210.474
217.642
224.732
231.683
238.424
244.87
250.95
256.614
261.815
266.51
270.66
274.223
277.146
279.368
280.819
281.41
281.081
279.796
277.554
274.392
270.375
265.591
260.121
254.032
247.385
240.23
232.62
224.602
216.232
207.574
198.705
189.723
180.713
171.745
162.864
154.088
145.413
136.816
128.278
119.789
111.348
102.963
94.652
86.434
78.33
70.363
62.543
54.867
47.335
39.945
32.709
25.647
18.788
12.167
5.819
-0.229
-5.952
-11.339
-16.383
-21.082
-25.442
-29.474
-33.185
-36.582
-39.669
-42.452
-44.937
-47.136
-49.063
-50.733
-52.164
-53.374
-54.379
-55.198
-55.844
-56.332
-56.673
-56.878
-56.956
-56.918
-56.776
-56.543
-56.231
-55.853
-55.418
-54.938
-54.423
-53.887
-53.331
-52.757
-52.165
-51.553
-50.933
-50.319
-49.704
-49.081
-48.476
-47.907
-47.389
-46.945
-46.558
-46.189
-45.861
-45.608
-45.334
-44.928
-44.455
-43.91
-43.272
-42.781
-41.787
-39.656
-37.295
-34.977
-34.365
-37.449
-42.026
-46.628
-49.068
-46.344
-41.112
-35.627
-31.43
-31.074
-32.737
-34.574
-36.175
-36.416
-35.952
-35.628
-35.283
-35.028
-34.809
-34.456
-34.084
-33.782
-33.523
-33.3
-33.126
-32.997
-32.908
-32.854
-32.819
-32.782
-32.752
-32.734
-32.725
-32.726
-32.735
-32.75
-32.774
-32.807
-32.849
-32.898
-32.954
-33.016
-33.084
-33.16
-33.243
-33.333
-33.431
-33.537
-33.651
-33.775
-33.909
-34.053
-34.21
-34.379
-34.564
-34.764
-34.983
-35.222
-35.483
-35.769
-36.081
-36.42
-36.79
-37.19
-37.621
-38.086
-38.583
-39.112
-39.672
-40.263
-40.881
-41.525
-42.191
-42.875
-43.573
-44.28
-44.991
-45.701
-46.404
-47.092
-47.76
-48.401
-49.007
-49.571
-50.084
-50.54
-50.929
-51.243
-51.474
-51.614
-51.654
-51.588
-51.407
-51.104
-50.674
-50.109
-49.405
-48.556
-47.56
-46.414
-45.115
-43.666
-42.065
-40.317
-38.424
-36.392
-34.227
-31.937
-29.531
-27.018
-24.409
-21.717
-18.954
-16.135
-13.275
-10.39
-7.498
-4.619
-1.771
1.024
3.746
6.375
8.89
11.27
13.496
15.552
17.422
19.089
20.538
21.753
22.719
23.424
23.86
24.017
23.889
23.471
22.764
21.775
20.51
18.975
17.174
15.102
12.762
10.164
7.318
4.242
0.956
-2.518
-6.143
-9.87
-13.653
-17.442
-21.198
-24.895
-28.495
-31.958
-35.235
-38.263
-40.998
-43.409
-45.467
-47.159
-48.489
-49.472
-50.158
-50.631
-50.97
-51.267
-51.609
-52.068
-52.742
-53.711
-55.083
-57.007
-59.549
-62.711
-66.407
-70.393
-74.383
-78.105
-81.16
-83.079
-83.542
-82.315
-79.494
-75.66
-71.402
-67.349
-64.258
-62.645
-62.881
-65.352
-69.641
-74.376
-78.134
-78.28
-72.056
-58.378
-35.32
-2.603
38.925
90.779
151.703
220.39
295.678
372.318
447.907
519.858
583.009
632.53
658.593
649.699
598.361
502.055
365.47
200.943
24.29
-147.653
-297.741
-414.134
-490.507
-527.293
-530.771
-507.415
-466.067
-413.666
-357.078
-306.147
-264.86
-234.813
-214.106
-195.207
-175.397
-154.902
-135.417
-121.957
-115.941
-115.889
-120.087
-125.151
-128.884
-130.616
-129.574
-125.771
-119.673
-111.545
-101.898
-91.535
-81.136
-71.438
-63.221
-56.763
-52.009
-48.804
-46.845
-45.863
-45.668
-45.99
-46.494
-46.973
-47.334
-47.567
-47.727
-47.82
-47.791
-47.581
-47.175
-46.591
-45.855
-44.997
-44.02
-42.91
-41.67
-40.321
-38.887
-37.404
-35.889
-34.337
-32.76
-31.184
-29.657
-28.246
-26.99
-25.891
-24.943
-24.133
-23.448
-22.882
-22.417
-22.019
-21.658
-21.309
-20.952
-20.576
-20.162
-19.677
-19.08
-18.323
-17.37
-16.196
-14.778
-13.097
-11.136
-8.882
-6.328
-3.476
-0.325
3.129
6.892
10.971
15.367
20.077
25.097
30.42
36.037
41.939
48.117
54.556
61.245
68.169
75.316
82.67
90.215
97.933
105.803
113.801
121.903
130.084
138.318
146.576
154.831
163.052
171.213
179.283
187.233
195.035
202.658
210.074
217.253
224.168
230.789
237.09
243.043
248.624
253.808
258.571
262.892
266.751
270.13
273.011
275.38
277.225
278.535
279.302
279.518
279.181
278.29
276.844
274.847
272.306
269.228
265.625
261.509
256.895
251.801
246.245
240.249
233.835
227.027
219.852
212.337
204.509
196.4
188.038
179.457
170.687
161.762
152.713
143.573
134.375
125.151
115.932
106.749
97.633
88.612
79.713
70.963
62.388
54.011
45.853
37.935
30.275
22.89
15.793
8.998
2.514
-3.649
-9.486
-14.991
-20.161
-24.995
-29.493
-33.659
-37.495
-41.007
-44.2
-47.084
-49.667
-51.96
-53.973
-55.719
-57.21
-58.46
-59.482
-60.29
-60.899
-61.323
-61.576
-61.672
-61.625
-61.45
-61.16
-60.767
-60.285
-59.725
-59.099
-58.417
-57.688
-56.923
-56.128
-55.312
-54.482
-53.643
-52.801
-51.961
-51.127
-50.303
-49.49
-48.693
-47.911
-47.146
-46.4
-45.672
-44.962
-44.271
-43.599
-42.944
-42.308
-41.688
-41.086
-40.499
-39.927
-39.37
-38.827
-38.297
-37.78
-37.275
-36.782
-36.301
-35.832
-35.376
-34.933
-34.504
-34.09
-33.691
-33.309
-32.944
-32.599
-32.274
-31.971
-31.692
-31.439
-31.212
-31.015
-30.848
-30.714
-30.612
-30.544
-30.51
-30.512
-30.549
-30.622
-30.73
-30.874
-31.054
-31.27
-31.521
-31.807
-32.128
-32.483
-32.871
-33.292
-33.744
-34.227
-34.74
-35.282
-35.852
-36.449
-37.072
-37.72
-38.391
-39.083
-39.795
-40.525
-41.27
-42.029
-42.799
-43.579
-44.368
-45.163
-45.963
-46.766
-47.571
-48.376
-49.179
-49.979
-50.772
-51.556
-52.329
-53.088
-53.829
-54.55
-55.248
-55.917
-56.555
-57.157
-57.717
-58.232
-58.695
-59.101
-59.445
-59.72
-59.921
-60.043
-60.081
-60.03
-59.886
-59.643
-59.298
-58.847
-58.285
-57.609
-56.814
-55.899
-54.859
-53.694
-52.402
-50.984
-49.438
-47.766
-45.97
-44.053
-42.019
-39.873
-37.619
-35.265
-32.818
-30.287
-27.684
-25.019
-22.305
-19.557
-16.791
-14.022
-11.27
-8.55
-5.88
-3.278
-0.76
1.654
3.95
6.112
8.125
9.973
11.643
13.116
14.375
15.412
16.223
16.802
17.145
17.242
17.081
16.672
16.026
15.118
13.922
12.418
10.589
8.456
6.066
3.417
0.493
-2.58
-5.644
-8.721
-11.764
-14.71
-17.776
-20.279
-21.546
-22.446
-23.205
-25.445
-31.135
-38.038
-44.658
-48.814
-47.518
-43.489
-39.075
-35.901
-36.598
-39.43
-42.623
-45.86
-48.11
-50.076
-52.681
-55.885
-59.834
-64.469
-69.498
-74.686
-79.785
-84.501
-88.435
-91.17
-92.419
-91.959
-89.93
-87
-83.751
-80.553
-78.007
-76.737
-76.967
-78.885
-81.429
-81.813
-78.61
-71.227
-59.705
-46.19
-29.021
-3.019
36.111
93.581
167.748
248.733
327.732
395.655
449.664
496.512
539.2
576.519
601.392
596.573
549.43
456.216
319.891
156.456
-15.319
-179.266
-319.493
-428.094
-501.486
-539.127
-544.872
-522.917
-481.078
-428.699
-375.889
-331.909
-299.059
-274.884
-253.116
-227.898
-198.899
-169.238
-143.944
-126.454
-116.452
-111.838
-109.944
-108.722
-107.358
-105.405
-102.394
-98.189
-92.973
-87.048
-80.832
-74.841
-69.475
-65.191
-62.555
-61.714
-62.493
-64.625
-67.707
-71.365
-75.284
-79.064
-82.269
-84.648
-86.102
-86.614
-86.262
-85.093
-83.141
-80.496
-77.284
-73.627
-69.638
-65.421
-61.06
-56.657
-52.341
-48.228
-44.404
-40.928
-37.825
-35.106
-32.779
-30.844
-29.278
-28.05
-27.121
-26.45
-26.005
-25.748
-25.633
-25.612
-25.627
-25.63
-25.584
-25.459
-25.234
-24.891
-24.412
-23.782
-22.996
-22.05
-20.934
-19.641
-18.159
-16.475
-14.585
-12.484
-10.169
-7.633
-4.867
-1.861
1.392
4.897
8.658
12.68
16.968
21.524
26.343
31.42
36.748
42.318
48.13
54.183
60.471
66.975
73.674
80.539
87.544
94.664
101.869
109.119
116.385
123.643
130.882
138.108
145.313
152.478
159.575
166.561
173.408
180.105
186.641
193.013
199.217
205.244
211.103
216.826
222.413
227.844
233.067
237.992
242.556
246.72
250.451
253.739
256.559
258.866
260.63
261.823
262.413
262.372
261.646
260.15
257.848
254.742
250.875
246.341
241.21
235.524
229.329
222.665
215.575
208.119
200.338
192.259
183.926
175.391
166.728
158.044
149.407
140.853
132.393
124
115.666
107.403
99.216
91.109
83.092
75.169
67.365
59.718
52.254
44.985
37.914
31.02
24.305
17.781
11.47
5.404
-0.392
-5.904
-11.114
-16.001
-20.554
-24.766
-28.642
-32.196
-35.441
-38.382
-41.025
-43.372
-45.43
-47.21
-48.726
-49.991
-51.019
-51.825
-52.426
-52.84
-53.083
-53.171
-53.117
-52.93
-52.622
-52.206
-51.692
-51.093
-50.42
-49.683
-48.895
-48.066
-47.208
-46.329
-45.438
-44.543
-43.65
-42.766
-41.896
-41.044
-40.214
-39.41
-38.633
-37.888
-37.174
-36.493
-35.846
-35.233
-34.654
-34.109
-33.596
-33.115
-32.665
-32.245
-31.852
-31.486
-31.146
-30.829
-30.535
-30.261
-30.007
-29.77
-29.549
-29.342
-29.146
-28.96
-28.782
-28.61
-28.443
-28.278
-28.115
-27.951
-27.788
-27.622
-27.454
-27.282
-27.106
-26.925
-26.74
-26.549
-26.354
-26.153
-25.949
-25.74
-25.527
-25.311
-25.094
-24.875
-24.656
-24.438
-24.222
-24.01
-23.802
-23.602
-23.41
-23.229
-23.06
-22.907
-22.771
-22.654
-22.561
-22.492
-22.451
-22.441
-22.464
-22.523
-22.62
-22.757
-22.937
-23.161
-23.432
-23.749
-24.115
-24.53
-24.995
-25.51
-26.073
-26.685
-27.343
-28.046
-28.792
-29.577
-30.399
-31.254
-32.138
-33.047
-33.976
-34.918
-35.869
-36.822
-37.769
-38.704
-39.619
-40.506
-41.355
-42.16
-42.911
-43.6
-44.219
-44.76
-45.215
-45.575
-45.834
-45.984
-46.018
-45.931
-45.717
-45.371
-44.89
-44.271
-43.511
-42.61
-41.567
-40.383
-39.059
-37.6
-36.007
-34.287
-32.444
-30.488
-28.425
-26.267
-24.024
-21.71
-19.339
-16.926
-14.489
-12.044
-9.609
-7.202
-4.842
-2.546
-0.332
1.784
3.783
5.651
7.368
8.917
10.283
11.45
12.404
13.131
13.621
13.864
13.858
13.6
13.088
12.319
11.284
9.979
8.407
6.571
4.481
2.149
-0.405
-3.151
-6.046
-9.047
-12.114
-15.21
-18.308
-21.377
-24.384
-27.286
-30.038
-32.601
-34.946
-37.048
-38.879
-40.433
-41.727
-42.81
-43.767
-44.68
-45.614
-46.631
-47.797
-49.182
-50.87
-52.945
-55.468
-58.499
-62.114
-66.334
-71.133
-76.386
-81.793
-86.97
-91.51
-94.967
-96.902
-97.042
-95.219
-91.508
-86.409
-80.562
-74.699
-69.596
-65.795
-63.627
-63.31
-64.541
-66.288
-66.378
-61.555
-49.036
-27.249
2.567
37.534
76.542
120.406
173.513
240.414
321.258
412.383
505.478
591.166
660.666
705.14
715.738
683.226
603.193
477.183
315.822
138.114
-37.407
-192.292
-315.115
-403.251
-455.6
-477.019
-472.241
-443.811
-398.821
-343.811
-286.898
-237.226
-198.017
-169.003
-146.778
-127.214
-109.714
-95.723
-87.961
-87.841
-94.042
-104.019
-114.338
-122.334
-126.783
-127.317
-124.385
-118.763
-111.219
-102.603
-93.871
-85.958
-79.659
-75.355
-72.967
-72.162
-72.483
-73.483
-74.791
-76.06
-76.946
-77.246
-76.876
-75.802
-74.081
-71.781
-68.935
-65.6
-61.858
-57.78
-53.475
-49.083
-44.711
-40.456
-36.396
-32.566
-29.008
-25.76
-22.845
-20.287
-18.096
-16.263
-14.794
-13.691
-12.946
-12.538
-12.423
-12.535
-12.819
-13.233
-13.736
-14.301
-14.898
-15.498
-16.079
-16.628
-17.129
-17.564
-17.91
-18.139
-18.23
-18.162
-17.92
-17.491
-16.862
-16.017
-14.942
-13.626
-12.054
-10.216
-8.099
-5.687
-2.969
0.061
3.409
7.078
11.068
15.378
20.005
24.943
30.182
35.715
41.529
47.612
53.949
60.523
67.315
74.305
81.471
88.791
96.239
103.789
111.415
119.088
126.781
134.464
142.108
149.682
157.157
164.502
171.687
178.681
185.456
191.981
198.227
204.167
209.773
215.018
219.879
224.332
228.354
231.925
235.029
237.647
239.765
241.372
242.457
243.013
243.036
242.521
241.47
239.884
237.769
235.131
231.982
228.331
224.195
219.588
214.529
209.039
203.139
196.854
190.208
183.228
175.943
168.381
160.572
152.549
144.342
135.984
127.508
118.947
110.333
101.7
93.079
84.502
76
67.601
59.334
51.226
43.302
35.584
28.095
20.853
13.877
7.181
0.78
-5.316
-11.097
-16.555
-21.687
-26.488
-30.957
-35.094
-38.902
-42.384
-45.546
-48.394
-50.937
-53.185
-55.148
-56.84
-58.273
-59.462
-60.422
-61.17
-61.721
-62.093
-62.303
-62.366
-62.301
-62.124
-61.85
-61.496
-61.076
-60.605
-60.095
-59.56
-59.01
-58.457
-57.909
-57.375
-56.862
-56.377
-55.926
-55.514
-55.144
-54.819
-54.543
-54.317
-54.141
-54.016
-53.941
-53.915
-53.936
-54.001
-54.108
-54.253
-54.432
-54.641
-54.875
-55.131
-55.404
-55.688
-55.98
-56.275
-56.569
-56.857
-57.136
-57.402
-57.654
-57.888
-58.103
-58.297
-58.469
-58.617
-58.742
-58.843
-58.918
-58.969
-58.995
-58.997
-58.975
-58.93
-58.863
-58.775
-58.668
-58.543
-58.401
-58.244
-58.073
-57.89
-57.696
-57.495
-57.287
-57.076
-56.864
-56.654
-56.448
-56.249
-56.059
-55.88
-55.715
-55.565
-55.43
-55.313
-55.214
-55.135
-55.078
-55.044
-55.035
-55.051
-55.095
-55.168
-55.27
-55.404
-55.568
-55.765
-55.996
-56.261
-56.563
-56.902
-57.279
-57.694
-58.149
-58.643
-59.175
-59.743
-60.344
-60.976
-61.633
-62.313
-63.01
-63.719
-64.438
-65.161
-65.887
-66.611
-67.329
-68.037
-68.731
-69.404
-70.048
-70.655
-71.213
-71.713
-72.147
-72.507
-72.785
-72.974
-73.066
-73.058
-72.943
-72.715
-72.363
-71.872
-71.228
-70.43
-69.48
-68.385
-67.161
-65.822
-64.382
-62.864
-61.285
-59.651
-57.964
-56.206
-54.359
-52.419
-50.39
-48.29
-46.141
-43.941
-41.689
-39.382
-37.001
-34.535
-31.965
-29.25
-26.372
-23.341
-20.19
-16.99
-13.826
-10.756
-7.825
-5.069
-2.512
-0.201
1.821
3.52
4.844
5.744
6.157
5.995
5.195
3.745
1.657
-1.009
-4.175
-7.786
-11.793
-16.143
-20.799
-25.708
-30.816
-36.082
-41.435
-46.797
-52.076
-57.153
-61.938
-66.373
-70.411
-74.034
-77.236
-80
-82.322
-84.212
-85.669
-86.711
-87.365
-87.664
-87.682
-87.512
-87.265
-87.07
-87.043
-87.301
-87.938
-89.049
-90.764
-93.125
-96.103
-99.603
-103.374
-107.145
-110.713
-113.774
-115.954
-117.066
-116.951
-115.626
-113.612
-111.383
-109.265
-107.63
-106.671
-106.394
-106.95
-108.287
-108.809
-105.883
-97.12
-80.376
-56.734
-30.599
-4.085
23.26
56.274
104.492
172.498
258.222
354.178
447.979
531.051
599.655
650.914
681.611
683.648
647.071
566.887
444.379
291.621
127.084
-32.665
-172.013
-283.836
-368.377
-425.199
-457.86
-467.587
-452.883
-418.304
-369.817
-316.664
-269.576
-232.386
-204.054
-179.839
-154.886
-128.926
-104.901
-87.115
-78.156
-77.526
-83.043
-91.583
-100.512
-108.195
-113.427
-115.802
-115.462
-112.697
-108.032
-102.143
-95.804
-89.888
-85.245
-82.258
-80.835
-80.695
-81.44
-82.721
-84.268
-85.741
-86.744
-87.022
-86.491
-85.173
-83.188
-80.629
-77.531
-73.97
-70.055
-65.92
-61.715
-57.556
-53.512
-49.633
-45.959
-42.529
-39.389
-36.574
-34.093
-31.942
-30.109
-28.59
-27.386
-26.488
-25.87
-25.483
-25.264
-25.163
-25.142
-25.168
-25.211
-25.243
-25.232
-25.157
-25.006
-24.766
-24.42
-23.949
-23.326
-22.53
-21.546
-20.36
-18.962
-17.337
-15.473
-13.356
-10.976
-8.324
-5.388
-2.158
1.377
5.227
9.396
13.887
18.701
23.834
29.286
35.048
41.113
47.47
54.107
61.011
68.167
75.558
83.164
90.965
98.938
107.06
115.305
123.646
132.054
140.501
148.955
157.387
165.764
174.056
182.229
190.251
198.091
205.717
213.097
220.2
226.994
233.451
239.542
245.239
250.517
255.351
259.719
263.599
266.973
269.824
272.139
273.903
275.107
275.743
275.807
275.294
274.206
272.545
270.316
267.526
264.187
260.311
255.914
251.013
245.627
239.779
233.493
226.794
219.71
212.268
204.5
196.437
188.11
179.554
170.801
161.885
152.841
143.703
134.504
125.278
116.058
106.876
97.763
88.75
79.866
71.138
62.592
54.253
46.143
38.284
30.694
23.391
16.389
9.701
3.338
-2.69
-8.377
-13.718
-18.711
-23.353
-27.645
-31.589
-35.189
-38.45
-41.378
-43.981
-46.268
-48.248
-49.933
-51.333
-52.461
-53.329
-53.951
-54.339
-54.507
-54.47
-54.24
-53.832
-53.26
-52.535
-51.673
-50.685
-49.583
-48.38
-47.086
-45.713
-44.269
-42.765
-41.21
-39.612
-37.978
-36.315
-34.632
-32.933
-31.225
-29.514
-27.804
-26.1
-24.406
-22.728
-21.069
-19.432
-17.822
-16.242
-14.695
-13.185
-11.714
-10.286
-8.903
-7.569
-6.286
-5.055
-3.881
-2.765
-1.708
-0.715
0.214
1.077
1.871
2.594
3.245
3.823
4.327
4.755
5.107
5.383
5.582
5.706
5.754
5.728
5.628
5.456
5.215
4.905
4.531
4.095
3.599
3.048
2.446
1.795
1.1
0.365
-0.406
-1.21
-2.042
-2.899
-3.775
-4.668
-5.574
-6.488
-7.407
-8.328
-9.247
-10.162
-11.069
-11.967
-12.853
-13.725
-14.582
-15.422
-16.245
-17.048
-17.831
-18.593
-19.334
-20.054
-20.752
-21.428
-22.083
-22.716
-23.327
-23.917
-24.485
-25.03
-25.551
-26.047
-26.517
-26.958
-27.369
-27.747
-28.089
-28.393
-28.655
-28.87
-29.035
-29.144
-29.192
-29.173
-29.082
-28.911
-28.654
-28.305
-27.857
-27.303
-26.639
-25.856
-24.95
-23.914
-22.742
-21.43
-19.971
-18.363
-16.602
-14.684
-12.607
-10.372
-7.977
-5.425
-2.716
0.145
3.155
6.309
9.598
13.016
16.554
20.2
23.943
27.769
31.664
35.611
39.594
43.593
47.588
51.559
55.485
59.344
63.116
66.777
70.307
73.686
76.896
79.916
82.73
85.317
87.66
89.742
91.55
93.072
94.296
95.213
95.819
96.111
96.093
95.767
95.132
94.186
92.927
91.361
89.497
87.349
84.937
82.282
79.415
76.377
73.212
69.96
66.663
63.348
60.046
56.796
53.644
50.643
47.848
45.293
43.012
41.036
39.366
37.995
36.893
35.992
35.234
34.567
33.92
33.234
32.441
31.446
30.181
28.55
26.407
23.688
20.384
16.569
12.514
8.529
4.887
1.983
0.263
0.004
1.414
4.388
8.301
12.525
16.466
19.43
20.878
20.438
17.859
13.531
8.763
5.115
4.413
8.652
19.613
39.224
69.345
111.166
164.296
226.612
294.855
364.949
434.206
501.892
567.537
629.975
683.906
719.206
723.235
684.218
597.512
466.236
302.079
122.504
-56.131
-217.427
-350.069
-448.132
-507.462
-530.487
-520.916
-484.192
-430.579
-369.23
-311.079
-265.587
-234.709
-217.036
-206.816
-196.861
-185.234
-172.566
-161.494
-155.714
-155.53
-159.209
-164.318
-167.922
-168.543
-166.175
-161.323
-154.784
-147.29
-139.402
-131.777
-125.19
-120.37
-117.639
-116.919
-117.937
-120.255
-123.449
-127.174
-130.997
-134.482
-137.351
-139.426
-140.638
-141.029
-140.627
-139.446
-137.538
-134.97
-131.816
-128.177
-124.145
-119.813
-115.295
-110.698
-106.141
-101.724
-97.525
-93.615
-90.04
-86.822
-83.973
-81.498
-79.384
-77.621
-76.186
-75.044
-74.16
-73.496
-73.004
-72.639
-72.347
-72.08
-71.8
-71.475
-71.076
-70.582
-69.971
-69.225
-68.335
-67.286
-66.063
-64.657
-63.052
-61.24
-59.212
-56.958
-54.471
-51.742
-48.762
-45.52
-42.006
-38.212
-34.13
-29.752
-25.076
-20.104
-14.837
-9.278
-3.43
2.709
9.133
15.829
22.78
29.968
37.37
44.954
52.681
60.494
68.349
76.215
84.064
91.884
99.659
107.369
114.998
122.532
129.959
137.272
144.458
151.495
158.381
165.123
171.751
178.322
184.864
191.375
197.84
204.22
210.47
216.544
222.37
227.862
232.942
237.541
241.605
245.108
247.995
250.2
251.637
252.194
251.795
250.41
248.018
244.629
240.274
234.999
228.891
222.078
214.665
206.74
198.379
189.628
180.558
171.256
161.819
152.358
142.965
133.704
124.635
115.811
107.255
98.98
90.964
83.15
75.502
68.006
60.657
53.469
46.446
39.581
32.87
26.31
19.896
13.633
7.518
1.547
-4.271
-9.92
-15.373
-20.586
-25.529
-30.186
-34.546
-38.607
-42.369
-45.833
-49.004
-51.896
-54.521
-56.888
-59.006
-60.879
-62.519
-63.939
-65.156
-66.188
-67.053
-67.767
-68.343
-68.795
-69.136
-69.376
-69.524
-69.586
-69.567
-69.477
-69.321
-69.11
-68.85
-68.548
-68.21
-67.844
-67.456
-67.049
-66.629
-66.197
-65.758
-65.313
-64.865
-64.416
-63.966
-63.517
-63.069
-62.625
-62.183
-61.744
-61.308
-60.874
-60.441
-60.009
-59.577
-59.143
-58.707
-58.268
-57.827
-57.382
-56.935
-56.484
-56.032
-55.577
-55.12
-54.662
-54.204
-53.745
-53.287
-52.83
-52.375
-51.923
-51.476
-51.034
-50.598
-50.169
-49.749
-49.337
-48.936
-48.545
-48.166
-47.8
-47.449
-47.113
-46.796
-46.498
-46.223
-45.971
-45.746
-45.55
-45.385
-45.253
-45.156
-45.096
-45.076
-45.097
-45.16
-45.267
-45.419
-45.617
-45.863
-46.157
-46.5
-46.892
-47.334
-47.827
-48.371
-48.966
-49.612
-50.31
-51.06
-51.86
-52.711
-53.61
-54.558
-55.551
-56.587
-57.663
-58.775
-59.918
-61.088
-62.28
-63.487
-64.704
-65.923
-67.137
-68.34
-69.524
-70.681
-71.803
-72.882
-73.911
-74.882
-75.786
-76.615
-77.361
-78.018
-78.576
-79.03
-79.371
-79.592
-79.688
-79.65
-79.475
-79.156
-78.688
-78.068
-77.293
-76.36
-75.27
-74.02
-72.614
-71.053
-69.341
-67.482
-65.484
-63.354
-61.099
-58.729
-56.256
-53.691
-51.047
-48.339
-45.581
-42.789
-39.981
-37.175
-34.389
-31.642
-28.953
-26.341
-23.825
-21.423
-19.151
-17.028
-15.068
-13.29
-11.71
-10.343
-9.205
-8.309
-7.665
-7.284
-7.173
-7.334
-7.766
-8.467
-9.437
-10.68
-12.196
-13.981
-16.028
-18.328
-20.866
-23.622
-26.571
-29.673
-32.888
-36.18
-39.514
-42.867
-46.213
-49.52
-52.748
-55.856
-58.8
-61.55
-64.083
-66.363
-68.376
-70.137
-71.678
-73.07
-74.384
-75.653
-76.919
-78.234
-79.651
-81.259
-83.148
-85.37
-88.02
-91.214
-95.011
-99.419
-104.291
-109.257
-113.904
-117.835
-120.604
-121.789
-121.092
-118.409
-114.105
-109.002
-104.063
-100.203
-98.175
-98.631
-101.988
-108.119
-116.001
-123.777
-129.033
-129.18
-121.992
-105.32
-77.162
-36.335
17.176
82.334
155.997
233.097
308.848
377.713
435.681
482.994
519.151
542.735
550.748
533.091
479.869
386.255
251.407
86.491
-89.933
-258.598
-399.53
-501.284
-561.309
-583.816
-577.945
-550.742
-508.846
-456.918
-399.882
-346.799
-302.865
-270.39
-248.359
-230.132
-212.485
-195.351
-179.961
-170.015
-166.462
-167.801
-171.899
-175.74
-177.425
-176.192
-171.916
-165.206
-156.733
-147.049
-136.874
-126.901
-117.863
-110.566
-105.35
-102.158
-100.763
-100.776
-101.86
-103.759
-106.128
-108.546
-110.692
-112.351
-113.429
-113.96
-113.965
-113.443
-112.417
-110.923
-109.03
-106.816
-104.351
-101.69
-98.868
-95.916
-92.888
-89.855
-86.908
-84.149
-81.636
-79.4
-77.466
-75.846
-74.547
-73.569
-72.881
-72.436
-72.194
-72.117
-72.178
-72.359
-72.624
-72.933
-73.242
-73.499
-73.665
-73.715
-73.618
-73.35
-72.888
-72.214
-71.32
-70.207
-68.867
-67.295
-65.48
-63.414
-61.088
-58.501
-55.65
-52.533
-49.149
-45.499
-41.584
-37.409
-32.977
-28.292
-23.362
-18.189
-12.784
-7.156
-1.317
4.718
10.935
17.316
23.844
30.5
37.263
44.113
51.028
57.988
64.969
71.949
78.904
85.81
92.645
99.383
106.001
112.474
118.778
124.89
130.787
136.444
141.841
146.955
151.766
156.254
160.402
164.192
167.609
170.639
173.268
175.487
177.285
178.655
179.59
180.087
180.144
179.76
178.936
177.676
175.985
173.869
171.338
168.402
165.073
161.365
157.293
152.873
148.126
143.069
137.726
132.118
126.269
120.202
113.944
107.519
100.953
94.273
87.505
80.676
73.81
66.934
60.074
53.254
46.498
39.83
33.273
26.847
20.573
14.472
8.56
2.855
-2.628
-7.873
-12.869
-17.602
-22.064
-26.245
-30.138
-33.736
-37.035
-40.031
-42.724
-45.112
-47.195
-48.976
-50.457
-51.642
-52.535
-53.142
-53.47
-53.524
-53.313
-52.844
-52.126
-51.168
-49.979
-48.569
-46.948
-45.126
-43.112
-40.919
-38.555
-36.033
-33.362
-30.553
-27.618
-24.567
-21.411
-18.161
-14.827
-11.42
-7.951
-4.43
-0.866
2.73
6.349
9.981
13.617
17.247
20.863
24.455
28.016
31.535
35.006
38.42
41.769
45.046
48.243
51.353
54.37
57.287
60.098
62.798
65.382
67.845
70.183
72.392
74.469
76.412
78.219
79.888
81.418
82.809
84.061
85.173
86.148
86.987
87.691
88.264
88.706
89.023
89.216
89.291
89.251
89.101
88.845
88.489
88.037
87.496
86.869
86.164
85.384
84.536
83.625
82.656
81.634
80.564
79.451
78.3
77.114
75.898
74.655
73.39
72.105
70.804
69.489
68.164
66.829
65.488
64.143
62.795
61.445
60.096
58.749
57.405
56.066
54.731
53.404
52.084
50.772
49.471
48.181
46.904
45.643
44.398
43.172
41.968
40.789
39.637
38.516
37.429
36.379
35.37
34.407
33.493
32.633
31.83
31.09
30.416
29.815
29.289
28.844
28.484
28.213
28.034
27.952
27.969
28.089
28.314
28.646
29.088
29.64
30.303
31.076
31.96
32.951
34.048
35.246
36.542
37.93
39.404
40.957
42.581
44.268
46.009
47.792
49.608
51.445
53.29
55.13
56.949
58.731
60.461
62.122
63.697
65.171
66.527
67.749
68.824
69.74
70.484
71.043
71.403
71.554
71.485
71.189
70.658
69.889
68.877
67.622
66.13
64.408
62.46
60.29
57.893
55.272
52.432
49.384
46.141
42.721
39.142
35.431
31.631
27.782
23.925
20.097
16.325
12.641
9.089
5.715
2.58
-0.264
-2.785
-4.951
-6.742
-8.154
-9.194
-9.892
-10.313
-10.529
-10.621
-10.674
-10.764
-10.985
-11.435
-12.229
-13.518
-15.385
-17.824
-20.757
-23.986
-27.268
-30.384
-33.028
-34.802
-35.448
-34.862
-33.153
-30.793
-28.286
-26.082
-24.659
-24.361
-25.432
-27.985
-31.669
-35.686
-38.113
-35.924
-26.76
-8.749
17.017
46.336
77.32
109.778
148.49
202.816
277.142
371.38
477.473
580.369
667.479
727.266
753.354
743.72
695.966
612.266
496.081
354.391
199.671
43.479
-100.817
-222.574
-317.379
-382.761
-421.771
-438.354
-433.087
-407.608
-363.48
-305.919
-246.369
-195.405
-159.558
-138.764
-125.673
-113.297
-98.578
-82.561
-70.183
-64.647
-65.88
-71.846
-78.769
-84.025
-86.645
-86.45
-84.02
-79.916
-74.508
-68.35
-62.177
-56.753
-52.794
-50.608
-50.047
-50.796
-52.462
-54.678
-57.134
-59.489
-61.348
-62.44
-62.661
-62.003
-60.553
-58.398
-55.578
-52.15
-48.224
-43.921
-39.379
-34.75
-30.131
-25.598
-21.22
-17.048
-13.141
-9.558
-6.326
-3.45
-0.927
1.253
3.093
4.592
5.772
6.675
7.356
7.876
8.284
8.614
8.9
9.171
9.459
9.789
10.179
10.636
11.17
11.796
12.531
13.393
14.396
15.546
16.852
18.322
19.966
21.796
23.824
26.059
28.513
31.201
34.134
37.325
40.78
44.505
48.507
52.794
57.367
62.22
67.343
72.721
78.336
84.168
90.192
96.37
102.667
109.049
115.484
121.958
128.452
134.945
141.414
147.831
154.181
160.467
166.698
172.878
179.015
185.119
191.212
197.341
203.539
209.823
216.192
222.62
229.072
235.523
241.94
248.286
254.51
260.534
266.265
271.629
276.546
280.926
284.664
287.617
289.657
290.702
290.697
289.62
287.47
284.234
279.917
274.542
268.146
260.79
252.553
243.498
233.7
223.266
212.327
201.059
189.64
178.201
166.843
155.643
144.664
133.977
123.642
113.699
104.183
95.126
86.559
78.515
71.018
64.051
57.571
51.494
45.723
40.187
34.846
29.663
24.617
19.683
14.84
10.081
5.398
0.769
-3.838
-8.458
-13.117
-17.816
-22.535
-27.231
-31.848
-36.341
-40.684
-44.852
-48.835
-52.627
-56.227
-59.641
-62.881
-65.948
-68.828
-71.514
-73.996
-76.277
-78.374
-80.308
-82.112
-83.813
-85.436
-87.002
-88.527
-90.019
-91.485
-92.925
-94.335
-95.717
-97.074
-98.413
-99.738
-101.052
-102.355
-103.645
-104.916
-106.164
-107.383
-108.568
-109.713
-110.815
-111.873
-112.886
-113.854
-114.779
-115.659
-116.493
-117.28
-118.016
-118.701
-119.332
-119.906
-120.422
-120.877
-121.272
-121.606
-121.878
-122.088
-122.237
-122.325
-122.351
-122.316
-122.22
-122.065
-121.851
-121.58
-121.252
-120.869
-120.433
-119.947
-119.412
-118.83
-118.204
-117.535
-116.826
-116.08
-115.298
-114.483
-113.637
-112.763
-111.863
-110.941
-109.998
-109.039
-108.066
-107.083
-106.091
-105.095
-104.096
-103.099
-102.106
-101.12
-100.144
-99.182
-98.238
-97.313
-96.413
-95.541
-94.699
-93.892
-93.122
-92.394
-91.709
-91.072
-90.484
-89.948
-89.468
-89.044
-88.679
-88.374
-88.131
-87.951
-87.835
-87.783
-87.795
-87.871
-88.009
-88.208
-88.466
-88.781
-89.15
-89.569
-90.034
-90.54
-91.083
-91.657
-92.254
-92.868
-93.492
-94.117
-94.735
-95.337
-95.914
-96.456
-96.954
-97.399
-97.781
-98.091
-98.32
-98.458
-98.497
-98.429
-98.246
-97.939
-97.501
-96.926
-96.209
-95.343
-94.326
-93.154
-91.825
-90.338
-88.693
-86.892
-84.937
-82.832
-80.583
-78.195
-75.677
-73.04
-70.294
-67.451
-64.527
-61.537
-58.5
-55.433
-52.355
-49.286
-46.247
-43.259
-40.341
-37.513
-34.796
-32.208
-29.769
-27.499
-25.419
-23.547
-21.901
-20.498
-19.353
-18.48
-17.887
-17.581
-17.565
-17.842
-18.415
-19.293
-20.48
-21.974
-23.773
-25.868
-28.246
-30.889
-33.769
-36.843
-40.071
-43.417
-46.845
-50.328
-53.839
-57.341
-60.793
-64.148
-67.359
-70.39
-73.207
-75.777
-78.08
-80.127
-81.956
-83.639
-85.249
-86.832
-88.43
-90.096
-91.895
-93.908
-96.218
-98.872
-101.929
-105.5
-109.651
-114.387
-119.564
-124.836
-129.799
-134.101
-137.355
-139.099
-138.993
-136.868
-132.961
-128.012
-122.782
-118.006
-114.464
-112.926
-114.169
-117.833
-121.994
-124.475
-122.937
-117.431
-110.457
-101.383
-87.581
-62.441
-16.241
52.916
141.541
241.114
339.041
430.249
513.209
586.237
646.523
683.662
684.785
641.19
550.873
420.269
262.632
93.429
-72.225
-219.224
-336.983
-420.538
-470.01
-491.45
-491.035
-472.922
-440.3
-396.902
-349.785
-306.646
-273.118
-249.552
-230.368
-210.772
-188.828
-165.857
-146.807
-134.592
-128.867
-128.377
-130.594
-133.27
-135.589
-136.803
-136.173
-133.671
-129.543
-123.944
-117.298
-110.189
-103.051
-96.535
-91.38
-87.766
-85.573
-84.592
-84.41
-84.713
-85.294
-85.823
-85.937
-85.425
-84.176
-82.195
-79.588
-76.417
-72.723
-68.571
-64.039
-59.234
-54.274
-49.27
-44.333
-39.54
-34.952
-30.628
-26.619
-22.974
-19.728
-16.887
-14.435
-12.365
-10.669
-9.34
-8.368
-7.716
-7.337
-7.182
-7.193
-7.329
-7.554
-7.831
-8.126
-8.41
-8.657
-8.849
-8.978
-9.026
-8.973
-8.797
-8.475
-7.99
-7.329
-6.475
-5.414
-4.133
-2.616
-0.852
1.171
3.466
6.046
8.924
12.112
15.618
19.449
23.608
28.096
32.912
38.051
43.507
49.27
55.327
61.667
68.272
75.126
82.212
89.509
96.999
104.659
112.467
120.399
128.431
136.536
144.684
152.846
160.987
169.074
177.073
184.95
192.674
200.21
207.526
214.59
221.374
227.846
233.976
239.731
245.072
249.967
254.392
258.332
261.774
264.718
267.163
269.106
270.559
271.526
272.003
271.982
271.44
270.352
268.709
266.514
263.783
260.536
256.774
252.5
247.713
242.399
236.552
230.161
223.194
215.641
207.525
198.888
189.813
180.403
170.733
160.866
150.856
140.746
130.6
120.484
110.452
100.578
90.935
81.606
72.707
64.328
56.513
49.278
42.589
36.381
30.618
25.274
20.323
15.754
11.544
7.67
4.125
0.894
-2.051
-4.754
-7.288
-9.715
-12.062
-14.332
-16.5
-18.513
-20.345
-21.974
-23.376
-24.542
-25.466
-26.147
-26.602
-26.852
-26.905
-26.759
-26.4
-25.811
-24.998
-23.975
-22.767
-21.412
-19.937
-18.368
-16.736
-15.064
-13.37
-11.666
-9.955
-8.233
-6.504
-4.776
-3.062
-1.374
0.282
1.905
3.49
5.028
6.524
7.989
9.437
10.883
12.325
13.741
15.125
16.494
17.828
19.076
20.198
21.152
21.931
22.598
23.168
23.577
23.894
24.358
25.013
25.79
26.72
27.539
28.744
31.813
36.383
41.114
43.732
40.022
30.357
18.94
9.999
9.532
17.76
29.046
39.043
43.009
40.244
34.975
29.757
26.381
25.337
24.899
24.314
23.637
22.815
22.111
21.585
21.006
20.31
19.536
18.682
17.736
16.712
15.62
14.485
13.347
12.222
11.091
9.952
8.807
7.658
6.507
5.356
4.199
3.036
1.871
0.707
-0.457
-1.619
-2.779
-3.935
-5.089
-6.237
-7.38
-8.516
-9.645
-10.763
-11.87
-12.962
-14.037
-15.092
-16.123
-17.128
-18.102
-19.041
-19.942
-20.799
-21.609
-22.367
-23.066
-23.704
-24.273
-24.768
-25.185
-25.518
-25.76
-25.907
-25.954
-25.895
-25.726
-25.443
-25.041
-24.516
-23.865
-23.085
-22.173
-21.129
-19.95
-18.637
-17.192
-15.616
-13.913
-12.086
-10.14
-8.081
-5.918
-3.657
-1.308
1.12
3.615
6.165
8.757
11.378
14.012
16.644
19.256
21.83
24.348
26.79
29.137
31.37
33.469
35.416
37.194
38.787
40.18
41.357
42.301
42.998
43.435
43.599
43.481
43.075
42.372
41.371
40.073
38.485
36.61
34.452
32.008
29.276
26.264
22.98
19.44
15.663
11.673
7.497
3.182
-1.23
-5.696
-10.175
-14.641
-19.066
-23.407
-27.621
-31.651
-35.439
-38.949
-42.152
-45.016
-47.543
-49.743
-51.65
-53.339
-54.876
-56.32
-57.748
-59.22
-60.806
-62.608
-64.705
-67.205
-70.259
-73.915
-78.161
-82.893
-87.811
-92.58
-96.89
-100.309
-102.399
-102.923
-101.733
-99.029
-95.529
-91.901
-88.829
-87.008
-86.791
-88.419
-92.102
-97.324
-102.704
-106.014
-104.03
-93.934
-74.402
-46.541
-12.797
25.256
68.006
120.334
187.072
269.549
365.524
464.804
556.017
629.603
675.806
690.825
671.001
612.396
516.605
384.939
224.642
50.778
-121.521
-272.825
-387.556
-462.028
-498.964
-510.01
-508.561
-499.162
-480.645
-447.798
-396.662
-332.108
-265.688
-209.724
-172.14
-153.027
-145.724
-142.683
-139.791
-136.639
-135.652
-138.46
-143.929
-149.518
-152.329
-151.007
-145.949
-138.077
-128.463
-117.958
-107.323
-97.535
-89.576
-83.944
-80.633
-79.368
-79.714
-81.282
-83.744
-86.673
-89.569
-92.07
-93.959
-95.15
-95.682
-95.595
-94.891
-93.6
-91.775
-89.474
-86.778
-83.766
-80.496
-77.03
-73.431
-69.768
-66.132
-62.632
-59.357
-56.368
-53.697
-51.355
-49.356
-47.709
-46.409
-45.429
-44.727
-44.261
-43.994
-43.898
-43.939
-44.077
-44.26
-44.433
-44.547
-44.567
-44.464
-44.212
-43.787
-43.164
-42.326
-41.266
-39.977
-38.45
-36.672
-34.625
-32.295
-29.673
-26.749
-23.52
-19.98
-16.123
-11.945
-7.444
-2.622
2.517
7.97
13.737
19.821
26.221
32.929
39.925
47.181
54.672
62.373
70.256
78.288
86.428
94.644
102.913
111.229
119.585
127.963
136.331
144.647
152.868
160.965
168.922
176.731
184.37
191.82
199.066
206.112
212.973
219.639
226.066
232.177
237.896
243.173
247.975
252.286
256.086
259.339
262.005
264.051
265.459
266.208
266.266
265.574
264.069
261.726
258.572
254.679
250.116
244.931
239.155
232.815
225.954
218.624
210.87
202.729
194.226
185.402
176.315
167.05
157.699
148.32
138.934
129.534
120.116
110.696
101.297
91.944
82.647
73.418
64.283
55.281
46.454
37.83
29.424
21.233
13.256
5.504
-2
-9.22
-16.13
-22.709
-28.943
-34.814
-40.304
-45.4
-50.1
-54.415
-58.357
-61.932
-65.146
-68.001
-70.501
-72.658
-74.483
-75.992
-77.2
-78.121
-78.772
-79.172
-79.342
-79.3
-79.062
-78.642
-78.055
-77.315
-76.439
-75.441
-74.335
-73.135
-71.856
-70.512
-69.116
-67.68
-66.217
-64.736
-63.246
-61.756
-60.273
-58.805
-57.357
-55.933
-54.54
-53.18
-51.858
-50.576
-49.337
-48.143
-46.995
-45.895
-44.844
-43.842
-42.888
-41.985
-41.131
-40.328
-39.575
-38.873
-38.222
-37.623
-37.075
-36.58
-36.137
-35.746
-35.408
-35.121
-34.887
-34.706
-34.577
-34.5
-34.477
-34.507
-34.59
-34.727
-34.917
-35.161
-35.457
-35.805
-36.204
-36.654
-37.152
-37.698
-38.29
-38.926
-39.603
-40.319
-41.071
-41.856
-42.67
-43.509
-44.371
-45.25
-46.143
-47.045
-47.952
-48.86
-49.766
-50.664
-51.551
-52.423
-53.276
-54.107
-54.913
-55.689
-56.433
-57.143
-57.816
-58.451
-59.045
-59.597
-60.106
-60.571
-60.991
-61.367
-61.697
-61.984
-62.226
-62.426
-62.584
-62.701
-62.779
-62.82
-62.825
-62.795
-62.732
-62.637
-62.511
-62.355
-62.17
-61.957
-61.715
-61.445
-61.145
-60.817
-60.457
-60.065
-59.64
-59.177
-58.676
-58.133
-57.545
-56.909
-56.221
-55.48
-54.68
-53.819
-52.893
-51.898
-50.832
-49.689
-48.468
-47.164
-45.777
-44.303
-42.742
-41.092
-39.354
-37.529
-35.617
-33.622
-31.546
-29.393
-27.168
-24.878
-22.531
-20.133
-17.695
-15.229
-12.745
-10.258
-7.782
-5.332
-2.922
-0.569
1.712
3.903
5.989
7.955
9.787
11.467
12.982
14.315
15.452
16.379
17.083
17.549
17.768
17.73
17.429
16.863
16.033
14.938
13.578
11.95
10.056
7.902
5.497
2.852
-0.018
-3.091
-6.335
-9.706
-13.164
-16.669
-20.188
-23.695
-27.162
-30.557
-33.844
-36.983
-39.942
-42.694
-45.213
-47.474
-49.462
-51.185
-52.684
-54.031
-55.297
-56.543
-57.804
-59.117
-60.535
-62.117
-63.937
-66.067
-68.538
-71.395
-74.73
-78.575
-82.884
-87.478
-91.948
-95.813
-98.701
-100.23
-99.996
-97.75
-93.42
-87.308
-80.238
-73.245
-67.138
-62.497
-60.017
-60.168
-62.817
-67.277
-71.326
-71.356
-65.319
-52.219
-31.749
-5.636
27.533
71.687
128.775
199.903
280.755
361.545
434.78
496.344
545.039
581.932
603.881
600.47
561.133
479.697
356.287
203.118
37.14
-127.362
-274.793
-396.172
-488.026
-544.976
-568.611
-561.412
-524.094
-465.657
-394.7
-321.974
-262.708
-222.252
-200.777
-193.554
-188.932
-181.814
-171.924
-161.049
-154.747
-154.641
-158.608
-164.176
-167.94
-168.011
-164.613
-158.363
-150.016
-140.365
-130.068
-119.789
-110.336
-102.493
-96.571
-92.522
-90.173
-89.164
-89.12
-89.762
-90.704
-91.505
-91.915
-91.78
-91.032
-89.732
-87.914
-85.581
-82.78
-79.57
-76.004
-72.163
-68.115
-63.903
-59.599
-55.271
-50.997
-46.885
-43.017
-39.455
-36.249
-33.417
-30.968
-28.917
-27.261
-25.982
-25.061
-24.459
-24.142
-24.084
-24.249
-24.598
-25.083
-25.644
-26.23
-26.803
-27.328
-27.775
-28.119
-28.333
-28.396
-28.299
-28.027
-27.565
-26.897
-25.999
-24.853
-23.443
-21.756
-19.778
-17.499
-14.905
-11.989
-8.747
-5.176
-1.27
2.979
7.583
12.545
17.858
23.514
29.501
35.8
42.385
49.219
56.248
63.431
70.736
78.14
85.63
93.191
100.803
108.449
116.114
123.784
131.452
139.1
146.703
154.254
161.756
169.232
176.735
184.286
191.876
199.483
207.066
214.569
221.941
229.105
235.964
242.433
248.435
253.909
258.819
263.104
266.69
269.485
271.369
272.261
272.123
270.928
268.676
265.391
261.113
255.919
249.932
243.251
235.96
228.129
219.804
211.049
201.951
192.604
183.117
173.581
164.06
154.614
145.297
136.138
127.151
118.32
109.592
100.937
92.345
83.816
75.37
67.017
58.757
50.594
42.531
34.572
26.729
19.01
11.417
3.967
-3.318
-10.4
-17.23
-23.77
-29.998
-35.895
-41.455
-46.67
-51.535
-56.051
-60.228
-64.071
-67.587
-70.782
-73.657
-76.22
-78.484
-80.463
-82.174
-83.634
-84.858
-85.86
-86.653
-87.252
-87.668
-87.913
-87.993
-87.919
-87.702
-87.353
-86.886
-86.311
-85.639
-84.883
-84.054
-83.161
-82.215
-81.223
-80.193
-79.132
-78.045
-76.938
-75.816
-74.683
-73.543
-72.4
-71.255
-70.112
-68.972
-67.837
-66.707
-65.583
-64.467
-63.357
-62.255
-61.16
-60.071
-58.989
-57.912
-56.84
-55.773
-54.708
-53.644
-52.579
-51.513
-50.442
-49.364
-48.279
-47.183
-46.076
-44.956
-43.823
-42.676
-41.514
-40.337
-39.145
-37.938
-36.716
-35.481
-34.233
-32.974
-31.703
-30.424
-29.138
-27.846
-26.55
-25.253
-23.957
-22.664
-21.376
-20.097
-18.828
-17.574
-16.336
-15.118
-13.924
-12.757
-11.62
-10.517
-9.452
-8.427
-7.447
-6.514
-5.631
-4.801
-4.028
-3.312
-2.657
-2.064
-1.535
-1.071
-0.672
-0.34
-0.075
0.124
0.257
0.325
0.329
0.27
0.151
-0.027
-0.261
-0.548
-0.885
-1.268
-1.694
-2.158
-2.656
-3.181
-3.73
-4.296
-4.874
-5.456
-6.038
-6.611
-7.169
-7.705
-8.213
-8.684
-9.11
-9.487
-9.805
-10.058
-10.24
-10.345
-10.367
-10.301
-10.14
-9.881
-9.52
-9.053
-8.475
-7.785
-6.981
-6.061
-5.025
-3.873
-2.605
-1.223
0.271
1.873
3.579
5.384
7.282
9.267
11.329
13.46
15.65
17.886
20.156
22.447
24.742
27.026
29.283
31.495
33.647
35.72
37.698
39.567
41.31
42.913
44.362
45.64
46.734
47.627
48.308
48.764
48.983
48.957
48.679
48.147
47.359
46.315
45.014
43.449
41.617
39.518
37.158
34.545
31.694
28.626
25.372
21.971
18.465
14.896
11.299
7.701
4.133
0.623
-2.787
-6.053
-9.131
-11.982
-14.58
-16.899
-18.934
-20.7
-22.241
-23.635
-24.956
-26.27
-27.634
-29.108
-30.756
-32.651
-34.882
-37.516
-40.636
-44.357
-48.704
-53.648
-59.048
-64.577
-69.856
-74.513
-78.118
-80.246
-80.684
-79.323
-76.344
-72.402
-68.136
-64.192
-61.217
-59.518
-59.208
-60.357
-62.481
-64.342
-63.922
-58.237
-44.689
-22.237
7.828
42.667
80.774
123.154
174.012
237.83
314.761
400.575
487.126
565.718
630.648
677.049
699.918
692.724
647.784
561.718
436.498
281.143
111.112
-57.097
-206.688
-324.582
-405.385
-450.966
-468.872
-468.743
-456.36
-430.607
-390.401
-336.451
-274.523
-218.18
-176.179
-151.354
-141.038
-135.075
-127.405
-116.949
-104.701
-95.065
-89.934
-87.88
-87.186
-85.597
-81.862
-76.387
-69.885
-63.016
-56.305
-50.174
-44.999
-41.209
-39.295
-39.341
-41.109
-44.298
-48.49
-53.283
-58.359
-63.335
-67.767
-71.383
-74.057
-75.735
-76.48
-76.338
-75.328
-73.524
-71.04
-67.994
-64.507
-60.702
-56.681
-52.557
-48.463
-44.511
-40.799
-37.404
-34.364
-31.704
-29.433
-27.548
-26.034
-24.867
-24.012
-23.426
-23.07
-22.898
-22.861
-22.908
-22.978
-23.021
-22.996
-22.87
-22.617
-22.216
-21.648
-20.898
-19.956
-18.811
-17.452
-15.867
-14.038
-11.953
-9.601
-6.973
-4.06
-0.855
2.652
6.47
10.605
15.063
19.85
24.97
30.426
36.219
42.345
48.798
55.571
62.651
70.027
77.686
85.609
93.779
102.175
110.778
119.564
128.51
137.59
146.776
156.04
165.353
174.682
183.997
193.264
202.45
211.521
220.442
229.181
237.701
245.97
253.955
261.621
268.939
275.878
282.408
288.501
294.133
299.278
303.916
308.025
311.589
314.591
317.018
318.861
320.109
320.758
320.805
320.247
319.087
317.329
314.981
312.051
308.551
304.496
299.903
294.791
289.182
283.099
276.569
269.617
262.272
254.566
246.528
238.192
229.59
220.756
211.723
202.526
193.198
183.774
174.286
164.768
155.251
145.766
136.344
127.013
117.802
108.737
99.841
91.14
82.654
74.402
66.404
58.674
51.228
44.077
37.232
30.701
24.49
18.604
13.046
7.817
2.916
-1.659
-5.911
-9.844
-13.466
-16.783
-19.803
-22.536
-24.99
-27.177
-29.109
-30.796
-32.251
-33.486
-34.516
-35.351
-36.007
-36.496
-36.831
-37.027
-37.095
-37.048
-36.9
-36.662
-36.346
-35.962
-35.523
-35.037
-34.515
-33.965
-33.397
-32.817
-32.235
-31.657
-31.089
-30.538
-30.009
-29.509
-29.042
-28.613
-28.226
-27.886
-27.595
-27.357
-27.176
-27.052
-26.988
-26.986
-27.047
-27.171
-27.358
-27.609
-27.924
-28.3
-28.738
-29.235
-29.791
-30.404
-31.072
-31.793
-32.564
-33.384
-34.25
-35.159
-36.108
-37.095
-38.117
-39.17
-40.25
-41.355
-42.48
-43.622
-44.776
-45.939
-47.107
-48.276
-49.442
-50.603
-51.754
-52.894
-54.019
-55.128
-56.219
-57.291
-58.343
-59.375
-60.386
-61.377
-62.349
-63.302
-64.238
-65.156
-66.06
-66.95
-67.828
-68.696
-69.556
-70.411
-71.262
-72.112
-72.965
-73.821
-74.685
-75.559
-76.446
-77.349
-78.269
-79.21
-80.174
-81.162
-82.175
-83.214
-84.28
-85.37
-86.485
-87.62
-88.773
-89.941
-91.119
-92.302
-93.484
-94.66
-95.822
-96.965
-98.081
-99.163
-100.203
-101.194
-102.126
-102.994
-103.787
-104.498
-105.118
-105.64
-106.056
-106.357
-106.537
-106.587
-106.501
-106.273
-105.896
-105.365
-104.676
-103.824
-102.808
-101.626
-100.278
-98.764
-97.089
-95.256
-93.271
-91.139
-88.867
-86.463
-83.937
-81.301
-78.566
-75.743
-72.844
-69.885
-66.883
-63.857
-60.827
-57.809
-54.822
-51.885
-49.021
-46.255
-43.606
-41.093
-38.73
-36.531
-34.513
-32.693
-31.085
-29.697
-28.534
-27.592
-26.874
-26.38
-26.104
-26.039
-26.166
-26.457
-26.892
-27.452
-28.139
-28.965
-29.93
-31.023
-32.226
-33.504
-34.854
-36.322
-37.878
-39.405
-40.802
-41.942
-42.811
-43.576
-44.278
-44.764
-45.039
-45.276
-45.729
-46.865
-48.867
-51.373
-54.176
-57.347
-60.754
-64.09
-66.806
-67.832
-66.493
-63.039
-57.76
-50.797
-42.525
-33.361
-24.017
-15.926
-10.204
-6.962
-6.061
-7.308
-10.291
-14.778
-20.523
-26.685
-32.565
-38.114
-43.505
-49.016
-55.067
-61.78
-67.88
-71.104
-69.386
-60.354
-44.581
-26.172
-6.395
15.288
43.939
90.972
161.544
255.117
365.575
477.352
579.202
663.109
720.451
748.2
739.527
687.38
592.299
456.95
293.429
119.514
-50
-198.9
-318.757
-408.351
-466.427
-498.028
-506.009
-489.515
-453.263
-401.258
-341.074
-285.874
-242.183
-212.797
-196.374
-185.131
-175.244
-165.994
-158.03
-155.04
-157.871
-164.696
-173.134
-179.71
-182.226
-180.329
-174.265
-164.827
-153.001
-139.591
-125.554
-112.014
-99.976
-90.038
-82.371
-76.859
-73.182
-70.986
-69.92
-69.59
-69.631
-69.825
-70.083
-70.354
-70.629
-70.897
-71.114
-71.244
-71.252
-71.051
-70.574
-69.792
-68.696
-67.318
-65.701
-63.865
-61.821
-59.592
-57.199
-54.677
-52.068
-49.393
-46.681
-43.98
-41.353
-38.877
-36.611
-34.577
-32.775
-31.196
-29.827
-28.662
-27.682
-26.86
-26.169
-25.583
-25.08
-24.648
-24.262
-23.889
-23.487
-23.007
-22.412
-21.677
-20.782
-19.706
-18.434
-16.947
-15.236
-13.299
-11.129
-8.715
-6.045
-3.105
0.11
3.6
7.366
11.407
15.726
20.331
25.22
30.384
35.817
41.507
47.441
53.6
59.951
66.448
73.054
79.742
86.49
93.288
100.123
106.973
113.825
120.665
127.481
134.269
141.014
147.692
154.298
160.834
167.323
173.815
180.328
186.853
193.367
199.828
206.185
212.39
218.37
224.032
229.295
234.082
238.335
242.019
245.076
247.436
249.011
249.687
249.391
248.088
245.759
242.406
238.053
232.737
226.536
219.57
211.937
203.724
195.001
185.815
176.234
166.348
156.251
146.054
135.849
125.701
115.674
105.826
96.191
86.795
77.627
68.645
59.826
51.168
42.676
34.374
26.276
18.385
10.706
3.243
-3.997
-11.004
-17.77
-24.296
-30.57
-36.574
-42.281
-47.646
-52.642
-57.254
-61.473
-65.302
-68.742
-71.797
-74.478
-76.805
-78.793
-80.461
-81.824
-82.897
-83.696
-84.246
-84.569
-84.696
-84.651
-84.458
-84.14
-83.72
-83.217
-82.651
-82.037
-81.388
-80.717
-80.036
-79.358
-78.695
-78.057
-77.452
-76.888
-76.372
-75.907
-75.498
-75.145
-74.848
-74.603
-74.409
-74.263
-74.158
-74.089
-74.049
-74.033
-74.031
-74.037
-74.042
-74.037
-74.014
-73.964
-73.878
-73.75
-73.571
-73.335
-73.036
-72.668
-72.228
-71.712
-71.118
-70.443
-69.688
-68.853
-67.938
-66.945
-65.877
-64.738
-63.532
-62.264
-60.942
-59.572
-58.161
-56.717
-55.249
-53.764
-52.273
-50.784
-49.306
-47.848
-46.418
-45.026
-43.681
-42.39
-41.162
-40.003
-38.921
-37.922
-37.01
-36.19
-35.467
-34.843
-34.321
-33.901
-33.585
-33.372
-33.263
-33.254
-33.345
-33.531
-33.811
-34.179
-34.63
-35.161
-35.765
-36.436
-37.169
-37.958
-38.796
-39.676
-40.592
-41.536
-42.503
-43.485
-44.474
-45.466
-46.452
-47.427
-48.385
-49.32
-50.226
-51.099
-51.933
-52.725
-53.469
-54.163
-54.802
-55.384
-55.905
-56.362
-56.754
-57.076
-57.329
-57.509
-57.615
-57.646
-57.598
-57.472
-57.265
-56.976
-56.603
-56.146
-55.603
-54.974
-54.258
-53.455
-52.565
-51.588
-50.525
-49.375
-48.14
-46.821
-45.419
-43.935
-42.372
-40.73
-39.013
-37.224
-35.366
-33.442
-31.458
-29.416
-27.324
-25.187
-23.011
-20.803
-18.573
-16.327
-14.076
-11.83
-9.599
-7.394
-5.23
-3.119
-1.075
0.888
2.757
4.517
6.155
7.657
9.013
10.212
11.243
12.096
12.761
13.227
13.485
13.526
13.343
12.932
12.286
11.403
10.287
8.942
7.372
5.581
3.566
1.327
-1.129
-3.792
-6.651
-9.687
-12.878
-16.194
-19.589
-23.02
-26.444
-29.823
-33.131
-36.34
-39.411
-42.302
-44.966
-47.359
-49.455
-51.236
-52.674
-53.765
-54.535
-55.032
-55.349
-55.581
-55.785
-56.025
-56.372
-56.896
-57.705
-58.909
-60.573
-62.775
-65.601
-69.07
-73.167
-77.76
-82.49
-86.923
-90.672
-93.308
-94.435
-93.817
-91.302
-87.022
-81.611
-75.853
-70.392
-65.791
-62.602
-61.193
-61.728
-63.907
-65.707
-63.998
-56.391
-41.286
-19.542
6.335
36.6
73.916
123.018
188.604
269.782
361.07
454.619
542.996
621.641
685.314
726.734
735.021
698.343
611.678
477.13
306.557
119.533
-64.303
-225.361
-350.03
-433.635
-477.592
-489.621
-477.83
-447.828
-404.007
-350.746
-295.273
-245.529
-207.253
-181.367
-163.189
-147.838
-132.685
-118.093
-107.752
-103.717
-105.053
-109.493
-113.271
-113.654
-110.16
-103.1
-93.285
-81.718
-69.205
-56.541
-44.829
-35.142
-27.979
-23.472
-21.469
-21.534
-23.245
-26.218
-29.926
-33.83
-37.574
-40.876
-43.556
-45.573
-46.877
-47.433
-47.264
-46.396
-44.859
-42.704
-39.993
-36.793
-33.196
-29.293
-25.181
-20.966
-16.754
-12.666
-8.811
-5.26
-2.062
0.756
3.182
5.204
6.825
8.073
8.986
9.605
9.97
10.113
10.073
9.896
9.633
9.341
9.066
8.841
8.697
8.658
8.746
8.984
9.386
9.96
10.714
11.659
12.809
14.18
15.785
17.634
19.736
22.097
24.727
27.634
30.826
34.307
38.081
42.152
46.522
51.193
56.164
61.428
66.98
72.81
78.907
85.257
91.845
98.655
105.668
112.864
120.224
127.725
135.345
143.058
150.84
158.665
166.504
174.33
182.113
189.823
197.431
204.904
212.214
219.33
226.22
232.855
239.205
245.242
250.938
256.267
261.204
265.724
269.807
273.433
276.583
279.241
281.395
283.031
284.141
284.718
284.757
284.256
283.214
281.633
279.518
276.875
273.714
270.047
265.885
261.247
256.148
250.611
244.656
238.308
231.592
224.535
217.166
209.515
201.611
193.488
185.176
176.708
168.118
159.437
150.698
141.932
133.172
124.447
115.787
107.22
98.774
90.473
82.344
74.407
66.684
59.195
51.957
44.986
38.294
31.895
25.798
20.011
14.54
9.39
4.562
0.059
-4.123
-7.986
-11.533
-14.773
-17.712
-20.359
-22.724
-24.819
-26.657
-28.248
-29.609
-30.752
-31.692
-32.445
-33.025
-33.447
-33.727
-33.879
-33.918
-33.858
-33.713
-33.496
-33.219
-32.894
-32.532
-32.144
-31.74
-31.328
-30.917
-30.515
-30.128
-29.763
-29.423
-29.113
-28.838
-28.598
-28.397
-28.235
-28.114
-28.032
-27.989
-27.985
-28.018
-28.086
-28.186
-28.316
-28.473
-28.653
-28.855
-29.073
-29.305
-29.548
-29.799
-30.054
-30.311
-30.567
-30.82
-31.067
-31.306
-31.534
-31.75
-31.953
-32.14
-32.312
-32.468
-32.608
-32.731
-32.838
-32.929
-33.004
-33.066
-33.113
-33.148
-33.172
-33.186
-33.192
-33.192
-33.187
-33.18
-33.172
-33.165
-33.16
-33.161
-33.168
-33.183
-33.208
-33.244
-33.295
-33.361
-33.445
-33.549
-33.676
-33.825
-33.999
-34.199
-34.424
-34.676
-34.955
-35.26
-35.592
-35.95
-36.335
-36.747
-37.185
-37.65
-38.141
-38.656
-39.196
-39.759
-40.345
-40.951
-41.577
-42.224
-42.889
-43.573
-44.274
-44.991
-45.722
-46.466
-47.219
-47.976
-48.734
-49.487
-50.23
-50.961
-51.676
-52.371
-53.044
-53.695
-54.32
-54.92
-55.492
-56.032
-56.533
-56.989
-57.393
-57.738
-58.02
-58.232
-58.369
-58.424
-58.394
-58.276
-58.068
-57.763
-57.353
-56.825
-56.171
-55.389
-54.484
-53.465
-52.345
-51.142
-49.874
-48.56
-47.227
-45.892
-44.562
-43.237
-41.897
-40.516
-39.096
-37.645
-36.171
-34.697
-33.188
-31.599
-29.975
-28.325
-26.664
-25.021
-23.286
-21.337
-19.236
-17.057
-14.726
-12.254
-9.533
-6.39
-3.079
0.116
3.156
5.939
8.257
9.992
10.798
10.272
8.62
6.087
2.723
-1.29
-5.811
-10.763
-15.822
-20.668
-25.442
-30.279
-35.193
-40.27
-45.426
-50.535
-55.626
-60.704
-65.606
-70.202
-74.401
-78.104
-81.335
-84.151
-86.551
-88.547
-90.154
-91.389
-92.308
-92.989
-93.521
-93.987
-94.453
-95
-95.723
-96.716
-98.085
-99.913
-102.232
-105.106
-108.612
-112.756
-117.508
-122.68
-127.866
-132.64
-136.597
-139.257
-140.193
-139.129
-135.925
-130.915
-124.903
-118.736
-113.23
-109.16
-107.096
-107.254
-109.593
-113.317
-116.593
-117.427
-113.218
-100.511
-77.292
-42.778
2.73
55.26
112.126
173.742
239.956
313.994
396.662
481.668
561.924
625.712
660.622
659.369
615.425
527.977
401.229
242.644
66.762
-109.325
-267.135
-390.329
-471.643
-513.096
-523.419
-514.206
-493.952
-464.055
-425.313
-379.846
-330.54
-285.36
-248.789
-220.036
-198.711
-181.473
-166.702
-156.545
-151.11
-149.954
-151.89
-153.657
-153.007
-148.939
-141.099
-130.167
-117.096
-102.74
-88.021
-73.92
-61.382
-51.194
-43.754
-39.066
-36.875
-36.784
-38.373
-41.213
-44.859
-48.888
-52.972
-56.867
-60.395
-63.426
-65.866
-67.653
-68.755
-69.177
-68.926
-68.02
-66.504
-64.435
-61.891
-58.958
-55.711
-52.219
-48.572
-44.877
-41.248
-37.801
-34.618
-31.743
-29.214
-27.048
-25.249
-23.804
-22.681
-21.835
-21.219
-20.797
-20.529
-20.383
-20.314
-20.273
-20.202
-20.044
-19.75
-19.284
-18.612
-17.71
-16.554
-15.126
-13.419
-11.429
-9.151
-6.575
-3.689
-0.479
3.066
6.951
11.18
15.753
20.673
25.941
31.554
37.507
43.793
50.405
57.341
64.598
72.171
80.046
88.192
96.584
105.196
113.999
122.964
132.055
141.226
150.448
159.703
168.971
178.238
187.473
196.633
205.679
214.569
223.273
231.78
240.067
248.1
255.858
263.325
270.492
277.368
283.926
290.1
295.835
301.076
305.786
309.957
313.568
316.599
319.024
320.809
321.937
322.408
322.206
321.299
319.657
317.232
314.031
310.116
305.536
300.342
294.572
288.24
281.38
274.042
266.264
258.087
249.545
240.658
231.472
222.054
212.469
202.795
193.073
183.299
173.484
163.644
153.8
143.988
134.228
124.528
114.912
105.412
96.061
86.896
77.938
69.191
60.659
52.345
44.263
36.445
28.912
21.682
14.768
8.181
1.933
-3.958
-9.488
-14.664
-19.49
-23.976
-28.127
-31.942
-35.424
-38.581
-41.421
-43.956
-46.196
-48.152
-49.835
-51.261
-52.443
-53.395
-54.133
-54.664
-54.999
-55.151
-55.128
-54.943
-54.607
-54.129
-53.518
-52.785
-51.941
-50.995
-49.956
-48.833
-47.633
-46.364
-45.033
-43.648
-42.215
-40.74
-39.23
-37.69
-36.126
-34.545
-32.951
-31.35
-29.746
-28.146
-26.553
-24.973
-23.409
-21.868
-20.353
-18.869
-17.422
-16.016
-14.656
-13.347
-12.094
-10.902
-9.776
-8.72
-7.738
-6.834
-6.01
-5.272
-4.621
-4.061
-3.593
-3.22
-2.943
-2.763
-2.68
-2.695
-2.808
-3.017
-3.322
-3.721
-4.212
-4.793
-5.462
-6.216
-7.052
-7.966
-8.955
-10.015
-11.142
-12.331
-13.579
-14.879
-16.228
-17.62
-19.05
-20.515
-22.008
-23.526
-25.063
-26.616
-28.179
-29.75
-31.325
-32.899
-34.471
-36.037
-37.595
-39.141
-40.675
-42.194
-43.697
-45.182
-46.648
-48.093
-49.515
-50.914
-52.287
-53.634
-54.952
-56.24
-57.496
-58.717
-59.902
-61.048
-62.153
-63.214
-64.227
-65.191
-66.101
-66.955
-67.748
-68.476
-69.136
-69.723
-70.232
-70.66
-71
-71.249
-71.402
-71.455
-71.402
-71.24
-70.964
-70.57
-70.055
-69.417
-68.652
-67.759
-66.736
-65.583
-64.3
-62.889
-61.351
-59.69
-57.909
-56.013
-54.009
-51.903
-49.703
-47.417
-45.056
-42.631
-40.153
-37.636
-35.093
-32.539
-29.99
-27.463
-24.975
-22.544
-20.189
-17.927
-15.777
-13.755
-11.879
-10.165
-8.627
-7.28
-6.139
-5.22
-4.535
-4.098
-3.917
-4.003
-4.361
-4.996
-5.907
-7.091
-8.543
-10.26
-12.244
-14.493
-16.998
-19.748
-22.731
-25.926
-29.312
-32.856
-36.517
-40.252
-44.023
-47.797
-51.548
-55.249
-58.865
-62.356
-65.68
-68.794
-71.67
-74.286
-76.607
-78.623
-80.35
-81.824
-83.116
-84.288
-85.372
-86.407
-87.441
-88.531
-89.763
-91.217
-92.944
-95.027
-97.57
-100.6
-104.098
-107.922
-111.72
-115.126
-117.804
-119.339
-119.363
-117.722
-114.382
-109.621
-104.165
-98.731
-93.958
-90.599
-89.162
-89.621
-91.821
-95.176
-98.17
-99.282
-96.305
-85.885
-66.368
-37.529
-0.257
42.098
88.697
141.08
199.911
266.538
338.274
409.005
474.645
530.403
571.72
594.698
589.965
546.826
459.137
323.524
148.943
-42.87
-228.161
-379.716
-480.386
-532.109
-544.861
-535.922
-519.012
-494.377
-459.237
-411.881
-355.611
-301.218
-257.819
-227.689
-206.706
-188.208
-168.116
-147.216
-129.951
-119.236
-115.398
-116.949
-120.708
-124.943
-129.037
-132.118
-133.96
-134.421
-133.212
-130.496
-126.45
-120.803
-113.763
-106.061
-98.319
-91.291
-85.456
-80.843
-77.65
-76.307
-76.86
-79
-82.233
-85.764
-89.061
-91.967
-94.26
-95.7
-96.183
-95.675
-94.322
-92.477
-90.365
-88.049
-85.584
-82.975
-80.25
-77.509
-74.803
-72.143
-69.578
-67.154
-64.917
-62.934
-61.229
-59.788
-58.595
-57.613
-56.803
-56.14
-55.602
-55.166
-54.812
-54.513
-54.232
-53.934
-53.573
-53.108
-52.506
-51.734
-50.765
-49.583
-48.172
-46.527
-44.646
-42.523
-40.149
-37.515
-34.609
-31.421
-27.944
-24.173
-20.106
-15.741
-11.078
-6.118
-0.863
4.682
10.513
16.626
23.015
29.673
36.59
43.751
51.143
58.748
66.547
74.521
82.647
90.902
99.26
107.696
116.184
124.696
133.204
141.678
150.087
158.401
166.59
174.62
182.462
190.082
197.45
204.534
211.304
217.731
223.786
229.442
234.674
239.457
243.77
247.591
250.904
253.691
255.938
257.634
258.769
259.338
259.335
258.759
257.612
255.897
253.621
250.793
247.424
243.529
239.124
234.228
228.862
223.049
216.816
210.189
203.197
195.872
188.244
180.348
172.217
163.885
155.389
146.762
138.04
129.259
120.452
111.653
102.896
94.212
85.633
77.188
68.905
60.809
52.927
45.28
37.891
30.776
23.954
17.44
11.245
5.379
-0.148
-5.331
-10.167
-14.653
-18.791
-22.582
-26.031
-29.143
-31.928
-34.392
-36.548
-38.407
-39.982
-41.286
-42.334
-43.142
-43.725
-44.099
-44.28
-44.284
-44.129
-43.829
-43.401
-42.86
-42.222
-41.502
-40.712
-39.868
-38.981
-38.064
-37.128
-36.182
-35.237
-34.301
-33.38
-32.482
-31.613
-30.776
-29.976
-29.216
-28.498
-27.825
-27.196
-26.612
-26.074
-25.579
-25.128
-24.719
-24.35
-24.018
-23.723
-23.462
-23.232
-23.03
-22.855
-22.703
-22.572
-22.458
-22.36
-22.274
-22.197
-22.128
-22.063
-22
-21.937
-21.874
-21.806
-21.735
-21.657
-21.573
-21.48
-21.38
-21.27
-21.151
-21.022
-20.883
-20.734
-20.576
-20.408
-20.23
-20.043
-19.847
-19.642
-19.43
-19.209
-18.982
-18.75
-18.513
-18.273
-18.032
-17.792
-17.555
-17.324
-17.101
-16.889
-16.692
-16.511
-16.351
-16.215
-16.105
-16.025
-15.979
-15.969
-15.999
-16.072
-16.19
-16.357
-16.575
-16.848
-17.176
-17.562
-18.009
-18.518
-19.09
-19.726
-20.425
-21.189
-22.016
-22.904
-23.851
-24.854
-25.909
-27.011
-28.154
-29.331
-30.535
-31.758
-32.992
-34.225
-35.449
-36.653
-37.826
-38.955
-40.031
-41.04
-41.971
-42.81
-43.547
-44.169
-44.665
-45.022
-45.23
-45.278
-45.155
-44.853
-44.361
-43.673
-42.781
-41.679
-40.363
-38.83
-37.078
-35.108
-32.92
-30.519
-27.909
-25.098
-22.095
-18.91
-15.555
-12.046
-8.398
-4.627
-0.753
3.206
7.227
11.287
15.361
19.425
23.453
27.418
31.295
35.056
38.675
42.128
45.392
48.445
51.263
53.823
56.105
58.088
59.755
61.091
62.083
62.721
62.997
62.912
62.467
61.665
60.509
58.993
57.119
54.893
52.327
49.435
46.239
42.762
39.038
35.112
31.03
26.835
22.573
18.275
13.977
9.728
5.578
1.588
-2.18
-5.684
-8.88
-11.733
-14.235
-16.391
-18.231
-19.822
-21.218
-22.472
-23.66
-24.844
-26.11
-27.565
-29.278
-31.346
-33.909
-37.009
-40.634
-44.693
-48.862
-52.782
-56.177
-58.658
-59.822
-59.485
-57.534
-54.148
-50.053
-46.013
-42.592
-40.332
-39.71
-40.919
-44.016
-48.689
-52.784
-53.01
-46.916
-32.211
-9.48
17.322
47.371
81.41
122.962
180.335
255.828
346.878
447.477
545.346
631.664
699.13
739.554
746.33
711.045
629.624
504.745
346.829
173.841
2.854
-150.232
-275.446
-370.298
-433.607
-468.795
-479.432
-466.258
-432.398
-381.054
-318.068
-254.248
-198.775
-157.271
-130.513
-113.059
-99.525
-87.629
-77.75
-73.162
-75.807
-84.446
-96.205
-107.237
-114.751
-118.023
-117.383
-113.569
-107.386
-99.654
-91.29
-83.411
-77.128
-72.968
-70.946
-70.85
-72.219
-74.558
-77.48
-80.516
-83.18
-85.207
-86.444
-86.831
-86.449
-85.355
-83.581
-81.201
-78.287
-74.897
-71.127
-67.073
-62.835
-58.548
-54.306
-50.176
-46.226
-42.503
-39.055
-35.924
-33.119
-30.632
-28.461
-26.601
-25.051
-23.805
-22.831
-22.083
-21.513
-21.063
-20.691
-20.365
-20.048
-19.712
-19.333
-18.889
-18.367
-17.764
-17.064
-16.252
-15.31
-14.217
-12.962
-11.533
-9.919
-8.111
-6.097
-3.867
-1.413
1.273
4.202
7.383
10.825
14.537
18.525
22.79
27.336
32.159
37.257
42.624
48.253
54.135
60.26
66.614
73.184
79.955
86.912
94.034
101.303
108.698
116.195
123.771
131.402
139.06
146.719
154.351
161.927
169.419
176.796
184.031
191.092
197.95
204.577
210.943
217.02
222.78
228.197
233.244
237.899
242.136
245.936
249.278
252.145
254.519
256.388
257.739
258.561
258.848
258.593
257.794
256.449
254.561
252.134
249.173
245.69
241.694
237.2
232.223
226.783
220.898
214.592
207.888
200.811
193.39
185.651
177.624
169.341
160.832
152.13
143.266
134.274
125.186
116.035
106.854
97.674
88.528
79.445
70.455
61.588
52.868
44.324
35.978
27.853
19.97
12.348
5.003
-2.049
-8.797
-15.228
-21.334
-27.108
-32.545
-37.642
-42.397
-46.812
-50.889
-54.631
-58.045
-61.136
-63.913
-66.386
-68.566
-70.464
-72.092
-73.464
-74.595
-75.499
-76.19
-76.686
-77
-77.15
-77.15
-77.016
-76.763
-76.406
-75.959
-75.436
-74.85
-74.213
-73.536
-72.831
-72.108
-71.374
-70.64
-69.912
-69.198
-68.502
-67.83
-67.186
-66.575
-65.998
-65.458
-64.956
-64.493
-64.07
-63.686
-63.341
-63.033
-62.762
-62.524
-62.319
-62.143
-61.993
-61.866
-61.761
-61.672
-61.598
-61.536
-61.483
-61.435
-61.392
-61.351
-61.31
-61.266
-61.22
-61.169
-61.112
-61.049
-60.979
-60.901
-60.817
-60.725
-60.627
-60.522
-60.413
-60.298
-60.179
-60.057
-59.934
-59.809
-59.685
-59.563
-59.445
-59.333
-59.228
-59.132
-59.047
-58.976
-58.92
-58.88
-58.859
-58.858
-58.878
-58.921
-58.987
-59.079
-59.196
-59.341
-59.513
-59.713
-59.941
-60.198
-60.485
-60.8
-61.143
-61.516
-61.917
-62.346
-62.804
-63.29
-63.802
-64.342
-64.906
-65.495
-66.106
-66.738
-67.387
-68.053
-68.731
-69.42
-70.114
-70.812
-71.509
-72.201
-72.884
-73.553
-74.202
-74.828
-75.424
-75.985
-76.506
-76.981
-77.403
-77.768
-78.069
-78.299
-78.453
-78.524
-78.506
-78.391
-78.173
-77.845
-77.402
-76.839
-76.148
-75.327
-74.37
-73.275
-72.039
-70.659
-69.135
-67.466
-65.652
-63.695
-61.599
-59.366
-57.001
-54.509
-51.899
-49.177
-46.354
-43.44
-40.444
-37.379
-34.259
-31.097
-27.909
-24.709
-21.514
-18.343
-15.216
-12.156
-9.183
-6.32
-3.589
-1.012
1.39
3.595
5.587
7.35
8.869
10.129
11.113
11.807
12.199
12.278
12.039
11.479
10.593
9.385
7.862
6.032
3.904
1.485
-1.232
-4.244
-7.545
-11.127
-14.969
-19.05
-23.344
-27.808
-32.399
-37.074
-41.786
-46.502
-51.181
-55.768
-60.219
-64.478
-68.473
-72.17
-75.492
-78.366
-80.832
-82.926
-84.706
-86.294
-87.683
-88.839
-89.9
-90.981
-92.035
-93.105
-94.107
-94.931
-95.942
-97.439
-99.417
-101.857
-104.642
-107.512
-110.493
-113.532
-115.919
-117.136
-116.951
-115.293
-112.701
-109.844
-107
-104.457
-102.906
-102.78
-104.333
-107.567
-110.515
-110.006
-103.688
-89.186
-66.854
-40.413
-10.515
23.49
64.99
122.524
198.62
291.178
394.896
496.87
587.529
659.782
704.773
717.263
690.355
617.247
498.407
340.269
156.877
-31.051
-202.189
-340.136
-436.303
-490.421
-510.575
-505.572
-480.521
-439.982
-386.098
-323.047
-261.53
-210.965
-176.615
-159.213
-151.844
-146.311
-139.092
-129.714
-120.976
-116.803
-117.906
-122.634
-128.629
-133.183
-134.861
-133.78
-130.513
-125.718
-119.976
-113.813
-107.746
-102.438
-98.628
-96.543
-96.058
-96.907
-98.643
-100.906
-103.449
-105.927
-107.954
-109.286
-109.791
-109.448
-108.352
-106.564
-104.118
-101.071
-97.497
-93.503
-89.212
-84.748
-80.236
-75.765
-71.401
-67.212
-63.252
-59.58
-56.238
-53.239
-50.573
-48.236
-46.224
-44.535
-43.164
-42.079
-41.234
-40.578
-40.057
-39.628
-39.261
-38.923
-38.581
-38.213
-37.794
-37.313
-36.765
-36.137
-35.412
-34.572
-33.597
-32.473
-31.19
-29.735
-28.096
-26.261
-24.217
-21.954
-19.462
-16.728
-13.74
-10.486
-6.956
-3.14
0.965
5.364
10.057
15.043
20.319
25.878
31.713
37.814
44.17
50.769
57.597
64.637
71.872
79.282
86.847
94.543
102.348
110.236
118.179
126.15
134.121
142.06
149.938
157.723
165.384
172.888
180.204
187.299
194.142
200.7
206.944
212.843
218.369
223.494
228.194
232.443
236.221
239.506
242.282
244.532
246.244
247.406
248.011
248.051
247.525
246.43
244.771
242.549
239.775
236.456
232.606
228.24
223.376
218.033
212.234
206.003
199.367
192.353
184.992
177.315
169.354
161.143
152.717
144.111
135.359
126.497
117.561
108.586
99.605
90.654
81.763
72.965
64.29
55.766
47.42
39.277
31.36
23.691
16.288
9.168
2.346
-4.164
-10.352
-16.211
-21.733
-26.914
-31.753
-36.249
-40.405
-44.224
-47.711
-50.874
-53.721
-56.262
-58.509
-60.474
-62.17
-63.612
-64.814
-65.793
-66.563
-67.141
-67.543
-67.785
-67.882
-67.851
-67.704
-67.458
-67.124
-66.717
-66.248
-65.728
-65.168
-64.577
-63.964
-63.336
-62.701
-62.065
-61.433
-60.808
-60.196
-59.598
-59.017
-58.454
-57.911
-57.386
-56.88
-56.393
-55.922
-55.465
-55.022
-54.589
-54.164
-53.744
-53.327
-52.909
-52.488
-52.062
-51.629
-51.187
-50.734
-50.269
-49.791
-49.3
-48.796
-48.277
-47.746
-47.202
-46.646
-46.079
-45.503
-44.918
-44.328
-43.732
-43.134
-42.535
-41.936
-41.341
-40.751
-40.167
-39.594
-39.032
-38.484
-37.952
-37.439
-36.947
-36.478
-36.034
-35.618
-35.23
-34.872
-34.545
-34.251
-33.99
-33.762
-33.568
-33.408
-33.282
-33.189
-33.129
-33.101
-33.106
-33.142
-33.21
-33.308
-33.436
-33.593
-33.78
-33.995
-34.239
-34.51
-34.809
-35.134
-35.486
-35.863
-36.265
-36.691
-37.14
-37.61
-38.1
-38.609
-39.134
-39.676
-40.23
-40.796
-41.372
-41.955
-42.544
-43.135
-43.725
-44.313
-44.894
-45.464
-46.021
-46.558
-47.072
-47.557
-48.008
-48.419
-48.784
-49.096
-49.349
-49.536
-49.65
-49.685
-49.632
-49.485
-49.237
-48.881
-48.41
-47.82
-47.103
-46.255
-45.271
-44.147
-42.879
-41.465
-39.9
-38.184
-36.316
-34.295
-32.121
-29.796
-27.324
-24.708
-21.952
-19.062
-16.047
-12.915
-9.675
-6.337
-2.914
0.582
4.137
7.735
11.362
15
18.632
22.237
25.796
29.289
32.694
35.991
39.16
42.179
45.031
47.698
50.164
52.413
54.43
56.199
57.705
58.937
59.885
60.541
60.897
60.95
60.697
60.144
59.298
58.164
56.745
55.04
53.05
50.785
48.254
45.472
42.457
39.227
35.811
32.253
28.596
24.882
21.152
17.433
13.762
10.184
6.744
3.503
0.511
-2.198
-4.591
-6.644
-8.347
-9.708
-10.758
-11.565
-12.207
-12.766
-13.336
-14.005
-14.875
-16.044
-17.617
-19.732
-22.456
-25.79
-29.681
-33.942
-38.336
-42.654
-46.601
-49.782
-51.937
-52.896
-52.642
-51.558
-50.127
-48.732
-47.808
-47.854
-49.247
-52.266
-57.086
-62.521
-65.829
-64.313
-55.247
-38.065
-16.863
4.592
24.876
46.084
79.106
135.471
220.746
335.107
465.297
591.772
697.31
764.605
786.202
761.465
690.917
581.331
438.094
268.165
84.52
-98.497
-262.35
-390.499
-475.253
-518.134
-528.669
-518.6
-496.432
-463.778
-421.143
-370.926
-316.665
-266.497
-225.028
-191.516
-165.377
-143.349
-124.124
-110.016
-101.156
-97.166
-97.159
-98.178
-98.321
-96.786
-92.764
-86.444
-78.521
-69.498
-59.972
-50.689
-42.187
-34.974
-29.677
-26.46
-25.081
-25.217
-26.387
-28.111
-30.072
-31.907
-33.162
-33.581
-33.044
-31.506
-29.064
-25.793
-21.728
-16.958
-11.603
-5.777
0.375
6.719
13.136
19.493
25.678
31.601
37.166
42.313
47.001
51.205
54.929
58.187
60.99
63.36
65.33
66.935
68.227
69.26
70.089
70.775
71.37
71.915
72.452
73.01
73.613
74.284
75.035
75.876
76.821
77.885
79.082
80.429
81.938
83.621
85.49
87.554
89.823
92.308
95.02
97.969
101.165
104.617
108.335
112.326
116.596
121.147
125.979
131.088
136.469
142.117
148.022
154.172
160.556
167.159
173.967
180.964
188.13
195.448
202.896
210.452
218.093
225.793
233.528
241.272
248.995
256.671
264.271
271.765
279.123
286.317
293.316
300.091
306.61
312.845
318.769
324.352
329.568
334.393
338.801
342.772
346.284
349.32
351.862
353.897
355.412
356.398
356.846
356.751
356.111
354.925
353.194
350.924
348.12
344.792
340.952
336.613
331.792
326.507
320.778
314.629
308.083
301.168
293.91
286.34
278.487
270.385
262.066
253.563
244.91
236.142
227.292
218.394
209.483
200.59
191.747
182.986
174.335
165.823
157.476
149.32
141.377
133.669
126.216
119.034
112.14
105.548
99.268
93.31
87.683
82.39
77.437
72.823
68.55
64.615
61.014
57.74
54.788
52.148
49.809
47.762
45.992
44.487
43.232
42.212
41.413
40.818
40.411
40.177
40.1
40.164
40.354
40.655
41.053
41.534
42.084
42.691
43.343
44.029
44.738
45.46
46.187
46.909
47.62
48.312
48.98
49.617
50.22
50.784
51.307
51.784
52.216
52.599
52.934
53.219
53.456
53.644
53.784
53.877
53.924
53.927
53.887
53.805
53.683
53.522
53.323
53.087
52.817
52.512
52.175
51.806
51.407
50.978
50.521
50.037
49.526
48.99
48.429
47.845
47.239
46.611
45.963
45.296
44.611
43.908
43.189
42.454
41.706
40.944
40.169
39.384
38.588
37.783
36.969
36.149
35.324
34.494
33.661
32.827
31.991
31.157
30.324
29.493
28.666
27.843
27.025
26.213
25.407
24.607
23.814
23.028
22.248
21.474
20.707
19.945
19.188
18.436
17.688
16.944
16.202
15.463
14.726
13.991
13.257
12.524
11.792
11.061
10.332
9.606
8.882
8.163
7.45
6.745
6.049
5.366
4.698
4.048
3.42
2.816
2.242
1.7
1.196
0.735
0.321
-0.039
-0.342
-0.582
-0.754
-0.853
-0.874
-0.812
-0.662
-0.421
-0.084
0.353
0.892
1.536
2.288
3.148
4.115
5.19
6.372
7.657
9.041
10.522
12.091
13.745
15.475
17.272
19.126
21.027
22.963
24.92
26.885
28.841
30.772
32.661
34.491
36.243
37.901
39.444
40.857
42.123
43.225
44.15
44.88
45.399
45.693
45.747
45.548
45.086
44.351
43.335
42.034
40.452
38.589
36.45
34.038
31.349
28.384
25.153
21.664
17.93
13.973
9.817
5.496
1.057
-3.455
-7.999
-12.537
-17.043
-21.485
-25.829
-30.036
-34.059
-37.855
-41.394
-44.645
-47.58
-50.195
-52.511
-54.57
-56.456
-58.243
-59.982
-61.733
-63.554
-65.502
-67.667
-70.125
-72.922
-76.134
-79.848
-84.091
-88.841
-93.929
-98.986
-103.612
-107.435
-110.07
-111.154
-110.424
-107.775
-103.488
-98.292
-93.051
-88.466
-85.009
-83.126
-83.184
-85.243
-88.721
-91.552
-90.597
-83.349
-68.458
-46.677
-20.186
10.746
47.779
94.452
154.372
226.722
307.055
388.276
462.552
524.55
569.088
590.245
581.009
533.781
445.519
318.636
162.252
-8.547
-177.745
-328.712
-448.185
-529.551
-572.631
-584.514
-575.856
-556.31
-531.223
-501.878
-467.389
-426.855
-382.588
-338.179
-297.095
-262.663
-235.896
-216.344
-203.399
-195.566
-191.198
-189.308
-188.803
-188.623
-188.198
-186.955
-184.391
-180.675
-176.286
-171.595
-167.105
-163.287
-160.406
-158.842
-158.978
-160.805
-164.084
-168.496
-173.612
-179.028
-184.427
-189.448
-193.727
-197.071
-199.404
-200.728
-201.127
-200.679
-199.457
-197.573
-195.165
-192.356
-189.273
-186.039
-182.766
-179.586
-176.622
-173.963
-171.681
-169.82
-168.4
-167.431
-166.912
-166.821
-167.127
-167.795
-168.789
-170.073
-171.604
-173.332
-175.201
-177.149
-179.126
-181.093
-183.017
-184.872
-186.638
-188.297
-189.84
-191.263
-192.561
-193.723
-194.736
-195.584
-196.253
-196.731
-197.007
-197.068
-196.901
-196.493
-195.834
-194.913
-193.72
-192.241
-190.455
-188.348
-185.914
-183.152
-180.066
-176.664
-172.958
-168.967
-164.725
-160.263
-155.61
-150.792
-145.818
-140.696
-135.438
-130.057
-124.568
-118.979
-113.277
-107.441
-101.462
-95.323
-89.009
-82.495
-75.728
-68.665
-61.287
-53.581
-45.574
-37.308
-28.819
