Name,Criss Capps
Date of Birth,"Feb 5, 1952"
Recorded Date,2023-04-10 17:31:44 -0400
Classification,Sinus Rhythm
Symptoms,Dizziness
Software Version,1.90
Device,"Watch5,4"
Sample Rate,512.844 hertz


Lead,Lead I
Unit,µV

-56.677
-67.671
-77.341
-85.563
-92.239
-97.333
-100.849
-102.821
-103.334
-102.495
-100.407
-97.189
-92.982
-87.927
-82.208
-76.031
-69.581
-63.042
-56.576
-50.291
-44.285
-38.626
-33.35
-28.469
-23.969
-19.817
-15.989
-12.465
-9.211
-6.189
-3.333
-0.559
2.197
4.992
7.869
10.851
13.955
17.191
20.545
23.993
27.503
31.037
34.562
38.058
41.495
44.84
48.057
51.099
53.933
56.537
58.891
60.984
62.806
64.35
65.621
66.63
67.388
67.908
68.199
68.269
68.129
67.796
67.283
66.606
65.782
64.82
63.735
62.539
61.247
59.871
58.424
56.917
55.362
53.776
52.175
50.574
48.988
47.43
45.914
44.453
43.057
41.736
40.496
39.347
38.297
37.356
36.532
35.835
35.273
34.856
34.59
34.481
34.533
34.747
35.121
35.655
36.351
37.213
38.249
39.46
40.841
42.388
44.089
45.927
47.878
49.904
51.965
54.034
56.087
58.112
60.111
62.081
64.021
65.933
67.805
69.63
71.404
73.113
74.752
76.332
77.873
79.423
81.043
82.759
84.577
86.49
88.45
90.409
92.304
94.045
95.563
96.803
97.707
98.252
98.408
98.121
97.329
95.94
93.844
90.975
87.297
82.788
77.482
71.435
64.736
57.534
49.959
42.118
34.107
25.991
17.826
9.7
1.708
-6.041
-13.41
-20.302
-26.643
-32.356
-37.424
-41.874
-45.782
-49.304
-52.59
-55.739
-58.846
-61.988
-65.244
-68.732
-72.559
-76.784
-81.507
-86.854
-92.906
-99.703
-107.094
-114.669
-121.966
-128.565
-134.023
-137.877
-139.718
-139.295
-136.898
-133.42
-129.844
-126.934
-125.337
-125.813
-129.115
-135.621
-143.629
-149.482
-149.956
-142.97
-129.95
-114.118
-94.613
-67.255
-25.073
39.295
125.978
228.972
340.688
452.005
554.006
638.795
694.898
708.878
674.482
591.449
466.468
315.612
153.461
-6.705
-149.964
-267.188
-353.853
-410.001
-443.722
-464.446
-476.973
-482.372
-477.863
-460.36
-431.284
-394.689
-355.711
-319.097
-287.32
-261.989
-243.834
-232.286
-226.551
-225.348
-226.804
-229.603
-232.397
-233.295
-231.244
-225.94
-217.367
-206.262
-193.667
-180.301
-167.104
-155.286
-145.481
-137.991
-132.938
-129.986
-128.737
-128.873
-129.891
-131.259
-132.671
-133.906
-134.812
-135.329
-135.351
-134.788
-133.643
-131.943
-129.707
-126.946
-123.662
-119.882
-115.679
-111.152
-106.393
-101.466
-96.421
-91.315
-86.225
-81.252
-76.484
-71.969
-67.731
-63.785
-60.141
-56.807
-53.775
-51.008
-48.46
-46.084
-43.841
-41.7
-39.629
-37.588
-35.526
-33.388
-31.126
-28.704
-26.093
-23.264
-20.19
-16.848
-13.22
-9.301
-5.086
-0.569
4.261
9.415
14.898
20.712
26.855
33.324
40.116
47.226
54.649
62.373
70.388
78.683
87.243
96.057
105.106
114.372
123.832
133.46
143.231
153.117
163.09
173.116
183.167
193.208
203.21
213.138
222.962
232.648
242.164
251.477
260.556
269.371
277.892
286.089
293.936
301.406
308.475
315.122
321.323
327.059
332.314
337.072
341.318
345.043
348.236
350.891
353.003
354.571
355.595
356.076
356.021
355.436
354.329
352.714
350.603
348.012
344.958
341.459
337.537
333.212
328.508
323.449
318.059
312.366
306.395
300.173
293.729
287.089
280.281
273.334
266.276
259.132
251.931
244.7
237.463
230.246
223.074
215.969
208.955
202.052
195.28
188.658
182.203
175.931
169.855
163.989
158.344
152.928
147.751
142.818
138.135
133.704
129.529
125.61
121.946
118.537
115.38
112.47
109.804
107.376
105.179
103.205
101.447
99.896
98.543
97.376
96.387
95.563
94.893
94.366
93.969
93.69
93.518
93.439
93.442
93.515
93.647
93.826
94.041
94.283
94.542
94.809
95.074
95.33
95.57
95.786
95.972
96.121
96.23
96.291
96.303
96.26
96.161
96.003
95.783
95.502
95.158
94.752
94.284
93.756
93.169
92.527
91.831
91.086
90.296
89.464
88.595
87.693
86.763
85.809
84.836
83.848
82.849
81.842
80.833
79.824
78.818
77.819
76.83
75.853
74.89
73.942
73.012
72.1
71.207
70.333
69.477
68.64
67.819
67.014
66.223
65.443
64.671
63.905
63.14
62.373
61.601
60.818
60.022
59.207
58.371
57.509
56.62
55.698
54.742
53.75
52.719
51.649
50.54
49.389
48.199
46.971
45.705
44.404
43.072
41.711
40.326
38.921
37.502
36.075
34.646
33.222
31.811
30.422
29.063
27.742
26.47
25.254
24.104
23.028
22.037
21.137
20.338
19.647
19.071
18.616
18.289
18.093
18.034
18.114
18.335
18.697
19.2
19.843
20.623
21.535
22.574
23.733
25.005
26.38
27.846
29.393
31.005
32.668
34.366
36.08
37.789
39.474
41.114
42.687
44.172
45.546
46.789
47.88
48.802
49.537
50.065
50.368
50.429
50.231
49.759
48.999
47.939
46.571
44.888
42.891
40.582
37.965
35.042
31.809
28.267
24.421
20.281
15.86
11.177
6.26
1.146
-4.112
-9.462
-14.855
-20.245
-25.596
-30.869
-36.023
-41.007
-45.769
-50.254
-54.415
-58.216
-61.615
-64.597
-67.177
-69.4
-71.348
-73.105
-74.726
-76.273
-77.821
-79.447
-81.25
-83.332
-85.754
-88.621
-92.078
-96.187
-100.939
-106.154
-111.403
-116.212
-120.158
-122.748
-123.478
-122.022
-118.242
-112.491
-105.693
-98.871
-92.93
-88.636
-86.618
-87.231
-90.368
-95.015
-99.162
-100.199
-95.467
-82.762
-59.798
-24.379
24.946
88.938
165.717
249.957
336.273
419.814
498.426
575.199
650.783
719.923
771.447
786.611
749.942
658.49
519.522
350.188
170.459
-7.444
-174.408
-322.933
-445.907
-531.455
-570.712
-560.464
-506.765
-426.986
-341.276
-269.931
-223.756
-201.171
-194.429
-190.835
-183.178
-171.731
-160.057
-154.88
-158.468
-168.408
-181.021
-191.029
-195.662
-194.91
-189.122
-179.389
-167.037
-153.05
-138.788
-125.957
-115.509
-107.805
-102.98
-100.734
-100.651
-102.366
-105.282
-108.679
-112.163
-115.532
-118.647
-121.504
-123.995
-125.951
-127.336
-128.166
-128.423
-128.095
-127.192
-125.711
-123.718
-121.332
-118.628
-115.659
-112.514
-109.291
-105.924
-102.339
-98.74
-95.215
-91.792
-88.845
-85.482
-80.829
-76.171
-71.894
-70.303
-74.155
-80.31
-86.671
-90.142
-86.478
-79.38
-71.975
-66.384
-66.149
-68.68
-71.354
-73.568
-73.718
-72.702
-71.687
-70.447
-69.129
-67.646
-65.749
-63.583
-61.262
-58.742
-56.009
-53.076
-49.936
-46.577
-42.994
-39.165
-35.067
-30.714
-26.119
-21.282
-16.21
-10.912
-5.397
0.317
6.213
12.278
18.492
24.838
31.294
37.838
44.447
51.098
57.765
64.423
71.044
77.602
84.068
90.414
96.611
102.63
108.443
114.021
119.337
124.363
129.073
133.441
137.444
141.058
144.263
147.04
149.37
151.238
152.631
153.536
153.946
153.852
153.25
152.137
150.512
148.378
145.741
142.607
138.985
134.887
130.329
125.325
119.896
114.061
107.844
101.27
94.365
87.158
79.678
71.957
64.026
55.918
47.667
39.307
30.872
22.396
13.912
5.453
-2.947
-11.257
-19.446
-27.485
-35.344
-42.998
-50.42
-57.587
-64.477
-71.069
-77.347
-83.293
-88.895
-94.141
-99.021
-103.527
-107.656
-111.404
-114.769
-117.755
-120.364
-122.601
-124.474
-125.993
-127.167
-128.01
-128.535
-128.757
-128.692
-128.357
-127.77
-126.948
-125.912
-124.679
-123.271
-121.705
-120.003
-118.182
-116.264
-114.265
-112.205
-110.101
-107.97
-105.828
-103.691
-101.572
-99.485
-97.443
-95.458
-93.54
-91.698
-89.941
-88.275
-86.706
-85.241
-83.881
-82.63
-81.49
-80.461
-79.544
-78.736
-78.037
-77.443
-76.951
-76.557
-76.256
-76.043
-75.912
-75.856
-75.869
-75.945
-76.076
-76.256
-76.478
-76.733
-77.017
-77.321
-77.639
-77.964
-78.291
-78.612
-78.922
-79.215
-79.488
-79.734
-79.95
-80.132
-80.277
-80.382
-80.446
-80.466
-80.442
-80.373
-80.259
-80.1
-79.897
-79.653
-79.37
-79.05
-78.698
-78.315
-77.908
-77.479
-77.033
-76.576
-76.111
-75.643
-75.177
-74.718
-74.271
-73.841
-73.431
-73.047
-72.692
-72.371
-72.086
-71.841
-71.639
-71.482
-71.37
-71.306
-71.29
-71.322
-71.401
-71.526
-71.695
-71.905
-72.153
-72.434
-72.743
-73.075
-73.422
-73.778
-74.134
-74.482
-74.814
-75.121
-75.393
-75.622
-75.798
-75.912
-75.954
-75.916
-75.788
-75.563
-75.23
-74.784
-74.216
-73.52
-72.69
-71.722
-70.611
-69.355
-67.95
-66.396
-64.693
-62.842
-60.846
-58.708
-56.434
-54.03
-51.506
-48.871
-46.137
-43.317
-40.427
-37.483
-34.503
-31.506
-28.513
-25.542
-22.617
-19.757
-16.985
-14.32
-11.782
-9.392
-7.169
-5.133
-3.304
-1.702
-0.343
0.757
1.583
2.122
2.365
2.307
1.944
1.275
0.295
-1.004
-2.626
-4.568
-6.826
-9.391
-12.245
-15.365
-18.721
-22.265
-25.954
-29.742
-33.587
-37.455
-41.308
-45.105
-48.794
-52.318
-55.623
-58.664
-61.406
-63.813
-65.873
-67.602
-69.038
-70.262
-71.355
-72.384
-73.418
-74.535
-75.815
-77.358
-79.282
-81.656
-84.565
-88.123
-92.351
-97.223
-102.607
-108.144
-113.411
-118.05
-121.638
-123.733
-124.075
-122.459
-118.953
-114.203
-108.944
-103.744
-99.121
-95.58
-93.546
-93.392
-94.996
-96.104
-93.11
-83.245
-64.909
-40.053
-12.72
16.861
52.197
100.561
169.971
261.284
368.672
481.994
590.022
684.767
758.786
804.211
811.266
769.721
676.471
533.836
352.369
152.299
-46.165
-220.232
-350.516
-432.817
-471.701
-480.042
-474.528
-461.195
-438.215
-404.04
-358.195
-306.501
-260.709
-226.335
-202.412
-186.462
-172.853
-159.706
-150.36
-145.991
-146.995
-152.509
-158.895
-163.669
-165.646
-164.145
-159.584
-152.65
-143.926
-134.146
-124.159
-114.856
-107.114
-101.439
-97.898
-96.295
-96.224
-97.224
-98.861
-100.689
-102.268
-103.328
-103.75
-103.471
-102.5
-100.863
-98.577
-95.695
-92.299
-88.44
-84.183
-79.615
-74.848
-70.032
-65.308
-60.769
-56.475
-52.469
-48.783
-45.454
-42.511
-39.954
-37.77
-35.952
-34.492
-33.385
-32.614
-32.136
-31.887
-31.796
-31.802
-31.859
-31.928
-31.975
-31.967
-31.876
-31.679
-31.365
-30.922
-30.328
-29.561
-28.597
-27.416
-26.002
-24.348
-22.444
-20.279
-17.846
-15.137
-12.147
-8.87
-5.301
-1.436
2.732
7.203
11.976
17.043
22.398
28.029
33.924
40.068
46.444
53.031
59.81
66.759
73.856
81.075
88.393
95.781
103.214
110.662
118.098
125.492
132.815
140.036
147.126
154.055
160.795
167.317
173.592
179.594
185.296
190.673
195.702
200.36
204.624
208.475
211.896
214.871
217.385
219.428
220.988
222.06
222.639
222.721
222.307
221.398
219.997
218.112
215.75
212.921
209.637
205.914
201.766
197.213
192.274
186.971
181.326
175.364
169.111
162.592
155.836
148.87
141.723
134.425
127.005
119.493
111.917
104.309
96.695
89.106
81.569
74.111
66.757
59.533
52.462
45.566
38.866
32.381
26.129
20.126
14.387
8.923
3.746
-1.135
-5.714
-9.985
-13.945
-17.592
-20.927
-23.951
-26.667
-29.081
-31.199
-33.027
-34.575
-35.852
-36.869
-37.638
-38.171
-38.48
-38.581
-38.487
-38.212
-37.773
-37.183
-36.459
-35.616
-34.668
-33.632
-32.521
-31.351
-30.134
-28.886
-27.618
-26.343
-25.073
-23.817
-22.586
-21.388
-20.232
-19.124
-18.071
-17.077
-16.148
-15.288
-14.499
-13.784
-13.144
-12.582
-12.097
-11.689
-11.357
-11.102
-10.92
-10.809
-10.768
-10.792
-10.879
-11.025
-11.226
-11.478
-11.777
-12.117
-12.495
-12.906
-13.345
-13.808
-14.291
-14.791
-15.302
-15.824
-16.351
-16.883
-17.416
-17.95
-18.482
-19.011
-19.537
-20.058
-20.574
-21.085
-21.591
-22.092
-22.589
-23.082
-23.573
-24.063
-24.553
-25.045
-25.54
-26.042
-26.55
-27.068
-27.598
-28.142
-28.701
-29.278
-29.875
-30.492
-31.133
-31.796
-32.484
-33.197
-33.933
-34.693
-35.475
-36.279
-37.1
-37.939
-38.791
-39.653
-40.523
-41.396
-42.268
-43.134
-43.99
-44.828
-45.644
-46.431
-47.182
-47.89
-48.548
-49.149
-49.685
-50.149
-50.534
-50.832
-51.036
-51.139
-51.135
-51.016
-50.776
-50.41
-49.913
-49.279
-48.507
-47.593
-46.534
-45.33
-43.98
-42.485
-40.845
-39.064
-37.143
-35.088
-32.904
-30.597
-28.175
-25.647
-23.025
-20.319
-17.543
-14.712
-11.841
-8.946
-6.046
-3.156
-0.294
2.521
5.273
7.945
10.521
12.984
15.315
17.497
19.514
21.348
22.986
24.413
25.618
26.591
27.327
27.823
28.075
28.079
27.824
27.303
26.517
25.466
24.159
22.606
20.826
18.846
16.707
14.448
12.108
9.719
7.308
4.901
2.53
0.234
-1.938
-3.947
-5.756
-7.34
-8.676
-9.758
-10.604
-11.263
-11.818
-12.349
-12.919
-13.585
-14.409
-15.457
-16.812
-18.567
-20.783
-23.541
-26.96
-31.075
-35.871
-41.21
-46.743
-52.07
-56.81
-60.512
-62.696
-63.061
-61.402
-57.844
-53.047
-47.695
-42.433
-37.988
-34.95
-33.723
-34.517
-36.878
-39.395
-40.363
-37.893
-29.965
-14.562
10.479
47.032
96.401
157.464
226.547
300.083
374.294
447.886
523.599
600.603
672.83
729.597
753.765
732.177
662.874
550.758
407.269
246.865
80.065
-82.055
-224.342
-334.551
-405.583
-437.267
-440.582
-429.415
-411.633
-390.661
-364.94
-330.621
-288.83
-243.48
-198.782
-159.618
-128.509
-105.847
-91.281
-83.529
-81.056
-82.506
-86.526
-91.544
-95.914
-98.148
-97.473
-93.912
-87.906
-80.111
-71.204
-61.917
-53.19
-46.018
-40.965
-38.11
-37.239
-37.912
-39.682
-42.165
-44.897
-47.37
-49.251
-50.346
-50.585
-50.026
-48.723
-46.705
-44.036
-40.803
-37.08
-32.958
-28.538
-23.914
-19.211
-14.56
-10.059
-5.791
-1.826
1.781
4.987
7.772
10.136
12.092
13.65
14.821
15.625
16.091
16.266
16.199
15.95
15.576
15.13
14.656
14.195
13.778
13.434
13.186
13.048
13.034
13.159
13.442
13.901
14.554
15.414
16.494
17.804
19.353
21.149
23.198
25.508
28.085
30.934
34.06
37.467
41.156
45.128
49.379
53.901
58.685
63.719
68.99
74.482
80.177
86.056
92.099
98.285
104.591
110.995
117.472
123.997
130.544
137.087
143.597
150.048
156.412
162.662
168.769
174.707
180.449
185.97
191.244
196.247
200.956
205.349
209.406
213.106
216.433
219.371
221.906
224.025
225.719
226.981
227.805
228.186
228.125
227.621
226.677
225.298
223.489
221.259
218.618
215.577
212.151
208.354
204.204
199.719
194.919
189.825
184.459
178.845
173.006
166.967
160.753
154.391
147.905
141.323
134.67
127.973
121.258
114.55
107.875
101.255
94.715
88.276
81.96
75.786
69.773
63.939
58.3
52.87
47.663
42.692
37.965
33.493
29.282
25.338
21.666
18.267
15.143
12.294
9.719
7.414
5.377
3.602
2.083
0.814
-0.215
-1.011
-1.586
-1.948
-2.11
-2.082
-1.877
-1.507
-0.985
-0.323
0.466
1.369
2.373
3.466
4.634
5.865
7.147
8.468
9.816
11.181
12.551
13.917
15.269
16.598
17.896
19.154
20.366
21.523
22.621
23.651
24.61
25.491
26.291
27.007
27.633
28.168
28.61
28.955
29.203
29.351
29.4
29.349
29.197
28.946
28.595
28.148
27.604
26.966
26.236
25.416
24.51
23.52
22.448
21.299
20.074
18.778
17.414
15.986
14.497
12.951
11.352
9.703
8.008
6.27
4.494
2.683
0.842
-1.028
-2.921
-4.833
-6.762
-8.703
-10.654
-12.61
-14.569
-16.529
-18.485
-20.436
-22.379
-24.312
-26.233
-28.14
-30.031
-31.904
-33.759
-35.594
-37.408
-39.199
-40.967
-42.709
-44.426
-46.114
-47.772
-49.399
-50.993
-52.551
-54.072
-55.552
-56.991
-58.385
-59.732
-61.029
-62.273
-63.46
-64.587
-65.65
-66.645
-67.568
-68.416
-69.184
-69.868
-70.464
-70.969
-71.377
-71.684
-71.886
-71.979
-71.957
-71.818
-71.558
-71.173
-70.662
-70.021
-69.249
-68.347
-67.315
-66.153
-64.864
-63.449
-61.913
-60.26
-58.496
-56.628
-54.664
-52.614
-50.491
-48.307
-46.075
-43.811
-41.53
-39.247
-36.979
-34.741
-32.55
-30.421
-28.371
-26.415
-24.573
-22.863
-21.303
-19.911
-18.703
-17.695
-16.902
-16.335
-16.003
-15.91
-16.063
-16.473
-17.152
-18.108
-19.345
-20.861
-22.655
-24.724
-27.041
-29.573
-32.279
-35.111
-38.039
-41.047
-44.092
-47.127
-50.153
-53.154
-56.099
-58.976
-61.721
-64.248
-66.559
-68.694
-70.53
-71.949
-73.113
-74.08
-74.878
-75.909
-76.325
-75.322
-74.257
-73.605
-75.767
-83.608
-94.174
-105.468
-114.417
-116.702
-115.729
-114.294
-114.238
-118.734
-124.773
-129.466
-132.003
-130.812
-127.344
-123.314
-118.956
-115.029
-111.914
-109.635
-108.619
-108.744
-108.788
-107.319
-102.676
-92.934
-76.388
-51.202
-15.439
32.395
91.888
160.588
235.279
312.154
389.7
468.792
548.399
625.185
690.065
729.31
731.768
689.321
602.836
480.234
330.034
166.462
1.954
-150.877
-275.575
-365.938
-420.853
-445.049
-452.257
-449.275
-438.463
-420.892
-393.003
-355.711
-313.938
-271.671
-233.611
-203.078
-180.779
-166.509
-159.292
-157.383
-158.865
-162.207
-165.919
-168.163
-167.481
-163.213
-155.334
-144.572
-132.066
-118.761
-105.582
-93.7
-84.17
-77.601
-74.219
-73.853
-76.061
-80.441
-86.571
-93.904
-101.897
-110.15
-118.349
-126.263
-133.73
-140.558
-146.592
-151.758
-156.012
-159.329
-161.698
-163.121
-163.627
-163.29
-162.203
-160.464
-158.165
-155.387
-152.239
-148.851
-145.359
-141.9
-138.569
-135.427
-132.521
-129.88
-127.516
-125.423
-123.575
-121.927
-120.441
-119.082
-117.818
-116.621
-115.452
-114.264
-113.007
-111.632
-110.097
-108.379
-106.452
-104.301
-101.914
-99.286
-96.419
-93.321
-89.997
-86.447
-82.669
-78.662
-74.426
-69.965
-65.284
-60.387
-55.283
-49.975
-44.473
-38.784
-32.918
-26.886
-20.697
-14.361
-7.893
-1.307
5.378
12.143
18.968
25.833
32.714
39.589
46.434
53.227
59.943
66.561
73.056
79.407
85.589
91.581
97.362
102.908
108.199
113.215
117.936
122.341
126.414
130.138
133.496
136.476
139.065
141.255
143.036
144.405
145.356
145.887
145.998
145.69
144.966
143.832
142.296
140.365
138.053
135.372
132.337
128.967
125.276
121.284
117.006
112.465
107.681
102.677
97.479
92.108
86.591
80.952
75.22
69.421
63.58
57.717
51.855
46.015
40.217
34.487
28.846
23.307
17.886
12.592
7.433
2.417
-2.443
-7.143
-11.673
-16.028
-20.201
-24.172
-27.925
-31.441
-34.709
-37.731
-40.51
-43.036
-45.289
-47.226
-48.807
-50.022
-50.879
-51.407
-51.641
-51.57
-51.209
-50.651
-49.937
-49.085
-48.041
-46.558
-44.418
-41.638
-38.278
-34.489
-30.645
-27.039
-24.113
-22.709
-23.506
-26.816
-32.702
-40.626
-49.559
-58.639
-66.749
-72.391
-74.388
-71.806
-64.181
-52.167
-37.075
-20.18
-3.14
12.313
24.803
32.913
35.774
33.683
27.505
18.351
7.738
-3.086
-13.145
-21.271
-26.744
-29.527
-29.904
-28.533
-26.314
-23.764
-21.207
-19.076
-17.572
-16.731
-16.512
-16.613
-16.667
-16.551
-16.26
-15.802
-15.247
-14.607
-13.863
-13.079
-12.325
-11.628
-10.983
-10.349
-9.682
-8.976
-8.258
-7.558
-6.895
-6.262
-5.636
-5.003
-4.36
-3.709
-3.053
-2.385
-1.705
-1.022
-0.357
0.268
0.835
1.339
1.779
2.157
2.471
2.715
2.884
2.972
2.974
2.887
2.704
2.418
2.025
1.526
0.923
0.223
-0.57
-1.451
-2.413
-3.45
-4.556
-5.722
-6.943
-8.214
-9.528
-10.878
-12.259
-13.661
-15.076
-16.494
-17.904
-19.294
-20.651
-21.963
-23.218
-24.401
-25.499
-26.504
-27.404
-28.191
-28.849
-29.362
-29.716
-29.904
-29.922
-29.771
-29.455
-28.981
-28.361
-27.623
-26.792
-25.892
-24.945
-23.953
-22.917
-21.844
-20.74
-19.614
-18.466
-17.275
-16.013
-14.662
-13.197
-11.595
-9.825
-7.817
-5.52
-2.898
0.076
3.388
7.01
10.918
15.075
19.429
23.908
28.405
32.796
36.989
40.891
44.411
47.449
49.862
51.524
52.351
52.277
51.278
49.361
46.532
42.829
38.343
33.184
27.5
21.462
15.194
8.813
2.446
-3.781
-9.7
-15.162
-20.061
-24.313
-27.86
-30.669
-32.73
-34.083
-34.853
-35.18
-35.221
-35.125
-35.002
-34.969
-35.157
-35.715
-36.789
-38.468
-40.831
-43.987
-47.987
-52.796
-58.207
-63.715
-68.744
-72.826
-75.472
-76.183
-74.626
-70.622
-64.478
-57.216
-49.917
-43.37
-38.389
-35.697
-35.764
-38.952
-43.583
-45.574
-41.152
-26.977
-3.679
23.786
52.928
83.549
122.216
181.749
269.812
388.673
528.711
669.208
790.43
873.485
909.263
897.39
838.386
737.928
599.427
428.784
241.139
53.227
-113.109
-239.62
-322.46
-365.772
-382.818
-388.929
-389.887
-386.236
-374.602
-350.558
-315.665
-274.701
-232.704
-194.585
-162.736
-137.696
-119.726
-108.189
-101.91
-99.677
-100.161
-102.147
-104.473
-105.938
-105.43
-102.486
-97.358
-90.593
-82.874
-74.854
-67.13
-60.428
-55.528
-52.814
-52.242
-53.532
-56.208
-59.792
-63.898
-68.097
-71.925
-75.075
-77.359
-78.686
-79.094
-78.624
-77.304
-75.195
-72.386
-68.958
-65.016
-60.685
-56.085
-51.362
-46.663
-42.095
-37.747
-33.692
-29.99
-26.686
-23.803
-21.339
-19.278
-17.609
-16.317
-15.383
-14.77
-14.428
-14.3
-14.324
-14.437
-14.585
-14.724
-14.811
-14.814
-14.704
-14.458
-14.061
-13.501
-12.76
-11.819
-10.659
-9.262
-7.614
-5.702
-3.516
-1.047
1.711
4.766
8.123
11.787
15.762
20.051
24.653
29.57
34.796
40.325
46.145
52.243
58.602
65.205
72.031
79.059
86.263
93.621
101.105
108.691
116.35
124.053
131.77
139.471
147.125
154.7
162.164
169.485
176.631
183.57
190.271
196.705
202.841
208.652
214.111
219.192
223.871
228.125
231.936
235.284
238.154
240.533
242.41
243.776
244.625
244.954
244.762
244.048
242.817
241.073
238.823
236.078
232.848
229.147
224.99
220.395
215.38
209.967
204.179
198.039
191.573
184.807
177.768
170.486
162.99
155.308
147.473
139.514
131.461
123.346
115.197
107.045
98.918
90.843
82.848
74.957
67.195
59.586
52.15
44.908
37.88
31.083
24.533
18.244
12.23
6.501
1.068
-4.063
-8.884
-13.392
-17.583
-21.456
-25.01
-28.247
-31.169
-33.782
-36.089
-38.099
-39.82
-41.259
-42.427
-43.336
-43.995
-44.418
-44.616
-44.603
-44.391
-43.993
-43.423
-42.694
-41.819
-40.812
-39.687
-38.456
-37.132
-35.729
-34.258
-32.732
-31.162
-29.559
-27.933
-26.295
-24.655
-23.021
-21.403
-19.809
-18.246
-16.721
-15.24
-13.809
-12.434
-11.118
-9.865
-8.678
-7.56
-6.514
-5.541
-4.643
-3.82
-3.073
-2.402
-1.807
-1.288
-0.842
-0.469
-0.167
0.066
0.234
0.337
0.38
0.365
0.295
0.174
0.005
-0.207
-0.46
-0.75
-1.071
-1.421
-1.796
-2.191
-2.604
-3.031
-3.469
-3.915
-4.367
-4.821
-5.276
-5.73
-6.179
-6.624
-7.062
-7.491
-7.912
-8.324
-8.726
-9.118
-9.501
-9.876
-10.242
-10.602
-10.956
-11.307
-11.654
-12.001
-12.349
-12.701
-13.059
-13.424
-13.8
-14.189
-14.592
-15.012
-15.449
-15.904
-16.379
-16.873
-17.386
-17.919
-18.469
-19.036
-19.618
-20.213
-20.818
-21.431
-22.048
-22.665
-23.278
-23.882
-24.472
-25.042
-25.587
-26.099
-26.573
-27.001
-27.377
-27.694
-27.943
-28.118
-28.21
-28.213
-28.119
-27.922
-27.615
-27.191
-26.647
-25.978
-25.18
-24.252
-23.191
-21.997
-20.671
-19.213
-17.627
-15.917
-14.087
-12.143
-10.093
-7.945
-5.709
-3.396
-1.019
1.41
3.874
6.356
8.839
11.304
13.732
16.102
18.393
20.584
22.657
24.592
26.371
27.974
29.381
30.571
31.529
32.236
32.68
32.847
32.725
32.307
31.593
30.583
29.277
27.673
25.764
23.544
21.017
18.188
15.067
11.671
8.021
4.147
0.093
-4.096
-8.378
-12.712
-17.067
-21.412
-25.702
-29.886
-33.902
-37.687
-41.195
-44.387
-47.224
-49.697
-51.815
-53.613
-55.163
-56.531
-57.777
-58.976
-60.202
-61.541
-63.105
-64.988
-67.306
-70.233
-73.859
-78.199
-83.171
-88.458
-93.682
-98.509
-102.481
-105.086
-106.003
-105.018
-102.244
-98.423
-94.338
-90.692
-88.28
-87.683
-89.222
-93.077
-98.703
-104.442
-108.245
-107.821
-100.796
-85.015
-58.237
-18.405
35.962
103.809
181.26
264.218
348.441
432.749
520.075
609.483
694.644
762.936
795.097
778.167
710.142
598.479
458.47
302.597
139.47
-23.85
-178.547
-310.189
-408.05
-467.581
-493.03
-498.301
-493.055
-481.638
-464.505
-437.345
-400.131
-356.952
-312.116
-270.745
-235.95
-208.487
-188.738
-176.198
-169.686
-167.941
-169.575
-173.138
-177.105
-179.966
-180.351
-177.593
-171.856
-163.642
-153.612
-142.501
-131.08
-120.287
-111.147
-104.222
-99.556
-96.963
-96.065
-96.496
-97.997
-100.212
-102.682
-105.098
-107.278
-109.138
-110.708
-111.984
-112.89
-113.361
-113.375
-112.931
-112.067
-110.835
-109.258
-107.373
-105.214
-102.816
-100.226
-97.493
-94.659
-91.753
-88.806
-85.855
-82.959
-80.199
-77.63
-75.277
-73.14
-71.201
-69.444
-67.853
-66.408
-65.073
-63.814
-62.602
-61.414
-60.236
-59.047
-57.82
-56.515
-55.082
-53.485
-51.698
-49.701
-47.478
-45.018
-42.308
-39.345
-36.135
-32.681
-28.985
-25.043
-20.851
-16.41
-11.725
-6.802
-1.652
3.716
9.291
15.062
21.014
27.133
33.404
39.813
46.345
52.984
59.711
66.506
73.347
80.212
87.08
93.924
100.722
107.446
114.074
120.58
126.94
133.131
139.128
144.908
150.449
155.732
160.732
165.429
169.801
173.831
177.5
180.798
183.704
186.201
188.288
189.961
191.217
192.062
192.482
192.46
192.007
191.138
189.827
188.054
185.809
183.072
179.877
176.284
172.281
167.836
163.092
158.214
153.132
147.877
142.499
136.704
131.367
127.338
123.461
119.402
113.015
101.726
88.438
75.093
64.571
60.819
60.39
60.366
58.753
52.242
43.234
34.158
25.569
18.954
13.473
8.041
2.878
-2.146
-6.948
-11.3
-15.342
-19.187
-22.795
-26.156
-29.284
-32.179
-34.834
-37.249
-39.408
-41.292
-42.918
-44.304
-45.454
-46.379
-47.088
-47.589
-47.897
-48.025
-47.984
-47.783
-47.434
-46.948
-46.337
-45.613
-44.787
-43.87
-42.873
-41.808
-40.686
-39.516
-38.309
-37.073
-35.819
-34.554
-33.286
-32.022
-30.771
-29.537
-28.328
-27.15
-26.006
-24.903
-23.844
-22.834
-21.875
-20.97
-20.121
-19.331
-18.6
-17.931
-17.323
-16.777
-16.294
-15.874
-15.516
-15.221
-14.987
-14.814
-14.699
-14.641
-14.638
-14.688
-14.788
-14.936
-15.13
-15.366
-15.643
-15.958
-16.308
-16.69
-17.101
-17.538
-17.998
-18.478
-18.976
-19.488
-20.012
-20.547
-21.089
-21.637
-22.191
-22.749
-23.309
-23.871
-24.435
-24.999
-25.563
-26.126
-26.689
-27.251
-27.813
-28.375
-28.939
-29.506
-30.076
-30.651
-31.234
-31.824
-32.423
-33.032
-33.652
-34.284
-34.931
-35.592
-36.27
-36.964
-37.676
-38.406
-39.154
-39.919
-40.698
-41.49
-42.291
-43.098
-43.908
-44.713
-45.51
-46.293
-47.058
-47.801
-48.518
-49.202
-49.848
-50.452
-51.009
-51.511
-51.95
-52.314
-52.594
-52.783
-52.873
-52.858
-52.731
-52.484
-52.114
-51.621
-51.001
-50.251
-49.361
-48.318
-47.116
-45.759
-44.257
-42.629
-40.889
-39.05
-37.133
-35.166
-33.168
-31.153
-29.118
-27.044
-24.928
-22.777
-20.613
-18.473
-16.379
-14.334
-12.339
-10.39
-8.478
-6.605
-4.747
-2.859
-0.929
1.031
2.974
4.811
6.479
7.945
9.186
10.209
11.005
11.544
11.806
11.765
11.378
10.626
9.47
7.827
5.674
3.012
-0.127
-3.604
-7.287
-11.136
-15.159
-19.402
-23.896
-28.574
-33.3
-37.978
-42.599
-47.026
-50.867
-53.894
-56.139
-57.61
-58.79
-59.421
-57.978
-54.988
-52.146
-52.29
-60.424
-75.79
-92.862
-105.762
-106.552
-95.022
-78.249
-61.861
-52.424
-51.249
-53.479
-56.637
-58.975
-59.932
-61.762
-65.493
-70.589
-76.834
-83.811
-90.944
-98.17
-105.437
-111.947
-116.464
-118.006
-115.086
-105.937
-89.135
-62.952
-25.961
22.31
81.612
150.989
228.38
309.953
390.253
463.282
524.479
573.212
610.979
637.818
649.898
636.471
586.532
495.205
364.147
206.704
40.637
-118.474
-254.371
-357.66
-426.134
-460.961
-470.498
-464.969
-449.939
-428.491
-400.628
-364.306
-321.293
-275.505
-230.93
-192.182
-161.712
-140.022
-126.741
-120.463
-119.466
-122.098
-126.748
-131.689
-135.327
-136.368
-134.24
-129.175
-121.775
-112.824
-103.125
-93.491
-84.788
-77.862
-73.13
-70.537
-69.851
-70.675
-72.539
-75.033
-77.825
-80.583
-82.905
-84.616
-85.672
-85.791
-85.884
-86.813
-87.406
-87.363
-84.508
-76.24
-65.619
-54.712
-46.581
-45.395
-47.674
-50.473
-51.776
-48.199
-42.252
-36.455
-31.378
-28.544
-27.054
-25.752
-24.832
-24.109
-23.62
-23.551
-23.699
-23.889
-24.101
-24.29
-24.398
-24.392
-24.253
-23.96
-23.516
-22.927
-22.173
-21.232
-20.092
-18.743
-17.17
-15.364
-13.313
-11.008
-8.447
-5.626
-2.54
0.814
4.44
8.341
12.516
16.963
21.68
26.662
31.898
37.376
43.078
48.987
55.086
61.354
67.77
74.311
80.953
87.675
94.458
101.283
108.128
114.969
121.782
128.542
135.226
141.808
148.261
154.551
160.643
166.506
172.117
177.455
182.5
187.219
191.569
195.529
199.081
202.212
204.915
207.167
208.946
210.272
211.187
211.7
211.815
211.536
210.835
209.73
208.272
206.446
204.22
201.754
199.233
196.587
193.84
191.007
187.715
184.796
183.033
181.072
178.434
172.888
161.887
148.634
135.419
125.289
122.199
122.721
123.967
123.625
117.652
107.606
94.844
80.018
66.503
53.622
39.527
22.887
-0.279
-27.882
-52.585
-67.701
-65.016
-44.394
-14.531
16.901
41.505
55.97
63.885
66.762
65.767
61.671
53.052
40.543
26.236
11.536
-1.964
-12.823
-20.518
-24.899
-26.12
-25.104
-23.006
-20.477
-17.959
-15.86
-14.311
-13.394
-13.143
-13.253
-13.328
-13.195
-12.788
-12.12
-11.309
-10.41
-9.429
-8.431
-7.482
-6.612
-5.839
-5.139
-4.466
-3.793
-3.115
-2.433
-1.759
-1.096
-0.439
0.22
0.886
1.561
2.238
2.911
3.572
4.216
4.833
5.411
5.936
6.398
6.791
7.113
7.368
7.554
7.672
7.72
7.697
7.606
7.448
7.224
6.934
6.58
6.163
5.685
5.149
4.558
3.913
3.217
2.471
1.679
0.843
-0.032
-0.945
-1.89
-2.866
-3.866
-4.888
-5.928
-6.983
-8.049
-9.123
-10.201
-11.282
-12.363
-13.443
-14.52
-15.594
-16.664
-17.73
-18.792
-19.851
-20.907
-21.96
-23.011
-24.06
-25.107
-26.153
-27.198
-28.241
-29.285
-30.327
-31.368
-32.408
-33.446
-34.481
-35.513
-36.54
-37.56
-38.573
-39.577
-40.568
-41.546
-42.506
-43.445
-44.36
-45.246
-46.099
-46.912
-47.68
-48.398
-49.059
-49.655
-50.182
-50.631
-50.996
-51.269
-51.445
-51.517
-51.477
-51.321
-51.043
-50.637
-50.1
-49.427
-48.617
-47.667
-46.575
-45.341
-43.967
-42.452
-40.801
-39.015
-37.1
-35.06
-32.903
-30.636
-28.268
-25.809
-23.272
-20.671
-18.022
-15.34
-12.643
-9.95
-7.28
-4.653
-2.088
0.398
2.786
5.059
7.199
9.187
11.004
12.632
14.056
15.261
16.234
16.961
17.434
17.651
17.611
17.313
16.753
15.921
14.808
13.413
11.736
9.78
7.559
5.088
2.391
-0.487
-3.505
-6.617
-9.784
-12.974
-16.155
-19.285
-22.314
-25.185
-27.841
-30.24
-32.341
-34.11
-35.537
-36.633
-37.444
-38.048
-38.521
-38.939
-39.39
-39.965
-40.772
-41.931
-43.542
-45.73
-48.664
-52.437
-57.054
-62.409
-68.164
-73.905
-79.224
-83.597
-86.437
-87.359
-86.196
-83.147
-79
-74.693
-71.112
-69.233
-69.912
-73.549
-80.049
-88.511
-96.919
-102.752
-103.239
-95.376
-76.449
-44.209
2.981
65.605
142.888
231.634
326.176
420.64
508.63
587.478
659.133
721.727
771.625
799.444
787.852
728.623
620.593
470.024
296.82
117.193
-54.682
-203.871
-323.924
-409.304
-458.474
-476.099
-468.512
-443.268
-405.389
-360.975
-313.685
-266.273
-224.649
-188.928
-159.793
-138.846
-123.551
-114.874
-113.347
-116.978
-124.887
-134.493
-142.615
-147.508
-148.248
-144.899
-138.225
-129.156
-118.649
-107.649
-97.34
-88.863
-82.746
-79.137
-77.872
-78.465
-80.47
-83.438
-86.765
-89.914
-92.575
-94.57
-95.849
-96.428
-96.286
-95.419
-93.878
-91.734
-89.051
-85.88
-82.259
-78.259
-73.988
-69.582
-65.189
-60.913
-56.821
-52.969
-49.401
-46.165
-43.299
-40.809
-38.684
-36.911
-35.479
-34.374
-33.581
-33.057
-32.752
-32.608
-32.561
-32.564
-32.578
-32.569
-32.504
-32.357
-32.103
-31.725
-31.214
-30.556
-29.733
-28.727
-27.519
-26.096
-24.448
-22.568
-20.447
-18.079
-15.457
-12.576
-9.432
-6.02
-2.338
1.617
5.847
10.349
15.119
20.148
25.428
30.944
36.685
42.633
48.771
55.079
61.538
68.126
74.821
81.601
88.441
95.316
102.201
109.068
115.891
122.641
129.292
135.814
142.182
148.366
154.341
160.082
165.564
170.762
175.654
180.218
184.432
188.278
191.739
194.797
197.439
199.651
201.425
202.754
203.63
204.05
204.011
203.51
202.549
201.132
199.266
196.958
194.22
191.062
187.5
183.551
179.233
174.566
169.566
164.251
158.641
152.761
146.637
140.298
133.765
127.059
120.196
113.194
106.075
98.86
91.567
84.217
76.83
69.433
62.067
54.773
47.591
40.55
33.664
26.95
20.436
14.159
8.182
2.561
-2.682
-7.528
-11.979
-16.046
-19.693
-22.928
-25.855
-28.526
-30.965
-33.113
-34.704
-35.502
-35.519
-34.829
-33.537
-31.963
-30.372
-29.18
-29.261
-31.414
-35.964
-42.821
-51.485
-60.996
-70.301
-78.386
-83.878
-85.165
-82.18
-75.553
-64.905
-51.48
-34.563
-12.812
9.329
28.467
40.259
39.922
31.486
19.252
6.766
-1.398
-6.934
-11.562
-14.91
-17.912
-19.621
-19.444
-18.521
-17.301
-16.115
-15.396
-15.211
-15.613
-16.704
-18.284
-19.89
-21.244
-22.256
-22.922
-23.338
-23.573
-23.635
-23.569
-23.478
-23.429
-23.456
-23.558
-23.691
-23.827
-23.963
-24.111
-24.305
-24.569
-24.913
-25.337
-25.829
-26.372
-26.941
-27.516
-28.075
-28.603
-29.089
-29.533
-29.939
-30.317
-30.677
-31.02
-31.342
-31.639
-31.907
-32.144
-32.355
-32.541
-32.707
-32.859
-33.003
-33.145
-33.289
-33.439
-33.595
-33.754
-33.916
-34.078
-34.241
-34.405
-34.57
-34.739
-34.913
-35.094
-35.287
-35.493
-35.715
-35.955
-36.215
-36.496
-36.8
-37.128
-37.482
-37.863
-38.272
-38.71
-39.178
-39.676
-40.204
-40.761
-41.346
-41.957
-42.592
-43.248
-43.92
-44.607
-45.302
-46.001
-46.7
-47.392
-48.072
-48.734
-49.371
-49.977
-50.543
-51.061
-51.523
-51.921
-52.245
-52.489
-52.642
-52.697
-52.646
-52.483
-52.199
-51.789
-51.246
-50.565
-49.742
-48.773
-47.655
-46.388
-44.972
-43.407
-41.697
-39.846
-37.86
-35.747
-33.517
-31.18
-28.75
-26.24
-23.667
-21.048
-18.399
-15.741
-13.091
-10.468
-7.892
-5.381
-2.956
-0.637
1.555
3.596
5.469
7.152
8.627
9.876
10.886
11.644
12.143
12.375
12.328
11.989
11.346
10.393
9.127
7.555
5.685
3.533
1.127
-1.493
-4.287
-7.213
-10.233
-13.32
-16.444
-19.571
-22.653
-25.63
-28.452
-31.072
-33.46
-35.594
-37.458
-39.061
-40.45
-41.71
-42.922
-44.158
-45.47
-46.912
-48.556
-50.492
-52.83
-55.658
-59.072
-63.216
-68.132
-73.789
-80.039
-86.502
-92.732
-98.309
-102.719
-105.403
-106.039
-104.453
-100.826
-95.945
-90.57
-85.39
-81.211
-78.673
-78.196
-79.927
-83.151
-86.084
-86.726
-82.887
-72.262
-52.689
-21.838
22.195
80.35
151.356
231.727
317.574
404.505
490.008
574.52
656.128
729.85
786.501
810.914
791.85
726.535
619.45
483.706
332.068
172.321
11.565
-143.052
-281.102
-390.222
-461.91
-494.141
-492.833
-466.709
-425.235
-378.341
-331.636
-289.835
-254.735
-222.523
-191.276
-160.068
-130.157
-106.647
-92.125
-86.844
-89.393
-96.623
-106.194
-116.238
-125.036
-131.378
-134.588
-134.742
-132.377
-128.016
-122.275
-115.901
-109.742
-104.779
-101.485
-99.77
-99.349
-99.796
-100.765
-102.024
-103.231
-103.958
-103.943
-103.073
-101.36
-98.944
-95.919
-92.342
-88.317
-83.973
-79.468
-74.955
-70.54
-66.296
-62.274
-58.503
-55.023
-51.862
-49.035
-46.564
-44.452
-42.689
-41.276
-40.204
-39.451
-38.989
-38.761
-38.706
-38.775
-38.923
-39.116
-39.326
-39.524
-39.682
-39.783
-39.81
-39.741
-39.56
-39.239
-38.756
-38.089
-37.222
-36.14
-34.833
-33.288
-31.493
-29.436
-27.109
-24.503
-21.609
-18.42
-14.926
-11.125
-7.016
-2.602
2.112
7.121
12.415
17.983
23.81
29.883
36.185
42.697
49.401
56.274
63.293
70.435
77.673
84.982
92.333
99.698
107.048
114.355
121.588
128.717
135.714
142.548
149.192
155.615
161.791
167.693
173.296
178.575
183.506
188.068
192.24
196.005
199.344
202.245
204.692
206.677
208.191
209.226
209.778
209.846
209.43
208.531
207.153
205.305
202.994
200.232
197.03
193.405
189.372
184.951
180.16
175.022
169.559
163.796
157.759
151.473
144.966
138.265
131.4
124.398
117.287
110.098
102.857
95.593
88.333
81.106
73.936
66.849
59.87
53.022
46.326
39.803
33.472
27.35
21.453
15.794
10.388
5.244
0.372
-4.22
-8.527
-12.544
-16.268
-19.7
-22.838
-25.687
-28.248
-30.527
-32.529
-34.263
-35.736
-36.958
-37.938
-38.687
-39.217
-39.54
-39.668
-39.614
-39.393
-39.016
-38.498
-37.851
-37.09
-36.228
-35.277
-34.25
-33.159
-32.017
-30.835
-29.624
-28.395
-27.159
-25.924
-24.7
-23.495
-22.318
-21.174
-20.07
-19.012
-18.006
-17.056
-16.166
-15.339
-14.578
-13.886
-13.264
-12.713
-12.235
-11.829
-11.496
-11.235
-11.044
-10.925
-10.873
-10.889
-10.971
-11.115
-11.32
-11.583
-11.9
-12.269
-12.686
-13.147
-13.648
-14.187
-14.757
-15.357
-15.98
-16.624
-17.283
-17.955
-18.635
-19.318
-20.002
-20.682
-21.356
-22.019
-22.67
-23.305
-23.921
-24.516
-25.088
-25.635
-26.155
-26.645
-27.105
-27.534
-27.931
-28.295
-28.626
-28.924
-29.191
-29.427
-29.635
-29.815
-29.97
-30.103
-30.218
-30.317
-30.405
-30.485
-30.562
-30.64
-30.724
-30.817
-30.926
-31.052
-31.202
-31.378
-31.585
-31.826
-32.104
-32.423
-32.786
-33.195
-33.654
-34.163
-34.725
-35.342
-36.014
-36.741
-37.523
-38.359
-39.248
-40.187
-41.174
-42.203
-43.271
-44.372
-45.5
-46.647
-47.806
-48.968
-50.124
-51.265
-52.38
-53.46
-54.494
-55.471
-56.382
-57.216
-57.963
-58.613
-59.157
-59.585
-59.889
-60.058
-60.087
-59.965
-59.686
-59.243
-58.631
-57.845
-56.88
-55.734
-54.405
-52.892
-51.197
-49.322
-47.271
-45.05
-42.664
-40.124
-37.439
-34.622
-31.687
-28.649
-25.524
-22.334
-19.099
-15.839
-12.577
-9.335
-6.133
-2.996
0.054
2.995
5.803
8.455
10.931
13.208
15.263
17.074
18.621
19.889
20.865
21.537
21.896
21.936
21.65
21.036
20.093
18.82
17.219
15.299
13.069
10.54
7.736
4.683
1.417
-2.019
-5.591
-9.26
-12.992
-16.751
-20.492
-24.175
-27.76
-31.216
-34.53
-37.679
-40.628
-43.33
-45.743
-47.873
-49.785
-51.544
-53.167
-54.701
-56.224
-57.934
-60.182
-63.182
-66.947
-71.407
-76.464
-82.035
-88.019
-93.974
-98.964
-102.161
-103.104
-101.707
-98.202
-92.667
-85.12
-76.15
-67.24
-60.117
-56.131
-55.786
-58.872
-65.561
-76.124
-89.986
-104.398
-114.705
-116.433
-107.226
-89.041
-65.189
-36.854
-1.645
48.843
122.678
222.995
346.891
481.111
610.724
722.439
803.693
850.51
858.477
822.48
743.949
622.371
464.363
286.759
105.241
-60.073
-192.078
-287.252
-347.468
-381.784
-403.171
-416.591
-422.469
-418.595
-401.19
-371.474
-334.004
-293.938
-255.963
-222.236
-193.757
-171.062
-153.98
-142.389
-135.481
-131.767
-130.433
-130.84
-131.91
-132.84
-132.763
-130.694
-126.6
-120.98
-114.107
-106.4
-98.401
-90.485
-83.289
-77.594
-73.623
-71.289
-70.438
-70.735
-71.923
-73.837
-76.161
-78.498
-80.577
-82.229
-83.371
-84
-84.098
-83.636
-82.63
-81.137
-79.233
-76.988
-74.463
-71.707
-68.75
-65.632
-62.392
-59.065
-55.708
-52.379
-49.132
-46.04
-43.156
-40.512
-38.133
-36.02
-34.155
-32.521
-31.089
-29.82
-28.686
-27.662
-26.721
-25.846
-25.008
-24.174
-23.307
-22.359
-21.291
-20.07
-18.666
-17.057
-15.227
-13.16
-10.849
-8.292
-5.488
-2.431
0.882
4.459
8.303
12.413
16.787
21.417
26.298
31.42
36.775
42.35
48.134
54.112
60.271
66.597
73.075
79.686
86.409
93.221
100.099
107.018
113.953
120.875
127.758
134.573
141.293
147.891
154.339
160.612
166.682
172.523
178.111
183.423
188.435
193.127
197.477
201.467
205.079
208.297
211.107
213.497
215.455
216.973
218.043
218.66
218.82
218.523
217.768
216.558
214.898
212.794
210.254
207.291
203.916
200.144
195.991
191.477
186.619
181.438
175.957
170.198
164.185
157.943
151.496
144.869
138.09
131.184
124.177
117.094
109.963
102.809
95.656
88.53
81.454
74.453
67.549
60.765
54.12
47.635
41.33
35.22
29.323
23.652
18.221
13.04
8.12
3.469
-0.907
-5.004
-8.818
-12.347
-15.592
-18.553
-21.232
-23.635
-25.764
-27.627
-29.229
-30.579
-31.685
-32.557
-33.203
-33.636
-33.865
-33.902
-33.76
-33.451
-32.987
-32.383
-31.651
-30.806
-29.859
-28.825
-27.716
-26.546
-25.327
-24.069
-22.786
-21.487
-20.183
-18.883
-17.596
-16.33
-15.093
-13.891
-12.731
-11.618
-10.557
-9.553
-8.61
-7.73
-6.917
-6.174
-5.502
-4.904
-4.379
-3.93
-3.556
-3.257
-3.033
-2.881
-2.8
-2.789
-2.845
-2.965
-3.147
-3.388
-3.684
-4.033
-4.431
-4.875
-5.362
-5.888
-6.45
-7.044
-7.669
-8.321
-8.996
-9.693
-10.409
-11.14
-11.885
-12.64
-13.403
-14.172
-14.944
-15.717
-16.487
-17.254
-18.014
-18.767
-19.51
-20.242
-20.962
-21.669
-22.363
-23.042
-23.706
-24.355
-24.99
-25.609
-26.214
-26.805
-27.383
-27.948
-28.503
-29.047
-29.583
-30.111
-30.632
-31.148
-31.66
-32.169
-32.677
-33.186
-33.697
-34.211
-34.73
-35.257
-35.791
-36.336
-36.89
-37.457
-38.034
-38.624
-39.226
-39.839
-40.463
-41.096
-41.738
-42.386
-43.038
-43.692
-44.343
-44.989
-45.625
-46.247
-46.85
-47.427
-47.974
-48.484
-48.953
-49.373
-49.74
-50.045
-50.284
-50.449
-50.534
-50.533
-50.439
-50.247
-49.95
-49.543
-49.023
-48.385
-47.625
-46.743
-45.735
-44.602
-43.343
-41.96
-40.454
-38.828
-37.088
-35.238
-33.287
-31.241
-29.111
-26.908
-24.645
-22.338
-20
-17.649
-15.302
-12.975
-10.688
-8.458
-6.301
-4.232
-2.269
-0.427
1.275
2.819
4.188
5.367
6.342
7.101
7.631
7.925
7.981
7.798
7.375
6.708
5.783
4.591
3.13
1.4
-0.592
-2.83
-5.299
-7.97
-10.8
-13.745
-16.764
-19.815
-22.879
-25.926
-28.915
-31.806
-34.534
-37.04
-39.286
-41.236
-42.859
-44.162
-45.161
-45.904
-46.486
-46.979
-47.455
-48.01
-48.713
-49.66
-50.968
-52.71
-55.019
-58.081
-61.966
-66.667
-72.035
-77.658
-83.108
-88.021
-91.895
-94.197
-94.6
-92.965
-89.674
-85.687
-81.992
-79.41
-78.623
-80.186
-84.373
-90.987
-98.879
-105.864
-109.232
-106.355
-95.081
-73.174
-38.6
9.898
72.836
148.173
230.982
316.518
400.179
478.886
553.579
623.189
682.538
723.732
733.686
700.858
622.59
502.29
349.496
179.379
5.226
-159.626
-299.222
-403.034
-466.559
-491.805
-490.678
-476.283
-455.973
-433.066
-406.035
-371.761
-331.751
-289.586
-249.089
-214.539
-187.653
-168.304
-155.876
-148.881
-145.728
-145.178
-145.959
-146.649
-145.991
-142.923
-137.012
-128.608
-118.341
-106.918
-95.08
-83.555
-73.146
-64.707
-58.664
-54.984
-53.448
-53.674
-55.286
-58.013
-61.482
-65.239
-68.979
-72.478
-75.588
-78.264
-80.421
-81.963
-82.865
-83.133
-82.796
-81.914
-80.534
-78.701
-76.487
-73.947
-71.135
-68.114
-64.932
-61.662
-58.382
-55.168
-52.108
-49.271
-46.697
-44.417
-42.436
-40.736
-39.3
-38.096
-37.081
-36.225
-35.497
-34.865
-34.309
-33.797
-33.293
-32.757
-32.141
-31.402
-30.511
-29.441
-28.17
-26.687
-24.979
-23.042
-20.877
-18.484
-15.86
-13.003
-9.905
-6.564
-2.979
0.846
4.906
9.196
13.709
18.439
23.376
28.512
33.836
39.338
45.009
50.837
56.807
62.902
69.103
75.392
81.747
88.147
94.569
100.99
107.386
113.735
120.012
126.195
132.259
138.181
143.937
149.504
154.86
159.982
164.85
169.442
173.74
177.726
181.381
184.691
187.641
190.218
192.411
194.209
195.605
196.592
197.165
197.32
197.057
196.377
195.282
193.776
191.865
189.559
186.866
183.798
180.369
176.591
172.481
168.057
163.336
158.338
153.085
147.597
141.898
136.011
129.959
123.767
117.459
111.059
104.591
98.08
91.55
85.025
78.527
72.08
65.704
59.422
53.254
47.217
41.331
35.611
30.074
24.732
19.598
14.685
10.001
5.556
1.356
-2.592
-6.285
-9.719
-12.894
-15.808
-18.464
-20.864
-23.011
-24.911
-26.569
-27.992
-29.188
-30.164
-30.93
-31.495
-31.869
-32.063
-32.089
-31.958
-31.681
-31.27
-30.737
-30.094
-29.353
-28.525
-27.621
-26.653
-25.632
-24.567
-23.47
-22.351
-21.218
-20.081
-18.949
-17.829
-16.729
-15.655
-14.614
-13.611
-12.652
-11.741
-10.883
-10.08
-9.337
-8.655
-8.038
-7.486
-7.002
-6.586
-6.238
-5.958
-5.746
-5.601
-5.522
-5.508
-5.557
-5.666
-5.835
-6.06
-6.34
-6.67
-7.047
-7.47
-7.933
-8.434
-8.969
-9.534
-10.126
-10.741
-11.375
-12.025
-12.687
-13.358
-14.034
-14.712
-15.388
-16.059
-16.721
-17.373
-18.011
-18.632
-19.235
-19.818
-20.378
-20.914
-21.426
-21.911
-22.37
-22.802
-23.208
-23.587
-23.94
-24.268
-24.573
-24.856
-25.118
-25.362
-25.59
-25.804
-26.007
-26.201
-26.389
-26.573
-26.756
-26.942
-27.133
-27.331
-27.539
-27.76
-27.995
-28.246
-28.515
-28.804
-29.112
-29.44
-29.789
-30.158
-30.545
-30.95
-31.37
-31.803
-32.245
-32.693
-33.142
-33.587
-34.023
-34.445
-34.846
-35.219
-35.56
-35.86
-36.112
-36.31
-36.446
-36.513
-36.503
-36.41
-36.226
-35.944
-35.56
-35.068
-34.463
-33.74
-32.895
-31.928
-30.836
-29.619
-28.278
-26.814
-25.23
-23.53
-21.72
-19.807
-17.799
-15.707
-13.543
-11.32
-9.054
-6.759
-4.453
-2.152
0.126
2.364
4.545
6.654
8.673
10.583
12.367
14.003
15.477
16.771
17.871
18.765
19.437
19.878
20.087
20.059
19.791
19.276
18.499
17.451
16.132
14.547
12.703
10.613
8.29
5.756
3.052
0.215
-2.716
-5.708
-8.741
-11.787
-14.803
-17.738
-20.53
-23.123
-25.485
-27.594
-29.423
-30.961
-32.213
-33.205
-33.998
-34.664
-35.266
-35.869
-36.545
-37.374
-38.448
-39.889
-41.855
-44.445
-47.655
-51.393
-55.441
-59.544
-63.483
-66.937
-69.467
-70.759
-70.676
-69.314
-67.175
-64.822
-62.626
-61.062
-60.627
-61.559
-63.998
-67.651
-71.406
-73.851
-73.534
-68.727
-57.751
-38.97
-10.464
29.196
80.751
143.301
213.574
287.882
362.398
435.286
508.905
583.957
656.252
716.677
748.544
735.85
673.235
563.221
416.674
251.2
80.855
-81.22
-219.51
-324.238
-390.755
-419.786
-422.21
-410.598
-391.925
-370.015
-344.092
-311.043
-272.376
-231.939
-193.583
-161.917
-139.054
-124.406
-116.75
-114.329
-115.243
-117.974
-121.251
-123.446
-123.081
-119.647
-113.246
-104.409
-94.068
-83.064
-72.063
-61.999
-53.825
-47.996
-44.649
-43.622
-44.466
-46.772
-50.185
-54.252
-58.508
-62.623
-66.343
-69.518
-72.092
-74.017
-75.265
-75.84
-75.765
-75.068
-73.781
-71.954
-69.663
-66.994
-64.043
-60.898
-57.633
-54.339
-51.122
-48.071
-45.258
-42.729
-40.498
-38.581
-36.994
-35.733
-34.78
-34.105
-33.661
-33.409
-33.317
-33.349
-33.462
-33.612
-33.741
-33.806
-33.774
-33.618
-33.316
-32.848
-32.193
-31.337
-30.276
-29.005
-27.52
-25.812
-23.871
-21.692
-19.271
-16.607
-13.703
-10.557
-7.169
-3.539
0.33
4.435
8.773
13.338
18.127
23.134
28.346
33.754
39.341
45.094
50.994
57.023
63.162
69.389
75.683
82.023
88.387
94.752
101.095
107.392
113.62
119.754
125.772
131.65
137.363
142.89
148.208
153.295
158.131
162.695
166.967
170.929
174.562
177.85
180.778
183.332
185.499
187.269
188.632
189.582
190.114
190.224
189.911
189.175
188.02
186.45
184.472
182.093
179.323
176.174
172.66
168.794
164.592
160.073
155.254
150.155
144.796
139.199
133.387
127.383
121.209
114.892
108.454
101.922
95.321
88.676
82.012
75.355
68.728
62.156
55.662
49.269
42.996
36.865
30.894
25.1
19.5
14.107
8.935
3.993
-0.708
-5.16
-9.358
-13.295
-16.97
-20.379
-23.521
-26.398
-29.011
-31.362
-33.456
-35.297
-36.893
-38.25
-39.376
-40.28
-40.974
-41.466
-41.769
-41.894
-41.854
-41.663
-41.332
-40.876
-40.308
-39.64
-38.887
-38.061
-37.173
-36.236
-35.26
-34.256
-33.234
-32.203
-31.171
-30.146
-29.136
-28.148
-27.187
-26.26
-25.371
-24.526
-23.729
-22.984
-22.294
-21.662
-21.089
-20.579
-20.132
-19.75
-19.432
-19.177
-18.986
-18.857
-18.787
-18.775
-18.818
-18.912
-19.055
-19.243
-19.474
-19.743
-20.048
-20.386
-20.753
-21.147
-21.564
-22.003
-22.46
-22.933
-23.418
-23.915
-24.419
-24.928
-25.441
-25.953
-26.463
-26.967
-27.463
-27.948
-28.42
-28.875
-29.313
-29.731
-30.128
-30.503
-30.856
-31.187
-31.496
-31.783
-32.051
-32.299
-32.53
-32.744
-32.943
-33.129
-33.304
-33.47
-33.629
-33.782
-33.933
-34.083
-34.234
-34.389
-34.549
-34.718
-34.896
-35.088
-35.296
-35.523
-35.772
-36.045
-36.347
-36.678
-37.042
-37.44
-37.873
-38.342
-38.845
-39.384
-39.955
-40.557
-41.186
-41.838
-42.512
-43.204
-43.909
-44.622
-45.337
-46.049
-46.753
-47.444
-48.111
-48.747
-49.342
-49.888
-50.379
-50.808
-51.165
-51.443
-51.632
-51.728
-51.725
-51.618
-51.394
-51.042
-50.547
-49.907
-49.129
-48.217
-47.172
-45.998
-44.698
-43.284
-41.774
-40.174
-38.476
-36.675
-34.76
-32.741
-30.64
-28.479
-26.28
-24.055
-21.796
-19.507
-17.209
-14.904
-12.591
-10.264
-7.898
-5.511
-3.162
-0.903
1.213
3.151
4.908
6.466
7.803
8.897
9.714
10.234
10.456
10.346
9.862
8.956
7.569
5.699
3.409
0.753
-2.208
-5.414
-8.832
-12.409
-16.082
-19.803
-23.527
-27.213
-30.825
-34.293
-37.53
-40.454
-42.984
-45.084
-46.783
-48.121
-49.162
-50.003
-50.728
-51.421
-52.179
-53.086
-54.221
-55.678
-57.559
-59.947
-62.967
-66.781
-71.464
-77.007
-83.239
-89.772
-96.16
-101.986
-106.737
-109.834
-110.877
-109.633
-106.258
-101.496
-96.148
-90.923
-86.641
-84.078
-83.724
-85.766
-89.61
-93.463
-95.19
-92.62
-83.116
-63.942
-32.651
13.097
73.696
146.631
228.779
316.332
406.924
500.553
595.143
686.294
764.087
814.026
824.127
785.634
699.405
574.588
421.871
255.005
84.012
-81.684
-230.581
-354.469
-443.257
-493.071
-505.784
-482.916
-434.57
-370.817
-302.346
-244.622
-203.539
-179.407
-168.101
-158.614
-146.215
-131.186
-115.882
-106.304
-104.425
-108.89
-117.631
-126.744
-133.766
-137.865
-138.659
-136.761
-132.907
-127.427
-120.876
-114.03
-107.659
-102.647
-99.444
-97.918
-97.78
-98.655
-100.151
-101.986
-103.84
-105.291
-106.098
-106.167
-105.453
-104.043
-102.016
-99.385
-96.226
-92.646
-88.746
-84.673
-80.555
-76.475
-72.521
-68.757
-65.216
-61.947
-58.975
-56.31
-53.976
-51.974
-50.297
-48.949
-47.92
-47.187
-46.718
-46.454
-46.333
-46.309
-46.337
-46.381
-46.415
-46.407
-46.333
-46.182
-45.934
-45.574
-45.084
-44.439
-43.618
-42.602
-41.377
-39.93
-38.253
-36.334
-34.163
-31.732
-29.033
-26.058
-22.801
-19.254
-15.41
-11.27
-6.831
-2.1
2.919
8.217
13.783
19.606
25.67
31.959
38.455
45.141
51.996
59
66.129
73.361
80.671
88.034
95.424
102.815
110.179
117.49
124.719
131.839
138.823
145.644
152.274
158.687
164.858
170.763
176.376
181.676
186.64
191.247
195.478
199.315
202.743
205.747
208.315
210.438
212.106
213.313
214.056
214.33
214.136
213.474
212.347
210.761
208.723
206.24
203.324
199.987
196.243
192.108
187.599
182.735
177.536
172.023
166.219
160.147
153.832
147.299
140.575
133.686
126.658
119.521
112.3
105.025
97.721
90.416
83.136
75.906
68.752
61.698
54.766
47.978
41.355
34.917
28.681
22.663
16.879
11.341
6.063
1.053
-3.68
-8.129
-12.288
-16.154
-19.725
-22.999
-25.978
-28.663
-31.059
-33.169
-35.001
-36.561
-37.858
-38.901
-39.702
-40.272
-40.622
-40.766
-40.717
-40.489
-40.097
-39.554
-38.876
-38.077
-37.172
-36.174
-35.098
-33.957
-32.765
-31.534
-30.276
-29.002
-27.723
-26.449
-25.19
-23.953
-22.748
-21.581
-20.459
-19.388
-18.374
-17.422
-16.535
-15.717
-14.97
-14.298
-13.701
-13.18
-12.736
-12.367
-12.073
-11.853
-11.704
-11.623
-11.608
-11.656
-11.763
-11.924
-12.138
-12.399
-12.703
-13.048
-13.429
-13.842
-14.285
-14.754
-15.246
-15.758
-16.287
-16.831
-17.386
-17.949
-18.519
-19.091
-19.665
-20.236
-20.804
-21.365
-21.917
-22.458
-22.987
-23.502
-24.002
-24.485
-24.951
-25.399
-25.829
-26.243
-26.643
-27.029
-27.401
-27.759
-28.104
-28.437
-28.761
-29.074
-29.378
-29.672
-29.959
-30.242
-30.526
-30.812
-31.1
-31.39
-31.681
-31.976
-32.284
-32.608
-32.952
-33.321
-33.715
-34.141
-34.608
-35.118
-35.671
-36.262
-36.881
-37.527
-38.2
-38.906
-39.653
-40.433
-41.224
-42.008
-42.759
-43.473
-44.171
-44.852
-45.506
-46.123
-46.665
-47.157
-47.689
-48.238
-48.689
-48.917
-48.752
-48.207
-47.521
-46.782
-45.925
-45.042
-44.326
-44.141
-45.006
-46.972
-49.561
-52.364
-55.154
-57.707
-59.793
-60.835
-60.023
-57.104
-52.485
-46.84
-40.725
-34.426
-28.127
-22.333
-17.746
-14.778
-13.357
-12.849
-12.653
-12.548
-12.425
-12.094
-11.276
-9.641
-7.059
-3.925
-0.637
2.649
5.819
8.872
11.792
14.397
16.535
18.306
19.809
21.085
22.183
23.035
23.57
23.813
23.785
23.472
22.857
21.916
20.618
18.98
17.023
14.763
12.23
9.45
6.46
3.307
0.039
-3.3
-6.671
-10.038
-13.366
-16.607
-19.702
-22.595
-25.238
-27.598
-29.645
-31.371
-32.797
-33.972
-34.99
-35.949
-36.933
-38.023
-39.3
-40.855
-42.8
-45.251
-48.283
-51.992
-56.503
-61.848
-68.008
-74.817
-81.862
-88.709
-94.969
-100.165
-103.798
-105.543
-105.152
-102.762
-99.14
-94.96
-90.676
-86.966
-84.445
-83.46
-84.553
-86.708
-86.622
-81.649
-69.341
-49.149
-24.849
1.536
30.794
66.072
116.839
191.093
291.018
415.309
552.78
687.923
806.372
891.269
932.224
923.891
863.179
755.579
607.346
427.966
233.89
40.927
-130.952
-264.215
-353.898
-401.959
-420.005
-423.618
-419.643
-410.152
-393.053
-363.817
-323.828
-277.923
-231.218
-189.332
-155.405
-130.208
-113.971
-105.822
-104.195
-107.481
-113.947
-121.826
-129.331
-134.815
-136.95
-135.199
-129.879
-121.711
-111.585
-100.432
-89.214
-78.932
-70.519
-64.463
-60.776
-59.223
-59.418
-60.952
-63.437
-66.462
-69.599
-72.562
-75.201
-77.391
-79.071
-80.202
-80.745
-80.71
-80.144
-79.073
-77.523
-75.548
-73.199
-70.545
-67.667
-64.613
-61.419
-58.137
-54.828
-51.577
-48.483
-45.608
-42.987
-40.648
-38.603
-36.858
-35.411
-34.231
-33.274
-32.504
-31.884
-31.39
-31.006
-30.701
-30.441
-30.185
-29.883
-29.496
-28.996
-28.35
-27.533
-26.523
-25.299
-23.853
-22.181
-20.278
-18.135
-15.742
-13.088
-10.164
-6.967
-3.495
0.253
4.277
8.574
13.141
17.97
23.056
28.389
33.961
39.763
45.783
52.007
58.417
64.994
71.718
78.566
85.517
92.543
99.62
106.72
113.816
120.882
127.888
134.806
141.607
148.262
154.742
161.019
167.065
172.852
178.354
183.546
188.403
192.903
197.024
200.745
204.05
206.921
209.344
211.306
212.798
213.809
214.335
214.371
213.916
212.971
211.537
209.622
207.232
204.377
201.07
197.325
193.158
188.588
183.635
178.32
172.667
166.702
160.45
153.939
147.197
140.252
133.135
125.874
118.499
111.039
103.525
95.985
88.447
80.94
73.49
66.125
58.869
51.747
44.781
37.994
31.405
25.033
18.895
13.006
7.38
2.028
-3.041
-7.818
-12.297
-16.476
-20.35
-23.921
-27.189
-30.158
-32.832
-35.217
-37.32
-39.15
-40.715
-42.026
-43.093
-43.927
-44.539
-44.943
-45.15
-45.173
-45.025
-44.72
-44.27
-43.69
-42.993
-42.193
-41.302
-40.334
-39.301
-38.216
-37.09
-35.936
-34.763
-33.581
-32.401
-31.23
-30.077
-28.948
-27.85
-26.788
-25.766
-24.788
-23.858
-22.979
-22.153
-21.382
-20.669
-20.014
-19.419
-18.886
-18.416
-18.009
-17.665
-17.385
-17.168
-17.013
-16.92
-16.886
-16.91
-16.991
-17.124
-17.308
-17.54
-17.816
-18.133
-18.487
-18.876
-19.295
-19.741
-20.21
-20.7
-21.208
-21.73
-22.266
-22.811
-23.365
-23.925
-24.488
-25.053
-25.617
-26.177
-26.731
-27.277
-27.81
-28.331
-28.835
-29.322
-29.79
-30.238
-30.665
-31.072
-31.458
-31.823
-32.17
-32.498
-32.809
-33.105
-33.388
-33.66
-33.924
-34.183
-34.439
-34.695
-34.955
-35.22
-35.493
-35.776
-36.071
-36.38
-36.705
-37.048
-37.41
-37.795
-38.204
-38.639
-39.102
-39.594
-40.116
-40.669
-41.251
-41.862
-42.499
-43.159
-43.838
-44.532
-45.238
-45.95
-46.664
-47.377
-48.084
-48.78
-49.463
-50.125
-50.759
-51.359
-51.914
-52.415
-52.851
-53.213
-53.491
-53.679
-53.769
-53.755
-53.634
-53.401
-53.05
-52.571
-51.95
-51.179
-50.255
-49.177
-47.953
-46.597
-45.129
-43.573
-41.957
-40.299
-38.613
-36.901
-35.154
-33.362
-31.513
-29.607
-27.659
-25.681
-23.682
-21.668
-19.637
-17.575
-15.455
-13.244
-10.895
-8.382
-5.697
-2.862
0.068
3.026
5.929
8.71
11.321
13.722
15.876
17.745
19.298
20.489
21.262
21.542
21.232
20.258
18.581
16.196
13.144
9.498
5.362
0.833
-3.992
-9.026
-14.193
-19.427
-24.669
-29.857
-34.915
-39.745
-44.221
-48.231
-51.689
-54.544
-56.773
-58.403
-59.498
-60.149
-60.468
-60.552
-60.487
-60.359
-60.258
-60.285
-60.553
-61.17
-62.278
-64.06
-66.638
-70.059
-74.251
-78.908
-83.627
-88
-91.515
-93.621
-93.937
-92.244
-88.69
-84.032
-79.221
-75.222
-73.097
-73.735
-77.622
-84.86
-94.711
-105.228
-113.939
-118.1
-114.508
-100.141
-72.557
-29.555
29.1
100.751
182.221
269.465
359.304
452.079
546.138
635.542
710.482
754.822
755.413
710.13
623.876
510.062
381.475
240.581
90.536
-64.47
-214.69
-339.532
-426.016
-470.907
-480.247
-471.407
-455.526
-436.172
-413.783
-383.903
-346.18
-304.751
-263.425
-226.554
-197.026
-175.296
-160.732
-152.042
-147.647
-146.064
-146.251
-147.193
-147.345
-145.35
-140.698
-133.495
-124.363
-114.144
-103.393
-92.61
-82.688
-74.558
-68.732
-65.356
-64.188
-64.763
-66.723
-69.767
-73.457
-77.3
-80.898
-83.929
-86.244
-87.838
-88.702
-88.836
-88.262
-87.014
-85.145
-82.731
-79.848
-76.571
-72.979
-69.145
-65.153
-61.095
-57.08
-53.24
-49.667
-46.417
-43.524
-41
-38.854
-37.097
-35.713
-34.662
-33.901
-33.386
-33.081
-32.961
-32.987
-33.112
-33.282
-33.438
-33.531
-33.531
-33.405
-33.128
-32.677
-32.029
-31.17
-30.1
-28.811
-27.294
-25.538
-23.529
-21.257
-18.718
-15.909
-12.828
-9.471
-5.838
-1.928
2.256
6.711
11.43
16.411
21.648
27.132
32.85
38.79
44.935
51.267
57.769
64.418
71.192
78.069
85.024
92.033
99.071
106.112
113.129
120.097
126.988
133.775
140.431
146.928
153.241
159.342
165.206
170.809
176.125
181.131
185.806
190.129
194.081
197.644
200.803
203.544
205.855
207.726
209.149
210.118
210.628
210.679
210.271
209.405
208.086
206.321
204.118
201.487
198.441
194.993
191.159
186.956
182.404
177.523
172.334
166.86
161.126
155.157
148.979
142.619
136.103
129.459
122.715
115.899
109.038
102.159
95.288
88.451
81.673
74.978
68.389
61.926
55.612
49.464
43.501
37.739
32.194
26.877
21.801
16.976
12.411
8.111
4.082
0.328
-3.151
-6.352
-9.279
-11.933
-14.318
-16.44
-18.306
-19.924
-21.301
-22.449
-23.378
-24.099
-24.624
-24.965
-25.135
-25.146
-25.011
-24.743
-24.354
-23.857
-23.264
-22.588
-21.84
-21.033
-20.177
-19.283
-18.361
-17.422
-16.473
-15.524
-14.582
-13.656
-12.75
-11.872
-11.027
-10.219
-9.453
-8.731
-8.056
-7.431
-6.856
-6.332
-5.86
-5.44
-5.07
-4.752
-4.482
-4.261
-4.087
-3.959
-3.875
-3.834
-3.833
-3.871
-3.946
-4.055
-4.197
-4.369
-4.569
-4.794
-5.043
-5.313
-5.601
-5.906
-6.224
-6.554
-6.893
-7.24
-7.592
-7.947
-8.306
-8.665
-9.026
-9.386
-9.746
-10.105
-10.463
-10.82
-11.177
-11.534
-11.89
-12.247
-12.605
-12.964
-13.326
-13.69
-14.059
-14.433
-14.813
-15.2
-15.597
-16.003
-16.422
-16.854
-17.301
-17.766
-18.252
-18.759
-19.29
-19.847
-20.432
-21.047
-21.692
-22.369
-23.079
-23.821
-24.595
-25.401
-26.237
-27.103
-27.995
-28.913
-29.853
-30.812
-31.787
-32.774
-33.768
-34.764
-35.759
-36.746
-37.72
-38.674
-39.603
-40.5
-41.357
-42.169
-42.926
-43.623
-44.25
-44.801
-45.267
-45.641
-45.915
-46.083
-46.138
-46.073
-45.884
-45.565
-45.113
-44.525
-43.797
-42.93
-41.923
-40.778
-39.495
-38.08
-36.535
-34.867
-33.083
-31.19
-29.196
-27.113
-24.954
-22.73
-20.458
-18.152
-15.828
-13.503
-11.195
-8.922
-6.698
-4.54
-2.465
-0.489
1.37
3.092
4.661
6.062
7.281
8.304
9.118
9.713
10.085
10.233
10.153
9.839
9.28
8.467
7.4
6.081
4.517
2.72
0.707
-1.502
-3.868
-6.352
-8.92
-11.536
-14.179
-16.824
-19.432
-21.958
-24.347
-26.543
-28.517
-30.245
-31.698
-32.877
-33.797
-34.495
-35.048
-35.523
-35.973
-36.468
-37.075
-37.871
-38.966
-40.445
-42.414
-45.035
-48.358
-52.359
-56.933
-61.761
-66.497
-70.854
-74.412
-76.694
-77.457
-76.56
-74.178
-71.028
-67.747
-64.851
-62.967
-62.562
-63.892
-67.043
-71.395
-75.39
-77.321
-75.354
-67.56
-52.144
-27.174
9.045
57.584
117.48
185.579
258.357
331.896
404.434
477.722
551.244
620.592
676.285
702.569
687.409
627.403
527.402
399.585
255.283
103.709
-46.842
-186.087
-299.434
-377.072
-415.752
-421.2
-408.414
-387.865
-364.77
-340.297
-310.16
-274.33
-236.632
-200.798
-171.705
-151.438
-138.973
-132.997
-131.71
-133.051
-135.445
-137.425
-137.344
-134.36
-128.482
-119.985
-109.56
-98.207
-86.789
-76.199
-67.478
-61.146
-57.27
-55.796
-56.392
-58.611
-62.07
-66.227
-70.411
-74.22
-77.433
-79.917
-81.708
-82.774
-82.99
-82.411
-81.241
-79.63
-77.707
-75.4
-72.333
-68.354
-63.652
-58.368
-52.544
-46.31
-39.842
-33.738
-29.417
-26.983
-24.801
-21.962
-18.652
-18.649
-29.215
-53.368
-86.617
-117.105
-128.613
-111.528
-69.382
-16.956
26.124
45.455
38.496
14.409
-12.784
-32.192
-39.417
-37.58
-33.404
-30.905
-31.009
-32.402
-32.338
-30.064
-26.61
-22.64
-18.709
-14.97
-11.03
-6.869
-2.795
1.215
5.397
9.869
14.739
19.988
25.429
31.001
36.751
42.669
48.73
54.905
61.133
67.391
73.69
80.027
86.388
92.755
99.096
105.385
111.601
117.725
123.741
129.629
135.368
140.93
146.289
151.418
156.296
160.902
165.215
169.213
172.876
176.188
179.138
181.715
183.91
185.713
187.115
188.11
188.694
188.866
188.627
187.977
186.921
185.463
183.612
181.374
178.763
175.788
172.463
168.801
164.819
160.534
155.964
151.129
146.05
140.747
135.243
129.56
123.721
117.75
111.67
105.504
99.276
93.009
86.726
80.449
74.201
68.003
61.877
55.841
49.916
44.12
38.468
32.977
27.662
22.535
17.608
12.892
8.397
4.129
0.095
-3.699
-7.251
-10.558
-13.618
-16.434
-19.005
-21.336
-23.43
-25.293
-26.929
-28.347
-29.553
-30.557
-31.367
-31.993
-32.445
-32.735
-32.875
-32.874
-32.747
-32.504
-32.158
-31.72
-31.203
-30.619
-29.977
-29.291
-28.569
-27.821
-27.059
-26.289
-25.522
-24.764
-24.022
-23.304
-22.614
-21.959
-21.341
-20.766
-20.237
-19.755
-19.323
-18.942
-18.613
-18.336
-18.111
-17.938
-17.814
-17.739
-17.711
-17.725
-17.781
-17.873
-18
-18.157
-18.341
-18.548
-18.774
-19.015
-19.269
-19.532
-19.8
-20.071
-20.342
-20.61
-20.873
-21.128
-21.374
-21.609
-21.833
-22.043
-22.239
-22.421
-22.59
-22.744
-22.885
-23.012
-23.128
-23.232
-23.327
-23.413
-23.493
-23.569
-23.643
-23.717
-23.795
-23.879
-23.972
-24.076
-24.195
-24.33
-24.485
-24.661
-24.861
-25.087
-25.34
-25.623
-25.937
-26.284
-26.664
-27.078
-27.527
-28.01
-28.528
-29.08
-29.666
-30.283
-30.932
-31.609
-32.313
-33.042
-33.794
-34.564
-35.349
-36.147
-36.951
-37.758
-38.563
-39.36
-40.143
-40.908
-41.647
-42.355
-43.026
-43.652
-44.227
-44.745
-45.199
-45.582
-45.887
-46.109
-46.24
-46.274
-46.206
-46.031
-45.743
-45.338
-44.811
-44.158
-43.377
-42.466
-41.422
-40.244
-38.933
-37.488
-35.912
-34.207
-32.375
-30.42
-28.349
-26.168
-23.884
-21.506
-19.044
-16.511
-13.921
-11.288
-8.628
-5.955
-3.286
-0.64
1.964
4.506
6.967
9.332
11.58
13.694
15.652
17.437
19.033
20.43
21.617
22.582
23.312
23.795
24.025
24.005
23.736
23.218
22.445
21.409
20.114
18.569
16.786
14.778
12.556
10.131
7.531
4.791
1.952
-0.936
-3.848
-6.759
-9.653
-12.522
-15.322
-17.995
-20.486
-22.742
-24.735
-26.483
-27.971
-29.155
-30.08
-30.849
-31.693
-32.993
-34.951
-37.555
-40.756
-44.488
-48.709
-53.354
-57.959
-61.621
-63.699
-63.98
-62.632
-60.073
-56.479
-51.952
-47.15
-43.368
-41.853
-43.35
-47.779
-54.508
-63.177
-73.425
-84.344
-94.356
-101.611
-104.358
-101.427
-92.154
-74.604
-47.07
-9.603
38.246
94.103
155.259
223.026
295.069
370.478
449.631
527.429
604.153
678.215
740.885
784.181
793.684
756.377
671.557
544.615
387.787
218.142
48.448
-109.582
-242.181
-339.757
-397.506
-416.646
-408.051
-384.951
-355.876
-325.552
-293.61
-257.844
-220.17
-184.196
-153.928
-133.043
-121.835
-118.715
-121.828
-128.516
-136.409
-143.662
-148.237
-148.942
-145.671
-138.672
-128.672
-116.807
-104.161
-91.879
-81.27
-73.074
-67.495
-64.54
-63.887
-65.107
-67.816
-71.473
-75.432
-79.271
-82.734
-85.662
-88.051
-89.853
-90.978
-91.413
-91.182
-90.307
-88.828
-86.77
-84.146
-81.017
-77.477
-73.639
-69.638
-65.589
-61.597
-57.75
-54.109
-50.731
-47.666
-44.94
-42.567
-40.548
-38.868
-37.514
-36.471
-35.714
-35.211
-34.918
-34.788
-34.768
-34.808
-34.862
-34.895
-34.875
-34.772
-34.562
-34.224
-33.742
-33.105
-32.3
-31.309
-30.118
-28.712
-27.078
-25.207
-23.092
-20.727
-18.108
-15.23
-12.09
-8.687
-5.018
-1.083
3.118
7.585
12.313
17.297
22.529
27.997
33.688
39.588
45.681
51.949
58.373
64.931
71.603
78.368
85.202
92.081
98.981
105.875
112.738
119.542
126.26
132.865
139.331
145.629
151.735
157.622
163.267
168.646
173.737
178.519
182.971
187.075
190.814
194.171
197.132
199.684
201.816
203.519
204.786
205.612
205.993
205.928
205.418
204.465
203.072
201.246
198.994
196.325
193.252
189.787
185.946
181.746
177.205
172.343
167.182
161.743
156.05
150.128
143.999
137.69
131.225
124.629
117.93
111.151
104.319
97.459
90.596
83.753
76.955
70.225
63.583
57.052
50.651
44.399
38.314
32.411
26.708
21.217
15.952
10.923
6.139
1.61
-2.66
-6.666
-10.405
-13.876
-17.079
-20.015
-22.687
-25.099
-27.256
-29.165
-30.831
-32.264
-33.471
-34.462
-35.248
-35.839
-36.246
-36.481
-36.556
-36.482
-36.273
-35.941
-35.498
-34.956
-34.329
-33.629
-32.867
-32.057
-31.21
-30.337
-29.449
-28.557
-27.669
-26.795
-25.942
-25.119
-24.331
-23.585
-22.886
-22.239
-21.649
-21.118
-20.651
-20.25
-19.916
-19.652
-19.458
-19.335
-19.282
-19.299
-19.386
-19.542
-19.764
-20.052
-20.403
-20.814
-21.283
-21.807
-22.383
-23.006
-23.673
-24.381
-25.124
-25.9
-26.705
-27.535
-28.386
-29.257
-30.143
-31.042
-31.951
-32.867
-33.789
-34.713
-35.637
-36.56
-37.48
-38.394
-39.302
-40.202
-41.095
-41.978
-42.852
-43.715
-44.568
-45.41
-46.241
-47.061
-47.87
-48.671
-49.462
-50.248
-51.028
-51.804
-52.58
-53.356
-54.135
-54.919
-55.709
-56.507
-57.315
-58.133
-58.963
-59.808
-60.668
-61.545
-62.441
-63.357
-64.294
-65.252
-66.233
-67.237
-68.262
-69.31
-70.38
-71.472
-72.585
-73.719
-74.873
-76.046
-77.235
-78.439
-79.654
-80.877
-82.102
-83.325
-84.54
-85.741
-86.922
-88.075
-89.197
-90.282
-91.324
-92.317
-93.256
-94.136
-94.951
-95.692
-96.352
-96.92
-97.386
-97.743
-97.984
-98.103
-98.095
-97.952
-97.671
-97.253
-96.694
-95.992
-95.138
-94.118
-92.928
-91.573
-90.062
-88.415
-86.646
-84.767
-82.801
-80.775
-78.707
-76.612
-74.488
-72.318
-70.1
-67.842
-65.565
-63.308
-61.089
-58.913
-56.781
-54.689
-52.629
-50.604
-48.596
-46.562
-44.496
-42.416
-40.373
-38.459
-36.742
-35.259
-34.039
-33.087
-32.424
-32.089
-32.114
-32.528
-33.368
-34.661
-36.464
-38.865
-41.895
-45.542
-49.736
-54.343
-59.254
-64.392
-69.684
-75.074
-80.497
-85.873
-91.134
-96.222
-101.074
-105.624
-109.78
-113.428
-116.5
-118.989
-120.963
-122.569
-123.931
-125.147
-126.298
-127.456
-128.73
-130.233
-132.075
-134.345
-137.092
-140.404
-144.438
-149.278
-154.885
-161.016
-167.141
-172.674
-177.151
-180.057
-180.845
-179.163
-174.867
-168.351
-160.623
-152.759
-145.653
-140.076
-136.684
-135.822
-137.298
-139.903
-141.346
-138.952
-130.149
-112.47
-83.451
-40.966
16.547
88.07
169.699
257.267
346.007
434.53
524.708
613.195
693.645
753.273
773.49
746.829
673.991
564.141
435.271
295.827
149.75
1.129
-146.946
-281.402
-388.06
-458.947
-491.261
-492.631
-472.496
-438.913
-401.367
-364.921
-334.258
-311.278
-291.015
-269.688
-244.275
-215.017
-187.437
-165.036
-149.218
-139.504
-133.293
-129.489
-127.694
-127.061
-126.966
-126.392
-124.657
-121.954
-118.415
-114.055
-109.094
-103.889
-99.095
-95.604
-93.81
-93.608
-94.775
-96.974
-99.891
-103.257
-106.647
-109.521
-111.548
-112.598
-112.653
-111.819
-110.166
-107.713
-104.538
-100.767
-96.517
-91.903
-87.031
-81.983
-76.862
-71.797
-66.898
-62.262
-57.957
-54.019
-50.462
-47.293
-44.505
-42.083
-40.007
-38.247
-36.769
-35.544
-34.532
-33.69
-32.97
-32.312
-31.665
-30.984
-30.235
-29.389
-28.425
-27.321
-26.064
-24.644
-23.049
-21.269
-19.289
-17.094
-14.67
-12.009
-9.1
-5.941
-2.525
1.153
5.098
9.31
13.794
18.548
23.573
28.869
34.432
40.255
46.33
52.643
59.18
65.928
72.869
79.982
87.247
94.644
102.149
109.74
117.393
125.082
132.782
140.465
148.105
155.674
163.145
170.49
177.68
184.688
191.488
198.053
204.358
210.378
216.089
221.469
226.497
231.152
235.418
239.278
242.716
245.721
248.281
250.389
252.036
253.219
253.935
254.183
253.964
253.282
252.142
250.55
248.516
246.05
243.165
239.875
236.196
232.145
227.743
223.008
217.965
212.635
207.042
201.213
195.173
188.948
182.565
176.052
169.436
162.744
156.003
149.239
142.48
135.75
129.074
122.475
115.976
109.6
103.366
97.295
91.403
85.709
80.227
74.971
69.954
65.187
60.679
56.438
52.471
48.782
45.375
42.25
39.409
36.849
34.568
32.561
30.823
29.346
28.123
27.143
26.399
25.877
25.567
25.457
25.534
25.784
26.194
26.751
27.44
28.248
29.161
30.165
31.245
32.39
33.584
34.816
36.073
37.342
38.612
39.871
41.11
42.317
43.484
44.602
45.663
46.66
47.586
48.437
49.207
49.893
50.491
51
51.417
51.741
51.973
52.112
52.159
52.116
51.984
51.766
51.464
51.082
50.622
50.089
49.486
48.817
48.087
47.299
46.459
45.571
44.64
43.671
42.667
41.635
40.579
39.503
38.411
37.308
36.198
35.085
33.972
32.862
31.759
30.665
29.583
28.515
27.463
26.428
25.412
24.416
23.439
22.484
21.549
20.634
19.74
18.866
18.012
17.176
16.357
15.555
14.768
13.995
13.234
12.483
11.741
11.005
10.275
9.548
8.822
8.095
7.366
6.631
5.89
5.14
4.38
3.607
2.821
2.019
1.2
0.363
-0.492
-1.366
-2.259
-3.171
-4.101
-5.048
-6.011
-6.988
-7.978
-8.977
-9.984
-10.995
-12.007
-13.016
-14.018
-15.009
-15.984
-16.937
-17.864
-18.758
-19.614
-20.425
-21.185
-21.887
-22.525
-23.092
-23.58
-23.984
-24.295
-24.508
-24.616
-24.612
-24.49
-24.245
-23.874
-23.371
-22.734
-21.96
-21.047
-19.996
-18.807
-17.48
-16.018
-14.425
-12.706
-10.866
-8.912
-6.853
-4.699
-2.46
-0.15
2.215
4.621
7.05
9.485
11.907
14.297
16.635
18.904
21.086
23.163
25.117
26.927
28.573
30.037
31.302
32.351
33.17
33.745
34.065
34.127
33.928
33.465
32.732
31.717
30.409
28.804
26.903
24.708
22.232
19.49
16.505
13.32
9.976
6.513
2.974
-0.614
-4.218
-7.797
-11.301
-14.668
-17.833
-20.749
-23.373
-25.669
-27.627
-29.254
-30.587
-31.698
-32.656
-33.532
-34.412
-35.381
-36.537
-38.003
-39.875
-42.289
-45.442
-49.429
-54.253
-59.792
-65.671
-71.482
-76.87
-81.339
-84.324
-85.466
-84.583
-81.934
-78.448
-75.027
-72.436
-71.506
-72.862
-76.879
-83.619
-92.136
-100.273
-105.607
-105.564
-97.557
-79.229
-48.115
-2.182
59.411
135.051
220.951
312.818
405.763
496.909
585.741
669.889
745.495
804.826
835.406
826.23
770.147
666.343
521.285
347.129
159.39
-25.316
-189.113
-318.813
-408.375
-457.279
-472.532
-463.174
-435.366
-396.04
-351.851
-307.278
-268.363
-237.579
-212.186
-191.052
-172.366
-156.014
-145.511
-142.064
-145.38
-153.761
-163.532
-171.782
-176.575
-176.989
-173.218
-165.709
-155.127
-142.448
-128.676
-115.082
-102.989
-93.087
-85.636
-80.606
-77.644
-76.383
-76.473
-77.408
-78.682
-80.019
-81.279
-82.436
-83.558
-84.618
-85.527
-86.232
-86.665
-86.779
-86.553
-85.96
-84.992
-83.684
-82.095
-80.295
-78.347
-76.282
-74.119
-71.87
-69.542
-67.172
-64.81
-62.515
-60.366
-58.419
-56.706
-55.245
-54.035
-53.059
-52.292
-51.698
-51.232
-50.862
-50.565
-50.319
-50.111
-49.917
-49.702
-49.428
-49.044
-48.506
-47.78
-46.836
-45.649
-44.202
-42.478
-40.471
-38.183
-35.61
-32.748
-29.592
-26.133
-22.369
-18.3
-13.928
-9.261
-4.306
0.927
6.426
12.178
18.169
24.382
30.802
37.414
44.201
51.141
58.214
65.396
72.662
79.987
87.345
94.709
102.05
109.341
116.553
123.66
130.634
137.447
144.071
150.479
156.644
162.54
168.143
173.425
178.365
182.938
187.123
190.901
194.254
197.167
199.624
201.615
203.13
204.161
204.704
204.755
204.313
203.38
201.957
200.05
197.667
194.817
191.511
187.763
183.588
179.003
174.027
168.68
162.983
156.96
150.636
144.036
137.188
130.121
122.863
115.446
107.899
100.256
92.547
84.803
77.056
69.336
61.673
54.096
46.632
39.308
32.15
25.181
18.423
11.898
5.626
-0.378
-6.096
-11.515
-16.624
-21.411
-25.869
-29.99
-33.77
-37.207
-40.298
-43.045
-45.449
-47.516
-49.251
-50.661
-51.757
-52.55
-53.053
-53.279
-53.243
-52.962
-52.453
-51.733
-50.821
-49.736
-48.495
-47.119
-45.625
-44.033
-42.361
-40.628
-38.85
-37.046
-35.23
-33.42
-31.63
-29.875
-28.166
-26.519
-24.943
-23.45
-22.05
-20.753
-19.566
-18.496
-17.55
-16.733
-16.047
-15.496
-15.081
-14.802
-14.66
-14.652
-14.775
-15.027
-15.404
-15.9
-16.51
-17.227
-18.047
-18.96
-19.961
-21.04
-22.192
-23.408
-24.68
-26.001
-27.363
-28.758
-30.179
-31.618
-33.068
-34.522
-35.972
-37.41
-38.831
-40.228
-41.595
-42.925
-44.215
-45.458
-46.651
-47.789
-48.869
-49.888
-50.844
-51.734
-52.557
-53.314
-54.004
-54.629
-55.19
-55.688
-56.126
-56.507
-56.834
-57.11
-57.338
-57.521
-57.663
-57.768
-57.839
-57.882
-57.899
-57.897
-57.879
-57.85
-57.815
-57.778
-57.745
-57.719
-57.704
-57.706
-57.728
-57.774
-57.849
-57.956
-58.097
-58.275
-58.493
-58.75
-59.046
-59.381
-59.751
-60.154
-60.587
-61.045
-61.521
-62.011
-62.511
-63.014
-63.518
-64.015
-64.5
-64.968
-65.412
-65.825
-66.197
-66.517
-66.774
-66.956
-67.053
-67.056
-66.957
-66.744
-66.41
-65.951
-65.359
-64.627
-63.745
-62.697
-61.471
-60.065
-58.484
-56.737
-54.844
-52.819
-50.681
-48.457
-46.167
-43.823
-41.428
-38.968
-36.43
-33.815
-31.133
-28.41
-25.673
-22.927
-20.174
-17.418
-14.64
-11.826
-8.96
-5.998
-2.919
0.263
3.514
6.757
9.898
12.876
15.64
18.155
20.399
22.334
23.921
25.131
25.914
26.213
25.962
25.068
23.463
21.133
18.103
14.452
10.304
5.761
0.916
-4.142
-9.347
-14.631
-19.923
-25.171
-30.301
-35.226
-39.84
-44.018
-47.657
-50.697
-53.12
-54.981
-56.383
-57.453
-58.311
-59.059
-59.788
-60.596
-61.58
-62.838
-64.475
-66.571
-69.246
-72.682
-76.965
-82.09
-87.878
-93.896
-99.642
-104.659
-108.434
-110.413
-110.201
-107.607
-102.939
-97.081
-91.033
-85.723
-81.826
-79.907
-80.573
-83.864
-88.697
-93.198
-93.889
-87.273
-71.954
-45.656
-8.152
39.876
101.023
174.155
258.445
353.246
451.94
550.34
643.104
722.292
782.791
816.787
815.462
772.123
682.718
547.817
376.268
185.718
-3.897
-170.067
-295.929
-378.869
-423.373
-441.911
-448.782
-448.801
-442.344
-426.773
-398.198
-358.441
-312.468
-265.259
-221.905
-185.402
-156.807
-136.687
-124.6
-119.396
-119.734
-124.122
-131.008
-138.655
-145.336
-149.529
-150.477
-148.311
-143.548
-136.875
-129.059
-120.916
-113.389
-107.47
-103.685
-102.015
-102.202
-103.777
-106.24
-109.223
-112.295
-114.976
-116.985
-118.172
-118.48
-117.992
-116.782
-114.879
-112.361
-109.312
-105.795
-101.92
-97.796
-93.529
-89.264
-85.103
-81.117
-77.373
-73.92
-70.798
-68.045
-65.664
-63.638
-61.955
-60.607
-59.582
-58.87
-58.432
-58.214
-58.16
-58.206
-58.302
-58.407
-58.482
-58.491
-58.408
-58.205
-57.87
-57.395
-56.766
-55.965
-54.974
-53.772
-52.347
-50.69
-48.79
-46.641
-44.234
-41.562
-38.621
-35.408
-31.916
-28.142
-24.083
-19.735
-15.099
-10.179
-4.981
0.486
6.212
12.184
18.387
24.804
31.419
38.211
45.162
52.25
59.455
66.752
74.119
81.531
88.962
96.385
103.776
111.105
118.346
125.471
132.453
139.263
145.874
152.26
158.394
164.251
169.805
175.032
179.91
184.418
188.534
192.243
195.526
198.37
200.761
202.69
204.147
205.126
205.623
205.633
205.157
204.196
202.752
200.831
198.441
195.59
192.294
188.564
184.413
179.856
174.911
169.597
163.942
157.97
151.695
145.148
138.374
131.416
124.318
117.112
109.8
102.408
94.994
87.57
80.103
72.574
64.958
57.273
49.623
42.06
34.526
27.118
20.162
13.756
7.823
2.417
-2.753
-7.141
-8.838
-8.114
-6.755
-7.508
-15.741
-31.477
-49.235
-63.679
-67.213
-58.878
-45.966
-34.151
-29.409
-33.179
-40.055
-46.598
-50.613
-51.274
-50.792
-50.27
-49.627
-48.968
-47.988
-46.592
-45.099
-43.624
-42.128
-40.632
-39.167
-37.733
-36.331
-34.946
-33.539
-32.103
-30.67
-29.259
-27.873
-26.52
-25.206
-23.934
-22.718
-21.561
-20.465
-19.428
-18.452
-17.537
-16.684
-15.893
-15.162
-14.49
-13.875
-13.316
-12.81
-12.356
-11.951
-11.592
-11.277
-11.003
-10.769
-10.572
-10.41
-10.281
-10.183
-10.115
-10.073
-10.058
-10.067
-10.099
-10.152
-10.226
-10.319
-10.431
-10.561
-10.709
-10.875
-11.057
-11.256
-11.471
-11.702
-11.948
-12.209
-12.486
-12.777
-13.082
-13.402
-13.736
-14.085
-14.449
-14.827
-15.22
-15.626
-16.046
-16.478
-16.922
-17.377
-17.842
-18.317
-18.801
-19.294
-19.795
-20.305
-20.824
-21.351
-21.886
-22.428
-22.979
-23.538
-24.107
-24.684
-25.273
-25.873
-26.487
-27.115
-27.757
-28.415
-29.087
-29.773
-30.471
-31.181
-31.897
-32.618
-33.343
-34.067
-34.79
-35.51
-36.223
-36.931
-37.632
-38.324
-39.002
-39.662
-40.296
-40.899
-41.461
-41.974
-42.428
-42.816
-43.13
-43.363
-43.513
-43.573
-43.534
-43.386
-43.113
-42.705
-42.16
-41.47
-40.639
-39.675
-38.589
-37.41
-36.167
-34.877
-33.552
-32.195
-30.794
-29.343
-27.835
-26.259
-24.621
-22.921
-21.156
-19.335
-17.459
-15.514
-13.475
-11.295
-8.912
-6.301
-3.457
-0.389
2.854
6.221
9.647
13.037
16.322
19.44
22.33
24.96
27.296
29.276
30.832
31.869
32.271
31.969
30.92
29.095
26.524
23.253
19.367
15.007
10.297
5.338
0.225
-4.984
-10.233
-15.436
-20.505
-25.333
-29.795
-33.797
-37.264
-40.126
-42.361
-43.989
-45.093
-45.831
-46.357
-46.791
-47.218
-47.699
-48.316
-49.172
-50.382
-52.06
-54.287
-57.173
-60.88
-65.494
-70.968
-77.057
-83.194
-88.712
-93.066
-95.666
-95.929
-93.563
-88.517
-81.261
-73.057
-65.308
-59.213
-55.913
-56.197
-60.198
-67.529
-76.725
-84.911
-88.717
-84.701
-69.578
-40.662
3.904
65.113
142.622
232.874
329.675
426.651
516.847
597.233
669.367
730.67
776.997
799.528
782.068
717.531
605.778
452.238
275.636
92.89
-81.363
-229.467
-342.733
-418.393
-457.317
-469.668
-466.334
-452.751
-432.125
-404.076
-366.541
-321.874
-274.433
-228.39
-188.4
-156.919
-134.329
-120.155
-112.948
-110.877
-112.266
-115.603
-119.252
-121.609
-121.351
-117.886
-111.462
-102.778
-92.696
-82.011
-71.484
-61.996
-54.471
-49.415
-46.854
-46.548
-48.036
-50.864
-54.699
-59.129
-63.662
-67.944
-71.704
-74.752
-77.066
-78.643
-79.456
-79.538
-78.933
-77.677
-75.852
-73.543
-70.821
-67.78
-64.485
-60.984
-57.352
-53.674
-50.051
-46.597
-43.381
-40.438
-37.798
-35.475
-33.478
-31.807
-30.427
-29.288
-28.347
-27.562
-26.904
-26.351
-25.866
-25.407
-24.928
-24.377
-23.716
-22.919
-21.956
-20.804
-19.442
-17.853
-16.033
-13.983
-11.7
-9.179
-6.414
-3.394
-0.118
3.417
7.211
11.263
15.572
20.135
24.948
30.005
35.299
40.822
46.567
52.525
58.686
65.036
71.559
78.237
85.051
91.981
99.005
106.099
113.24
120.403
127.564
134.699
141.782
148.788
155.692
162.469
169.092
175.537
181.779
187.792
193.553
199.038
204.225
209.091
213.615
217.778
221.562
224.95
227.925
230.474
232.585
234.246
235.45
236.188
236.458
236.256
235.582
234.438
232.827
230.756
228.233
225.267
221.87
218.054
213.835
209.229
204.254
198.928
193.273
187.312
181.068
174.565
167.829
160.886
153.763
146.489
139.089
131.593
124.029
116.425
108.81
101.21
93.654
86.168
78.778
71.509
64.384
57.427
50.657
44.095
37.758
31.663
25.825
20.258
14.972
9.978
5.284
0.898
-3.177
-6.936
-10.379
-13.505
-16.316
-18.815
-21.007
-22.897
-24.492
-25.801
-26.833
-27.599
-28.11
-28.378
-28.417
-28.241
-27.864
-27.303
-26.571
-25.686
-24.663
-23.518
-22.268
-20.926
-19.511
-18.035
-16.515
-14.965
-13.399
-11.829
-10.269
-8.73
-7.224
-5.761
-4.35
-3
-1.72
-0.515
0.608
1.643
2.586
3.432
4.179
4.824
5.365
5.803
6.136
6.366
6.493
6.521
6.452
6.29
6.037
5.7
5.282
4.788
4.226
3.6
2.916
2.182
1.403
0.585
-0.264
-1.139
-2.034
-2.942
-3.859
-4.778
-5.694
-6.604
-7.501
-8.383
-9.245
-10.084
-10.897
-11.682
-12.437
-13.158
-13.846
-14.5
-15.119
-15.703
-16.253
-16.77
-17.257
-17.715
-18.147
-18.556
-18.945
-19.319
-19.682
-20.037
-20.389
-20.743
-21.103
-21.473
-21.859
-22.264
-22.692
-23.148
-23.636
-24.157
-24.716
-25.315
-25.954
-26.637
-27.364
-28.136
-28.953
-29.815
-30.72
-31.667
-32.654
-33.679
-34.736
-35.822
-36.931
-38.059
-39.196
-40.338
-41.475
-42.6
-43.704
-44.778
-45.815
-46.803
-47.733
-48.597
-49.384
-50.086
-50.692
-51.194
-51.584
-51.854
-51.996
-52.004
-51.873
-51.596
-51.169
-50.588
-49.852
-48.957
-47.904
-46.692
-45.325
-43.806
-42.14
-40.333
-38.395
-36.335
-34.165
-31.9
-29.553
-27.14
-24.679
-22.186
-19.681
-17.182
-14.707
-12.276
-9.908
-7.622
-5.439
-3.38
-1.463
0.292
1.865
3.239
4.398
5.328
6.021
6.468
6.661
6.593
6.25
5.627
4.723
3.539
2.078
0.349
-1.632
-3.838
-6.23
-8.772
-11.428
-14.17
-16.975
-19.816
-22.659
-25.469
-28.198
-30.811
-33.278
-35.564
-37.64
-39.487
-41.102
-42.524
-43.822
-45.059
-46.289
-47.547
-48.854
-50.266
-51.843
-53.657
-55.797
-58.301
-61.214
-64.635
-68.593
-73.045
-77.831
-82.559
-86.751
-90.04
-92.06
-92.44
-90.987
-87.598
-82.477
-76.363
-70.144
-64.561
-60.179
-57.451
-56.715
-58.159
-61.385
-64.252
-63.271
-55.189
-38.244
-14.176
13.434
42.555
74.864
117.921
179.626
264.329
370.436
486.277
598.119
691.552
752.233
773.78
753.071
691.808
598.628
480.323
342.419
191.574
33.669
-119.704
-250.905
-348.03
-405.789
-428.658
-431.667
-425.234
-413.949
-398.072
-372.512
-336.531
-293.964
-249.486
-208.862
-175.753
-151.253
-135.435
-127.327
-125.575
-128.683
-134.839
-142.312
-149.094
-153.235
-153.767
-150.448
-143.578
-133.998
-122.649
-110.403
-98.446
-88.02
-79.785
-74.014
-70.656
-69.322
-69.64
-71.264
-73.713
-76.494
-79.304
-81.954
-84.332
-86.395
-88.047
-89.208
-89.862
-90.022
-89.71
-88.933
-87.703
-86.052
-84.043
-81.759
-79.264
-76.599
-73.79
-70.881
-67.933
-65.033
-62.277
-59.722
-57.406
-55.363
-53.603
-52.135
-50.954
-50.026
-49.306
-48.756
-48.341
-48.036
-47.824
-47.676
-47.556
-47.423
-47.228
-46.93
-46.5
-45.906
-45.124
-44.132
-42.912
-41.457
-39.767
-37.839
-35.667
-33.243
-30.558
-27.607
-24.389
-20.903
-17.15
-13.134
-8.858
-4.329
0.446
5.458
10.697
16.154
21.819
27.678
33.718
39.92
46.265
52.734
59.305
65.955
72.661
79.398
86.14
92.864
99.544
106.155
112.67
119.065
125.313
131.39
137.269
142.928
148.341
153.486
158.34
162.882
167.092
170.951
174.442
177.55
180.26
182.561
184.442
185.895
186.914
187.494
187.634
187.332
186.591
185.414
183.807
181.777
179.335
176.491
173.258
169.651
165.685
161.379
156.751
151.82
146.609
141.139
135.435
129.519
123.417
117.154
110.755
104.247
97.656
91.006
84.323
77.633
70.959
64.325
57.754
51.267
44.886
38.629
32.514
26.559
20.778
15.187
9.796
4.618
-0.339
-5.065
-9.554
-13.801
-17.801
-21.553
-25.054
-28.305
-31.307
-34.062
-36.575
-38.85
-40.893
-42.71
-44.309
-45.697
-46.884
-47.878
-48.69
-49.329
-49.806
-50.132
-50.316
-50.37
-50.304
-50.127
-49.85
-49.483
-49.034
-48.513
-47.928
-47.288
-46.599
-45.871
-45.11
-44.322
-43.514
-42.692
-41.86
-41.025
-40.19
-39.359
-38.537
-37.726
-36.93
-36.152
-35.394
-34.657
-33.944
-33.256
-32.593
-31.958
-31.35
-30.77
-30.219
-29.696
-29.201
-28.735
-28.298
-27.89
-27.51
-27.16
-26.838
-26.545
-26.28
-26.044
-25.836
-25.656
-25.504
-25.379
-25.282
-25.212
-25.168
-25.151
-25.16
-25.194
-25.253
-25.337
-25.444
-25.576
-25.731
-25.91
-26.112
-26.338
-26.588
-26.862
-27.16
-27.483
-27.831
-28.205
-28.604
-29.029
-29.481
-29.961
-30.468
-31.003
-31.566
-32.158
-32.779
-33.429
-34.107
-34.815
-35.551
-36.315
-37.106
-37.926
-38.772
-39.643
-40.54
-41.459
-42.4
-43.361
-44.339
-45.33
-46.333
-47.343
-48.357
-49.37
-50.378
-51.375
-52.357
-53.317
-54.25
-55.148
-56.005
-56.814
-57.568
-58.26
-58.882
-59.428
-59.89
-60.263
-60.539
-60.712
-60.776
-60.725
-60.554
-60.258
-59.831
-59.27
-58.572
-57.734
-56.756
-55.635
-54.373
-52.972
-51.432
-49.759
-47.955
-46.027
-43.982
-41.828
-39.573
-37.229
-34.807
-32.321
-29.787
-27.222
-24.643
-22.068
-19.516
-17.006
-14.556
-12.187
-9.915
-7.756
-5.729
-3.85
-2.138
-0.611
0.715
1.824
2.704
3.341
3.725
3.848
3.709
3.308
2.645
1.716
0.513
-0.972
-2.738
-4.78
-7.09
-9.652
-12.446
-15.444
-18.603
-21.879
-25.226
-28.604
-31.982
-35.327
-38.598
-41.744
-44.709
-47.433
-49.874
-51.997
-53.769
-55.185
-56.257
-57.022
-57.554
-57.92
-58.194
-58.462
-58.813
-59.342
-60.164
-61.361
-63.049
-65.398
-68.471
-72.254
-76.632
-81.27
-85.823
-90.006
-93.4
-95.522
-96.089
-94.926
-92.191
-88.607
-84.82
-81.33
-78.75
-77.528
-77.884
-79.905
-82.967
-85.46
-85.647
-81.681
-71.582
-53.593
-25.838
13.499
65.54
129.47
202.365
280.348
358.994
436.02
512.448
589.051
664.079
730.403
774.424
780.209
735.782
637.577
490.05
308.368
114.149
-71.748
-226.306
-335.851
-400.588
-425.196
-424.565
-412.445
-391.93
-367.415
-338.248
-303.025
-267.525
-232.517
-199.215
-170.256
-144.288
-123.805
-110.712
-104.073
-103.775
-107.542
-112.924
-118.752
-123.456
-125.841
-125.521
-122.45
-117.035
-110.025
-102.108
-93.965
-86.43
-80.395
-76.358
-74.413
-74.386
-75.861
-78.407
-81.633
-85.104
-88.356
-91.09
-93.154
-94.454
-95.009
-94.847
-93.977
-92.454
-90.357
-87.743
-84.664
-81.205
-77.449
-73.512
-69.54
-65.629
-61.853
-58.27
-54.924
-51.86
-49.115
-46.694
-44.586
-42.782
-41.269
-40.04
-39.081
-38.354
-37.812
-37.401
-37.062
-36.748
-36.425
-36.056
-35.615
-35.079
-34.426
-33.645
-32.732
-31.676
-30.465
-29.085
-27.52
-25.761
-23.802
-21.637
-19.261
-16.671
-13.862
-10.832
-7.577
-4.095
-0.384
3.559
7.735
12.143
16.778
21.634
26.702
31.971
37.43
43.064
48.858
54.796
60.86
67.034
73.299
79.636
86.027
92.449
98.883
105.307
111.698
118.034
124.292
130.45
136.483
142.37
148.087
153.612
158.923
163.998
168.817
173.359
177.605
181.537
185.137
188.389
191.28
193.797
195.928
197.665
198.998
199.923
200.435
200.531
200.21
199.472
198.32
196.756
194.786
192.418
189.658
186.519
183.011
179.148
174.945
170.418
165.586
160.468
155.083
149.453
143.6
137.548
131.32
124.942
118.437
111.832
105.151
98.421
91.666
84.911
78.18
71.497
64.886
58.367
51.963
45.693
39.578
33.634
27.88
22.33
17
11.901
7.046
2.445
-1.895
-5.966
-9.764
-13.283
-16.523
-19.482
-22.161
-24.561
-26.687
-28.542
-30.133
-31.467
-32.552
-33.398
-34.015
-34.414
-34.606
-34.605
-34.422
-34.072
-33.567
-32.922
-32.15
-31.265
-30.282
-29.214
-28.076
-26.88
-25.641
-24.37
-23.081
-21.783
-20.49
-19.21
-17.955
-16.732
-15.55
-14.418
-13.343
-12.329
-11.385
-10.513
-9.718
-9.004
-8.372
-7.825
-7.363
-6.987
-6.696
-6.489
-6.365
-6.321
-6.355
-6.464
-6.644
-6.891
-7.2
-7.567
-7.987
-8.454
-8.964
-9.512
-10.092
-10.7
-11.331
-11.979
-12.641
-13.312
-13.988
-14.665
-15.34
-16.008
-16.667
-17.315
-17.948
-18.566
-19.166
-19.748
-20.311
-20.855
-21.381
-21.889
-22.381
-22.857
-23.321
-23.774
-24.22
-24.662
-25.104
-25.549
-26.002
-26.466
-26.945
-27.443
-27.964
-28.511
-29.088
-29.698
-30.343
-31.027
-31.752
-32.519
-33.331
-34.187
-35.089
-36.035
-37.026
-38.061
-39.136
-40.249
-41.397
-42.577
-43.783
-45.01
-46.252
-47.502
-48.753
-49.997
-51.224
-52.425
-53.591
-54.711
-55.774
-56.771
-57.692
-58.525
-59.26
-59.888
-60.399
-60.782
-61.03
-61.132
-61.081
-60.869
-60.49
-59.939
-59.21
-58.299
-57.205
-55.926
-54.462
-52.813
-50.982
-48.973
-46.792
-44.444
-41.94
-39.288
-36.501
-33.593
-30.577
-27.474
-24.3
-21.075
-17.821
-14.558
-11.309
-8.097
-4.944
-1.871
1.101
3.95
6.656
9.196
11.548
13.693
15.611
17.285
18.7
19.841
20.696
21.263
21.538
21.518
21.199
20.571
19.627
18.365
16.79
14.907
12.732
10.282
7.585
4.682
1.618
-1.568
-4.836
-8.16
-11.509
-14.845
-18.119
-21.275
-24.25
-26.999
-29.48
-31.655
-33.509
-35.044
-36.292
-37.322
-38.196
-38.973
-39.72
-40.498
-41.386
-42.484
-43.878
-45.681
-48.064
-51.13
-54.914
-59.351
-64.146
-68.921
-73.297
-76.772
-78.788
-78.946
-76.984
-73.014
-67.802
-62.268
-57.348
-54.094
-53.344
-55.685
-61.457
-70.111
-79.84
-88.264
-92.557
-89.684
-76.844
-51.21
-10.252
47.561
121.196
206.986
300.297
395.656
489.737
582.22
671.299
753.057
819.37
857.063
853.194
798.932
692.434
538.575
350.71
148.741
-46.401
-210.9
-328.422
-396.94
-422.326
-420.605
-408.625
-392.76
-374.622
-351.619
-319.424
-279.966
-238.197
-198.79
-166.817
-144.572
-131.5
-126.378
-127.42
-132.534
-139.818
-147.595
-153.891
-156.904
-155.853
-150.627
-141.591
-129.654
-115.851
-101.158
-86.85
-74.213
-63.903
-56.176
-50.986
-47.952
-46.705
-46.9
-48.028
-49.581
-51.276
-52.958
-54.592
-56.233
-57.825
-59.251
-60.43
-61.269
-61.713
-61.746
-61.319
-60.407
-59.077
-57.413
-55.509
-53.464
-51.291
-48.965
-46.53
-44.049
-41.439
-38.61
-35.718
-32.841
-30.016
-27.596
-24.745
-20.627
-16.421
-12.467
-10.924
-14.375
-19.877
-25.466
-28.234
-24.205
-16.868
-9.168
-3.106
-2
-3.402
-4.845
-5.768
-4.67
-2.409
-0.086
2.51
5.227
8.132
11.445
15.021
18.759
22.709
26.885
31.269
35.848
40.619
45.594
50.807
56.318
62.139
68.25
74.629
81.235
88.039
95.048
102.238
109.523
116.821
124.069
131.351
138.918
146.898
155.241
163.765
172.166
180.312
188.203
195.245
200.565
203.664
203.991
202.597
201.123
199.038
196.467
192.175
184.816
178.405
175.794
180.102
194.419
214.128
235.24
254.087
265.659
271.249
272.047
268.111
261.645
252.395
240.097
226.417
212.263
198.622
186.88
177.389
169.903
164.311
160.08
156.374
152.773
148.935
144.436
139.156
133.061
126.114
118.538
110.641
102.606
94.543
86.433
78.334
70.565
63.23
56.209
49.523
42.872
36.838
33.273
31.872
31
27.981
17.712
0.437
-18.672
-34.499
-39.786
-33.952
-23.874
-14.87
-12.647
-18.302
-26.713
-34.708
-40.169
-42.418
-43.554
-44.557
-45.358
-46.044
-46.315
-46.099
-45.693
-45.2
-44.586
-43.876
-43.101
-42.264
-41.367
-40.399
-39.325
-38.145
-36.894
-35.594
-34.255
-32.892
-31.515
-30.138
-28.778
-27.447
-26.152
-24.9
-23.699
-22.556
-21.477
-20.469
-19.538
-18.688
-17.924
-17.249
-16.667
-16.18
-15.79
-15.499
-15.308
-15.216
-15.223
-15.329
-15.53
-15.826
-16.214
-16.69
-17.252
-17.896
-18.617
-19.412
-20.275
-21.201
-22.186
-23.224
-24.31
-25.437
-26.601
-27.795
-29.015
-30.254
-31.507
-32.768
-34.031
-35.29
-36.541
-37.777
-38.993
-40.184
-41.345
-42.472
-43.561
-44.609
-45.612
-46.568
-47.475
-48.331
-49.136
-49.889
-50.59
-51.24
-51.839
-52.391
-52.896
-53.357
-53.778
-54.161
-54.511
-54.832
-55.128
-55.402
-55.662
-55.91
-56.153
-56.395
-56.642
-56.899
-57.171
-57.463
-57.779
-58.124
-58.5
-58.912
-59.362
-59.851
-60.381
-60.952
-61.564
-62.215
-62.904
-63.627
-64.38
-65.16
-65.961
-66.775
-67.597
-68.419
-69.233
-70.029
-70.8
-71.536
-72.227
-72.863
-73.434
-73.929
-74.339
-74.652
-74.86
-74.951
-74.917
-74.749
-74.439
-73.981
-73.368
-72.594
-71.656
-70.551
-69.278
-67.835
-66.225
-64.451
-62.517
-60.43
-58.197
-55.83
-53.339
-50.738
-48.044
-45.273
-42.444
-39.576
-36.689
-33.806
-30.947
-28.133
-25.383
-22.72
-20.165
-17.738
-15.464
-13.363
-11.454
-9.756
-8.288
-7.063
-6.096
-5.394
-4.963
-4.808
-4.938
-5.365
-6.099
-7.147
-8.508
-10.178
-12.145
-14.393
-16.898
-19.621
-22.521
-25.557
-28.69
-31.89
-35.126
-38.359
-41.538
-44.603
-47.488
-50.145
-52.53
-54.61
-56.373
-57.821
-58.99
-59.952
-60.773
-61.529
-62.295
-63.139
-64.145
-65.419
-67.059
-69.193
-71.994
-75.563
-79.925
-85
-90.51
-96.104
-101.429
-106.005
-109.277
-110.846
-110.489
-108.315
-104.939
-101.105
-97.505
-94.928
-94.117
-95.561
-99.439
-105.251
-111.56
-116.392
-117.547
-112.691
-99.315
-74.856
-37.092
15.648
83.056
162.206
249.304
339.999
431.525
524.238
617.911
709.499
790.235
845.284
858.868
819.604
725.889
585.436
412.669
225.492
40.615
-126.578
-263.382
-362.809
-425.128
-455.483
-462.24
-453.454
-430.487
-395.789
-353.914
-308.301
-267.945
-236.723
-211.319
-190.361
-169.685
-148.389
-131.208
-119.925
-115.169
-116.349
-120.324
-124.878
-128.989
-131.673
-132.307
-130.802
-127.327
-122.229
-116.076
-109.54
-103.133
-97.483
-93.369
-91.06
-90.459
-91.342
-93.242
-95.739
-98.58
-101.415
-103.836
-105.61
-106.585
-106.705
-106.061
-104.706
-102.664
-100.01
-96.817
-93.167
-89.187
-84.991
-80.694
-76.42
-72.256
-68.265
-64.513
-61.048
-57.913
-55.141
-52.728
-50.663
-48.941
-47.549
-46.478
-45.708
-45.191
-44.875
-44.705
-44.618
-44.569
-44.52
-44.43
-44.267
-44.005
-43.62
-43.096
-42.426
-41.591
-40.574
-39.356
-37.917
-36.245
-34.33
-32.161
-29.732
-27.036
-24.064
-20.813
-17.278
-13.453
-9.335
-4.922
-0.21
4.798
10.098
15.681
21.537
27.653
34.013
40.602
47.4
54.386
61.54
68.838
76.256
83.771
91.358
98.99
106.64
114.28
121.883
129.419
136.86
144.177
151.338
158.314
165.074
171.592
177.839
183.789
189.414
194.689
199.591
204.098
208.193
211.853
215.062
217.799
220.049
221.807
223.072
223.837
224.102
223.87
223.14
221.924
220.236
218.074
215.444
212.348
208.789
204.79
200.372
195.556
190.37
184.823
178.928
172.711
166.198
159.405
152.356
145.062
137.53
129.814
121.963
114.021
106.042
98.049
90.067
82.133
74.276
66.533
58.948
51.541
44.331
37.362
30.667
24.289
18.277
12.617
7.296
2.312
-2.348
-6.677
-10.664
-14.321
-17.657
-20.677
-23.39
-25.796
-27.894
-29.713
-31.274
-32.61
-33.756
-34.705
-35.45
-35.998
-36.351
-36.522
-36.529
-36.374
-36.061
-35.609
-35.034
-34.357
-33.6
-32.766
-31.86
-30.889
-29.855
-28.777
-27.677
-26.566
-25.459
-24.367
-23.298
-22.268
-21.29
-20.367
-19.499
-18.69
-17.937
-17.247
-16.624
-16.069
-15.584
-15.166
-14.814
-14.525
-14.299
-14.132
-14.02
-13.96
-13.946
-13.976
-14.05
-14.163
-14.314
-14.5
-14.717
-14.963
-15.236
-15.532
-15.849
-16.183
-16.533
-16.896
-17.27
-17.652
-18.042
-18.437
-18.836
-19.237
-19.639
-20.042
-20.446
-20.849
-21.253
-21.657
-22.064
-22.474
-22.888
-23.307
-23.732
-24.163
-24.603
-25.051
-25.508
-25.973
-26.449
-26.936
-27.434
-27.945
-28.469
-29.007
-29.56
-30.127
-30.711
-31.312
-31.93
-32.565
-33.22
-33.895
-34.591
-35.309
-36.05
-36.812
-37.596
-38.401
-39.223
-40.061
-40.91
-41.765
-42.621
-43.476
-44.324
-45.162
-45.986
-46.792
-47.58
-48.346
-49.088
-49.8
-50.475
-51.106
-51.685
-52.204
-52.653
-53.022
-53.303
-53.488
-53.571
-53.55
-53.418
-53.166
-52.784
-52.256
-51.574
-50.735
-49.734
-48.574
-47.265
-45.822
-44.272
-42.647
-40.965
-39.241
-37.477
-35.665
-33.798
-31.871
-29.872
-27.807
-25.678
-23.482
-21.229
-18.92
-16.542
-14.072
-11.464
-8.659
-5.632
-2.375
1.1
4.747
8.515
12.337
16.121
19.796
23.301
26.573
29.574
32.268
34.596
36.493
37.871
38.617
38.658
37.945
36.452
34.202
31.236
27.624
23.487
18.94
14.085
9.023
3.827
-1.441
-6.698
-11.862
-16.834
-21.481
-25.696
-29.393
-32.495
-34.973
-36.812
-38.038
-38.744
-39.042
-39.061
-38.923
-38.719
-38.533
-38.47
-38.634
-39.146
-40.149
-41.736
-44.006
-47.077
-50.969
-55.654
-60.996
-66.615
-72.063
-76.936
-80.762
-83.083
-83.638
-82.195
-78.785
-73.995
-68.519
-62.974
-57.992
-54.135
-51.718
-51.047
-52.151
-52.987
-50.07
-40.609
-21.779
5.561
36.194
68.801
103.695
144.77
203.319
283.87
385.57
504.733
626.361
735.102
817.383
856.577
843.553
777.721
662.766
509.949
334.563
149.169
-32.389
-193.7
-322.674
-411.959
-460.792
-479.449
-480.691
-471.633
-455.569
-430.944
-394.403
-348.115
-297.226
-246.614
-201.523
-165.05
-137.926
-120.362
-111.466
-109.289
-111.828
-117.595
-125.021
-132.289
-137.836
-140.188
-138.668
-133.756
-126.235
-116.737
-105.983
-94.773
-83.965
-74.619
-67.356
-62.148
-58.772
-56.873
-56.089
-56.193
-56.889
-57.759
-58.542
-59.117
-59.432
-59.576
-59.621
-59.548
-59.364
-59.058
-58.579
-57.927
-57.114
-56.135
-55.013
-53.749
-52.335
-50.783
-49.116
-47.358
-45.532
-43.636
-41.654
-39.603
-37.511
-35.425
-33.412
-31.494
-29.674
-27.954
-26.325
-24.782
-23.324
-21.931
-20.575
-19.233
-17.888
-16.53
-15.156
-13.746
-12.271
-10.695
-8.975
-7.079
-4.986
-2.677
-0.135
2.65
5.688
8.977
12.51
16.284
20.298
24.551
29.044
33.773
38.729
43.9
49.272
54.832
60.565
66.453
72.48
78.628
84.88
91.218
97.627
104.09
110.587
117.096
123.595
130.061
136.471
142.801
149.026
155.122
161.064
166.829
172.395
177.738
182.837
187.671
192.219
196.461
200.378
203.953
207.169
210.011
212.466
214.522
216.168
217.397
218.202
218.578
218.522
218.033
217.112
215.76
213.981
211.781
209.168
206.149
202.737
198.944
194.784
190.273
185.43
180.272
174.821
169.097
163.123
156.922
150.518
143.936
137.202
130.34
123.379
116.342
109.257
102.15
95.045
87.968
80.942
73.991
67.137
60.4
53.802
47.361
41.095
35.021
29.153
23.505
18.09
12.918
7.998
3.337
-1.058
-5.184
-9.039
-12.62
-15.928
-18.966
-21.736
-24.243
-26.493
-28.494
-30.254
-31.781
-33.086
-34.181
-35.076
-35.784
-36.316
-36.687
-36.909
-36.994
-36.956
-36.809
-36.564
-36.235
-35.834
-35.373
-34.864
-34.318
-33.745
-33.156
-32.559
-31.964
-31.377
-30.807
-30.26
-29.741
-29.256
-28.808
-28.402
-28.039
-27.722
-27.452
-27.229
-27.054
-26.926
-26.844
-26.806
-26.811
-26.856
-26.94
-27.058
-27.209
-27.389
-27.594
-27.822
-28.069
-28.332
-28.607
-28.891
-29.182
-29.476
-29.77
-30.063
-30.351
-30.633
-30.907
-31.171
-31.424
-31.665
-31.894
-32.11
-32.313
-32.505
-32.684
-32.854
-33.013
-33.165
-33.311
-33.453
-33.592
-33.732
-33.874
-34.022
-34.179
-34.347
-34.529
-34.728
-34.947
-35.19
-35.458
-35.755
-36.083
-36.445
-36.843
-37.279
-37.756
-38.275
-38.837
-39.443
-40.095
-40.792
-41.535
-42.324
-43.157
-44.033
-44.952
-45.909
-46.904
-47.933
-48.992
-50.078
-51.186
-52.311
-53.448
-54.59
-55.73
-56.863
-57.98
-59.074
-60.137
-61.163
-62.142
-63.067
-63.929
-64.721
-65.433
-66.059
-66.59
-67.018
-67.336
-67.537
-67.615
-67.564
-67.379
-67.055
-66.588
-65.976
-65.216
-64.308
-63.252
-62.047
-60.698
-59.208
-57.582
-55.826
-53.948
-51.958
-49.869
-47.693
-45.445
-43.14
-40.795
-38.428
-36.055
-33.696
-31.366
-29.083
-26.864
-24.727
-22.693
-20.78
-19.009
-17.397
-15.96
-14.716
-13.678
-12.859
-12.264
-11.896
-11.763
-11.872
-12.238
-12.874
-13.785
-14.972
-16.434
-18.159
-20.134
-22.335
-24.722
-27.256
-29.902
-32.624
-35.403
-38.214
-41.024
-43.788
-46.452
-48.96
-51.271
-53.35
-55.165
-56.709
-57.996
-59.066
-59.994
-60.847
-61.686
-62.581
-63.597
-64.812
-66.325
-68.22
-70.608
-73.658
-77.453
-81.995
-87.169
-92.634
-97.996
-102.896
-106.861
-109.377
-110.126
-108.964
-106.147
-102.516
-98.918
-96.117
-94.898
-95.791
-99.06
-104.664
-111.689
-118.26
-122.287
-121.364
-113.085
-95.622
-67.048
-25.731
28.741
96.057
174.215
258.344
343.432
424.82
499.269
568.324
633.026
689.738
730.934
742.746
710.947
630.85
504.89
342.704
161.916
-21.924
-192.818
-332.99
-433.641
-490.829
-506.904
-494.173
-462.291
-419.931
-376.543
-335.473
-300.614
-273.497
-249.612
-226.663
-202.841
-178.682
-158.85
-145.544
-139.31
-139.023
-141.436
-144.549
-146.822
-146.879
-144.601
-140.12
-133.723
-126.158
-118.017
-109.805
-102.401
-96.69
-93.128
-91.827
-92.535
-94.751
-98.025
-101.955
-106.069
-109.883
-113.05
-115.355
-116.712
-117.153
-116.714
-115.424
-113.341
-110.547
-107.127
-103.175
-98.802
-94.122
-89.272
-84.408
-79.65
-75.09
-70.808
-66.864
-63.307
-60.168
-57.452
-55.142
-53.228
-51.698
-50.531
-49.699
-49.157
-48.849
-48.716
-48.694
-48.732
-48.784
-48.81
-48.778
-48.66
-48.433
-48.082
-47.597
-46.963
-46.162
-45.177
-43.99
-42.587
-40.957
-39.09
-36.975
-34.606
-31.974
-29.071
-25.891
-22.429
-18.678
-14.634
-10.295
-5.66
-0.734
4.479
9.968
15.723
21.73
27.974
34.437
41.101
47.946
54.95
62.092
69.348
76.694
84.104
91.552
99.011
106.453
113.85
121.175
128.397
135.489
142.421
149.166
155.696
161.984
168.004
173.731
179.142
184.212
188.921
193.248
197.177
200.689
203.772
206.412
208.599
210.325
211.585
212.374
212.691
212.536
211.911
210.822
209.273
207.274
204.835
201.967
198.685
195.004
190.943
186.519
181.755
176.671
171.292
165.641
159.745
153.628
147.318
140.842
134.228
127.503
120.696
113.834
106.944
100.053
93.188
86.375
79.636
72.997
66.479
60.102
53.888
47.853
42.016
36.39
30.991
25.83
20.918
16.264
11.875
7.758
3.915
0.349
-2.938
-5.948
-8.682
-11.144
-13.339
-15.272
-16.952
-18.384
-19.58
-20.549
-21.301
-21.847
-22.2
-22.371
-22.374
-22.22
-21.922
-21.494
-20.947
-20.293
-19.546
-18.717
-17.818
-16.859
-15.852
-14.807
-13.733
-12.639
-11.535
-10.427
-9.324
-8.231
-7.154
-6.1
-5.071
-4.073
-3.108
-2.179
-1.289
-0.44
0.368
1.133
1.855
2.534
3.17
3.763
4.314
4.824
5.294
5.725
6.117
6.472
6.792
7.077
7.329
7.548
7.736
7.895
8.024
8.126
8.2
8.248
8.27
8.266
8.237
8.182
8.102
7.995
7.861
7.701
7.513
7.296
7.05
6.773
6.466
6.126
5.754
5.347
4.907
4.431
3.919
3.371
2.786
2.165
1.506
0.811
0.078
-0.691
-1.496
-2.337
-3.213
-4.122
-5.064
-6.037
-7.039
-8.068
-9.121
-10.194
-11.285
-12.39
-13.505
-14.625
-15.745
-16.861
-17.968
-19.058
-20.127
-21.169
-22.176
-23.142
-24.06
-24.922
-25.723
-26.454
-27.11
-27.682
-28.166
-28.552
-28.836
-29.01
-29.068
-29.004
-28.812
-28.486
-28.023
-27.417
-26.667
-25.768
-24.719
-23.52
-22.169
-20.669
-19.022
-17.23
-15.297
-13.229
-11.034
-8.718
-6.292
-3.767
-1.155
1.53
4.271
7.053
9.858
12.668
15.464
18.228
20.939
23.58
26.131
28.572
30.884
33.047
35.039
36.841
38.434
39.799
40.917
41.772
42.35
42.643
42.643
42.341
41.732
40.802
39.545
37.962
36.052
33.823
31.285
28.455
25.364
22.056
18.576
14.97
11.279
7.536
3.783
0.06
-3.586
-7.099
-10.435
-13.557
-16.427
-19.018
-21.312
-23.309
-25.055
-26.637
-28.142
-29.658
-31.251
-32.979
-34.927
-37.187
-39.868
-43.066
-46.813
-51.173
-56.247
-62.079
-68.656
-75.787
-83.006
-89.827
-95.857
-100.608
-103.564
-104.288
-102.403
-98.079
-92.116
-85.294
-78.206
-71.61
-66.353
-63.029
-62.149
-62.403
-60.315
-53.933
-42.305
-25.525
-5.819
19.534
57.322
112.232
188.4
282.679
384.157
485.148
579.245
662.245
734.353
789.652
818.623
813.971
767.604
679.617
556.245
403.083
232.855
58.001
-107.99
-246.51
-349.18
-413.833
-444.835
-456.246
-455.699
-445.817
-426.979
-394.987
-350.387
-298.2
-243.647
-192.865
-150.105
-117.047
-94.596
-82.435
-79.273
-83.371
-92.597
-104.728
-117.388
-128.368
-135.934
-139.217
-138.345
-134.008
-127.157
-118.848
-110.195
-102.343
-96.335
-92.705
-91.413
-92.135
-94.34
-97.463
-101.058
-104.653
-107.775
-110.156
-111.66
-112.25
-112.01
-111.018
-109.316
-106.985
-104.107
-100.747
-97.01
-93.003
-88.833
-84.639
-80.521
-76.545
-72.779
-69.27
-66.064
-63.201
-60.69
-58.518
-56.679
-55.167
-53.973
-53.088
-52.47
-52.069
-51.829
-51.688
-51.599
-51.525
-51.428
-51.276
-51.044
-50.706
-50.251
-49.67
-48.951
-48.075
-47.025
-45.782
-44.334
-42.673
-40.789
-38.674
-36.323
-33.727
-30.883
-27.785
-24.428
-20.808
-16.92
-12.763
-8.334
-3.64
1.316
6.525
11.977
17.659
23.558
29.657
35.939
42.385
48.977
55.694
62.515
69.417
76.376
83.369
90.37
97.354
104.293
111.162
117.933
124.58
131.074
137.389
143.5
149.378
155.001
160.343
165.379
170.089
174.449
178.439
182.042
185.24
188.017
190.36
192.258
193.7
194.68
195.191
195.229
194.794
193.884
192.501
190.65
188.337
185.568
182.354
178.707
174.64
170.169
165.311
160.087
154.516
148.621
142.427
135.957
129.238
122.298
115.164
107.865
100.43
92.889
85.271
77.606
69.923
62.25
54.617
47.05
39.577
32.224
25.015
17.975
11.125
4.488
-1.917
-8.071
-13.957
-19.56
-24.867
-29.865
-34.544
-38.897
-42.918
-46.601
-49.945
-52.949
-55.614
-57.944
-59.943
-61.617
-62.975
-64.026
-64.781
-65.251
-65.449
-65.39
-65.088
-64.559
-63.819
-62.885
-61.774
-60.503
-59.091
-57.553
-55.91
-54.177
-52.373
-50.515
-48.62
-46.705
-44.785
-42.876
-40.993
-39.15
-37.359
-35.632
-33.981
-32.415
-30.943
-29.573
-28.312
-27.165
-26.137
-25.231
-24.449
-23.794
-23.265
-22.861
-22.582
-22.424
-22.384
-22.46
-22.645
-22.936
-23.326
-23.809
-24.378
-25.027
-25.748
-26.533
-27.373
-28.262
-29.189
-30.147
-31.127
-32.122
-33.124
-34.124
-35.116
-36.094
-37.049
-37.978
-38.873
-39.731
-40.547
-41.317
-42.039
-42.71
-43.329
-43.895
-44.407
-44.867
-45.274
-45.631
-45.939
-46.2
-46.419
-46.596
-46.737
-46.846
-46.926
-46.982
-47.02
-47.044
-47.059
-47.071
-47.084
-47.104
-47.135
-47.18
-47.245
-47.333
-47.447
-47.589
-47.763
-47.969
-48.209
-48.484
-48.792
-49.132
-49.503
-49.902
-50.325
-50.767
-51.225
-51.691
-52.161
-52.628
-53.084
-53.523
-53.936
-54.316
-54.655
-54.942
-55.17
-55.329
-55.412
-55.408
-55.311
-55.111
-54.802
-54.377
-53.83
-53.155
-52.348
-51.404
-50.32
-49.095
-47.728
-46.22
-44.572
-42.789
-40.875
-38.838
-36.686
-34.428
-32.077
-29.645
-27.148
-24.601
-22.022
-19.428
-16.839
-14.274
-11.754
-9.298
-6.926
-4.657
-2.512
-0.51
1.327
2.98
4.429
5.657
6.648
7.386
7.86
8.062
7.985
7.625
6.975
6.026
4.77
3.205
1.332
-0.841
-3.302
-6.032
-9.004
-12.179
-15.515
-18.972
-22.513
-26.107
-29.721
-33.321
-36.859
-40.279
-43.528
-46.556
-49.327
-51.808
-53.985
-55.866
-57.489
-58.927
-60.255
-61.536
-62.827
-64.189
-65.693
-67.427
-69.499
-71.991
-75.012
-78.721
-83.178
-88.377
-94.178
-100.207
-106.033
-111.253
-115.364
-117.815
-118.264
-116.5
-112.709
-107.692
-102.249
-97.134
-93.189
-91.084
-91.289
-94.015
-98.615
-103.329
-106.107
-104.645
-96.493
-79.376
-50.848
-8.779
47.963
118.331
199.073
286.013
374.225
460.675
544.913
625.636
699.972
760.323
793.587
786.783
730.691
623.962
473.796
293.319
98.558
-93.826
-267.36
-408.849
-508.492
-563.836
-578.72
-558.934
-515.923
-459.365
-399.124
-348.166
-310.666
-287.312
-274.192
-260.335
-241.597
-218.342
-193.271
-173.438
-161.361
-155.683
-154.765
-155.196
-154.938
-153.635
-150.609
-145.823
-139.69
-132.439
-124.486
-116.46
-108.859
-102.234
-97.3
-94.346
-93.249
-93.748
-95.389
-97.695
-100.333
-102.928
-105.023
-106.322
-106.671
-106.003
-104.391
-101.913
-98.609
-94.562
-89.883
-84.68
-79.096
-73.269
-67.329
-61.419
-55.66
-50.137
-44.939
-40.138
-35.779
-31.895
-28.489
-25.543
-23.043
-20.971
-19.303
-18.002
-17.018
-16.289
-15.753
-15.344
-15.01
-14.703
-14.381
-14.007
-13.553
-12.993
-12.311
-11.497
-10.533
-9.4
-8.081
-6.556
-4.811
-2.835
-0.617
1.855
4.589
7.594
10.879
14.45
18.315
22.479
26.947
31.722
36.804
42.187
47.865
53.828
60.063
66.555
73.288
80.242
87.397
94.733
102.226
109.853
117.59
125.411
133.288
141.196
149.104
156.985
164.808
172.543
180.161
187.631
194.922
202.006
208.853
215.434
221.721
227.687
233.307
238.555
243.409
247.847
251.851
255.403
258.489
261.095
263.211
264.829
265.944
266.552
266.65
266.241
265.327
263.913
262.005
259.613
256.748
253.422
249.65
245.449
240.838
235.835
230.464
224.747
218.709
212.375
205.773
198.931
191.877
184.64
177.251
169.74
162.135
154.468
146.768
139.062
131.38
123.749
116.193
108.739
101.41
94.228
87.215
80.389
73.769
67.371
61.21
55.299
49.649
44.271
39.172
34.36
29.839
25.613
21.683
18.05
14.712
11.666
8.908
6.432
4.23
2.294
0.615
-0.819
-2.018
-2.995
-3.762
-4.332
-4.72
-4.94
-5.004
-4.928
-4.726
-4.411
-3.998
-3.5
-2.931
-2.302
-1.626
-0.915
-0.181
0.566
1.315
2.056
2.781
3.481
4.147
4.772
5.351
5.876
6.344
6.75
7.091
7.364
7.567
7.698
7.757
7.744
7.659
7.502
7.275
6.98
6.619
6.194
5.708
5.165
4.566
3.916
3.218
2.474
1.688
0.863
0.003
-0.889
-1.81
-2.756
-3.725
-4.712
-5.714
-6.73
-7.755
-8.788
-9.827
-10.868
-11.912
-12.955
-13.997
-15.037
-16.074
-17.108
-18.139
-19.167
-20.192
-21.215
-22.237
-23.258
-24.281
-25.305
-26.334
-27.366
-28.405
-29.45
-30.503
-31.565
-32.636
-33.717
-34.809
-35.913
-37.028
-38.156
-39.294
-40.444
-41.605
-42.774
-43.952
-45.135
-46.323
-47.512
-48.698
-49.88
-51.052
-52.21
-53.35
-54.465
-55.551
-56.601
-57.609
-58.567
-59.47
-60.31
-61.081
-61.775
-62.385
-62.904
-63.326
-63.645
-63.853
-63.946
-63.917
-63.762
-63.476
-63.056
-62.497
-61.798
-60.957
-59.974
-58.847
-57.58
-56.173
-54.63
-52.957
-51.159
-49.244
-47.219
-45.096
-42.887
-40.605
-38.264
-35.88
-33.47
-31.051
-28.642
-26.259
-23.921
-21.646
-19.45
-17.352
-15.37
-13.523
-11.829
-10.306
-8.97
-7.838
-6.922
-6.235
-5.784
-5.575
-5.612
-5.903
-6.457
-7.282
-8.379
-9.75
-11.391
-13.292
-15.438
-17.805
-20.355
-23.051
-25.858
-28.74
-31.673
-34.627
-37.569
-40.458
-43.247
-45.893
-48.356
-50.606
-52.611
-54.356
-55.852
-57.138
-58.287
-59.37
-60.441
-61.551
-62.754
-64.116
-65.72
-67.658
-69.999
-72.831
-76.278
-80.4
-85.2
-90.548
-96.108
-101.455
-106.157
-109.736
-111.68
-111.65
-109.503
-105.424
-100.107
-94.435
-89.275
-85.521
-83.992
-85.104
-88.818
-94.453
-100.333
-104.238
-103.741
-96.194
-79.069
-50.309
-8.419
47.22
115.975
194.87
278.879
362.755
440.336
509.073
570.701
623.028
663.238
683.893
669.306
612.101
510.719
368.179
201.53
27.574
-137.775
-275.067
-374.488
-434.633
-460.882
-465.863
-460.156
-446.77
-422.783
-386.947
-342.241
-296.128
-259.576
-236.247
-222.618
-214.388
-205.253
-193.456
-182.483
-173.758
-168.562
-166.708
-165.093
-161.983
-156.606
-148.571
-138.732
-127.931
-116.483
-104.868
-93.656
-83.398
-74.835
-68.399
-64.075
-61.691
-60.982
-61.651
-63.433
-66.024
-69.011
-72.107
-75.12
-77.881
-80.307
-82.298
-83.751
-84.636
-84.961
-84.74
-84.001
-82.785
-81.129
-79.1
-76.77
-74.192
-71.414
-68.478
-65.44
-62.381
-59.384
-56.536
-53.899
-51.506
-49.384
-47.539
-45.966
-44.645
-43.542
-42.61
-41.811
-41.114
-40.492
-39.921
-39.371
-38.804
-38.176
-37.439
-36.554
-35.49
-34.22
-32.722
-30.981
-28.986
-26.734
-24.228
-21.47
-18.456
-15.185
-11.651
-7.855
-3.798
0.516
5.08
9.886
14.925
20.187
25.661
31.335
37.196
43.23
49.425
55.767
62.237
68.817
75.485
82.22
89
95.801
102.6
109.372
116.092
122.738
129.286
135.712
141.992
148.104
154.025
159.731
165.201
170.415
175.352
179.993
184.319
188.314
191.963
195.25
198.163
200.691
202.825
204.556
205.878
206.788
207.281
207.358
207.019
206.268
205.108
203.547
201.593
199.255
196.545
193.475
190.059
186.313
182.253
177.897
173.264
168.373
163.246
157.904
152.369
146.664
140.813
134.838
128.763
122.612
116.407
110.172
103.931
97.704
91.514
85.383
79.329
73.373
67.532
61.824
56.264
50.867
45.645
40.61
35.773
31.142
26.726
22.53
18.56
14.819
11.31
8.032
4.987
2.172
-0.416
-2.78
-4.926
-6.858
-8.584
-10.111
-11.446
-12.598
-13.576
-14.39
-15.05
-15.566
-15.95
-16.212
-16.364
-16.415
-16.377
-16.261
-16.076
-15.833
-15.541
-15.21
-14.847
-14.462
-14.063
-13.656
-13.248
-12.846
-12.455
-12.08
-11.725
-11.395
-11.092
-10.82
-10.581
-10.377
-10.209
-10.08
-9.99
-9.94
-9.929
-9.958
-10.026
-10.131
-10.272
-10.449
-10.657
-10.897
-11.165
-11.46
-11.778
-12.118
-12.478
-12.854
-13.244
-13.647
-14.059
-14.479
-14.905
-15.335
-15.767
-16.2
-16.632
-17.064
-17.493
-17.919
-18.342
-18.76
-19.173
-19.58
-19.983
-20.379
-20.771
-21.158
-21.541
-21.922
-22.3
-22.679
-23.059
-23.442
-23.829
-24.222
-24.624
-25.035
-25.459
-25.897
-26.351
-26.822
-27.314
-27.827
-28.362
-28.921
-29.505
-30.114
-30.748
-31.408
-32.093
-32.803
-33.536
-34.292
-35.068
-35.863
-36.674
-37.497
-38.328
-39.164
-40
-40.83
-41.648
-42.45
-43.228
-43.978
-44.691
-45.362
-45.982
-46.546
-47.046
-47.474
-47.823
-48.087
-48.257
-48.327
-48.291
-48.142
-47.876
-47.487
-46.97
-46.322
-45.539
-44.621
-43.565
-42.371
-41.041
-39.576
-37.979
-36.256
-34.413
-32.46
-30.407
-28.263
-26.043
-23.761
-21.431
-19.067
-16.684
-14.295
-11.917
-9.568
-7.267
-5.035
-2.892
-0.857
1.046
2.798
4.379
5.773
6.97
7.963
8.74
9.294
9.609
9.667
9.461
8.992
8.26
7.277
6.053
4.604
2.961
1.162
-0.757
-2.769
-4.856
-7.015
-9.229
-11.473
-13.71
-15.891
-17.986
-19.993
-21.923
-23.791
-25.6
-27.347
-29.056
-30.78
-32.604
-34.573
-36.651
-38.837
-41.214
-43.952
-47.396
-51.853
-57.343
-63.835
-71.316
-79.479
-87.938
-96.077
-102.656
-106.533
-107.19
-104.319
-97.952
-88.8
-77.576
-65.39
-54.392
-46.539
-43.063
-44.869
-52.04
-63.665
-78.692
-95.363
-110.57
-121.094
-123.975
-116.34
-96.175
-62.393
-14.223
48.195
123.302
207.584
295.67
381.914
460.253
528.44
588.412
638.985
678.857
701.478
691.158
639.458
542.159
400.891
235.114
63.942
-93.854
-217.477
-303.163
-353.931
-376.931
-387.26
-391.129
-388.797
-379.187
-357.792
-324.982
-285.482
-244.198
-206.292
-175.008
-151.51
-136.11
-128.114
-126.377
-129.414
-135.26
-142.153
-148.198
-151.492
-151.054
-146.602
-138.325
-127.021
-113.762
-99.537
-85.602
-73.258
-63.181
-55.686
-50.841
-48.349
-47.884
-49.104
-51.462
-54.409
-57.64
-60.941
-64.187
-67.306
-70.119
-72.483
-74.364
-75.748
-76.635
-77.001
-76.794
-75.993
-74.644
-72.815
-70.58
-67.974
-65.016
-61.758
-58.297
-54.777
-51.348
-48.092
-45.03
-42.161
-39.498
-37.097
-35.011
-33.254
-31.797
-30.584
-29.635
-29.067
-28.921
-29.112
-29.383
-29.383
-28.946
-28.171
-27.214
-26.132
-24.951
-23.753
-22.983
-23.313
-25.044
-27.985
-31.483
-34.805
-37.53
-39.386
-39.67
-37.407
-31.962
-23.195
-11.894
0.742
14.015
27.515
40.532
52.152
61.547
68.114
72.304
75.208
77.453
79.381
81.384
83.858
87.339
92.423
98.956
106.228
113.805
121.409
128.895
136.275
143.378
149.878
155.759
161.257
166.524
171.676
176.706
181.453
185.857
189.945
193.699
197.075
200.028
202.495
204.459
205.957
207.007
207.618
207.791
207.506
206.759
205.556
203.908
201.829
199.335
196.435
193.141
189.469
185.435
181.057
176.352
171.333
166.014
160.415
154.554
148.461
142.16
135.678
129.042
122.279
115.416
108.481
101.501
94.503
87.512
80.553
73.65
66.828
60.108
53.514
47.066
40.781
34.679
28.774
23.082
17.615
12.385
7.403
2.675
-1.791
-5.991
-9.92
-13.577
-16.961
-20.074
-22.918
-25.497
-27.817
-29.884
-31.706
-33.293
-34.654
-35.801
-36.745
-37.498
-38.072
-38.48
-38.735
-38.851
-38.84
-38.715
-38.489
-38.176
-37.787
-37.335
-36.832
-36.287
-35.713
-35.119
-34.513
-33.906
-33.305
-32.718
-32.151
-31.611
-31.103
-30.632
-30.202
-29.816
-29.477
-29.188
-28.949
-28.763
-28.629
-28.548
-28.519
-28.543
-28.619
-28.744
-28.919
-29.141
-29.408
-29.719
-30.071
-30.462
-30.89
-31.353
-31.848
-32.373
-32.926
-33.506
-34.109
-34.734
-35.378
-36.04
-36.718
-37.409
-38.113
-38.827
-39.549
-40.28
-41.016
-41.758
-42.503
-43.251
-44.001
-44.751
-45.501
-46.25
-46.996
-47.74
-48.48
-49.216
-49.948
-50.676
-51.4
-52.119
-52.833
-53.544
-54.25
-54.952
-55.65
-56.344
-57.035
-57.724
-58.41
-59.095
-59.778
-60.461
-61.143
-61.826
-62.509
-63.191
-63.873
-64.553
-65.231
-65.906
-66.577
-67.242
-67.9
-68.548
-69.185
-69.808
-70.413
-70.998
-71.559
-72.091
-72.59
-73.051
-73.469
-73.837
-74.15
-74.403
-74.589
-74.703
-74.736
-74.684
-74.538
-74.293
-73.941
-73.476
-72.891
-72.182
-71.343
-70.37
-69.26
-68.009
-66.616
-65.079
-63.398
-61.574
-59.609
-57.504
-55.264
-52.893
-50.399
-47.788
-45.07
-42.256
-39.358
-36.392
-33.372
-30.315
-27.24
-24.166
-21.112
-18.098
-15.145
-12.27
-9.493
-6.833
-4.311
-1.947
0.238
2.224
3.996
5.536
6.831
7.867
8.631
9.123
9.338
9.271
8.915
8.251
7.266
5.96
4.332
2.39
0.148
-2.381
-5.17
-8.171
-11.341
-14.631
-18
-21.423
-24.865
-28.278
-31.603
-34.764
-37.688
-40.335
-42.666
-44.656
-46.3
-47.604
-48.61
-49.403
-50.074
-50.719
-51.433
-52.297
-53.411
-54.879
-56.831
-59.468
-62.914
-67.186
-72.197
-77.672
-83.284
-88.744
-93.621
-97.362
-99.58
-100.031
-98.824
-96.658
-94.237
-92.205
-91.304
-92.054
-94.74
-99.458
-105.53
-111.278
-114.759
-113.619
-105.428
-88.329
-60.3
-19.515
34.806
102.64
181.975
268.102
356.427
442.604
523.77
601.246
674.462
738.476
784.885
799.538
770.297
694.73
577.678
430.265
267.62
101.523
-57.747
-197.23
-306.859
-380.802
-418.022
-426.618
-417.983
-399.269
-374.689
-344.765
-307.412
-264.474
-220.121
-178.512
-144.622
-121.016
-107.571
-103.238
-106.134
-114.062
-124.966
-136.915
-147.63
-155.105
-158.432
-157.457
-152.588
-144.744
-134.926
-124.103
-113.587
-104.636
-97.856
-93.432
-91.202
-90.679
-91.397
-92.936
-94.74
-96.295
-97.329
-97.717
-97.469
-96.686
-95.41
-93.644
-91.409
-88.733
-85.646
-82.19
-78.411
-74.379
-70.211
-66.029
-61.948
-58.053
-54.392
-50.993
-47.869
-45.025
-42.457
-40.167
-38.164
-36.455
-35.049
-33.939
-33.101
-32.497
-32.073
-31.776
-31.553
-31.357
-31.153
-30.914
-30.619
-30.253
-29.806
-29.266
-28.614
-27.831
-26.893
-25.78
-24.475
-22.962
-21.23
-19.269
-17.073
-14.634
-11.946
-9.003
-5.8
-2.33
1.414
5.435
9.734
14.312
19.162
24.279
29.654
35.275
41.128
47.199
53.472
59.929
66.552
73.321
80.215
87.213
94.291
101.427
108.595
115.77
122.926
130.034
137.07
144.004
150.81
157.46
163.927
170.184
176.205
181.964
187.437
192.599
197.428
201.901
205.999
209.703
212.994
215.859
218.285
220.259
221.775
222.824
223.403
223.507
223.138
222.295
220.982
219.205
216.969
214.286
211.165
207.62
203.667
199.322
194.604
189.534
184.133
178.425
172.434
166.185
159.705
153.021
146.163
139.158
132.035
124.825
117.555
110.255
102.953
95.677
88.454
81.31
74.269
67.355
60.59
53.996
47.592
41.396
35.425
29.694
24.217
19.004
14.066
9.412
5.046
0.974
-2.8
-6.277
-9.455
-12.337
-14.926
-17.228
-19.247
-20.992
-22.471
-23.694
-24.672
-25.417
-25.941
-26.259
-26.383
-26.327
-26.107
-25.737
-25.23
-24.602
-23.867
-23.039
-22.131
-21.158
-20.131
-19.065
-17.972
-16.861
-15.746
-14.636
-13.539
-12.467
-11.425
-10.423
-9.466
-8.561
-7.713
-6.928
-6.21
-5.561
-4.985
-4.484
-4.059
-3.711
-3.439
-3.243
-3.123
-3.076
-3.1
-3.195
-3.357
-3.583
-3.871
-4.218
-4.621
-5.075
-5.577
-6.123
-6.709
-7.332
-7.988
-8.674
-9.384
-10.117
-10.869
-11.636
-12.414
-13.201
-13.993
-14.786
-15.578
-16.366
-17.146
-17.918
-18.678
-19.425
-20.159
-20.878
-21.581
-22.269
-22.939
-23.594
-24.232
-24.854
-25.461
-26.054
-26.634
-27.203
-27.762
-28.313
-28.859
-29.4
-29.938
-30.476
-31.014
-31.555
-32.101
-32.653
-33.213
-33.783
-34.365
-34.961
-35.573
-36.2
-36.845
-37.506
-38.185
-38.879
-39.589
-40.311
-41.045
-41.788
-42.536
-43.287
-44.035
-44.777
-45.507
-46.218
-46.906
-47.562
-48.18
-48.752
-49.272
-49.732
-50.125
-50.444
-50.681
-50.83
-50.881
-50.83
-50.667
-50.386
-49.979
-49.442
-48.767
-47.951
-46.99
-45.879
-44.619
-43.206
-41.643
-39.93
-38.069
-36.064
-33.921
-31.647
-29.249
-26.738
-24.125
-21.424
-18.65
-15.822
-12.956
-10.071
-7.188
-4.325
-1.504
1.256
3.935
6.514
8.975
11.298
13.459
15.439
17.216
18.774
20.093
21.158
21.955
22.473
22.706
22.653
22.31
21.669
20.719
19.447
17.854
15.941
13.714
11.188
8.382
5.323
2.058
-1.369
-4.916
-8.542
-12.22
-15.921
-19.602
-23.212
-26.689
-29.968
-33.007
-35.764
-38.202
-40.311
-42.098
-43.601
-44.896
-46.048
-47.12
-48.186
-49.318
-50.604
-52.158
-54.066
-56.451
-59.499
-63.287
-67.814
-72.961
-78.357
-83.601
-88.334
-92.056
-94.213
-94.467
-92.645
-89.004
-84.458
-79.901
-76.117
-73.964
-74.111
-76.963
-82.612
-90.188
-97.61
-102.489
-102.289
-94.419
-76.469
-45.948
-0.781
60.095
135.203
220.48
311.441
403.24
493.187
582.379
669.622
749.593
812.771
842.747
825.678
758.161
643.635
494.52
327.326
152.218
-19.802
-176.649
-309.588
-405.932
-459.057
-472.61
-452.441
-412.97
-368.71
-326.984
-294.214
-268.707
-244.2
-218.382
-188.965
-158.101
-132.159
-114.107
-105.159
-104.298
-107.966
-114.211
-122.09
-130.857
-139.868
-147.748
-153.309
-156.015
-155.733
-152.646
-146.798
-137.927
-126.472
-113.555
-100.271
-87.73
-76.586
-66.961
-59.208
-53.955
-51.367
-51.169
-52.819
-55.441
-58.489
-61.802
-65.083
-67.921
-70.024
-71.22
-71.582
-71.452
-71.033
-70.356
-69.455
-68.321
-66.969
-65.458
-63.786
-61.887
-59.731
-57.334
-54.76
-52.14
-49.601
-47.216
-45.029
-43.058
-41.304
-39.774
-38.464
-37.349
-36.393
-35.565
-34.838
-34.197
-33.63
-33.109
-32.596
-32.037
-31.372
-30.555
-29.553
-28.339
-26.893
-25.196
-23.231
-20.996
-18.495
-15.729
-12.696
-9.392
-5.809
-1.948
2.187
6.592
11.258
16.176
21.338
26.733
32.347
38.168
44.181
50.372
56.728
63.232
69.864
76.605
83.431
90.318
97.242
104.178
111.097
117.974
124.781
131.492
138.08
144.52
150.786
156.852
162.694
168.288
173.611
178.641
183.355
187.734
191.757
195.408
198.669
201.526
203.965
205.975
207.546
208.67
209.342
209.557
209.313
208.61
207.449
205.836
203.775
201.276
198.348
195.005
191.261
187.131
182.633
177.787
172.612
167.131
161.366
155.34
149.079
142.607
135.952
129.139
122.196
115.15
108.028
100.856
93.662
86.471
79.31
72.204
65.176
58.253
51.455
44.805
38.323
32.029
25.941
20.074
14.444
9.064
3.945
-0.904
-5.473
-9.757
-13.751
-17.451
-20.856
-23.965
-26.781
-29.305
-31.542
-33.497
-35.178
-36.59
-37.745
-38.649
-39.314
-39.751
-39.971
-39.986
-39.81
-39.454
-38.933
-38.26
-37.45
-36.516
-35.472
-34.332
-33.109
-31.817
-30.469
-29.077
-27.653
-26.21
-24.758
-23.307
-21.868
-20.451
-19.062
-17.712
-16.406
-15.151
-13.953
-12.818
-11.749
-10.751
-9.827
-8.98
-8.213
-7.526
-6.922
-6.4
-5.96
-5.602
-5.325
-5.127
-5.007
-4.963
-4.992
-5.091
-5.258
-5.489
-5.781
-6.13
-6.533
-6.986
-7.483
-8.022
-8.598
-9.208
-9.846
-10.511
-11.196
-11.9
-12.618
-13.346
-14.081
-14.821
-15.561
-16.299
-17.033
-17.761
-18.481
-19.193
-19.895
-20.588
-21.271
-21.943
-22.605
-23.256
-23.898
-24.529
-25.152
-25.766
-26.373
-26.973
-27.57
-28.165
-28.759
-29.354
-29.953
-30.557
-31.168
-31.788
-32.419
-33.063
-33.723
-34.4
-35.097
-35.816
-36.557
-37.321
-38.108
-38.917
-39.747
-40.594
-41.455
-42.325
-43.201
-44.079
-44.955
-45.825
-46.685
-47.532
-48.365
-49.178
-49.968
-50.727
-51.448
-52.121
-52.738
-53.289
-53.764
-54.152
-54.443
-54.63
-54.71
-54.676
-54.52
-54.231
-53.793
-53.197
-52.441
-51.523
-50.444
-49.212
-47.837
-46.344
-44.773
-43.148
-41.486
-39.794
-38.065
-36.296
-34.491
-32.648
-30.767
-28.844
-26.872
-24.85
-22.788
-20.677
-18.496
-16.202
-13.724
-11.022
-8.092
-4.944
-1.615
1.846
5.391
8.947
12.419
15.724
18.788
21.556
23.999
26.063
27.669
28.717
29.077
28.662
27.43
25.358
22.455
18.758
14.328
9.277
3.761
-2.088
-8.163
-14.381
-20.683
-26.988
-33.186
-39.149
-44.741
-49.851
-54.403
-58.332
-61.597
-64.206
-66.213
-67.745
-68.96
-69.986
-70.929
-71.884
-72.945
-74.232
-75.874
-77.979
-80.678
-84.127
-88.388
-93.468
-99.239
-105.343
-111.383
-116.932
-121.433
-124.343
-125.322
-124.135
-120.942
-116.494
-111.481
-106.64
-102.953
-101.063
-101.249
-103.851
-108.42
-113.127
-116.295
-115.08
-104.9
-83.613
-50.197
-4.536
48.776
107.621
174.195
249.733
339.222
444.555
558.744
672.695
771.241
837.563
859.165
826.182
737.811
600.131
425.852
235.217
47.028
-119.546
-249.9
-341.692
-397.646
-427.213
-442.764
-448.759
-446.131
-433.344
-407.274
-370.068
-326.894
-282.849
-242.871
-209.653
-183.869
-165.632
-154.383
-148.931
-147.73
-149.261
-152.37
-155.889
-158.855
-160.47
-159.904
-157.075
-152.545
-146.889
-140.668
-134.466
-128.672
-123.766
-120.419
-118.846
-118.877
-120.232
-122.441
-125.099
-127.982
-130.793
-133.163
-134.861
-135.737
-135.729
-134.924
-133.391
-131.169
-128.333
-124.958
-121.139
-117.008
-112.703
-108.358
-104.088
-99.966
-96.051
-92.398
-89.053
-86.067
-83.463
-81.232
-79.364
-77.846
-76.669
-75.828
-75.296
-75.02
-74.941
-74.994
-75.127
-75.303
-75.488
-75.647
-75.748
-75.764
-75.675
-75.473
-75.146
-74.672
-74.033
-73.203
-72.167
-70.913
-69.431
-67.71
-65.742
-63.515
-61.021
-58.254
-55.207
-51.873
-48.246
-44.318
-40.088
-35.555
-30.724
-25.599
-20.19
-14.507
-8.561
-2.369
4.054
10.689
17.519
24.522
31.677
38.961
46.35
53.819
61.34
68.887
76.431
83.943
91.395
98.758
106.002
113.097
120.016
126.73
133.211
139.433
145.369
150.993
156.282
161.212
165.761
169.91
173.641
176.937
179.785
182.171
184.086
185.523
186.476
186.942
186.919
186.407
185.41
183.933
181.983
179.57
176.705
173.401
169.674
165.542
161.024
156.141
150.914
145.368
139.528
133.42
127.069
120.506
113.757
106.852
99.821
92.693
85.497
78.264
71.021
63.797
56.62
49.515
42.51
35.626
28.889
22.319
15.936
9.759
3.804
-1.911
-7.375
-12.575
-17.5
-22.142
-26.495
-30.554
-34.315
-37.778
-40.941
-43.807
-46.379
-48.662
-50.661
-52.384
-53.839
-55.036
-55.986
-56.699
-57.189
-57.469
-57.552
-57.451
-57.182
-56.757
-56.192
-55.5
-54.695
-53.79
-52.799
-51.734
-50.608
-49.434
-48.222
-46.984
-45.73
-44.47
-43.213
-41.967
-40.741
-39.542
-38.375
-37.247
-36.163
-35.127
-34.145
-33.218
-32.35
-31.542
-30.797
-30.114
-29.495
-28.939
-28.444
-28.011
-27.638
-27.324
-27.068
-26.867
-26.72
-26.627
-26.584
-26.59
-26.643
-26.741
-26.882
-27.062
-27.28
-27.534
-27.82
-28.137
-28.482
-28.853
-29.246
-29.66
-30.092
-30.538
-30.995
-31.462
-31.936
-32.413
-32.891
-33.369
-33.846
-34.318
-34.786
-35.248
-35.702
-36.149
-36.585
-37.012
-37.426
-37.826
-38.212
-38.583
-38.938
-39.276
-39.598
-39.903
-40.191
-40.464
-40.721
-40.962
-41.19
-41.404
-41.605
-41.796
-41.978
-42.153
-42.324
-42.492
-42.66
-42.829
-43.002
-43.177
-43.357
-43.541
-43.727
-43.915
-44.104
-44.29
-44.471
-44.646
-44.813
-44.97
-45.116
-45.247
-45.362
-45.458
-45.532
-45.579
-45.592
-45.562
-45.482
-45.344
-45.142
-44.869
-44.518
-44.082
-43.554
-42.933
-42.212
-41.385
-40.441
-39.363
-38.141
-36.779
-35.28
-33.66
-31.93
-30.098
-28.179
-26.198
-24.169
-22.099
-19.983
-17.798
-15.536
-13.202
-10.812
-8.4
-5.981
-3.555
-1.119
1.331
3.808
6.31
8.859
11.5
14.24
17.063
19.917
22.709
25.374
27.871
30.169
32.258
34.119
35.71
37.003
37.971
38.572
38.771
38.506
37.683
36.261
34.245
31.686
28.699
25.386
21.818
18.067
14.188
10.237
6.281
2.375
-1.437
-5.088
-8.502
-11.592
-14.239
-16.363
-17.938
-18.999
-19.649
-20.015
-20.196
-20.276
-20.341
-20.482
-20.805
-21.423
-22.419
-23.859
-25.857
-28.57
-32.118
-36.529
-41.604
-46.89
-51.885
-56.109
-59.027
-60.081
-58.858
-55.213
-49.59
-43.034
-36.614
-31.278
-28.086
-27.921
-31.182
-37.856
-45.729
-51.553
-53.464
-48.62
-36.276
-16.25
16.667
65.498
132.791
220.806
321.511
425.254
523.896
607.232
674.093
727.931
766.667
788.22
785.463
745.056
662.853
540.456
383.475
208.655
31.489
-133.618
-269.902
-369.725
-431.153
-456.086
-452.898
-428.564
-388.136
-338.972
-289.168
-246.084
-214.994
-194.708
-178.3
-160.175
-138.209
-114.265
-93.745
-79.892
-72.541
-70.237
-70.134
-69.922
-68.672
-65.611
-60.569
-53.917
-45.987
-37.098
-27.723
-18.449
-9.974
-3.171
1.468
3.987
4.617
3.72
1.679
-1.189
-4.476
-7.62
-10.178
-11.91
-12.697
-12.554
-11.519
-9.569
-6.725
-3.059
1.345
6.381
11.935
17.915
24.214
30.702
37.247
43.694
49.877
55.678
61.016
65.837
70.108
73.815
76.955
79.556
81.675
83.374
84.72
85.798
86.703
87.539
88.409
89.415
90.649
92.183
94.051
96.262
98.807
101.629
104.652
107.775
110.869
113.811
116.481
118.731
120.392
121.303
121.3
120.229
117.961
114.367
109.368
102.939
95.086
85.882
75.437
63.886
51.412
