Name,Criss Capps
Date of Birth,"Feb 5, 1952"
Recorded Date,2021-08-08 14:23:44 -0400
Classification,Sinus Rhythm
Symptoms,
Software Version,1.90
Device,"Watch5,4"
Sample Rate,512.844 hertz


Lead,Lead I
Unit,µV

111.019
137.37
164.518
190.797
213.92
232.459
246.044
254.305
256.668
252.352
240.543
221.138
194.872
162.137
124.486
85.6
49.247
19.827
-3.548
-28.264
-58.155
-92.846
-119.428
-113.084
-57.341
54.466
210.129
378.996
534.453
652.771
722.403
746.088
723.828
659.957
557.433
416.673
249.481
70.16
-104.019
-255.321
-378.628
-475.83
-553.817
-620.62
-676.754
-718.472
-740.645
-740.101
-719.153
-683.634
-640.182
-594.131
-549.003
-506.907
-469.475
-438.341
-413.985
-395.645
-382.006
-371.156
-361.193
-350.741
-338.207
-322.168
-302.203
-278.503
-251.841
-223.586
-195.011
-167.209
-141.43
-118.585
-99.088
-83.131
-70.502
-60.704
-53.236
-47.493
-42.841
-38.853
-35.199
-31.567
-27.686
-23.267
-18.087
-12.053
-5.126
2.724
11.525
21.303
32.014
43.543
55.74
68.439
81.502
94.818
108.234
121.557
134.558
146.986
158.661
169.464
179.294
188.076
195.749
202.274
207.655
211.929
215.127
217.277
218.413
218.56
217.758
216.067
213.56
210.323
206.435
201.96
196.938
191.406
185.396
178.934
172.059
164.795
157.169
149.213
140.944
132.378
123.562
114.543
105.342
95.982
86.464
76.786
67.013
57.198
47.373
37.557
27.727
17.884
8.066
-1.678
-11.292
-20.719
-29.936
-38.92
-47.575
-55.811
-63.533
-70.653
-77.181
-83.112
-88.368
-92.836
-96.39
-98.948
-100.511
-101.108
-100.74
-99.417
-97.16
-94.042
-90.26
-86.008
-81.447
-76.72
-71.898
-67.083
-62.49
-58.371
-54.944
-52.355
-50.679
-49.969
-50.342
-51.91
-54.714
-58.684
-63.616
-69.304
-75.598
-82.36
-89.462
-96.714
-103.82
-110.479
-116.469
-121.632
-125.846
-128.981
-130.836
-131.208
-129.993
-127.201
-122.943
-117.332
-110.434
-102.329
-93.138
-83.054
-72.345
-61.242
-49.894
-38.409
-26.893
-15.479
-4.35
6.307
16.385
25.842
34.671
42.868
50.405
57.277
63.532
69.266
74.608
79.636
84.371
88.81
92.956
96.83
100.472
103.917
107.158
110.184
112.988
115.568
117.925
120.036
121.842
123.267
124.245
124.739
124.744
124.276
123.346
121.972
120.188
118.029
115.529
112.704
109.534
105.998
102.089
97.826
93.251
88.408
83.309
77.962
72.375
66.534
60.428
54.024
47.249
40.06
32.457
24.471
16.185
7.686
-0.963
-9.705
-18.486
-27.253
-35.915
-44.392
-52.613
-60.471
-67.849
-74.606
-80.554
-85.57
-89.587
-92.56
-94.481
-95.348
-95.15
-93.906
-91.658
-88.44
-84.3
-79.294
-73.487
-67.023
-60.076
-52.831
-45.498
-38.231
-31.152
-24.405
-18.14
-12.496
-7.579
-3.444
-0.113
2.356
3.888
4.446
4.047
2.814
0.915
-1.496
-4.268
-7.262
-10.317
-13.213
-15.687
-17.513
-18.531
-18.613
-17.65
-15.485
-11.918
-6.802
-0.073
8.25
18.117
29.487
42.333
56.594
72.158
88.86
106.471
124.791
143.662
162.91
182.358
201.806
220.965
239.521
257.286
274.157
290.147
305.43
320.118
334.241
347.934
361.396
374.701
387.747
399.943
410.222
417.681
421.611
421.452
416.857
407.567
393.734
376.6
358.244
340.829
326.67
317.805
315.959
323.05
340.518
368.563
406.293
451.934
501.748
550.862
594.705
628.966
652.895
668.257
675.062
670.441
644.972
587.186
490.301
355.599
198.2
40.01
-97.296
-197.69
-259.558
-290.539
-302.67
-307.234
-307.807
-303.681
-292.676
-274.234
-252.061
-231.172
-216.01
-209.307
-211.377
-221.061
-236.423
-255.122
-274.573
-292.573
-307.666
-318.799
-325.508
-327.89
-326.416
-322.039
-316.131
-309.994
-304.462
-300.064
-297.004
-295.232
-294.659
-295.057
-295.975
-296.896
-297.443
-297.363
-296.566
-295.098
-292.973
-290.201
-286.833
-282.941
-278.595
-273.868
-268.814
-263.458
-257.849
-252.061
-246.184
-240.331
-234.628
-229.179
-224.055
-219.301
-214.927
-210.937
-207.347
-204.175
-201.442
-199.166
-197.344
-195.971
-195.044
-194.521
-194.345
-194.447
-194.71
-195.043
-195.402
-195.759
-196.141
-196.614
-197.206
-197.934
-198.814
-199.833
-201.015
-202.394
-203.978
-205.824
-208.02
-210.671
-213.953
-218.037
-223.011
-228.947
-235.86
-243.672
-252.34
-261.821
-272.025
-282.901
-294.352
-306.245
-318.489
-330.958
-343.458
-355.774
-367.616
-378.656
-388.672
-397.46
-404.831
-410.712
-414.999
-417.596
-418.486
-417.64
-415.057
-410.778
-404.803
-397.135
-387.876
-377.157
-365.168
-352.171
-338.316
-323.751
-308.657
-293.15
-277.38
-261.511
-245.636
-229.853
-214.289
-199.068
-184.363
-170.375
-157.208
-144.93
-133.569
-123.109
-113.625
-105.175
-97.768
-91.438
-86.19
-82.028
-79.001
-77.136
-76.377
-76.624
-77.723
-79.488
-81.815
-84.627
-87.873
-91.514
-95.462
-99.669
-104.108
-108.719
-113.426
-118.107
-122.589
-126.741
-130.522
-133.929
-137.01
-139.817
-142.349
-144.599
-146.537
-148.117
-149.297
-149.973
-150.048
-149.482
-148.284
-146.546
-144.416
-141.996
-139.336
-136.474
-133.411
-130.154
-126.732
-123.155
-119.444
-115.649
-111.843
-108.153
-104.702
-101.553
-98.728
-96.186
-93.843
-91.646
-89.565
-87.559
-85.612
-83.714
-81.854
-80.05
-78.325
-76.674
-75.074
-73.473
-71.817
-70.08
-68.255
-66.353
-64.406
-62.43
-60.439
-58.452
-56.474
-54.503
-52.529
-50.523
-48.446
-46.273
-43.982
-41.558
-38.991
-36.265
-33.361
-30.261
-26.944
-23.392
-19.59
-15.519
-11.165
-6.522
-1.584
3.645
9.156
14.939
20.982
27.27
33.789
40.517
47.43
54.505
61.716
69.034
76.431
83.872
91.323
98.749
106.121
113.403
120.563
127.562
134.363
140.929
147.229
153.23
158.902
164.214
169.139
173.658
177.757
181.424
184.644
187.395
189.653
191.402
192.638
193.364
193.588
193.324
192.591
191.432
189.903
188.06
185.956
183.632
181.121
178.472
175.745
173.004
170.323
167.748
165.316
163.066
161.014
159.154
157.457
155.858
154.276
152.635
150.849
148.829
146.483
143.709
140.434
136.557
131.946
126.571
120.492
113.88
107.103
100.536
94.467
89.292
85.478
83.289
82.813
83.765
85.411
87.084
88.355
88.825
88.128
86.15
83.12
80.023
78.615
80.739
88.105
102.29
124.868
157.188
200.119
253.499
315.904
385.136
458.279
531.835
601.635
662.943
710.723
740.397
748.41
733.236
695.768
637.56
560.524
464.74
349.715
219.574
83.834
-41.48
-139.683
-202.336
-230.767
-235.368
-228.029
-215.048
-197.653
-173.948
-143.589
-109.678
-76.606
-48.42
-27.155
-13.369
-6.68
-5.481
-7.902
-11.788
-14.989
-16.54
-15.973
-12.627
-6.331
2.657
13.806
25.891
37.564
48.168
57.344
64.81
70.594
74.764
77.47
79.225
80.621
82.028
83.668
85.606
87.749
90.012
92.313
94.54
96.626
98.567
100.377
102.074
103.676
105.173
106.54
107.744
108.726
109.414
109.75
109.722
109.356
108.727
107.925
106.993
105.925
104.68
103.217
101.517
99.57
97.367
94.89
92.134
89.117
85.881
82.471
78.909
75.196
71.311
67.23
62.955
58.511
53.942
49.288
44.582
39.853
35.139
30.483
25.923
21.478
17.156
12.963
8.913
5.03
1.343
-2.124
-5.348
-8.314
-11.005
-13.404
-15.494
-17.26
-18.69
-19.778
-20.515
-20.888
-20.883
-20.489
-19.701
-18.517
-16.936
-14.959
-12.587
-9.826
-6.684
-3.172
0.701
4.924
9.486
14.372
19.564
25.039
30.774
36.74
42.91
49.251
55.729
62.306
68.942
75.605
82.26
88.869
95.39
101.775
107.982
113.985
119.76
125.288
130.559
135.562
140.3
144.795
149.067
153.129
156.99
160.636
164.052
167.235
170.182
172.897
175.371
177.563
179.424
180.922
182.013
182.656
182.787
182.301
181.117
179.188
176.492
173.058
168.93
164.148
158.77
152.873
146.557
139.965
133.245
126.522
119.941
113.654
107.85
102.777
98.651
95.64
93.888
93.475
94.463
96.898
100.777
106.061
112.685
120.559
129.593
139.704
150.767
162.63
175.103
187.937
200.9
213.774
226.329
238.378
249.755
260.327
270.027
278.81
286.629
293.44
299.189
303.847
307.456
310.077
311.78
312.669
312.839
312.424
311.613
310.555
309.367
308.114
306.798
305.442
304.106
302.851
301.741
300.779
299.886
299
298.097
297.152
296.15
295.016
293.616
291.883
289.824
287.52
285.088
282.597
280.056
277.498
274.987
272.658
270.726
269.362
268.669
268.76
269.748
271.791
275.073
279.676
285.552
292.578
300.615
309.568
319.383
329.952
341.094
352.562
364.053
375.292
386.037
395.995
404.829
412.188
417.726
421.218
422.57
421.738
418.688
413.364
405.719
395.775
383.64
369.456
353.397
335.655
316.448
296.097
274.983
253.475
231.911
210.537
189.52
169.018
149.186
130.171
112.074
94.935
78.754
63.538
49.274
35.893
23.25
11.091
-0.854
-12.786
-24.858
-37.174
-49.839
-62.977
-76.694
-91.053
-106.035
-121.605
-137.793
-154.585
-171.812
-189.124
-205.908
-221.462
-235.282
-246.918
-255.847
-261.809
-264.82
-265.224
-264.011
-262.239
-260.615
-259.848
-260.561
-262.799
-266.131
-269.467
-270.636
-267.337
-257.572
-239.269
-210.715
-170.716
-119.007
-56.797
13.413
87.169
159.59
227.063
284.858
330.34
361.896
373.391
361.271
322.09
252.577
159.553
50.629
-66.278
-181.224
-291.361
-394.004
-484.823
-561.593
-620.829
-660.456
-681.633
-686.165
-676.282
-655.327
-626.803
-594.236
-561.11
-529.945
-502.226
-478.869
-460.612
-447.397
-438.433
-432.482
-427.877
-423.187
-417.323
-409.45
-398.901
-385.396
-369.129
-350.712
-331.145
-311.523
-292.93
-276.201
-261.888
-250.311
-241.533
-235.39
-231.583
-229.679
-229.138
-229.579
-230.781
-232.584
-234.916
-237.691
-240.737
-243.878
-246.983
-249.877
-252.413
-254.496
-256.009
-256.906
-257.199
-256.929
-256.176
-255.029
-253.534
-251.728
-249.666
-247.407
-245.056
-242.753
-240.601
-238.698
-237.124
-235.922
-235.131
-234.774
-234.837
-235.282
-236.062
-237.122
-238.422
-239.938
-241.628
-243.448
-245.335
-247.212
-249.022
-250.717
-252.252
-253.593
-254.709
-255.573
-256.173
-256.511
-256.584
-256.391
-255.926
-255.178
-254.143
-252.82
-251.21
-249.317
-247.145
-244.691
-241.959
-238.953
-235.677
-232.136
-228.334
-224.274
-219.96
-215.405
-210.619
-205.619
-200.419
-195.036
-189.488
-183.796
-177.98
-172.059
-166.056
-159.989
-153.879
-147.749
-141.619
-135.512
-129.449
-123.45
-117.536
-111.728
-106.044
-100.503
-95.124
-89.922
-84.913
-80.113
-75.534
-71.188
-67.086
-63.236
-59.643
-56.315
-53.253
-50.458
-47.93
-45.666
-43.661
-41.911
-40.406
-39.138
-38.096
-37.267
-36.64
-36.198
-35.929
-35.815
-35.84
-35.988
-36.24
-36.579
-36.987
-37.444
-37.935
-38.439
-38.942
-39.426
-39.876
-40.277
-40.617
-40.884
-41.067
-41.157
-41.146
-41.029
-40.802
-40.462
-40.008
-39.441
-38.763
-37.98
-37.095
-36.115
-35.049
-33.905
-32.692
-31.421
-30.103
-28.748
-27.367
-25.973
-24.576
-23.189
-21.822
-20.486
-19.191
-17.946
-16.76
-15.639
-14.589
-13.613
-12.716
-11.897
-11.156
-10.492
-9.901
-9.377
-8.913
-8.5
-8.127
-7.783
-7.454
-7.124
-6.777
-6.395
-5.962
-5.46
-4.872
-4.178
-3.362
-2.407
-1.297
-0.017
1.447
3.11
4.983
7.076
9.399
11.957
14.755
17.797
21.082
24.607
28.368
32.357
36.564
40.979
45.587
50.37
55.309
60.381
65.562
70.826
76.143
81.477
86.793
92.058
97.235
102.286
107.175
111.865
116.322
120.516
124.419
128
131.23
134.079
136.52
138.531
140.088
141.171
141.761
141.845
141.414
140.472
139.02
137.058
134.586
131.596
128.09
124.084
119.598
114.656
109.295
103.558
97.508
91.228
84.793
78.27
71.725
65.206
58.773
52.496
46.436
40.658
35.216
30.145
25.476
21.222
17.352
13.812
10.522
7.369
4.272
1.155
-2.076
-5.499
-9.197
-13.253
-17.7
-22.585
-27.997
-33.943
-40.308
-46.852
-53.124
-58.643
-63.045
-65.893
-66.646
-64.945
-60.726
-54.259
-46.301
-37.676
-28.855
-20.327
-12.778
-6.561
-1.492
3.217
9.273
18.72
33.046
53.711
82.653
121.473
171.064
231.59
300.411
372.618
444.353
511.155
571.397
627.735
678.612
720.997
746.81
739.377
688.966
591.514
451.531
289.986
127.753
-15.562
-123.992
-196.965
-240.34
-263.909
-278.389
-286.798
-287.177
-275.445
-249.82
-212.905
-169.588
-125.86
-85.417
-49.866
-20.782
1.324
16.835
26.15
30.326
30.973
29.13
26.098
23.847
23.468
25.28
29.325
34.986
41.486
48.428
55.112
60.476
64.01
65.586
65.312
63.725
61.321
58.384
55.297
52.526
50.355
48.987
48.548
49.015
50.359
52.581
55.632
59.42
63.845
68.764
73.986
79.344
84.69
89.905
94.926
99.707
104.202
108.378
112.206
115.658
118.727
121.415
123.71
125.62
127.163
128.376
129.342
130.151
130.895
131.65
132.454
133.305
134.193
135.113
136.078
137.126
138.242
139.335
140.361
141.386
142.605
144.25
146.379
148.807
151.285
153.764
156.215
158.377
159.636
159.156
156.402
151.505
145.068
137.563
129.4
121.356
114.74
111.246
112.304
118.343
128.842
143.081
160.28
179.161
197.891
214.327
226.453
233.195
234.57
231.042
223.324
212.659
200.71
189.181
179.703
173.311
170.255
170.412
173.4
178.438
184.514
190.765
196.423
200.976
204.278
206.297
207.108
206.972
206.225
205.079
203.667
202.042
200.154
197.986
195.534
192.761
189.629
186.131
182.291
178.159
173.801
169.261
164.563
159.727
154.768
149.713
144.589
139.423
134.234
129.045
123.877
118.753
113.693
108.717
103.84
99.077
94.445
89.962
85.649
81.529
77.622
73.948
70.522
67.359
64.468
61.86
59.542
57.519
55.792
54.361
53.225
52.379
51.817
51.529
51.503
51.723
52.173
52.833
53.684
54.703
55.865
57.146
58.521
59.964
61.45
62.954
64.452
65.922
67.344
68.697
69.963
71.122
72.157
73.052
73.79
74.357
74.737
74.918
74.891
74.65
74.195
73.527
72.652
71.576
70.311
68.871
67.274
65.54
63.681
61.717
59.67
57.569
55.45
53.347
51.276
49.256
47.301
45.416
43.605
41.86
40.152
38.456
36.753
35.026
33.291
31.56
29.841
28.143
26.466
24.827
23.272
21.856
20.621
19.616
18.889
18.504
18.576
19.196
20.429
22.32
24.851
27.978
31.66
35.833
40.409
45.271
50.242
55.118
59.74
63.951
67.602
70.532
72.508
73.323
72.817
70.867
67.43
62.5
56.074
48.191
38.957
28.529
17.145
5.077
-7.464
-20.292
-33.236
-46.11
-58.665
-70.666
-81.922
-92.298
-101.726
-110.147
-117.503
-123.796
-129.106
-133.589
-137.477
-140.989
-144.287
-147.52
-150.829
-154.381
-158.367
-162.93
-168.2
-174.302
-181.229
-188.89
-197.098
-205.441
-213.49
-220.868
-227.064
-231.525
-233.953
-234.332
-232.987
-230.648
-227.941
-225.118
-222.442
-220.353
-218.986
-217.868
-215.866
-211.092
-201.609
-186.225
-163.874
-133.04
-92.61
-42.297
17.235
83.832
154.632
227.129
298.267
363.818
419.46
460.996
484.821
488.953
472.323
434.217
375.348
298.369
207.232
107.113
3.598
-98.172
-193.108
-276.329
-343.908
-393.743
-425.709
-441.231
-442.564
-432.569
-414.606
-392.375
-369.899
-349.979
-333.734
-321.53
-313.225
-308.188
-305.777
-304.975
-303.856
-301.305
-297.28
-291.904
-285.636
-278.999
-272.062
-265.086
-259.038
-254.485
-251.529
-250.187
-250.097
-250.927
-252.675
-255.243
-258.229
-261.254
-263.989
-266.172
-267.795
-268.867
-269.323
-269.116
-268.238
-266.739
-264.719
-262.283
-259.487
-256.374
-252.988
-249.392
-245.675
-241.938
-238.274
-234.75
-231.4
-228.256
-225.335
-222.651
-220.213
-218.006
-216.003
-214.182
-212.532
-211.045
-209.721
-208.55
-207.514
-206.598
-205.788
-205.071
-204.442
-203.893
-203.416
-203.005
-202.657
-202.37
-202.145
-201.978
-201.863
-201.792
-201.755
-201.742
-201.745
-201.753
-201.753
-201.736
-201.691
-201.607
-201.475
-201.285
-201.025
-200.684
-200.252
-199.718
-199.071
-198.301
-197.396
-196.349
-195.149
-193.789
-192.26
-190.556
-188.67
-186.596
-184.331
-181.871
-179.213
-176.357
-173.302
-170.049
-166.602
-162.965
-159.143
-155.143
-150.973
-146.644
-142.167
-137.554
-132.818
-127.974
-123.038
-118.027
-112.957
-107.849
-102.721
-97.592
-92.485
-87.418
-82.413
-77.49
-72.67
-67.972
-63.417
-59.023
-54.808
-50.789
-46.983
-43.407
-40.072
-36.994
-34.183
-31.65
-29.402
-27.448
-25.792
-24.437
-23.384
-22.635
-22.186
-22.034
-22.173
-22.595
-23.292
-24.253
-25.465
-26.914
-28.585
-30.462
-32.528
-34.765
-37.155
-39.681
-42.324
-45.066
-47.89
-50.779
-53.718
-56.689
-59.678
-62.669
-65.649
-68.605
-71.524
-74.394
-77.207
-79.951
-82.621
-85.21
-87.715
-90.13
-92.454
-94.685
-96.825
-98.874
-100.835
-102.712
-104.509
-106.233
-107.891
-109.49
-111.038
-112.544
-114.012
-115.451
-116.866
-118.261
-119.638
-120.997
-122.337
-123.658
-124.958
-126.236
-127.488
-128.712
-129.904
-131.065
-132.191
-133.278
-134.314
-135.287
-136.184
-136.991
-137.692
-138.268
-138.698
-138.962
-139.044
-138.934
-138.619
-138.082
-137.299
-136.24
-134.887
-133.232
-131.27
-129
-126.423
-123.552
-120.42
-117.08
-113.583
-109.964
-106.237
-102.399
-98.454
-94.411
-90.28
-86.069
-81.761
-77.332
-72.768
-68.068
-63.227
-58.219
-52.979
-47.406
-41.421
-34.995
-28.147
-20.93
-13.398
-5.623
2.307
10.277
18.119
25.673
32.816
39.44
45.448
50.726
55.11
58.396
60.434
61.146
60.517
58.593
55.417
51.059
45.631
39.292
32.272
24.781
16.987
9.035
1.045
-6.865
-14.527
-21.745
-28.403
-34.457
-39.932
-44.923
-49.48
-53.637
-57.481
-61.155
-64.865
-68.818
-73.154
-77.94
-83.247
-89.168
-95.757
-103.01
-110.697
-118.349
-125.468
-131.602
-136.319
-139.187
-139.865
-138.142
-134.216
-128.777
-122.565
-116.187
-110.186
-105.093
-101.278
-98.769
-96.815
-93.758
-87.702
-76.884
-59.504
-33.604
2.743
51.254
111.387
179.953
253.647
328.727
404.448
483.223
562.616
636.725
693.895
716.129
693.811
625.891
519.841
394.643
265.647
141.435
25.921
-85.988
-198.135
-307.552
-407.225
-481.989
-516.945
-506.444
-452.619
-371.925
-286.446
-211.748
-158.711
-125.146
-101.495
-82.809
-64.821
-48.549
-39.238
-37.758
-43.671
-55.07
-67.447
-77.897
-84.799
-87.194
-85.566
-80.689
-73.192
-63.853
-53.533
-43.191
-33.831
-26.009
-19.783
-14.918
-10.987
-7.634
-4.594
-1.538
1.875
5.836
10.396
15.485
20.935
26.627
32.499
38.476
44.488
50.465
56.335
62.039
67.531
72.777
77.753
82.438
86.817
90.887
94.651
98.124
101.332
104.291
107.008
109.489
111.735
113.758
115.579
117.218
118.695
120.031
121.244
122.354
123.382
124.345
125.255
126.124
126.96
127.775
128.584
129.405
130.25
131.136
132.075
133.081
134.167
135.342
136.617
137.997
139.49
141.101
142.837
144.703
146.703
148.842
151.122
153.546
156.116
158.832
161.693
164.698
167.843
171.126
174.541
178.083
181.745
185.519
189.397
193.369
197.425
201.555
205.745
209.983
214.257
218.553
222.857
227.154
231.431
235.674
239.867
243.998
248.052
252.016
255.875
259.617
263.228
266.697
270.01
273.158
276.128
278.912
281.5
283.885
286.06
288.019
289.757
291.272
292.561
293.624
294.462
295.077
295.473
295.655
295.631
295.407
294.993
294.399
293.637
292.717
291.653
290.459
289.148
287.735
286.235
284.664
283.037
281.369
279.675
277.971
276.27
274.586
272.932
271.319
269.761
268.265
266.842
265.499
264.244
263.081
262.014
261.046
260.177
259.407
258.733
258.152
257.658
257.244
256.903
256.627
256.405
256.227
256.083
255.96
255.846
255.729
255.596
255.436
255.237
254.986
254.673
254.289
253.824
253.271
252.624
251.878
251.03
250.078
249.022
247.864
246.605
245.253
243.811
242.29
240.7
239.052
237.361
235.641
233.91
232.186
230.49
228.841
227.262
225.775
224.402
223.166
222.09
221.197
220.51
220.05
219.839
219.895
220.239
220.886
221.852
223.149
224.789
226.778
229.123
231.825
234.886
238.302
242.069
246.178
250.621
255.383
260.448
265.799
271.415
277.272
283.341
289.594
295.996
302.513
309.109
315.748
322.389
328.995
335.529
341.954
348.238
354.342
360.232
365.871
371.226
376.265
380.96
385.28
389.202
392.705
395.773
398.394
400.563
402.271
403.508
404.264
404.522
404.274
403.527
402.289
400.567
398.385
395.769
392.759
389.417
385.793
381.936
377.897
373.714
369.435
365.119
360.816
356.592
352.509
348.587
344.842
341.289
337.916
334.723
331.675
328.652
325.54
322.216
318.556
314.505
309.954
304.727
298.757
292.035
284.683
277.061
269.484
262.133
255.303
249.309
244.339
240.553
237.629
234.738
231.238
226.644
220.614
213
203.663
192.715
181.27
171.193
164.305
162.443
166.95
178.947
200.015
231.189
272.242
321.98
378.382
438.818
500.871
561.46
615.95
659.772
688.834
699.371
688.912
655.918
599.033
519.606
422.469
311.64
191.308
65.061
-66.59
-197.12
-315.335
-411.716
-476.031
-507
-512.934
-501.209
-480.298
-455.327
-425.354
-391.059
-353.92
-315.809
-280.657
-251.408
-229.229
-213.976
-204.464
-199.382
-197.607
-198.303
-200.475
-202.523
-202.985
-201.236
-197.277
-191.601
-184.86
-177.471
-169.9
-163.02
-157.817
-154.823
-154.133
-155.489
-158.404
-162.516
-167.535
-173
-178.382
-183.306
-187.531
-190.946
-193.587
-195.456
-196.527
-196.83
-196.421
-195.367
-193.765
-191.71
-189.304
-186.659
-183.901
-181.17
-178.587
-176.239
-174.202
-172.531
-171.261
-170.42
-170.02
-170.053
-170.511
-171.373
-172.61
-174.185
-176.046
-178.137
-180.393
-182.74
-185.114
-187.469
-189.761
-191.958
-194.034
-195.963
-197.728
-199.32
-200.727
-201.932
-202.922
-203.679
-204.19
-204.446
-204.443
-204.175
-203.638
-202.826
-201.734
-200.355
-198.684
-196.717
-194.447
-191.868
-188.98
-185.785
-182.288
-178.497
-174.422
-170.075
-165.468
-160.619
-155.544
-150.261
-144.789
-139.147
-133.355
-127.437
-121.415
-115.313
-109.157
-102.973
-96.785
-90.622
-84.511
-78.477
-72.549
-66.751
-61.109
-55.648
-50.394
-45.369
-40.596
-36.096
-31.888
-27.99
-24.418
-21.186
-18.306
-15.786
-13.635
-11.858
-10.459
-9.437
-8.794
-8.525
-8.627
-9.094
-9.917
-11.087
-12.593
-14.422
-16.559
-18.99
-21.698
-24.666
-27.876
-31.309
-34.947
-38.771
-42.763
-46.905
-51.179
-55.568
-60.056
-64.63
-69.274
-73.977
-78.73
-83.522
-88.346
-93.197
-98.071
-102.964
-107.876
-112.808
-117.759
-122.734
-127.737
-132.773
-137.849
-142.971
-148.147
-153.387
-158.699
-164.093
-169.577
-175.159
-180.85
-186.655
-192.581
-198.634
-204.818
-211.135
-217.587
-224.172
-230.887
-237.726
-244.682
-251.745
-258.903
-266.14
-273.44
-280.784
-288.152
-295.521
-302.867
-310.164
-317.386
-324.506
-331.494
-338.32
-344.954
-351.364
-357.52
-363.389
-368.941
-374.144
-378.969
-383.388
-387.373
-390.9
-393.945
-396.486
-398.506
-399.988
-400.92
-401.291
-401.095
-400.328
-398.991
-397.089
-394.628
-391.621
-388.084
-384.034
-379.494
-374.487
-369.041
-363.186
-356.952
-350.376
-343.492
-336.338
-328.956
-321.39
-313.684
-305.886
-298.044
-290.205
-282.42
-274.735
-267.197
-259.848
-252.73
-245.878
-239.331
-233.123
-227.287
-221.852
-216.845
-212.291
-208.21
-204.618
-201.526
-198.94
-196.86
-195.28
-194.194
-193.596
-193.481
-193.855
-194.711
-196.031
-197.797
-199.983
-202.556
-205.477
-208.692
-212.128
-215.714
-219.376
-223.05
-226.686
-230.231
-233.631
-236.823
-239.723
-242.277
-244.466
-246.276
-247.701
-248.737
-249.371
-249.646
-249.688
-249.623
-249.589
-249.703
-250.016
-250.621
-251.657
-253.204
-255.291
-257.782
-260.325
-262.585
-264.326
-265.278
-265.143
-263.667
-260.641
-256.26
-251.19
-246.167
-241.814
-238.61
-236.965
-237.115
-239.011
-241.935
-244.331
-244.175
-239.433
-228.368
-209.097
-179.83
-139.252
-86.779
-24.316
43.979
114.26
183.677
252.308
321.709
388.808
445.207
476.734
469.983
421.595
337.171
231.022
115.297
-7.621
-136.635
-271.226
-402.589
-511.192
-584.234
-617.216
-616.175
-598.092
-573.844
-547.682
-520.5
-488.341
-450.948
-411.313
-372.105
-337.022
-308.455
-286.828
-271.638
-261.523
-255.05
-251.434
-250.152
-250.42
-250.879
-250.048
-247.25
-242.562
-236.47
-229.449
-221.75
-213.671
-205.912
-199.364
-194.486
-191.245
-189.309
-188.235
-187.748
-187.694
-187.787
-187.636
-186.957
-185.614
-183.585
-180.94
-177.716
-173.908
-169.564
-164.793
-159.745
-154.604
-149.529
-144.639
-140.024
-135.746
-131.847
-128.361
-125.304
-122.677
-120.484
-118.735
-117.445
-116.632
-116.298
-116.421
-116.958
-117.836
-118.99
-120.354
-121.873
-123.505
-125.213
-126.964
-128.738
-130.522
-132.299
-134.048
-135.738
-137.335
-138.807
-140.129
-141.278
-142.234
-142.981
-143.504
-143.791
-143.827
-143.602
-143.101
-142.311
-141.214
-139.799
-138.055
-135.977
-133.562
-130.81
-127.724
-124.31
-120.579
-116.541
-112.209
-107.598
-102.724
-97.607
-92.266
-86.724
-81.007
-75.14
-69.152
-63.073
-56.934
-50.768
-44.608
-38.486
-32.435
-26.489
-20.678
-15.035
-9.59
-4.372
0.592
5.274
9.649
13.693
17.386
20.707
23.641
26.174
28.294
29.993
31.268
32.114
32.532
32.525
32.1
31.265
30.032
28.415
26.433
24.106
21.459
18.518
15.312
11.873
8.233
4.427
0.49
-3.541
-7.631
-11.741
-15.833
-19.868
-23.808
-27.617
-31.257
-34.692
-37.89
-40.818
-43.446
-45.749
-47.702
-49.284
-50.476
-51.261
-51.627
-51.563
-51.063
-50.122
-48.74
-46.922
-44.674
-42.009
-38.941
-35.489
-31.673
-27.518
-23.053
-18.305
-13.303
-8.078
-2.664
2.905
8.593
14.364
20.181
26.008
31.803
37.524
43.131
48.586
53.857
58.911
63.721
68.262
72.51
76.449
80.066
83.35
86.287
88.856
91.036
92.82
94.221
95.263
95.973
96.374
96.493
96.37
96.052
95.579
94.975
94.241
93.37
92.376
91.297
90.197
89.145
88.194
87.361
86.646
86.059
85.611
85.292
85.057
84.827
84.546
84.227
83.945
83.788
83.816
84.046
84.459
85.039
85.793
86.771
88.033
89.619
91.581
94.023
97.114
101.083
106.119
112.292
119.56
127.849
137.1
147.283
158.377
170.324
183.023
196.333
210.109
224.208
238.45
252.574
266.231
278.999
290.487
300.439
308.704
315.178
319.77
322.398
323.002
321.585
318.209
312.968
305.973
297.352
287.284
276.013
263.863
251.223
238.466
225.883
213.699
202.092
191.199
181.142
172.012
163.851
156.649
150.353
144.866
140.078
135.875
132.138
128.728
125.445
122.081
118.466
114.46
109.995
105.061
99.631
93.633
87.096
80.205
73.311
66.982
61.753
57.978
55.998
56.258
59.072
64.446
72.03
80.957
90.24
99.295
107.65
114.73
120.297
124.62
128.455
133.406
141.541
154.368
173.169
199.572
234.745
279.213
333.183
394.382
458.098
520.682
578.571
630.973
681.216
728.499
768.266
790.849
781.079
731.02
640.24
515.016
370.059
217.823
69.67
-60.775
-164.929
-237.477
-278.379
-296.92
-302.048
-298.491
-287.406
-265.471
-231.279
-187.659
-139.404
-92.158
-49.837
-14.751
11.577
29.025
38.082
39.711
35.616
27.368
16.475
5.121
-4.549
-11.342
-14.762
-14.999
-12.808
-8.785
-3.47
2.117
6.884
10.261
12.043
12.432
11.914
10.803
9.335
7.904
6.931
6.707
7.385
8.966
11.372
14.564
18.496
23.076
28.15
33.521
39.035
44.568
50.012
55.294
60.343
65.1
69.541
73.655
77.42
80.81
83.783
86.285
88.293
89.796
90.799
91.339
91.448
91.154
90.5
89.52
88.234
86.663
84.814
82.68
80.264
77.577
74.63
71.444
68.041
64.442
60.674
56.764
52.74
48.63
44.462
40.263
36.062
31.888
27.77
23.732
19.804
16.017
12.41
9.027
5.903
3.062
0.528
-1.684
-3.569
-5.131
-6.4
-7.414
-8.192
-8.746
-9.073
-9.147
-8.952
-8.47
-7.681
-6.587
-5.18
-3.448
-1.4
0.96
3.644
6.68
10.147
14.148
18.736
23.944
29.778
36.198
43.17
50.622
58.432
66.498
74.703
82.93
91.092
99.092
106.821
114.16
120.95
127.029
132.263
136.502
139.621
141.53
142.162
141.596
139.892
136.955
132.875
127.886
122.241
116.4
110.578
104.53
98.439
93.01
88.305
84.034
79.933
74.902
69.496
66.565
66.082
66.351
64.923
56.563
42.538
30.399
26.623
38.659
66.235
100.496
133.816
158.533
172.115
178.134
178.975
177.352
174.459
169.037
161.659
153.339
145.059
138.876
135.789
135.607
138.155
142.677
148.056
153.786
159.436
164.42
168.549
171.775
174.057
175.702
177.111
178.428
179.712
180.954
182.038
182.935
183.66
184.159
184.383
184.313
183.955
183.367
182.62
181.757
180.798
179.753
178.632
177.464
176.29
175.152
174.091
173.137
172.317
171.666
171.218
171.001
171.026
171.292
171.792
172.523
173.479
174.651
176.016
177.547
179.22
181.016
182.93
184.954
187.078
189.287
191.557
193.887
196.302
198.839
201.545
204.471
207.668
211.208
215.192
219.697
224.772
230.432
236.651
243.398
250.637
258.327
266.412
274.789
283.318
291.841
300.186
308.174
315.614
322.267
327.869
332.201
335.107
336.489
336.306
334.525
331.117
326.078
319.451
311.337
301.86
291.151
279.354
266.632
253.195
239.333
225.349
211.496
197.978
184.95
172.541
160.89
150.125
140.342
131.584
123.857
117.184
111.591
107.103
103.737
101.439
100.084
99.558
99.759
100.558
101.837
103.449
105.219
107.021
108.727
110.192
111.357
112.24
112.972
113.817
115.02
116.725
119.144
122.585
127.175
132.779
138.901
144.582
148.824
150.994
150.587
146.989
139.978
130.042
118.315
106.95
98.681
95.697
99.859
113.293
137.691
173.745
221.285
277.668
337.731
396.894
451.849
501.821
547.735
587.95
615.757
619.895
590.957
525.234
427.162
307.565
175.652
40.087
-90.046
-204.561
-291.151
-342.71
-361.171
-356.241
-339.976
-320.143
-298.525
-272.627
-241.351
-207.175
-174.352
-148.03
-131.26
-124.186
-125.854
-134.556
-148.247
-165.06
-183.139
-200.393
-215.147
-226.634
-234.606
-239.289
-241.409
-241.728
-241.045
-240.444
-240.722
-242.171
-244.896
-248.719
-253.245
-258.18
-263.193
-267.838
-271.875
-275.224
-277.849
-279.849
-281.343
-282.385
-283.068
-283.498
-283.725
-283.8
-283.771
-283.664
-283.532
-283.431
-283.385
-283.421
-283.55
-283.767
-284.076
-284.468
-284.925
-285.435
-285.99
-286.584
-287.219
-287.889
-288.581
-289.278
-289.961
-290.613
-291.22
-291.766
-292.236
-292.619
-292.907
-293.095
-293.178
-293.149
-292.998
-292.715
-292.287
-291.706
-290.962
-290.049
-288.957
-287.681
-286.219
-284.567
-282.725
-280.693
-278.467
-276.048
-273.436
-270.63
-267.633
-264.445
-261.067
-257.504
-253.759
-249.837
-245.744
-241.485
-237.067
-232.497
-227.782
-222.93
-217.95
-212.851
-207.641
-202.331
-196.931
-191.452
-185.905
-180.302
-174.652
-168.969
-163.263
-157.546
-151.828
-146.12
-140.433
-134.776
-129.162
-123.599
-118.099
-112.672
-107.328
-102.077
-96.928
-91.892
-86.976
-82.189
-77.54
-73.035
-68.682
-64.487
-60.457
-56.596
-52.91
-49.402
-46.076
-42.934
-39.978
-37.208
-34.625
-32.229
-30.017
-27.99
-26.143
-24.474
-22.981
-21.657
-20.498
-19.498
-18.65
-17.949
-17.386
-16.953
-16.642
-16.445
-16.352
-16.356
-16.446
-16.613
-16.849
-17.144
-17.491
-17.88
-18.304
-18.758
-19.233
-19.726
-20.232
-20.748
-21.27
-21.795
-22.322
-22.848
-23.374
-23.898
-24.422
-24.945
-25.47
-26
-26.539
-27.092
-27.663
-28.258
-28.884
-29.547
-30.255
-31.015
-31.836
-32.725
-33.691
-34.743
-35.888
-37.134
-38.488
-39.954
-41.538
-43.242
-45.066
-47.008
-49.064
-51.23
-53.503
-55.877
-58.348
-60.908
-63.553
-66.279
-69.08
-71.95
-74.876
-77.845
-80.84
-83.844
-86.838
-89.802
-92.712
-95.543
-98.274
-100.891
-103.374
-105.705
-107.857
-109.795
-111.494
-112.942
-114.129
-115.053
-115.716
-116.123
-116.297
-116.289
-116.141
-115.895
-115.57
-115.153
-114.641
-114.037
-113.342
-112.567
-111.693
-110.668
-109.46
-108.043
-106.382
-104.446
-102.153
-99.377
-96.017
-92.004
-87.317
-82
-76.095
-69.647
-62.735
-55.454
-47.949
-40.418
-33.01
-25.838
-19.03
-12.71
-7.065
-2.343
1.273
3.653
4.722
4.484
2.957
0.173
-3.753
-8.662
-14.347
-20.545
-27.062
-33.756
-40.467
-47.047
-53.29
-58.94
-63.829
-67.856
-70.947
-73.1
-74.308
-74.571
-74.015
-72.827
-71.214
-69.434
-67.666
-66.011
-64.625
-63.693
-63.344
-63.669
-64.54
-65.604
-66.554
-67.123
-67.002
-65.864
-63.394
-59.416
-54.267
-48.71
-43.449
-39.096
-36.099
-34.776
-35.393
-37.812
-40.943
-42.998
-42.162
-36.599
-24.765
-5.285
23.295
61.945
110.411
167.391
231.292
298.792
365.303
426.654
477.748
516.886
546.942
567.356
576.395
568.255
529.584
454.926
343.61
198.504
36.027
-128.35
-278.104
-392.979
-466.439
-500.643
-504.775
-495.209
-481.137
-463.213
-438.599
-405.55
-365.956
-326.683
-295.663
-273.696
-259.923
-251.704
-244.279
-238.542
-235.077
-232.983
-232.567
-231.175
-226.219
-217.353
-204.336
-187.757
-168.951
-148.722
-127.95
-108.085
-90.229
-74.961
-62.658
-53.268
-46.433
-41.907
-39.335
-38.144
-37.997
-38.688
-40.035
-42.037
-44.665
-47.773
-51.215
-54.785
-58.189
-61.212
-63.677
-65.428
-66.403
-66.57
-65.913
-64.486
-62.329
-59.467
-55.941
-51.763
-46.947
-41.563
-35.703
-29.509
-23.165
-16.802
-10.512
-4.369
1.594
7.353
12.896
18.251
23.458
28.545
33.53
38.422
43.216
47.935
52.616
57.306
62.069
66.951
71.981
77.184
82.575
88.159
93.937
99.895
106.006
112.252
118.621
125.105
131.703
138.406
145.202
152.079
159.025
166.027
173.075
180.157
187.262
194.381
201.506
208.632
215.757
222.874
229.978
237.059
244.108
251.116
258.075
264.974
271.803
278.552
285.213
291.776
298.235
304.582
310.808
316.906
322.867
328.686
334.353
339.863
345.207
350.378
355.369
360.173
364.782
369.19
373.391
377.378
381.146
384.69
388.003
391.081
393.92
396.515
398.861
400.954
402.79
404.366
405.677
406.72
407.491
407.988
408.207
408.144
407.796
407.158
406.228
405.002
403.475
401.645
399.509
397.062
394.303
391.229
387.836
384.123
380.088
375.728
371.044
366.032
360.694
355.028
349.035
342.716
336.074
329.111
321.83
314.237
306.337
298.137
289.644
280.868
271.819
262.509
252.95
243.157
233.144
222.929
212.528
201.961
191.249
180.413
169.474
158.458
147.386
136.285
125.18
114.097
103.063
92.105
81.249
70.524
59.957
49.574
39.404
29.472
19.804
10.424
1.355
-7.38
-15.761
-23.769
-31.386
-38.597
-45.389
-51.748
-57.664
-63.129
-68.136
-72.682
-76.764
-80.381
-83.537
-86.236
-88.484
-90.291
-91.667
-92.623
-93.175
-93.337
-93.127
-92.563
-91.665
-90.455
-88.957
-87.194
-85.193
-82.979
-80.579
-78.019
-75.326
-72.527
-69.647
-66.711
-63.744
-60.77
-57.813
-54.898
-52.047
-49.283
-46.63
-44.109
-41.74
-39.541
-37.528
-35.713
-34.107
-32.715
-31.543
-30.592
-29.864
-29.358
-29.075
-29.013
-29.169
-29.534
-30.098
-30.847
-31.767
-32.839
-34.038
-35.345
-36.739
-38.208
-39.753
-41.367
-43.033
-44.732
-46.439
-48.125
-49.761
-51.307
-52.704
-53.894
-54.825
-55.453
-55.77
-55.761
-55.401
-54.657
-53.47
-51.809
-49.694
-47.146
-44.175
-40.803
-37.038
-32.948
-28.699
-24.458
-20.376
-16.586
-13.143
-10.131
-7.722
-6.029
-5.067
-4.702
-4.584
-4.349
-3.802
-2.699
-0.663
2.583
7.113
12.625
18.286
23.153
26.572
27.935
26.509
21.934
14.586
5.59
-3.004
-8.718
-9.422
-2.956
13.147
40.802
80.666
132.069
192.827
259.596
328.767
396.003
455.95
502.793
531.224
537.536
519.362
476.84
412.482
328.138
226.609
111.071
-17.278
-151.517
-280.018
-391.791
-474.195
-524.055
-548.884
-556.376
-555.948
-551.558
-540.234
-521.758
-497.234
-469.09
-441.531
-416.436
-394.065
-375.09
-360.082
-349.151
-341.983
-337.869
-336.35
-337.208
-340.23
-344.598
-348.665
-351.359
-352.397
-351.766
-349.629
-346.083
-341.091
-335.057
-328.995
-323.539
-318.852
-314.9
-311.345
-307.962
-304.733
-301.477
-297.831
-293.58
-288.64
-283.038
-276.979
-270.608
-263.98
-257.186
-250.307
-243.427
-236.644
-230.032
-223.636
-217.496
-211.64
-206.09
-200.87
-195.99
-191.447
-187.225
-183.296
-179.641
-176.25
-173.113
-170.226
-167.579
-165.153
-162.931
-160.894
-159.024
-157.305
-155.717
-154.239
-152.854
-151.544
-150.297
-149.099
-147.935
-146.786
-145.633
-144.455
-143.231
-141.942
-140.569
-139.09
-137.488
-135.747
-133.851
-131.785
-129.537
-127.092
-124.439
-121.568
-118.467
-115.13
-111.548
-107.716
-103.631
-99.29
-94.695
-89.845
-84.746
-79.404
-73.826
-68.022
-62.006
-55.791
-49.392
-42.829
-36.12
-29.287
-22.353
-15.341
-8.278
-1.189
5.899
12.956
19.954
26.865
33.66
40.31
46.787
53.062
59.108
64.899
70.409
75.613
80.487
85.01
89.162
92.924
96.28
99.216
101.72
103.782
105.396
106.558
107.266
107.521
107.327
106.69
105.619
104.125
102.222
99.926
97.253
94.226
90.863
87.19
83.23
79.009
74.554
69.891
65.048
60.053
54.934
49.718
44.434
39.107
33.764
28.429
23.128
17.882
12.712
7.639
2.681
-2.146
-6.829
-11.355
-15.713
-19.895
-23.896
-27.709
-31.334
-34.769
-38.015
-41.075
-43.951
-46.65
-49.176
-51.538
-53.741
-55.795
-57.708
-59.488
-61.143
-62.683
-64.114
-65.444
-66.679
-67.826
-68.89
-69.874
-70.782
-71.614
-72.372
-73.055
-73.661
-74.188
-74.632
-74.986
-75.243
-75.397
-75.439
-75.358
-75.144
-74.785
-74.268
-73.583
-72.717
-71.659
-70.396
-68.918
-67.215
-65.279
-63.1
-60.673
-57.991
-55.05
-51.848
-48.384
-44.661
-40.681
-36.449
-31.973
-27.263
-22.33
-17.19
-11.856
-6.347
-0.682
5.119
11.031
17.029
23.088
29.181
35.276
41.343
47.347
53.255
59.034
64.651
70.073
75.267
80.201
84.849
89.187
93.191
96.84
100.112
102.988
105.451
107.486
109.078
110.216
110.89
111.098
110.84
110.126
108.964
107.365
105.339
102.892
100.035
96.786
93.165
89.2
84.928
80.395
75.667
70.816
65.912
61.025
56.218
51.546
47.071
42.831
38.864
35.217
31.932
29.041
26.573
24.527
22.866
21.541
20.477
19.566
18.717
17.825
16.779
15.481
13.835
11.79
9.318
6.405
3
-0.98
-5.508
-10.409
-15.346
-19.855
-23.499
-25.92
-26.66
-25.159
-21.157
-14.673
-6.207
3.187
12.612
21.396
28.814
34.296
37.792
39.68
41.33
44.991
52.726
66.795
89.265
121.466
164.337
216.666
275.674
339.389
404.387
468.087
527.84
575.361
603.682
606.71
579.781
525.979
448.31
349.811
233.96
104.4
-29.727
-157.305
-265.833
-348.162
-406.58
-445.195
-470.105
-483.984
-483.488
-468.03
-439.635
-402.236
-362.296
-324.205
-289.977
-261.594
-240.869
-228.591
-224.476
-227.359
-235.389
-246.937
-260.924
-275.702
-288.967
-299.261
-305.972
-309.073
-309.267
-307.155
-303.051
-297.73
-292.355
-287.658
-283.986
-281.331
-279.236
-277.365
-275.561
-273.522
-270.883
-267.418
-263.012
-257.703
-251.692
-245.129
-238.111
-230.744
-223.123
-215.341
-207.495
-199.668
-191.931
-184.343
-176.958
-169.824
-162.982
-156.467
-150.305
-144.507
-139.075
-134.016
-129.343
-125.073
-121.229
-117.821
-114.852
-112.32
-110.221
-108.547
-107.293
-106.447
-105.993
-105.92
-106.215
-106.865
-107.86
-109.182
-110.808
-112.712
-114.867
-117.243
-119.811
-122.539
-125.392
-128.34
-131.349
-134.389
-137.429
-140.436
-143.381
-146.23
-148.955
-151.525
-153.914
-156.095
-158.043
-159.736
-161.155
-162.285
-163.11
-163.619
-163.804
-163.661
-163.186
-162.38
-161.247
-159.792
-158.023
-155.953
-153.595
-150.964
-148.08
-144.962
-141.632
-138.114
-134.434
-130.617
-126.69
-122.681
-118.618
-114.529
-110.442
-106.385
-102.386
-98.471
-94.666
-90.996
-87.484
-84.152
-81.017
-78.098
-75.41
-72.964
-70.772
-68.839
-67.172
-65.773
-64.641
-63.773
-63.166
-62.811
-62.698
-62.817
-63.153
-63.691
-64.413
-65.301
-66.335
-67.494
-68.755
-70.095
-71.493
-72.923
-74.364
-75.79
-77.18
-78.512
-79.764
-80.916
-81.95
-82.849
-83.597
-84.18
-84.588
-84.81
-84.84
-84.672
-84.303
-83.733
-82.964
-81.999
-80.843
-79.505
-77.995
-76.322
-74.5
-72.544
-70.469
-68.292
-66.03
-63.703
-61.329
-58.928
-56.521
-54.127
-51.766
-49.457
-47.219
-45.07
-43.026
-41.104
-39.317
-37.679
-36.201
-34.892
-33.76
-32.811
-32.047
-31.469
-31.078
-30.87
-30.84
-30.98
-31.281
-31.734
-32.325
-33.041
-33.868
-34.788
-35.783
-36.836
-37.928
-39.037
-40.144
-41.227
-42.266
-43.239
-44.128
-44.912
-45.572
-46.089
-46.446
-46.629
-46.623
-46.415
-45.994
-45.351
-44.481
-43.378
-42.043
-40.475
-38.68
-36.663
-34.435
-32.008
-29.397
-26.617
-23.685
-20.621
-17.445
-14.179
-10.844
-7.461
-4.055
-0.652
2.721
6.038
9.273
12.398
15.387
18.212
20.845
23.266
25.459
27.408
29.095
30.502
31.602
32.383
32.842
32.981
32.801
32.311
31.525
30.475
29.219
27.805
26.277
24.666
22.986
21.267
19.552
17.886
16.32
14.88
13.566
12.387
11.375
10.53
9.834
9.218
8.543
7.715
6.675
5.388
3.861
2.066
-0.069
-2.588
-5.528
-8.901
-12.634
-16.735
-21.316
-26.303
-31.49
-36.461
-40.478
-42.942
-43.505
-41.703
-37.086
-29.563
-19.23
-6.803
6.227
18.605
29.379
37.64
42.942
45.502
45.958
46.083
48.856
57.136
73.66
100.917
140.44
192.659
257.008
331.216
411.128
492.001
568.499
634.74
685.197
715.38
721.581
702.553
660.38
596.498
512.985
412.304
295.123
168.258
43.604
-67.237
-151.555
-205.222
-233.779
-242.903
-239.73
-227.677
-205.021
-172.906
-133.682
-91.123
-50.685
-15.833
11.095
28.906
38.133
39.818
35.425
26.99
16.145
4.6
-5.385
-12.411
-15.881
-15.579
-12.017
-6.011
1.851
10.687
19.231
26.754
32.919
37.575
41.023
43.64
45.691
47.586
49.826
52.665
56.221
60.53
65.462
70.916
76.829
83.096
89.608
96.301
103.118
110.015
116.962
123.895
130.729
137.399
143.853
150.053
155.979
161.61
166.929
171.934
176.631
181.021
185.099
188.856
192.286
195.388
198.171
200.647
202.829
204.734
206.376
207.771
208.936
209.883
210.625
211.174
211.543
211.749
211.813
211.755
211.6
211.371
211.094
210.792
210.492
210.218
209.992
209.838
209.779
209.836
210.034
210.393
210.934
211.678
212.642
213.845
215.302
217.026
219.029
221.32
223.906
226.794
229.985
233.482
237.283
241.385
245.783
250.47
255.437
260.673
266.163
271.894
277.848
284.007
290.352
296.861
303.512
310.283
317.15
324.09
331.078
338.09
345.102
352.087
359.021
365.88
372.64
379.276
385.768
392.092
398.228
404.159
409.865
415.331
420.541
425.482
430.142
434.51
438.578
442.337
445.783
448.911
451.719
454.205
456.37
458.215
459.742
460.954
461.855
462.449
462.739
462.731
462.429
461.838
460.962
459.806
458.374
456.669
454.694
452.451
449.941
447.164
444.119
440.804
437.217
433.352
429.207
424.774
420.047
415.019
409.681
404.024
398.037
391.71
385.031
377.988
370.57
362.765
354.561
345.949
336.919
327.462
317.571
307.242
296.468
285.249
273.585
261.477
248.929
235.95
222.547
208.734
194.526
179.941
164.999
149.725
134.142
118.281
102.172
85.847
69.343
52.698
35.95
19.141
2.318
-14.476
-31.193
-47.786
-64.206
-80.405
-96.334
-111.945
-127.192
-142.027
-156.406
-170.287
-183.627
-196.387
-208.531
-220.026
-230.842
-240.951
-250.33
-258.96
-266.826
-273.917
-280.225
-285.748
-290.484
-294.439
-297.622
-300.045
-301.724
-302.678
-302.933
-302.518
-301.467
-299.818
-297.609
-294.883
-291.684
-288.057
-284.051
-279.711
-275.08
-270.202
-265.123
-259.892
-254.554
-249.157
-243.744
-238.358
-233.041
-227.832
-222.766
-217.872
-213.171
-208.682
-204.427
-200.43
-196.719
-193.314
-190.227
-187.461
-185.018
-182.881
-181.031
-179.431
-178.025
-176.763
-175.601
-174.496
-173.416
-172.321
-171.165
-169.904
-168.491
-166.878
-165.033
-162.928
-160.554
-157.948
-155.162
-152.268
-149.36
-146.505
-143.774
-141.265
-139.06
-137.247
-135.909
-135.069
-134.778
-135.164
-136.245
-137.906
-139.887
-141.657
-142.713
-142.749
-141.369
-138.093
-132.693
-125.166
-115.926
-106.074
-96.586
-87.973
-80.778
-75.414
-71.872
-69.82
-68.119
-64.38
-56.264
-42.025
-19.749
12.206
55.036
109.841
175.259
246.629
319.448
389.446
455.418
520.516
584.141
641.547
681.882
688.498
650.988
566.932
444.127
299.568
150.598
13.014
-102.974
-192.442
-255.268
-296.229
-319.284
-328.506
-325.258
-307.479
-276.272
-234.157
-185.52
-137.25
-93.727
-57.587
-30.785
-13.114
-3.655
-1.308
-3.947
-9.298
-15.521
-20.61
-22.905
-21.719
-16.89
-8.738
1.813
13.806
26.361
38.418
49.191
58.374
65.893
71.956
77.01
81.491
85.825
90.476
95.724
101.654
108.293
115.567
123.372
131.625
140.22
149.039
158.011
167.094
176.232
185.381
194.465
203.383
212.064
220.459
228.535
236.275
243.669
250.706
257.393
263.751
269.792
275.526
280.955
286.08
290.912
295.471
299.78
303.865
307.749
311.455
315.004
318.417
321.714
324.912
328.024
331.066
334.057
337.018
339.974
342.948
345.964
349.046
352.216
355.499
358.916
362.486
366.227
370.157
374.293
378.651
383.245
388.089
393.194
398.571
404.227
410.17
416.404
422.93
429.749
436.859
444.256
451.934
459.887
468.104
476.573
485.282
494.214
503.354
512.683
522.179
531.82
541.582
551.441
561.369
571.338
581.319
591.283
601.197
611.031
620.753
630.329
639.727
648.913
657.853
666.514
674.862
682.865
690.49
697.704
704.475
710.773
716.567
721.826
726.523
730.629
734.115
736.957
739.128
740.603
741.36
741.376
740.631
739.106
736.781
733.641
729.671
724.857
719.189
712.656
705.25
696.967
687.802
677.753
666.819
655.004
642.31
628.743
614.311
599.023
582.891
565.928
548.149
529.572
510.217
490.106
469.264
447.717
425.494
402.627
379.149
355.096
330.507
305.423
279.886
253.941
227.635
201.017
174.135
147.043
119.791
92.434
65.026
37.622
10.277
-16.953
-44.012
-70.845
-97.395
-123.607
-149.427
-174.8
-199.673
-223.995
-247.715
-270.783
-293.154
-314.782
-335.625
-355.642
-374.797
-393.057
-410.391
-426.772
-442.178
-456.59
-469.992
-482.375
-493.731
-504.057
-513.354
-521.626
-528.884
-535.139
-540.406
-544.706
-548.061
-550.499
-552.047
-552.74
-552.614
-551.704
-550.054
-547.704
-544.702
-541.094
-536.931
-532.265
-527.148
-521.635
-515.783
-509.649
-503.289
-496.759
-490.115
-483.414
-476.709
-470.054
-463.499
-457.094
-450.886
-444.921
-439.243
-433.894
-428.91
-424.33
-420.188
-416.517
-413.343
-410.691
-408.579
-407.025
-406.042
-405.642
-405.832
-406.614
-407.986
-409.944
-412.481
-415.586
-419.241
-423.42
-428.091
-433.222
-438.781
-444.735
-451.051
-457.69
-464.615
-471.796
-479.209
-486.834
-494.643
-502.592
-510.631
-518.717
-526.814
-534.89
-542.91
-550.827
-558.6
-566.189
-573.569
-580.718
-587.592
-594.137
-600.28
-605.947
-611.097
-615.719
-619.82
-623.405
-626.49
-629.108
-631.324
-633.228
-634.887
-636.373
-637.784
-639.173
-640.533
-641.769
-642.696
-643.141
-643.005
-642.113
-640.108
-636.787
-632.313
-627.229
-622.5
-619.102
-617.642
-618.674
-623.076
-631.44
-643.505
-658.132
-673.172
-686.123
-694.95
-697.648
-691.661
-674.396
-645.448
-606.921
-561.636
-513.341
-462.058
-404.048
-340.759
-277.658
-227.06
-208.598
-233.454
-303.415
-410.565
-535.659
-663.986
-787.373
-902.211
-1010.968
-1112.181
-1200.526
-1271.014
-1318.792
-1342.816
-1345.426
-1329.527
-1298.905
-1258.099
-1211.639
-1163.8
-1118.039
-1076.525
-1040.445
-1010.532
-986.683
-967.833
-952.341
-938.318
-924.121
-908.509
-890.671
-870.022
-846.435
-820.372
-792.705
-764.596
-737.152
-711.334
-687.78
-666.877
-648.839
-633.587
-620.826
-610.094
-600.82
-592.453
-584.618
-577.074
-569.581
-561.928
-553.917
-545.356
-536.167
-526.345
-515.86
-504.68
-492.79
-480.191
-466.958
-453.228
-439.13
-424.761
-410.211
-395.56
-380.927
-366.475
-352.331
-338.597
-325.335
-312.574
-300.345
-288.674
-277.559
-266.965
-256.844
-247.129
-237.762
-228.707
-219.913
-211.329
-202.889
-194.514
-186.14
-177.725
-169.231
-160.629
-151.895
-143.003
-133.944
-124.721
-115.338
-105.798
-96.101
-86.243
-76.224
-66.051
-55.732
-45.278
-34.699
-23.999
-13.187
-2.274
8.731
19.816
30.971
42.188
53.456
64.757
76.077
87.395
98.692
109.949
121.145
132.258
143.268
154.153
164.893
175.469
185.862
196.052
206.022
215.752
225.227
234.431
243.347
251.962
260.262
268.235
275.871
283.159
290.089
296.654
302.846
308.66
314.091
319.136
323.796
328.069
331.957
335.465
338.598
341.361
343.763
345.812
347.52
348.897
349.956
350.712
351.179
351.373
351.31
351.008
350.484
349.757
348.844
347.765
346.538
345.184
343.721
342.169
340.546
338.873
337.168
335.45
333.737
332.046
330.393
328.795
327.266
325.819
324.468
323.223
322.096
321.095
320.23
319.507
318.931
318.509
318.242
318.134
318.184
318.392
318.756
319.274
319.94
320.751
321.701
322.784
323.991
325.315
326.748
328.28
329.902
331.602
333.371
335.197
337.07
338.98
340.915
342.865
344.821
346.772
348.71
350.626
352.51
354.354
356.15
357.888
359.563
361.167
362.694
364.138
365.495
366.76
367.93
369.004
369.98
370.855
371.628
372.301
372.871
373.34
373.709
373.979
374.152
374.23
374.217
374.114
373.924
373.649
373.291
372.853
372.335
371.739
371.064
370.312
369.482
368.575
367.593
366.534
365.399
364.187
362.898
361.53
360.081
358.545
356.916
355.187
353.352
351.403
349.332
347.131
344.794
342.313
339.688
336.913
333.981
330.885
327.614
324.162
320.52
316.68
312.632
308.369
303.884
299.177
294.25
289.104
283.731
278.123
272.261
266.134
259.735
253.063
246.117
238.909
231.453
223.78
215.94
207.976
199.925
191.821
183.683
175.538
167.42
159.359
151.39
143.537
135.815
128.219
120.728
113.295
105.851
98.305
90.542
82.438
73.864
64.692
54.814
44.133
32.58
20.07
6.505
-8.126
-23.734
-40.084
-56.793
-73.482
-89.832
-105.44
-119.767
-132.412
-143.239
-152.451
-160.639
-168.361
-175.884
-183.503
-191.793
-201.135
-211.312
-221.498
-230.07
-235.204
-235.7
-230.167
-216.52
-192.882
-157.872
-112.391
-60.165
-4.766
50.308
104.887
162.127
219.891
273.837
313.792
321.095
286.158
204.452
77.956
-74.112
-234.448
-385.612
-507.634
-595.857
-650.257
-674.99
-683.266
-681.075
-669.889
-650.21
-618.15
-574.113
-523.223
-470.888
-423.224
-384.525
-355.991
-337.486
-328.07
-326.254
-330.058
-337.244
-345.458
-352.121
-355.612
-355.364
-351.238
-343.707
-333.704
-322.198
-310.325
-299.467
-290.369
-283.137
-277.741
-273.813
-270.883
-268.655
-266.695
-264.442
-261.621
-258.148
-253.971
-249.2
-243.876
-237.906
-231.314
-224.183
-216.597
-208.716
-200.655
-192.468
-184.258
-176.117
-168.106
-160.291
-152.69
-145.273
-138.042
-131.004
-124.171
-117.603
-111.329
-105.353
-99.667
-94.234
-89.016
-83.99
-79.122
-74.374
-69.72
-65.136
-60.618
-56.182
-51.837
-47.584
-43.421
-39.333
-35.311
-31.349
-27.442
-23.587
-19.781
-16.02
-12.301
-8.628
-5.003
-1.423
2.116
5.625
9.112
12.583
16.044
19.501
22.958
26.421
29.892
33.372
36.86
40.358
43.865
47.383
50.91
54.446
57.99
61.539
65.092
68.645
72.195
75.739
79.27
82.785
86.277
89.74
93.169
96.555
99.893
103.175
106.395
109.544
112.616
115.604
118.498
121.292
123.979
126.55
128.998
131.317
133.501
135.545
137.444
139.196
140.796
142.242
143.533
144.668
145.647
146.47
147.138
147.654
148.02
148.242
148.323
148.269
148.088
147.786
147.371
146.853
146.241
145.544
144.774
143.941
143.057
142.133
141.182
140.215
139.245
138.283
137.341
136.43
135.561
134.743
133.987
133.3
132.691
132.165
131.729
131.388
131.146
131.005
130.969
131.038
131.213
131.492
131.873
132.354
132.931
133.597
134.349
135.177
136.076
137.035
138.048
139.104
140.193
141.305
142.431
143.558
144.678
145.779
146.851
147.885
148.872
149.805
150.675
151.477
152.207
152.859
153.432
153.922
154.33
154.654
154.896
155.057
155.142
155.153
155.097
154.98
154.81
154.597
154.351
154.083
153.803
153.525
153.261
153.024
152.827
152.683
152.605
152.608
152.703
152.904
153.223
153.671
154.257
154.991
155.879
156.927
158.138
159.515
161.057
162.765
164.636
166.666
168.85
171.182
173.653
176.253
178.97
181.789
184.693
187.663
190.677
193.712
196.745
199.751
202.705
205.586
208.369
211.035
213.564
215.935
218.127
220.12
221.893
223.428
224.707
225.714
226.437
226.867
226.997
226.824
226.349
225.571
224.488
223.093
221.37
219.312
216.927
214.223
211.215
207.93
204.395
200.655
196.77
192.8
188.803
184.83
180.916
177.1
173.423
169.936
166.713
163.8
161.2
158.915
156.932
155.242
153.846
152.684
151.621
150.517
149.23
147.644
145.702
143.306
140.307
136.625
132.271
127.429
122.491
117.826
113.681
110.318
108.095
107.253
107.792
109.333
111.024
111.995
111.777
110.01
106.204
100.285
92.852
85.129
79.231
77.471
81.474
92.862
113.59
144.898
187.092
239.5
299.9
365.392
433.262
499.942
560.75
611.099
646.584
663.542
659.838
634.099
585.648
515.579
427.035
324.46
213.469
100.102
-9.791
-110.135
-195.419
-261.547
-306.389
-329.723
-332.854
-318.353
-289.869
-252.223
-210.544
-169.674
-133.43
-104.226
-83.645
-72.234
-69.402
-73.511
-82.244
-92.948
-103.282
-111.733
-117.129
-118.827
-116.837
-111.621
-104.113
-95.641
-87.494
-80.451
-75.014
-71.405
-69.535
-69.247
-70.214
-71.857
-73.553
-74.914
-75.739
-75.976
-75.7
-74.932
-73.687
-72.058
-70.169
-68.114
-65.96
-63.729
-61.418
-59.067
-56.743
-54.525
-52.502
-50.724
-49.214
-47.99
-47.059
-46.426
-46.092
-46.042
-46.248
-46.692
-47.361
-48.244
-49.334
-50.613
-52.055
-53.635
-55.325
-57.104
-58.955
-60.86
-62.805
-64.776
-66.761
-68.749
-70.733
-72.701
-74.64
-76.537
-78.377
-80.147
-81.837
-83.434
-84.928
-86.31
-87.57
-88.702
-89.699
-90.556
-91.266
-91.826
-92.232
-92.482
-92.573
-92.504
-92.277
-91.891
-91.351
-90.657
-89.815
-88.83
-87.707
-86.452
-85.074
-83.581
-81.981
-80.284
-78.5
-76.641
-74.718
-72.743
-70.728
-68.687
-66.634
-64.581
-62.543
-60.534
-58.567
-56.655
-54.812
-53.05
-51.382
-49.82
-48.376
-47.061
-45.884
-44.857
-43.987
-43.282
-42.75
-42.395
-42.223
-42.235
-42.435
-42.823
-43.399
-44.159
-45.103
-46.224
-47.518
-48.977
-50.593
-52.356
-54.257
-56.283
-58.423
-60.662
-62.988
-65.385
-67.839
-70.335
-72.857
-75.39
-77.917
-80.422
-82.891
-85.308
-87.658
-89.927
-92.101
-94.167
-96.115
-97.933
-99.612
-101.145
-102.523
-103.742
-104.797
-105.687
-106.409
-106.965
-107.356
-107.587
-107.661
-107.586
-107.369
-107.018
-106.542
-105.952
-105.258
-104.472
-103.606
-102.671
-101.68
-100.646
-99.581
-98.497
-97.406
-96.321
-95.251
-94.207
-93.199
-92.235
-91.323
-90.468
-89.676
-88.952
-88.298
-87.715
-87.203
-86.761
-86.386
-86.071
-85.811
-85.597
-85.42
-85.268
-85.132
-84.997
-84.851
-84.682
-84.475
-84.216
-83.892
-83.488
-82.992
-82.389
-81.666
-80.812
-79.814
-78.662
-77.348
-75.865
-74.207
-72.37
-70.351
-68.149
-65.765
-63.2
-60.459
-57.548
-54.475
-51.248
-47.882
-44.391
-40.796
-37.117
-33.378
-29.601
-25.811
-22.036
-18.301
-14.628
-11.042
-7.564
-4.218
-1.027
1.984
4.793
7.378
9.717
11.791
13.582
15.078
16.267
17.142
17.702
17.943
17.858
17.439
16.674
15.555
14.088
12.279
10.14
7.691
4.958
1.978
-1.195
-4.51
-7.92
-11.373
-14.832
-18.261
-21.614
-24.846
-27.893
-30.702
-33.257
-35.549
-37.574
-39.328
-40.792
-41.986
-42.999
-43.933
-44.9
-46.004
-47.29
-48.834
-50.77
-53.153
-55.983
-59.112
-62.171
-64.814
-66.812
-67.912
-67.858
-66.501
-63.759
-59.988
-56.043
-52.676
-50.489
-49.926
-51.222
-54.553
-59.818
-65.986
-71.223
-73.605
-71.196
-62.505
-46.169
-20.379
16.301
64.085
121.035
183.348
247.136
310.02
372.74
437.007
500.9
556.992
591.534
590.271
547.568
469.005
369.181
262.938
156.694
48.63
-64.267
-177.978
-279.189
-352.007
-387.72
-389.233
-369.159
-340.824
-311.747
-284.055
-255.727
-225.8
-196.391
-170.165
-150.027
-137.693
-132.733
-133.52
-137.943
-143.767
-149.148
-153.203
-155.4
-155.085
-152.085
-146.714
-139.553
-131.716
-124.371
-118.002
-112.839
-109.112
-106.772
-105.71
-105.749
-106.347
-106.888
-107.055
-106.678
-105.693
-104.172
-102.111
-99.488
-96.391
-92.942
-89.233
-85.344
-81.301
-77.104
-72.797
-68.451
-64.146
-59.975
-55.991
-52.222
-48.686
-45.391
-42.345
-39.553
-37.004
-34.674
-32.546
-30.607
-28.852
-27.28
-25.877
-24.624
-23.5
-22.482
-21.553
-20.701
-19.916
-19.185
-18.5
-17.855
-17.244
-16.665
-16.112
-15.575
-15.047
-14.518
-13.978
-13.42
-12.837
-12.221
-11.566
-10.868
-10.122
-9.326
-8.475
-7.567
-6.6
-5.571
-4.479
-3.322
-2.1
-0.811
0.545
1.966
3.453
5.005
6.62
8.298
10.037
11.834
13.687
15.596
17.556
19.565
21.62
23.716
25.849
28.014
30.207
32.421
34.65
36.889
39.131
41.37
43.6
45.815
48.008
50.174
52.307
54.401
56.449
58.446
60.387
62.266
64.077
65.816
67.478
69.059
70.553
71.957
73.268
74.481
75.595
76.607
77.515
78.319
79.017
79.61
80.1
80.489
80.78
80.976
81.082
81.104
81.047
80.919
80.726
80.477
80.179
79.84
79.469
79.074
78.664
78.247
77.832
77.427
77.038
76.676
76.345
76.055
75.81
75.618
75.483
75.411
75.406
75.473
75.613
75.829
76.123
76.496
76.946
77.474
78.076
78.75
79.492
80.296
81.158
82.07
83.026
84.02
85.043
86.088
87.148
88.215
89.282
90.342
91.388
92.415
93.415
94.385
95.319
96.215
97.068
97.878
98.642
99.36
100.032
100.659
101.243
101.785
102.289
102.759
103.2
103.618
104.021
104.416
104.812
105.219
105.646
106.104
106.603
107.152
107.761
108.442
109.202
110.051
110.997
112.048
113.21
114.49
115.894
117.424
119.082
120.868
122.782
124.819
126.978
129.251
131.633
134.114
136.688
139.343
142.069
144.853
147.68
150.534
153.397
156.247
159.065
161.827
164.511
167.093
169.554
171.873
174.034
176.02
177.816
179.408
180.781
181.92
182.808
183.434
183.787
183.86
183.647
183.145
182.357
181.294
179.965
178.379
176.538
174.435
172.066
169.443
166.577
163.487
160.199
156.735
153.133
149.453
145.753
142.096
138.532
135.076
131.747
128.575
125.602
122.888
120.479
118.374
116.551
115.016
113.756
112.768
112.026
111.402
110.759
109.971
108.917
107.545
105.842
103.733
101.066
97.77
93.888
89.645
85.473
81.725
78.576
76.23
75.084
75.475
77.466
80.727
84.279
87.003
88.309
87.874
85.054
79.392
71.217
61.309
52.566
49.426
53.72
66.3
86.375
110.174
138.274
173.526
219.586
282.69
362.039
451.212
538.129
604.362
637.398
629.567
582.637
509.28
418.936
319.307
211.337
88.289
-49.038
-192.106
-324.954
-427.859
-491.355
-519.314
-522.784
-513.143
-495.488
-466.426
-423.857
-372.598
-321.173
-281.606
-259.305
-250.021
-248.167
-246.664
-243.165
-241.265
-242.455
-247.317
-254.406
-259.798
-261.853
-260.459
-255.791
-249.016
-241.106
-232.709
-225.03
-219.011
-214.941
-212.857
-212.444
-213.187
-214.678
-216.496
-218.117
-219.188
-219.552
-219.14
-218.029
-216.305
-213.995
-211.119
-207.668
-203.645
-199.091
-194.095
-188.794
-183.328
-177.823
-172.39
-167.115
-162.064
-157.28
-152.779
-148.54
-144.551
-140.804
-137.32
-134.153
-131.334
-128.865
-126.724
-124.858
-123.223
-121.784
-120.503
-119.336
-118.25
-117.222
-116.245
-115.334
-114.497
-113.727
-113.015
-112.339
-111.68
-111.031
-110.379
-109.718
-109.038
-108.33
-107.59
-106.818
-106.011
-105.163
-104.265
-103.301
-102.261
-101.137
-99.921
-98.603
-97.179
-95.642
-93.989
-92.221
-90.337
-88.338
-86.224
-83.994
-81.652
-79.2
-76.643
-73.985
-71.23
-68.386
-65.46
-62.46
-59.396
-56.277
-53.114
-49.917
-46.698
-43.47
-40.244
-37.033
-33.849
-30.705
-27.614
-24.589
-21.644
-18.791
-16.043
-13.412
-10.911
-8.552
-6.343
-4.293
-2.411
-0.705
0.821
2.161
3.312
4.27
5.035
5.606
5.985
6.173
6.176
5.999
5.648
5.131
4.456
3.635
2.677
1.596
0.404
-0.885
-2.257
-3.695
-5.185
-6.711
-8.255
-9.801
-11.333
-12.834
-14.289
-15.681
-16.996
-18.22
-19.339
-20.342
-21.217
-21.953
-22.542
-22.978
-23.252
-23.362
-23.303
-23.073
-22.673
-22.102
-21.363
-20.461
-19.399
-18.185
-16.825
-15.328
-13.705
-11.965
-10.12
-8.183
-6.166
-4.083
-1.947
0.228
2.428
4.639
6.848
9.041
11.205
13.328
15.398
17.406
19.342
21.197
22.965
24.638
26.213
27.685
29.052
30.313
31.467
32.514
33.459
34.304
35.053
35.712
36.289
36.793
37.232
37.615
37.953
38.258
38.539
38.809
39.078
39.358
39.66
39.994
40.373
40.805
41.299
41.864
42.508
43.235
44.051
44.958
45.958
47.05
48.234
49.506
50.863
52.299
53.807
55.379
57.005
58.673
60.372
62.085
63.794
65.479
67.12
68.696
70.185
71.564
72.812
73.907
74.832
75.57
76.105
76.419
76.493
76.311
75.858
75.121
74.085
72.741
71.079
69.094
66.786
64.162
61.226
57.977
54.415
50.529
46.319
41.795
36.97
31.862
26.496
20.904
15.134
9.25
3.31
-2.629
-8.517
-14.317
-19.984
-25.47
-30.731
-35.706
-40.342
-44.62
-48.536
-52.094
-55.328
-58.27
-60.965
-63.524
-66.063
-68.692
-71.535
-74.687
-78.202
-82.16
-86.669
-91.777
-97.479
-103.623
-109.862
-115.829
-121.246
-125.841
-129.271
-131.251
-131.608
-130.494
-128.541
-126.534
-124.989
-124.135
-124.394
-126.142
-129.273
-133.331
-136.186
-133.997
-125.102
-109.312
-87.595
-64.1
-37.591
-1.991
47.156
115.786
200.911
289.083
369.853
433.107
474.598
499.924
509.372
499.994
468.106
405.558
310.103
185.418
39.019
-115.318
-260.458
-378.135
-457.07
-495.26
-500.653
-489.902
-474.199
-457.904
-440.746
-417.149
-385.881
-350.303
-314.077
-281.841
-256.359
-237.961
-226.211
-220.066
-218.225
-219.393
-222.536
-226.589
-230.09
-231.81
-231.158
-227.952
-222.509
-215.508
-207.427
-198.82
-190.575
-183.359
-177.494
-173.103
-169.964
-167.662
-165.887
-164.305
-162.496
-160.219
-157.365
-153.878
-149.843
-145.376
-140.554
-135.478
-130.255
-124.936
-119.566
-114.192
-108.847
-103.592
-98.504
-93.633
-89.013
-84.667
-80.599
-76.813
-73.308
-70.062
-67.051
-64.253
-61.657
-59.254
-57.041
-55.004
-53.124
-51.383
-49.76
-48.239
-46.804
-45.439
-44.131
-42.871
-41.653
-40.471
-39.32
-38.196
-37.088
-35.988
-34.887
-33.776
-32.647
-31.492
-30.306
-29.081
-27.815
-26.505
-25.149
-23.743
-22.287
-20.778
-19.216
-17.602
-15.934
-14.215
-12.445
-10.626
-8.761
-6.854
-4.907
-2.924
-0.91
1.13
3.192
5.27
7.359
9.453
11.545
13.63
15.702
17.753
19.777
21.767
23.718
25.621
27.47
29.26
30.983
32.634
34.208
35.699
37.104
38.418
39.637
40.757
41.776
42.692
43.501
44.203
44.797
45.284
45.663
45.936
46.104
46.171
46.139
46.011
45.792
45.487
45.1
44.638
44.105
43.508
42.855
42.153
41.408
40.629
39.825
39.002
38.169
37.334
36.506
35.691
34.899
34.136
33.409
32.726
32.091
31.512
30.992
30.536
30.148
29.831
29.585
29.413
29.313
29.286
29.329
29.441
29.619
29.858
30.154
30.503
30.9
31.337
31.809
32.309
32.83
33.363
33.902
34.439
34.966
35.475
35.959
36.41
36.822
37.188
37.502
37.757
37.95
38.075
38.129
38.109
38.013
37.841
37.593
37.272
36.881
36.422
35.902
35.326
34.702
34.036
33.336
32.613
31.875
31.132
30.397
29.68
28.994
28.351
27.762
27.241
26.8
26.45
26.201
26.066
26.052
26.172
26.433
26.845
27.414
28.148
29.052
30.131
31.387
32.822
34.433
36.219
38.173
40.29
42.562
44.98
47.532
50.208
52.994
55.876
58.839
61.864
64.931
68.018
71.102
74.159
77.164
80.093
82.921
85.627
88.19
90.592
92.816
94.841
96.652
98.23
99.562
100.632
101.425
101.929
102.136
102.042
101.644
100.945
99.947
98.651
97.06
95.175
92.99
90.505
87.725
84.657
81.314
77.718
73.893
69.876
65.713
61.449
57.139
52.833
48.579
44.421
40.399
36.561
32.969
29.668
26.686
24.036
21.728
19.786
18.228
17.023
16.096
15.328
14.596
13.811
12.853
11.556
9.822
7.606
4.994
2.287
-0.204
-2.243
-3.544
-3.845
-3.019
-1.049
1.626
4.101
5.532
5.226
2.726
-2.191
-9.646
-19.398
-30.182
-39.93
-46.449
-47.564
-41.724
-27.606
-3.656
30.951
76
130.504
192.61
260.002
329.548
396.374
455.355
503.301
541.245
572.618
598.765
615.82
611.063
571.078
488.633
364.106
212.877
54.684
-91.938
-208.335
-289.105
-335.61
-353.328
-355.117
-347.117
-330.984
-306.905
-271.102
-224.168
-170.639
-115.564
-65.02
-23.248
7.853
27.674
37.066
37.371
30.264
17.986
2.709
-12.982
-26.473
-36.388
-42.245
-44.119
-42.709
-38.782
-33
-26.507
-20.586
-15.919
-12.795
-11.126
-10.501
-10.62
-11.269
-12.079
-12.638
-12.685
-12.079
-10.829
-9.05
-6.851
-4.357
-1.688
1.033
3.7
6.241
8.587
10.693
12.543
14.138
15.483
16.59
17.453
18.056
18.395
18.46
18.255
17.813
17.148
16.273
15.212
13.988
12.63
11.175
9.641
8.033
6.359
4.627
2.851
1.049
-0.767
-2.583
-4.385
-6.16
-7.894
-9.572
-11.181
-12.711
-14.151
-15.496
-16.738
-17.865
-18.868
-19.74
-20.473
-21.062
-21.503
-21.789
-21.917
-21.886
-21.695
-21.346
-20.839
-20.177
-19.362
-18.4
-17.296
-16.055
-14.686
-13.196
-11.594
-9.891
-8.097
-6.221
-4.278
-2.277
-0.232
1.846
3.943
6.049
8.151
10.238
12.298
14.321
16.296
18.213
20.063
21.836
23.524
25.119
26.611
27.996
29.266
30.416
31.44
32.335
33.099
33.727
34.22
34.578
34.8
34.889
34.848
34.679
34.389
33.983
33.466
32.846
32.13
31.326
30.444
29.491
28.478
27.413
26.306
25.167
24.006
22.832
21.654
20.483
19.328
18.197
17.101
16.048
15.046
14.104
13.228
12.426
11.703
11.065
10.515
10.058
9.696
9.429
9.257
9.181
9.197
9.302
9.493
9.764
10.11
10.523
10.997
11.523
12.093
12.698
13.328
13.975
14.629
15.28
15.918
16.535
17.119
17.663
18.157
18.592
18.96
19.253
19.464
19.587
19.616
19.547
19.376
19.101
18.721
18.236
17.648
16.96
16.177
15.304
14.35
13.322
12.232
11.09
9.907
8.696
7.471
6.244
5.031
3.845
2.7
1.611
0.592
-0.342
-1.178
-1.903
-2.503
-2.967
-3.282
-3.438
-3.426
-3.239
-2.871
-2.316
-1.572
-0.635
0.493
1.808
3.306
4.979
6.818
8.812
10.942
13.192
15.542
17.973
20.463
22.989
25.528
28.054
30.548
32.987
35.347
37.604
39.732
41.705
43.502
45.099
46.468
47.584
48.424
48.966
49.204
49.122
48.707
47.946
46.82
45.323
43.46
41.237
38.658
35.74
32.501
28.978
25.237
21.334
17.31
13.213
9.069
4.922
0.831
-3.163
-7.028
-10.741
-14.304
-17.708
-20.925
-23.967
-26.875
-29.71
-32.583
-35.572
-38.719
-42.077
-45.683
-49.589
-53.869
-58.544
-63.609
-69.052
-74.814
-80.877
-87.265
-93.846
-100.365
-106.459
-111.573
-115.251
-117.151
-116.821
-113.909
-108.317
-100.147
-90.035
-79.047
-68.061
-57.913
-49.413
-42.836
-38.079
-34.641
-30.957
-24.894
-14.463
2.405
27.608
62.273
106.884
161.093
221.889
284.387
344.04
396.727
441.522
479.734
509.341
525.344
519.222
481.256
408.947
305.379
178.251
40.823
-95.381
-217.227
-310.788
-370.612
-395.003
-390.569
-370.195
-340.484
-308.754
-277.941
-246.84
-219.345
-194.497
-171.85
-153.354
-137.451
-126.336
-121.723
-122.709
-129.229
-139.113
-149.943
-160.245
-168.412
-173.846
-176.564
-176.648
-174.642
-171.093
-166.564
-162.006
-158.147
-155.305
-153.629
-152.93
-152.821
-153.048
-153.314
-153.208
-152.515
-151.137
-149.02
-146.274
-143.022
-139.327
-135.29
-131.009
-126.527
-121.905
-117.197
-112.437
-107.695
-103.029
-98.477
-94.08
-89.862
-85.834
-82.013
-78.4
-74.986
-71.769
-68.752
-65.94
-63.347
-60.978
-58.83
-56.9
-55.179
-53.662
-52.344
-51.216
-50.27
-49.502
-48.909
-48.489
-48.241
-48.16
-48.236
-48.46
-48.821
-49.306
-49.903
-50.598
-51.377
-52.226
-53.132
-54.083
-55.065
-56.067
-57.072
-58.068
-59.04
-59.976
-60.861
-61.683
-62.43
-63.089
-63.65
-64.104
-64.442
-64.655
-64.736
-64.68
-64.481
-64.136
-63.64
-62.993
-62.193
-61.239
-60.135
-58.881
-57.482
-55.943
-54.268
-52.467
-50.547
-48.517
-46.388
-44.169
-41.872
-39.509
-37.092
-34.636
-32.152
-29.656
-27.16
-24.678
-22.225
-19.815
-17.459
-15.172
-12.965
-10.849
-8.837
-6.937
-5.161
-3.517
-2.013
-0.656
0.547
1.589
2.468
3.18
3.722
4.094
4.296
4.329
4.196
3.902
3.451
2.849
2.103
1.221
0.212
-0.913
-2.146
-3.475
-4.889
-6.376
-7.924
-9.523
-11.159
-12.822
-14.5
-16.183
-17.859
-19.518
-21.151
-22.747
-24.297
-25.794
-27.229
-28.595
-29.885
-31.095
-32.219
-33.254
-34.197
-35.046
-35.801
-36.461
-37.028
-37.503
-37.89
-38.191
-38.411
-38.556
-38.63
-38.639
-38.59
-38.488
-38.341
-38.155
-37.936
-37.69
-37.423
-37.141
-36.849
-36.552
-36.254
-35.959
-35.671
-35.393
-35.128
-34.877
-34.643
-34.424
-34.222
-34.036
-33.862
-33.7
-33.543
-33.389
-33.231
-33.065
-32.884
-32.68
-32.448
-32.178
-31.865
-31.5
-31.076
-30.585
-30.021
-29.376
-28.644
-27.82
-26.9
-25.879
-24.753
-23.522
-22.185
-20.742
-19.195
-17.544
-15.794
-13.948
-12.013
-9.997
-7.907
-5.753
-3.546
-1.3
0.968
3.242
5.504
7.736
9.92
12.035
14.06
15.979
17.775
19.432
20.934
22.263
23.404
24.34
25.057
25.537
25.768
25.736
25.432
24.85
23.992
22.858
21.449
19.766
17.802
15.559
13.044
10.264
7.234
3.976
0.522
-3.081
-6.773
-10.503
-14.218
-17.871
-21.42
-24.814
-28.02
-31.007
-33.733
-36.164
-38.274
-40.037
-41.45
-42.55
-43.387
-44.032
-44.587
-45.125
-45.719
-46.459
-47.437
-48.735
-50.389
-52.399
-54.741
-57.456
-60.658
-64.327
-68.281
-72.188
-75.609
-78.198
-79.705
-79.708
-77.606
-73.121
-66.339
-57.717
-48.123
-38.283
-28.798
-20.57
-14.581
-10.204
-5.292
2.207
13.766
27.499
39.59
50.038
63.92
90.097
136.398
204.464
287.191
374.144
459.161
536.027
600.182
645.009
655.312
622.721
547.536
438.458
315.913
195.129
83.351
-16.908
-108.817
-191.829
-261.549
-314.155
-346.446
-358.429
-352.653
-332.371
-301.852
-265.555
-228.004
-193.259
-163.572
-140.503
-124.464
-113.422
-106.545
-103.922
-105.889
-116.044
-133.383
-150.968
-161.956
-157.443
-136.367
-107.751
-79.596
-60.234
-52.222
-49.866
-49.63
-49.155
-47.444
-46.798
-47.785
-49.412
-51.239
-52.584
-53.159
-53.313
-53.089
-52.32
-51.042
-49.348
-47.279
-44.832
-41.886
-38.277
-33.97
-29.054
-23.679
-18.041
-12.294
-6.539
-0.87
4.646
9.957
15.019
19.83
24.412
28.775
32.906
36.758
40.28
43.457
46.302
48.857
51.182
53.322
55.312
57.195
58.999
60.747
62.452
64.108
65.7
67.221
68.677
70.078
71.441
72.779
74.095
75.394
76.679
77.952
79.214
80.461
81.692
82.907
84.109
85.306
86.508
87.722
88.954
90.211
91.499
92.82
94.178
95.574
97.007
98.479
99.99
101.541
103.132
104.764
106.437
108.151
109.905
111.7
113.534
115.405
117.31
119.247
121.213
123.204
125.218
127.249
129.294
131.351
133.415
135.485
137.555
139.622
141.682
143.73
145.763
147.775
149.763
151.721
153.645
155.533
157.382
159.189
160.951
162.667
164.334
165.951
167.516
169.027
170.485
171.889
173.238
174.535
175.779
176.973
178.119
179.22
180.278
181.295
182.276
183.223
184.14
185.028
185.892
186.735
187.559
188.368
189.165
189.953
190.734
191.511
192.285
193.057
193.83
194.603
195.376
196.148
196.919
197.688
198.452
199.209
199.956
200.689
201.405
202.098
202.763
203.394
203.985
204.53
205.021
205.453
205.817
206.107
206.317
206.441
206.471
206.403
206.232
205.951
205.558
205.049
204.422
203.673
202.803
201.812
200.701
199.471
198.126
196.671
195.11
193.449
191.696
189.86
187.949
185.973
183.945
181.876
179.78
177.671
175.565
173.478
171.426
169.427
167.499
165.659
163.925
162.314
160.843
159.529
158.388
157.435
156.684
156.148
155.839
155.768
155.944
156.374
157.064
158.016
159.232
160.714
162.458
164.461
166.715
169.213
171.944
174.897
178.056
181.405
184.923
188.589
192.378
196.265
200.22
204.21
208.202
212.161
216.052
219.838
223.483
226.95
230.201
233.206
235.931
238.344
240.412
242.101
243.38
244.219
244.592
244.472
243.835
242.659
240.929
238.64
235.784
232.357
228.349
223.743
218.537
212.735
206.349
199.393
191.895
183.889
175.429
166.591
157.443
148.049
138.456
128.705
118.847
108.938
99.042
89.226
79.534
69.999
60.665
51.565
42.698
34.027
25.469
16.909
8.271
-0.493
-9.426
-18.576
-28.002
-37.769
-47.93
-58.494
-69.475
-80.949
-92.906
-105.214
-117.595
-129.537
-140.489
-150.042
-157.733
-163.024
-165.75
-165.987
-164.141
-161.272
-158.244
-155.56
-153.994
-154.147
-155.828
-158.495
-160.83
-160.43
-155.412
-144.187
-124.616
-95.146
-55.193
-4.808
54.395
119.359
187.159
254.215
315.861
367.781
405.547
425.082
424.298
401.961
358.395
296.751
219.463
128.84
27.112
-85.821
-204.384
-317.863
-415.555
-485.504
-525.511
-542.802
-544.582
-539.255
-529.181
-511.261
-485.532
-452.814
-415.7
-378.955
-344.919
-315.026
-291.206
-273.745
-262.251
-256.346
-254.879
-256.751
-261.27
-267.099
-272.261
-275.536
-276.395
-274.714
-270.983
-265.638
-258.887
-251.392
-244.2
-237.962
-232.963
-229.168
-226.166
-223.654
-221.501
-219.441
-217.121
-214.318
-210.917
-206.945
-202.581
-197.954
-193.129
-188.184
-183.188
-178.209
-173.325
-168.596
-164.065
-159.762
-155.711
-151.928
-148.422
-145.195
-142.24
-139.533
-137.041
-134.742
-132.619
-130.662
-128.867
-127.22
-125.701
-124.294
-122.978
-121.735
-120.549
-119.402
-118.275
-117.155
-116.031
-114.894
-113.74
-112.56
-111.342
-110.074
-108.746
-107.345
-105.862
-104.285
-102.605
-100.814
-98.907
-96.879
-94.727
-92.448
-90.039
-87.5
-84.828
-82.025
-79.09
-76.024
-72.83
-69.512
-66.073
-62.518
-58.855
-55.09
-51.231
-47.288
-43.271
-39.192
-35.06
-30.89
-26.695
-22.488
-18.285
-14.101
-9.952
-5.855
-1.825
2.119
5.96
9.681
13.267
16.699
19.963
23.043
25.923
28.59
31.03
33.23
35.178
36.865
38.279
39.412
40.258
40.811
41.067
41.023
40.678
40.032
39.089
37.851
36.325
34.516
32.435
30.091
27.496
24.665
21.611
18.351
14.903
11.287
7.521
3.627
-0.374
-4.459
-8.605
-12.79
-16.99
-21.181
-25.341
-29.447
-33.476
-37.406
-41.217
-44.888
-48.4
-51.736
-54.878
-57.812
-60.524
-63
-65.23
-67.205
-68.916
-70.357
-71.523
-72.412
-73.022
-73.353
-73.407
-73.188
-72.7
-71.95
-70.946
-69.697
-68.212
-66.504
-64.584
-62.466
-60.164
-57.693
-55.067
-52.302
-49.416
-46.423
-43.339
-40.181
-36.965
-33.705
-30.418
-27.118
-23.818
-20.534
-17.278
-14.063
-10.902
-7.806
-4.786
-1.852
0.987
3.722
6.346
8.853
11.236
13.492
15.614
17.6
19.446
21.15
22.709
24.123
25.391
26.512
27.488
28.319
29.008
29.555
29.961
30.23
30.362
30.361
30.226
29.96
29.565
29.041
28.391
27.617
26.721
25.703
24.563
23.303
21.924
20.424
18.802
17.053
15.173
13.162
11.015
8.73
6.304
3.733
1.018
-1.837
-4.831
-7.965
-11.238
-14.652
-18.208
-21.906
-25.746
-29.73
-33.859
-38.132
-42.54
-47.072
-51.72
-56.476
-61.339
-66.314
-71.397
-76.579
-81.848
-87.189
-92.579
-97.984
-103.356
-108.629
-113.748
-118.666
-123.342
-127.752
-131.862
-135.641
-139.058
-142.085
-144.702
-146.902
-148.683
-150.055
-151.066
-151.795
-152.351
-152.879
-153.499
-154.31
-155.409
-156.885
-158.834
-161.326
-164.398
-168.048
-172.287
-177.184
-182.703
-188.687
-194.815
-200.615
-205.682
-209.683
-212.162
-212.573
-210.644
-206.356
-200.13
-192.78
-184.697
-176.336
-168.631
-162.195
-157.341
-153.026
-146.164
-135.148
-120.041
-102.228
-85.264
-67.05
-41.21
-2.186
56.721
132.894
215.197
293.508
355.977
396.282
415.779
414.587
393.133
351.771
288.907
206.013
107.964
0.658
-109.274
-215.841
-313.99
-399.203
-467.648
-517.046
-547.434
-560.496
-558.694
-544.58
-520.776
-490.083
-455.555
-420.035
-385.114
-351.475
-319.666
-290.431
-264.863
-243.946
-227.815
-215.966
-208.238
-204.62
-204.807
-208.105
-212.969
-217.601
-221.081
-223.122
-223.46
-221.922
-218.393
-212.918
-206.26
-199.469
-193.048
-187.164
-181.808
-176.811
-172.133
-167.767
-163.426
-158.699
-153.341
-147.226
-140.406
-133.091
-125.447
-117.601
-109.689
-101.848
-94.212
-86.884
-79.915
-73.298
-67.01
-61.03
-55.364
-50.032
-45.053
-40.455
-36.241
-32.391
-28.873
-25.661
-22.731
-20.066
-17.639
-15.42
-13.385
-11.53
-9.858
-8.379
-7.086
-5.968
-5.007
-4.189
-3.5
-2.933
-2.477
-2.119
-1.847
-1.648
-1.514
-1.436
-1.406
-1.411
-1.433
-1.458
-1.471
-1.462
-1.419
-1.33
-1.183
-0.97
-0.682
-0.313
0.142
0.69
1.337
2.087
2.944
3.909
4.985
6.171
7.468
8.873
10.383
11.995
13.704
15.504
17.39
19.353
21.387
23.483
25.63
27.819
30.04
32.282
34.534
36.783
39.018
41.226
43.396
45.516
47.574
49.559
51.461
53.27
54.977
56.574
58.054
59.409
60.634
61.725
62.678
63.49
64.16
64.688
65.074
65.321
65.431
65.409
65.258
64.986
64.598
64.103
63.509
62.827
62.066
61.24
60.359
59.436
58.485
57.518
56.55
55.593
54.659
53.763
52.916
52.129
51.414
50.781
50.239
49.796
49.461
49.237
49.132
49.147
49.285
49.548
49.936
50.446
51.078
51.828
52.692
53.664
54.739
55.908
57.163
58.496
59.895
61.351
62.851
64.385
65.939
67.502
69.062
70.606
72.123
73.602
75.032
76.401
77.702
78.925
80.064
81.111
82.062
82.912
83.661
84.306
84.849
85.29
85.633
85.882
86.042
86.12
86.123
86.06
85.941
85.777
85.581
85.366
85.146
84.935
84.748
84.599
84.505
84.48
84.538
84.693
84.961
85.354
85.885
86.566
87.407
88.417
89.605
90.976
92.537
94.288
96.232
98.365
100.687
103.193
105.877
108.73
111.743
114.903
118.198
121.614
125.133
128.734
132.394
136.089
139.795
143.487
147.136
150.717
154.202
157.566
160.791
163.854
166.732
169.402
171.841
174.026
175.94
177.565
178.881
179.874
180.533
180.852
180.834
180.479
179.784
178.743
177.343
175.577
173.448
170.963
168.132
164.975
161.52
157.807
153.897
149.845
145.699
141.505
137.297
133.116
129.013
125.036
121.241
117.682
114.399
111.42
108.75
106.367
104.23
102.284
100.45
98.646
96.773
94.717
92.384
89.677
86.524
82.839
78.465
73.329
67.488
61.153
54.771
48.828
43.68
39.729
37.519
37.327
39.124
42.493
46.288
49.345
50.908
50.238
46.742
40.407
31.817
22.409
14.902
12.241
17.029
31.807
58.451
98.314
152.012
218.399
294.747
376.393
456.884
531.179
595.345
646.637
685.358
708.201
709.096
682.654
621.154
523.259
395.44
247.374
95.915
-41.266
-152.468
-230.671
-278.547
-306.183
-319.784
-323.03
-314.109
-287.262
-245.863
-195.852
-145.924
-106.471
-77.232
-56.921
-43.891
-33.612
-27.9
-28.026
-32.505
-41.443
-52.134
-61.115
-67.377
-70.26
-69.708
-66.59
-61.607
-55.203
-48.25
-41.95
-36.934
-33.482
-31.711
-31.285
-31.824
-33.088
-34.661
-36.036
-36.968
-37.335
-37.089
-36.348
-35.2
-33.689
-31.914
-29.972
-27.919
-25.802
-23.658
-21.505
-19.394
-17.395
-15.551
-13.896
-12.449
-11.211
-10.184
-9.367
-8.746
-8.298
-8.007
-7.864
-7.864
-8.004
-8.271
-8.651
-9.125
-9.676
-10.29
-10.952
-11.649
-12.372
-13.113
-13.868
-14.636
-15.414
-16.199
-16.982
-17.759
-18.521
-19.263
-19.979
-20.663
-21.308
-21.913
-22.473
-22.987
-23.451
-23.864
-24.221
-24.52
-24.759
-24.935
-25.045
-25.089
-25.063
-24.968
-24.803
-24.569
-24.264
-23.89
-23.448
-22.939
-22.365
-21.727
-21.029
-20.273
-19.462
-18.601
-17.693
-16.743
-15.757
-14.739
-13.695
-12.631
-11.552
-10.465
-9.377
-8.292
-7.219
-6.163
-5.132
-4.132
-3.171
-2.254
-1.39
-0.584
0.158
0.829
1.425
1.94
2.371
2.713
2.964
3.12
3.179
3.142
3.006
2.773
2.444
2.021
1.506
0.903
0.217
-0.549
-1.387
-2.293
-3.259
-4.278
-5.343
-6.444
-7.575
-8.726
-9.888
-11.053
-12.211
-13.353
-14.472
-15.558
-16.605
-17.604
-18.549
-19.434
-20.254
-21.004
-21.681
-22.281
-22.804
-23.248
-23.613
-23.901
-24.114
-24.254
-24.326
-24.334
-24.284
-24.184
-24.039
-23.859
-23.652
-23.427
-23.193
-22.961
-22.739
-22.537
-22.365
-22.232
-22.148
-22.122
-22.16
-22.272
-22.462
-22.738
-23.104
-23.563
-24.117
-24.769
-25.516
-26.359
-27.294
-28.317
-29.423
-30.607
-31.86
-33.175
-34.54
-35.947
-37.382
-38.832
-40.283
-41.719
-43.125
-44.485
-45.782
-47
-48.122
-49.133
-50.017
-50.759
-51.343
-51.758
-51.988
-52.024
-51.854
-51.469
-50.863
-50.029
-48.965
-47.67
-46.144
-44.391
-42.415
-40.223
-37.822
-35.223
-32.436
-29.475
-26.356
-23.093
-19.708
-16.221
-12.657
-9.045
-5.41
-1.783
1.808
5.331
8.758
12.061
15.217
18.201
20.991
23.562
25.891
27.956
29.74
31.223
32.39
33.226
33.724
33.879
33.69
33.162
32.295
31.088
29.539
27.636
25.374
22.759
19.796
16.497
12.885
8.986
4.844
0.521
-3.927
-8.441
-12.963
-17.449
-21.844
-26.092
-30.141
-33.916
-37.35
-40.418
-43.098
-45.378
-47.267
-48.757
-49.887
-50.775
-51.547
-52.35
-53.327
-54.562
-56.187
-58.391
-61.27
-64.84
-68.973
-73.293
-77.419
-81.077
-83.891
-85.436
-85.468
-83.919
-81.184
-78.217
-76.003
-75.336
-76.953
-81.53
-89.32
-99.943
-112.021
-123.142
-130.514
-131.38
-123.079
-102.961
-68.949
-20.054
43.252
118.837
203.218
292.073
380.443
462.374
531.656
582.584
609.997
611.262
586.811
537.775
466.767
374.882
260.264
126.062
-20.165
-164.044
-284.038
-367.81
-413.375
-427.868
-427.206
-418.317
-399.499
-368.817
-324.699
-275.865
-236.116
-211.957
-202.851
-199.836
-192.545
-177.866
-158.031
-138.71
-124.763
-117.488
-115.833
-117.613
-120.995
-124.466
-127.275
-129.396
-130.664
-130.974
-130.314
-128.59
-126.158
-123.896
-122.349
-121.687
-121.887
-122.681
-123.872
-125.376
-126.964
-128.245
-128.935
-128.893
-128.066
-126.499
-124.25
-121.356
-117.915
-114.119
-110.124
-106.054
-102.025
-98.101
-94.324
-90.751
-87.401
-84.264
-81.349
-78.659
-76.202
-74.022
-72.141
-70.553
-69.247
-68.185
-67.328
-66.651
-66.124
-65.708
-65.383
-65.13
-64.943
-64.836
-64.814
-64.876
-65.02
-65.233
-65.504
-65.83
-66.205
-66.625
-67.087
-67.586
-68.118
-68.685
-69.286
-69.918
-70.572
-71.237
-71.903
-72.562
-73.205
-73.825
-74.414
-74.964
-75.471
-75.931
-76.343
-76.701
-77.004
-77.246
-77.425
-77.539
-77.585
-77.562
-77.468
-77.302
-77.063
-76.752
-76.369
-75.916
-75.392
-74.802
-74.146
-73.429
-72.653
-71.823
-70.942
-70.016
-69.049
-68.049
-67.022
-65.973
-64.912
-63.844
-62.779
-61.723
-60.684
-59.668
-58.681
-57.73
-56.821
-55.958
-55.148
-54.395
-53.704
-53.078
-52.521
-52.037
-51.627
-51.293
-51.038
-50.86
-50.76
-50.738
-50.792
-50.92
-51.118
-51.384
-51.713
-52.1
-52.539
-53.024
-53.547
-54.102
-54.68
-55.274
-55.875
-56.474
-57.063
-57.635
-58.181
-58.693
-59.165
-59.589
-59.96
-60.272
-60.519
-60.698
-60.804
-60.834
-60.786
-60.658
-60.449
-60.159
-59.788
-59.338
-58.811
-58.21
-57.538
-56.8
-56.002
-55.149
-54.247
-53.302
-52.323
-51.317
-50.291
-49.252
-48.21
-47.171
-46.143
-45.133
-44.149
-43.196
-42.279
-41.405
-40.576
-39.795
-39.067
-38.39
-37.768
-37.199
-36.682
-36.216
-35.797
-35.422
-35.086
-34.782
-34.504
-34.243
-33.989
-33.733
-33.464
-33.171
-32.843
-32.467
-32.033
-31.527
-30.939
-30.256
-29.467
-28.561
-27.528
-26.357
-25.04
-23.569
-21.936
-20.137
-18.167
-16.025
-13.71
-11.222
-8.561
-5.732
-2.738
0.414
3.716
7.16
10.736
14.43
18.228
22.111
26.058
30.048
34.061
38.071
42.055
45.99
49.853
53.624
57.286
60.818
64.203
67.421
70.453
73.277
75.877
78.234
80.333
82.165
83.718
84.987
85.974
86.681
87.107
87.25
87.094
86.631
85.863
84.795
83.443
81.835
80.002
77.986
75.848
73.645
71.439
69.286
67.223
65.279
63.483
61.869
60.497
59.419
58.663
58.225
58.077
58.184
58.512
59.007
59.583
60.117
60.469
60.515
60.157
59.326
58.001
56.112
53.502
50.157
46.205
41.926
37.846
34.412
31.874
30.645
31.247
33.835
38.366
44.387
50.722
56.441
60.979
63.568
63.739
61.857
58.632
55.535
55.181
59.851
71.584
92.77
125.018
168.683
223.312
287.14
356.81
428.675
498.485
561.028
611.198
644.454
657.018
646.262
612.227
557.115
483.733
395.386
293.222
177.389
52.104
-73.264
-184.542
-268.448
-318.025
-334.401
-325.813
-298.96
-260.896
-219.194
-177.543
-143.075
-118.551
-99.655
-84.699
-69.959
-54.234
-42.122
-35.324
-34.162
-38.116
-43.76
-48.451
-51.02
-50.76
-47.817
-42.694
-35.904
-27.946
-19.472
-11.383
-4.295
1.478
5.786
8.819
10.95
12.486
13.799
15.317
17.262
19.734
22.789
26.355
30.339
34.673
39.254
43.971
48.772
53.612
58.446
63.244
67.943
72.462
76.749
80.77
84.502
87.945
91.094
93.95
96.531
98.865
100.973
102.873
104.575
106.085
107.42
108.602
109.657
110.608
111.479
112.29
113.06
113.805
114.539
115.273
116.014
116.768
117.545
118.354
119.206
120.111
121.079
122.117
123.234
124.437
125.73
127.116
128.599
130.18
131.861
133.643
135.527
137.512
139.599
141.785
144.069
146.448
148.919
151.478
154.118
156.837
159.627
162.485
165.403
168.375
171.395
174.457
177.554
180.681
183.831
186.997
190.174
193.355
196.536
199.71
202.871
206.015
209.135
212.226
215.285
218.305
221.282
224.211
227.088
229.909
232.669
235.364
237.992
240.548
243.031
245.437
247.766
250.015
252.183
254.269
256.272
258.192
260.029
261.782
263.452
265.038
266.541
267.961
269.3
270.558
271.735
272.832
273.852
274.794
275.66
276.453
277.174
277.826
278.41
278.931
279.39
279.791
280.137
280.429
280.672
280.868
281.018
281.125
281.192
281.219
281.209
281.164
281.084
280.97
280.825
280.649
280.442
280.207
279.944
279.655
279.339
278.999
278.636
278.25
277.843
277.416
276.971
276.508
276.028
275.533
275.023
274.5
273.964
273.416
272.858
272.29
271.716
271.135
270.551
269.966
269.382
268.803
268.23
267.668
267.12
266.589
266.079
265.593
265.135
264.709
264.317
263.964
263.653
263.386
263.167
263
262.887
262.832
262.837
262.905
263.037
263.237
263.504
263.841
264.247
264.724
265.27
265.885
266.567
267.315
268.125
268.993
269.915
270.885
271.898
272.944
274.017
275.107
276.204
277.299
278.38
279.435
280.452
281.417
282.317
283.137
283.86
284.466
284.936
285.251
285.393
285.34
285.073
284.572
283.819
282.802
281.505
279.914
278.012
275.784
273.214
270.291
267.003
263.339
259.288
254.842
249.999
244.764
239.139
233.124
226.716
219.904
212.685
205.066
197.056
188.67
179.929
170.857
161.495
151.902
142.129
132.224
122.229
112.174
102.103
92.067
82.112
72.29
62.64
53.192
43.962
34.946
26.115
17.42
8.799
0.169
-8.553
-17.455
-26.633
-36.182
-46.191
-56.726
-67.871
-79.74
-92.368
-105.717
-119.595
-133.631
-147.434
-160.667
-172.944
-183.824
-193.005
-200.352
-206.108
-210.944
-215.534
-220.43
-226.11
-233.002
-241.298
-250.856
-260.859
-269.758
-275.78
-277.072
-271.904
-258.695
-236.001
-202.669
-158.463
-104.273
-42.985
20.583
81.945
137.476
186.863
231.598
269.645
294.475
293.495
254.082
172.349
54.744
-82.535
-221.94
-352.251
-469.021
-572.882
-663.985
-739.845
-797.044
-832.59
-846.503
-841.143
-819.793
-787.107
-747.437
-704.416
-661.755
-622.037
-587.046
-558.689
-537.744
-523.601
-515.403
-511.953
-511.635
-513.385
-515.929
-517.298
-516.447
-513.195
-507.624
-500.439
-492.461
-484.098
-476.062
-469.469
-464.857
-462.39
-461.978
-463.018
-464.965
-467.519
-470.268
-472.766
-474.739
-475.972
-476.335
-475.86
-474.57
-472.475
-469.63
-466.084
-461.907
-457.208
-452.132
-446.866
-441.579
-436.384
-431.36
-426.547
-421.978
-417.698
-413.737
-410.105
-406.805
-403.834
-401.195
-398.905
-396.953
-395.307
-393.904
-392.656
-391.492
-390.366
-389.241
-388.088
-386.887
-385.614
-384.261
-382.832
-381.325
-379.733
-378.043
-376.236
-374.301
-372.233
-370.032
-367.704
-365.25
-362.672
-359.971
-357.149
-354.208
-351.148
-347.965
-344.653
-341.211
-337.638
-333.938
-330.117
-326.181
-322.136
-317.992
-313.758
-309.445
-305.062
-300.618
-296.123
-291.586
-287.019
-282.431
-277.834
-273.239
-268.656
-264.098
-259.575
-255.099
-250.681
-246.33
-242.058
-237.873
-233.787
-229.807
-225.942
-222.201
-218.59
-215.119
-211.795
-208.622
-205.608
-202.755
-200.068
-197.549
-195.2
-193.021
-191.01
-189.167
-187.489
-185.974
-184.617
-183.414
-182.36
-181.45
-180.675
-180.029
-179.503
-179.088
-178.774
-178.551
-178.409
-178.336
-178.32
-178.351
-178.416
-178.502
-178.596
-178.685
-178.757
-178.799
-178.797
-178.739
-178.613
-178.408
-178.114
-177.719
-177.215
-176.595
-175.849
-174.973
-173.961
-172.808
-171.51
-170.066
-168.473
-166.733
-164.845
-162.812
-160.636
-158.322
-155.876
-153.302
-150.609
-147.804
-144.895
-141.891
-138.803
-135.641
-132.416
-129.139
-125.824
-122.48
-119.122
-115.761
-112.409
-109.078
-105.78
-102.524
-99.32
-96.179
-93.108
-90.114
-87.205
-84.386
-81.662
-79.037
-76.513
-74.093
-71.777
-69.565
-67.454
-65.442
-63.524
-61.695
-59.948
-58.276
-56.671
-55.125
-53.628
-52.169
-50.74
-49.329
-47.924
-46.515
-45.09
-43.636
-42.141
-40.596
-38.989
-37.31
-35.551
-33.703
-31.759
-29.712
-27.559
-25.296
-22.919
-20.425
-17.815
-15.086
-12.242
-9.292
-6.243
-3.104
0.115
3.403
6.746
10.118
13.507
16.917
20.346
23.793
27.244
30.653
34
37.3
40.515
43.552
46.338
48.796
50.897
52.715
54.259
55.418
56.277
57.189
58.228
59.281
60.383
61.15
62.242
65.858
71.589
77.399
80.042
73.305
57.446
38.834
23.744
21.068
31.643
47.087
60.928
66.247
61.673
53.515
45.708
40.859
39.86
40.169
40.542
40.999
41.345
41.822
42.443
42.796
42.674
42.043
40.797
38.817
36.067
32.573
28.347
23.384
17.754
11.575
5.162
-0.913
-6.134
-10.095
-12.314
-12.313
-9.917
-5.134
1.689
9.602
17.811
25.752
32.623
37.889
41.792
44.915
48.458
54.572
65.106
81.797
106.874
141.926
187.294
242.457
305.635
373.66
443.223
510.297
569.676
616.315
645.953
655.388
642.789
607.744
550.762
473.924
381.388
278.522
171.138
64.868
-34.748
-122.661
-194.585
-247.386
-280.142
-293.761
-289.938
-271.115
-240.985
-203.717
-163.684
-125.287
-91.26
-63.055
-41.999
-28.576
-22.035
-21.068
-23.543
-26.757
-29.196
-30.065
-28.431
-24.009
-17.017
-7.865
2.26
11.75
19.769
25.936
29.976
32.096
32.541
31.508
29.606
27.573
25.834
24.657
24.164
24.268
24.953
26.266
28.154
30.583
33.549
37.002
40.882
45.11
49.564
54.129
58.689
63.119
67.317
71.217
74.784
78.026
80.956
83.57
85.864
87.814
89.394
90.598
91.443
91.962
92.193
92.17
91.929
91.51
90.959
90.308
89.573
88.755
87.849
86.864
85.813
84.713
83.585
82.445
81.306
80.181
79.086
78.035
77.039
76.107
75.244
74.458
73.759
73.162
72.678
72.319
72.092
72.003
72.06
72.269
72.634
73.155
73.833
74.665
75.65
76.788
78.074
79.505
81.073
82.773
84.597
86.537
88.583
90.725
92.951
95.248
97.604
100.005
102.438
104.888
107.342
109.785
112.203
114.584
116.915
119.182
121.374
123.477
125.48
127.373
129.145
130.785
132.286
133.639
134.838
135.878
136.754
137.462
138
138.367
138.562
138.587
138.442
138.13
137.657
137.028
136.25
135.33
134.277
133.1
131.811
130.418
128.935
127.372
125.74
124.052
122.32
120.556
118.772
116.98
115.192
113.42
111.673
109.963
108.3
106.693
105.149
103.677
102.282
100.971
99.749
98.619
97.584
96.645
95.804
95.06
94.41
93.852
93.381
92.992
92.677
92.431
92.245
92.111
92.019
91.961
91.927
91.906
91.89
91.869
91.831
91.767
91.669
91.527
91.332
91.077
90.755
90.358
89.883
89.324
88.678
87.941
87.111
86.188
85.171
84.062
82.863
81.58
80.216
78.779
77.277
75.721
74.121
72.487
70.831
69.166
67.506
65.864
64.253
62.687
61.179
59.745
58.399
57.153
56.021
55.015
54.146
53.425
52.862
52.466
52.242
52.197
52.334
52.659
53.174
53.878
54.772
55.85
57.11
58.544
60.145
61.901
63.794
65.809
67.928
70.134
72.406
74.724
77.066
79.413
81.747
84.051
86.305
88.486
90.572
92.54
94.368
96.037
97.524
98.809
99.874
100.709
101.31
101.672
101.785
101.636
101.203
100.476
99.451
98.128
96.509
94.61
92.452
90.076
87.54
84.891
82.164
79.392
76.594
73.8
71.052
68.381
65.823
63.411
61.165
59.114
57.272
55.601
54.043
52.523
50.938
49.229
47.353
45.217
42.757
39.902
36.562
32.736
28.384
23.383
17.744
11.569
5.089
-1.169
-6.694
-11.18
-14.169
-15.181
-14.161
-11.206
-6.827
-2.233
1.655
4.291
4.943
3.178
-0.612
-5.668
-10.417
-12.228
-9.003
1.025
19.94
49.124
88.943
139.032
197.639
261.655
328.049
393.271
452.866
502.679
538.561
556.969
555.893
534.012
491.924
431.739
355.124
265.748
166.145
58.759
-47.738
-145.679
-226.703
-282.58
-315.718
-329.5
-327.48
-315.605
-293.964
-263.753
-228.613
-190.72
-154.161
-122.303
-96.68
-78.821
-68.753
-65.289
-67.178
-72.785
-80.64
-89.591
-98.025
-104.466
-108.258
-109.246
-107.757
-104.515
-100.009
-94.733
-89.587
-85.266
-82.092
-80.21
-79.393
-79.22
-79.463
-79.854
-80.007
-79.72
-78.878
-77.412
-75.426
-73.042
-70.319
-67.351
-64.229
-60.987
-57.678
-54.346
-51.018
-47.751
-44.593
-41.566
-38.694
-35.988
-33.447
-31.08
-28.876
-26.813
-24.879
-23.063
-21.364
-19.787
-18.329
-16.98
-15.73
-14.567
-13.482
-12.47
-11.521
-10.628
-9.788
-8.998
-8.263
-7.587
-6.969
-6.409
-5.903
-5.45
-5.046
-4.689
-4.377
-4.106
-3.873
-3.679
-3.522
-3.403
-3.32
-3.27
-3.251
-3.261
-3.296
-3.351
-3.423
-3.505
-3.593
-3.681
-3.765
-3.838
-3.896
-3.931
-3.939
-3.914
-3.851
-3.745
-3.589
-3.378
-3.109
-2.777
-2.378
-1.91
-1.369
-0.754
-0.065
0.699
1.538
2.451
3.436
4.493
5.618
6.807
8.057
9.361
10.715
12.111
13.54
14.995
16.465
17.942
19.415
20.874
22.309
23.708
25.062
26.358
27.588
28.74
29.804
30.772
31.633
32.381
33.006
33.505
33.869
34.096
34.182
34.124
33.921
33.571
33.077
32.438
31.657
30.738
29.684
28.502
27.197
25.776
24.248
22.62
20.902
19.103
17.233
15.302
13.321
11.301
9.251
7.183
5.108
3.034
0.972
-1.068
-3.077
-5.049
-6.975
-8.85
-10.667
-12.421
-14.11
-15.729
-17.275
-18.748
-20.146
-21.468
-22.714
-23.886
-24.985
-26.012
-26.97
-27.861
-28.687
-29.452
-30.159
-30.809
-31.406
-31.952
-32.449
-32.901
-33.31
-33.676
-34.003
-34.291
-34.541
-34.752
-34.925
-35.057
-35.146
-35.189
-35.181
-35.119
-34.998
-34.812
-34.556
-34.225
-33.812
-33.312
-32.72
-32.028
-31.231
-30.323
-29.299
-28.156
-26.89
-25.497
-23.976
-22.326
-20.549
-18.646
-16.619
-14.472
-12.209
-9.834
-7.356
-4.782
-2.121
0.618
3.422
6.277
9.165
12.067
14.963
17.835
20.661
23.418
26.086
28.644
31.075
33.366
35.497
37.452
39.212
40.759
42.078
43.154
43.973
44.522
44.794
44.781
44.482
43.904
43.046
41.906
40.48
38.753
36.72
34.387
31.766
28.869
25.724
22.359
18.822
15.177
11.477
7.777
4.127
0.561
-2.878
-6.142
-9.189
-11.956
-14.385
-16.46
-18.181
-19.557
-20.631
-21.432
-22.002
-22.458
-22.92
-23.513
-24.366
-25.564
-27.166
-29.272
-32.018
-35.48
-39.628
-44.241
-48.909
-53.236
-56.93
-59.693
-61.088
-60.789
-58.78
-55.406
-51.53
-48.058
-45.428
-44.026
-44.397
-46.652
-50.281
-54.158
-56.162
-53.962
-46.025
-30.711
-5.877
29.859
76.895
134.773
200.175
269.073
339.64
408.105
471.996
529.23
571.503
593.138
588.901
553.118
491.152
409.355
312.754
210.416
103.348
-8.251
-115.963
-214.14
-294.162
-346.986
-375.594
-383.758
-375.565
-357.746
-331.051
-296.587
-258.029
-217.898
-180.314
-148.989
-125.519
-110.672
-103.982
-104.188
-109.663
-118.484
-128.796
-138.594
-146.193
-150.761
-151.965
-149.952
-145.421
-139.163
-132.028
-125.137
-119.302
-114.852
-111.931
-110.388
-109.847
-109.95
-110.284
-110.348
-109.853
-108.703
-106.853
-104.377
-101.369
-97.891
-94.047
-89.959
-85.697
-81.305
-76.829
-72.298
-67.772
-63.339
-59.056
-54.965
-51.096
-47.456
-44.058
-40.91
-38.01
-35.343
-32.898
-30.673
-28.669
-26.891
-25.336
-23.991
-22.844
-21.879
-21.084
-20.448
-19.959
-19.608
-19.388
-19.294
-19.324
-19.473
-19.736
-20.103
-20.564
-21.107
-21.722
-22.397
-23.12
-23.881
-24.669
-25.474
-26.289
-27.104
-27.909
-28.696
-29.453
-30.174
-30.848
-31.467
-32.022
-32.506
-32.912
-33.234
-33.466
-33.605
-33.646
-33.585
-33.421
-33.151
-32.776
-32.294
-31.706
-31.014
-30.218
-29.323
-28.332
-27.25
-26.08
-24.829
-23.502
-22.108
-20.652
-19.143
-17.588
-15.994
-14.371
-12.728
-11.074
-9.417
-7.768
-6.136
-4.532
-2.965
-1.445
0.019
1.418
2.745
3.99
5.147
6.21
7.172
8.029
8.775
9.407
9.922
10.318
10.594
10.75
10.787
10.706
10.51
10.203
9.788
9.27
8.655
7.949
7.158
6.289
5.351
4.351
3.299
2.204
1.074
-0.08
-1.249
-2.423
-3.594
-4.752
-5.889
-6.998
-8.069
-9.098
-10.076
-11
-11.864
-12.665
-13.399
-14.066
-14.663
-15.193
-15.656
-16.055
-16.392
-16.672
-16.899
-17.08
-17.218
-17.322
-17.398
-17.452
-17.492
-17.526
-17.563
-17.609
-17.674
-17.764
-17.887
-18.05
-18.259
-18.52
-18.837
-19.214
-19.655
-20.162
-20.736
-21.379
-22.088
-22.861
-23.696
-24.587
-25.528
-26.51
-27.524
-28.559
-29.605
-30.649
-31.679
-32.68
-33.638
-34.54
-35.37
-36.115
-36.76
-37.288
-37.685
-37.938
-38.033
-37.958
-37.701
-37.25
-36.598
-35.736
-34.66
-33.364
-31.846
-30.103
-28.136
-25.948
-23.543
-20.929
-18.113
-15.106
-11.923
-8.583
-5.105
-1.511
2.178
5.938
9.742
13.565
17.381
21.168
24.901
28.556
32.106
35.521
38.775
41.843
44.698
47.313
49.664
51.726
53.484
54.929
56.049
56.834
57.268
57.333
57.017
56.322
55.246
53.794
51.981
49.832
47.39
44.715
41.86
38.869
35.786
32.639
29.476
26.349
23.297
20.364
17.582
14.971
12.561
10.373
8.378
6.515
4.705
2.832
0.819
-1.378
-3.844
-6.656
-9.899
-13.667
-18.002
-22.893
-28.372
-34.515
-41.28
-48.536
-55.967
-63.025
-69.248
-74.313
-77.805
-79.25
-78.452
-75.38
-70.362
-64.345
-58.032
-51.751
-46.055
-41.427
-37.765
-34.779
-31.548
-25.974
-16.388
-1.7
19.805
49.744
88.958
138.106
195.549
256.701
317.864
376.69
433.473
490.047
544.039
587.62
606.851
589.204
531.639
438.681
323.785
200.402
73.455
-51.518
-169.033
-273.034
-351.748
-400.265
-422.254
-422.604
-409.696
-388.197
-357.291
-318.559
-274.35
-228.529
-186.893
-152.665
-127.279
-111.119
-102.88
-100.83
-103.156
-107.465
-111.564
-114.007
-113.555
-109.611
-102.389
-92.486
-80.948
-69.213
-58.567
-49.81
-43.506
-39.815
-38.542
-39.366
-41.688
-44.763
-47.937
-50.786
-53.098
-54.818
-55.933
-56.402
-56.197
-55.304
-53.754
-51.579
-48.769
-45.343
-41.358
-36.933
-32.278
-27.594
-23.019
-18.644
-14.517
-10.659
-7.106
-3.887
-1.004
1.525
3.683
5.456
6.817
7.761
8.316
8.53
8.481
8.247
7.883
7.428
6.914
6.356
5.772
5.167
4.537
3.884
3.217
2.549
1.9
1.286
0.715
0.191
-0.283
-0.71
-1.089
-1.419
-1.699
-1.926
-2.096
-2.201
-2.232
-2.181
-2.044
-1.818
-1.503
-1.1
-0.612
-0.043
0.601
1.316
2.097
2.937
3.832
4.778
5.767
6.794
7.853
8.937
10.04
11.155
12.274
13.39
14.496
15.586
16.651
17.686
18.685
19.641
20.548
21.4
22.194
22.921
23.579
24.161
24.663
25.083
25.416
25.661
25.817
25.883
25.86
25.748
25.549
25.265
24.898
24.45
23.925
23.325
22.655
21.918
21.121
20.267
19.362
18.412
17.423
16.401
15.351
14.28
13.194
12.099
11.003
9.912
8.833
7.771
6.735
5.728
4.759
3.832
2.952
2.123
1.349
0.633
-0.021
-0.612
-1.139
-1.601
-1.999
-2.331
-2.6
-2.808
-2.956
-3.049
-3.09
-3.082
-3.03
-2.939
-2.815
-2.662
-2.486
-2.293
-2.089
-1.878
-1.668
-1.464
-1.272
-1.098
-0.947
-0.824
-0.733
-0.679
-0.666
-0.695
-0.769
-0.888
-1.053
-1.264
-1.518
-1.813
-2.147
-2.516
-2.916
-3.34
-3.784
-4.239
-4.698
-5.154
-5.596
-6.016
-6.403
-6.748
-7.041
-7.271
-7.43
-7.509
-7.497
-7.386
-7.167
-6.832
-6.374
-5.785
-5.06
-4.192
-3.179
-2.019
-0.712
0.741
2.337
4.071
5.939
7.932
10.042
12.259
14.574
16.973
19.442
21.967
24.529
27.109
29.685
32.236
34.738
37.167
39.5
41.715
43.79
45.707
47.447
48.994
50.328
51.435
52.301
52.911
53.249
53.306
53.073
52.546
51.728
50.616
49.215
47.536
45.585
43.37
40.895
38.153
35.147
31.889
28.39
24.67
20.755
16.669
12.449
8.155
3.84
-0.435
-4.619
-8.685
-12.598
-16.316
-19.785
-22.935
-25.722
-28.136
-30.166
-31.78
-32.945
-33.638
-33.898
-33.856
-33.651
-33.411
-33.224
-33.172
-33.399
-34.005
-35.03
-36.365
-37.68
-38.623
-38.955
-38.466
-36.926
-34.211
-30.283
-25.495
-20.754
-16.961
-14.877
-15.076
-17.911
-23.661
-32.291
-42.745
-53.019
-60.83
-63.782
-59.958
-47.59
-24.461
11.201
59.806
119.441
186.183
255.882
325.705
395.675
466.11
533.571
590.21
622.347
617.696
573.22
493.493
391.929
279.468
157.061
25.273
-115.481
-254.749
-369.246
-443.079
-470.513
-459.529
-431.999
-402.832
-377.776
-356.555
-332.303
-302.854
-270.318
-236.983
-206.527
-180.625
-159.459
-143.245
-131.152
-122.242
-116.355
-113.476
-113.498
-116.033
-119.752
-123.063
-125.2
-125.953
-125.188
-122.812
-118.743
-113.049
-106.457
-100.026
-94.327
-89.485
-85.414
-81.906
-78.875
-76.309
-73.973
-71.462
-68.54
-65.149
-61.365
-57.377
-53.299
-49.162
-45.022
-40.969
-37.086
-33.452
-30.121
-27.087
-24.345
-21.9
-19.751
-17.904
-16.354
-15.073
-14.021
-13.168
-12.491
-11.973
-11.605
-11.369
-11.243
-11.207
-11.239
-11.323
-11.444
-11.587
-11.733
-11.865
-11.971
-12.04
-12.066
-12.041
-11.954
-11.794
-11.551
-11.215
-10.779
-10.235
-9.575
-8.794
-7.89
-6.859
-5.702
-4.419
-3.009
-1.474
0.184
1.963
3.859
5.87
7.99
10.216
12.541
14.959
17.465
20.05
22.709
25.433
28.214
31.042
33.91
36.808
39.726
42.653
45.579
48.494
51.386
54.245
57.059
59.817
62.508
65.121
67.645
70.071
72.389
74.589
76.663
78.602
80.399
82.048
83.541
84.872
86.038
87.033
87.853
88.496
88.96
89.243
89.344
89.264
89.003
88.562
87.946
87.156
86.198
85.076
83.798
82.369
80.797
79.093
77.265
75.323
73.279
71.143
68.928
66.646
64.308
61.926
59.512
57.077
54.633
52.19
49.757
47.345
44.962
42.615
40.312
38.059
35.861
33.725
31.653
29.649
27.716
25.854
24.066
22.351
20.707
19.134
17.629
16.188
14.807
13.481
12.204
10.972
9.777
8.612
7.47
6.346
5.231
4.12
3.006
1.885
0.752
-0.397
-1.563
-2.749
-3.954
-5.177
-6.416
-7.668
-8.928
-10.192
-11.454
-12.705
-13.939
-15.145
-16.314
-17.435
-18.496
-19.484
-20.385
-21.188
-21.876
-22.436
-22.854
-23.116
-23.208
-23.115
-22.824
-22.323
-21.6
-20.644
-19.446
-17.996
-16.29
-14.323
-12.093
-9.6
-6.848
-3.841
-0.586
2.908
6.629
10.565
14.7
19.018
23.5
28.125
32.871
37.711
42.619
47.563
52.512
57.436
62.301
67.073
71.721
76.214
80.525
84.625
88.491
92.094
95.408
98.408
101.068
103.368
105.287
106.811
107.927
108.628
108.911
108.782
108.247
107.31
105.97
104.215
102.044
99.466
96.498
93.161
89.485
85.503
81.264
76.833
72.279
67.664
63.041
58.445
53.911
49.477
45.202
41.166
37.43
34.018
30.937
28.184
25.755
23.649
21.835
20.215
18.666
17.072
15.336
13.4
11.23
8.761
5.831
2.334
-1.679
-5.989
-10.155
-13.735
-16.454
-17.992
-17.848
-15.675
-11.452
-5.621
0.664
6.162
10.013
11.366
9.442
4.021
-4.412
-14.363
-23.128
-27.786
-25.49
-13.271
11.565
51.135
104.888
169.262
240.258
313.37
387.283
464.169
541.045
611.108
662.582
678.466
649.654
575.632
464.245
331.537
193.199
62.384
-52.979
-148.662
-224.032
-282.439
-325.854
-357.253
-378.011
-385.776
-380.163
-361.913
-333.504
-300.442
-267.072
-235.689
-207.805
-183.678
-163.545
-148.208
-137.661
-130.847
-126.426
-123.179
-119.956
-116.245
-111.752
-105.808
-98.241
-89.544
-80.421
-71.778
-64.555
-59.11
-55.517
-53.98
-54.397
-56.423
-59.665
-63.494
-67.278
-70.727
-73.691
-76.032
-77.71
-78.638
-78.704
-77.943
-76.425
-74.187
-71.302
-67.836
-63.879
-59.623
-55.263
-50.958
-46.828
-42.934
-39.301
-35.966
-32.952
-30.276
-27.963
-26.018
-24.444
-23.256
-22.446
-21.993
-21.853
-21.95
-22.209
-22.575
-23.001
-23.46
-23.937
-24.414
-24.886
-25.359
-25.829
-26.292
-26.739
-27.154
-27.522
-27.838
-28.097
-28.299
-28.447
-28.541
-28.58
-28.564
-28.49
-28.353
-28.149
-27.867
-27.499
-27.041
-26.489
-25.843
-25.104
-24.271
-23.348
-22.338
-21.243
-20.067
-18.811
-17.479
-16.073
-14.596
-13.053
-11.447
-9.784
-8.069
-6.307
-4.507
-2.675
-0.818
1.056
2.938
4.821
6.695
8.552
10.384
12.181
13.934
15.635
17.274
18.842
20.332
21.734
23.042
24.249
25.349
26.336
27.206
27.955
28.579
29.076
29.441
29.674
29.773
29.738
29.569
29.267
28.835
28.276
27.594
26.795
25.883
24.866
23.751
22.547
21.261
19.905
18.489
17.023
15.518
13.986
12.438
10.887
9.343
7.817
6.321
4.864
3.456
2.107
0.824
-0.383
-1.508
-2.545
-3.487
-4.33
-5.072
-5.708
-6.237
-6.659
-6.973
-7.18
-7.283
-7.283
-7.184
-6.991
-6.708
-6.342
-5.898
-5.383
-4.805
-4.17
-3.487
-2.763
-2.005
-1.221
-0.417
0.4
1.225
2.05
2.872
3.685
4.486
5.272
6.041
6.792
7.525
8.24
8.941
9.629
10.308
10.981
11.654
12.33
13.016
13.717
14.439
15.188
15.971
16.795
17.666
18.591
19.575
20.624
21.742
22.934
24.201
25.546
26.969
28.47
30.05
31.705
33.433
35.228
37.086
39.001
40.963
42.962
44.984
47.014
49.035
51.031
52.985
54.875
56.686
58.398
59.997
61.47
62.803
63.978
64.981
65.793
66.402
66.794
66.954
66.87
66.534
65.939
65.081
63.967
62.593
60.956
59.051
56.862
54.382
51.615
48.569
45.253
41.689
37.902
33.933
29.841
25.674
21.482
17.31
13.192
9.169
5.286
1.588
-1.867
-5.026
-7.869
-10.397
-12.616
-14.566
-16.274
-17.784
-19.201
-20.644
-22.233
-24.096
-26.319
-28.973
-32.163
-36.036
-40.667
-46.015
-51.862
-57.798
-63.438
-68.501
-72.671
-75.504
-76.691
-76.234
-74.528
-72.463
-70.913
-70.314
-71.044
-73.591
-78.042
-83.855
-89.822
-93.843
-93.629
-87.495
-73.765
-50.628
-17.007
27.55
82.734
146.565
216.252
288.111
356.599
417.237
466.696
502.944
526.9
536.261
525.993
490.953
423.704
322.749
194.21
47.83
-99.245
-228.558
-328.054
-391.103
-420.529
-427.268
-420.07
-404.214
-381.695
-350.137
-309.564
-264.078
-218.299
-177.691
-146.569
-126.063
-115.638
-113.999
-119.045
-128.347
-140.05
-152.155
-162.279
-169.095
-172.068
-171.071
-166.831
-160.414
-152.571
-144.273
-136.734
-130.577
-126.083
-123.344
-121.994
-121.588
-121.794
-122.176
-122.266
-121.845
-120.81
-119.127
-116.9
-114.215
-111.126
-107.728
-104.112
-100.328
-96.413
-92.399
-88.311
-84.203
-80.148
-76.193
-72.373
-68.709
-65.207
-61.876
-58.722
-55.739
-52.913
-50.236
-47.706
-45.325
-43.097
-41.019
-39.08
-37.268
-35.571
-33.978
-32.481
-31.073
-29.748
-28.503
-27.338
-26.254
-25.252
-24.331
-23.488
-22.717
-22.015
-21.375
-20.794
-20.267
-19.788
-19.353
-18.961
-18.606
-18.288
-18.001
-17.742
-17.507
-17.293
-17.094
-16.908
-16.731
-16.557
-16.384
-16.21
-16.03
-15.844
-15.649
-15.443
-15.224
-14.993
-14.748
-14.489
-14.215
-13.925
-13.619
-13.299
-12.963
-12.614
-12.251
-11.877
-11.492
-11.099
-10.7
-10.296
-9.888
-9.479
-9.071
-8.664
-8.262
-7.866
-7.478
-7.1
-6.735
-6.385
-6.052
-5.736
-5.44
-5.165
-4.91
-4.675
-4.461
-4.267
-4.092
-3.936
-3.796
-3.671
-3.561
-3.463
-3.376
-3.297
-3.225
-3.156
-3.088
-3.019
-2.947
-2.87
-2.785
-2.69
-2.584
-2.465
-2.332
-2.182
-2.015
-1.828
-1.622
-1.394
-1.144
-0.873
-0.58
-0.265
0.068
0.418
0.784
1.163
1.551
1.945
2.343
2.739
3.131
3.513
3.883
4.235
4.566
4.871
5.147
5.391
5.6
5.772
5.905
6
6.054
6.069
6.044
5.981
5.879
5.742
5.569
5.366
5.133
4.875
4.596
4.302
3.997
3.689
3.385
3.09
2.812
2.559
2.339
2.16
2.03
1.958
1.951
2.02
2.17
2.411
2.748
3.187
3.733
4.389
5.158
6.041
7.038
8.146
9.365
10.691
12.121
13.648
15.266
16.968
18.743
20.584
22.478
24.412
26.368
28.331
30.284
32.21
34.09
35.906
37.638
39.27
40.788
42.178
43.421
44.502
45.403
46.106
46.597
46.862
46.886
46.658
46.171
45.42
44.41
43.144
41.622
39.842
37.795
35.477
32.894
30.053
26.966
23.657
20.157
16.509
12.774
9.005
5.25
1.554
-2.051
-5.527
-8.834
-11.933
-14.78
-17.33
-19.551
-21.418
-22.923
-24.107
-25.022
-25.743
-26.377
-27
-27.702
-28.594
-29.766
-31.308
-33.301
-35.766
-38.761
-42.413
-46.746
-51.659
-56.899
-61.957
-66.348
-69.736
-71.667
-71.604
-69.251
-64.558
-57.929
-50.43
-43.071
-36.525
-31.522
-28.726
-28.299
-29.877
-32.239
-33.002
-29.707
-20.093
-1.725
27.708
70.1
125.16
189.84
260.062
331.18
402.397
476.898
553.057
625.222
680.006
696.979
666.431
588.245
472.195
337.081
193.907
49.686
-88.604
-214.173
-315.207
-382.483
-415.429
-421.104
-409.721
-388.869
-361.186
-325.26
-281.492
-233.744
-186.955
-146.878
-117.223
-98.595
-90.528
-91.533
-99.114
-110.674
-123.742
-135.689
-144.493
-149.236
-149.523
-145.591
-138.464
-129.334
-119.527
-110.655
-103.846
-99.553
-97.885
-98.506
-100.832
-104.413
-108.604
-112.444
-115.299
-116.901
-117.262
-116.904
-115.518
-111.564
-104.27
-94.576
-87.026
-88.187
-101.585
-124.428
-145.416
-152.449
-138.514
-105.45
-67.838
-38.532
-25.352
-30.673
-43.959
-57.166
-66.3
-67.495
-65.436
-63.857
-62.91
-63.997
-65.476
-65.354
-64.056
-62.009
-59.604
-57.421
-55.499
-53.619
-51.91
-50.667
-49.866
-49.29
-48.813
-48.27
-47.614
-46.97
-46.34
-45.654
-44.917
-44.149
-43.371
-42.627
-41.914
-41.187
-40.424
-39.611
-38.74
-37.823
-36.862
-35.857
-34.81
-33.721
-32.593
-31.428
-30.229
-28.999
-27.742
-26.459
-25.156
-23.837
-22.509
-21.178
-19.849
-18.522
-17.199
-15.882
-14.573
-13.277
-11.998
-10.739
-9.504
-8.297
-7.12
-5.978
-4.875
-3.813
-2.795
-1.823
-0.901
-0.031
0.783
1.54
2.237
2.874
3.449
3.962
4.41
4.795
5.114
5.369
5.56
5.686
5.748
5.747
5.686
5.564
5.384
5.148
4.858
4.517
4.127
3.692
3.215
2.699
2.149
1.568
0.96
0.33
-0.319
-0.982
-1.657
-2.338
-3.023
-3.708
-4.389
-5.065
-5.732
-6.388
-7.03
-7.658
-8.269
-8.864
-9.443
-10.004
-10.55
-11.079
-11.594
-12.095
-12.584
-13.062
-13.53
-13.99
-14.444
-14.894
-15.341
-15.786
-16.23
-16.676
-17.123
-17.571
-18.021
-18.472
-18.923
-19.372
-19.819
-20.262
-20.698
-21.124
-21.536
-21.932
-22.306
-22.652
-22.966
-23.239
-23.463
-23.632
-23.736
-23.768
-23.718
-23.579
-23.34
-22.995
-22.535
-21.952
-21.237
-20.385
-19.388
-18.24
-16.937
-15.476
-13.853
-12.067
-10.119
-8.01
-5.742
-3.32
-0.748
1.969
4.825
7.811
10.917
14.134
17.45
20.849
24.314
27.826
31.364
34.907
38.434
41.92
45.344
48.682
51.916
55.028
57.999
60.809
63.437
65.864
68.073
70.05
71.78
73.247
74.443
75.36
75.998
76.361
76.447
76.25
75.764
74.976
73.882
72.487
70.794
68.807
66.543
64.022
61.282
58.38
55.362
52.268
49.142
46.02
42.956
40.012
37.241
34.701
32.439
30.486
28.869
27.61
26.702
26.133
25.86
25.779
25.797
25.802
25.667
25.311
24.588
23.297
21.337
18.671
15.403
11.837
8.257
4.871
2.017
0.065
-0.722
-0.151
1.438
3.205
4.427
4.441
2.766
-0.842
-6.671
-14.714
-23.848
-32.087
-37.226
-36.857
-29.193
-12.795
14.273
53.39
104.57
166.689
237.366
313.325
391.628
468.862
540.15
600.534
645.499
671.164
675.118
656.069
613.149
546.691
460.419
359.451
248.195
132.599
15.97
-98.633
-202.172
-288.044
-350.031
-382.564
-390.391
-378.512
-351.508
-316.937
-276.482
-231.594
-185.714
-140.167
-97.995
-62.637
-35.455
-16.67
-5.499
-0.472
-0.051
-3.054
-8.149
-13.334
-16.788
-17.645
-15.681
-11.262
-5.127
2.231
10.264
17.982
24.395
29.002
31.736
32.9
32.987
32.321
31.14
29.813
28.755
28.258
28.471
29.415
31.034
33.301
36.218
39.738
43.754
48.124
52.677
57.265
61.78
66.14
70.291
74.193
77.823
81.169
84.234
87.018
89.505
91.678
93.52
95.023
96.206
97.109
97.797
98.33
98.766
99.15
99.517
99.891
100.294
100.733
101.204
101.712
102.261
102.866
103.546
104.315
105.181
106.152
107.228
108.411
109.699
111.09
112.581
114.172
115.861
117.651
119.547
121.55
123.662
125.879
128.197
130.612
133.116
135.701
138.356
141.072
143.84
146.649
149.49
152.355
155.232
158.112
160.985
163.84
166.667
169.457
172.197
174.878
177.491
180.026
182.474
184.829
187.081
189.226
191.259
193.175
194.971
196.646
198.197
199.624
200.927
202.108
203.171
204.117
204.953
205.683
206.315
206.856
207.314
207.697
208.013
208.272
208.483
208.655
208.798
208.922
209.037
209.152
209.279
209.425
209.601
209.815
210.075
210.388
210.761
211.2
211.708
212.29
212.947
213.681
214.49
215.373
216.328
217.35
218.433
219.571
220.757
221.981
223.234
224.505
225.782
227.053
228.305
229.524
230.695
231.804
232.836
233.776
234.609
235.32
235.894
236.318
236.578
236.661
236.555
236.249
235.735
235.002
234.045
232.857
231.437
229.782
227.892
225.769
223.418
220.842
218.05
215.048
211.848
208.459
204.895
201.169
197.297
193.295
189.181
184.974
180.694
176.362
171.997
167.62
163.252
158.914
154.625
150.405
146.274
142.249
138.349
134.59
130.986
127.552
124.298
121.235
118.371
115.71
113.255
111.007
108.964
107.123
105.48
104.028
102.758
101.659
100.717
99.921
99.253
98.696
98.225
97.816
97.445
97.084
96.709
96.29
95.799
95.21
94.498
93.644
92.624
91.417
89.998
88.344
86.433
84.247
81.766
78.971
75.848
72.386
68.582
64.438
59.955
55.134
49.97
44.451
38.574
32.345
25.77
18.867
11.658
4.175
-3.535
-11.407
-19.385
-27.411
-35.432
-43.414
-51.307
-59.073
-66.677
-74.061
-81.182
-88.008
-94.52
-100.731
-106.684
-112.411
-117.972
-123.453
-128.939
-134.553
-140.422
-146.635
-153.292
-160.431
-168.099
-176.436
-185.49
-195.169
-205.263
-215.32
-224.849
-233.567
-241.122
-246.978
-250.854
-252.671
-252.681
-251.86
-251.203
-251.296
-252.755
-256.145
-261.533
-268.573
-276.242
-282.279
-284.118
-279.643
-266.815
-243.709
-208.896
-161.912
-103.277
-36.114
34.088
103.602
169.275
228.628
281.548
322.715
342.842
335.296
294
220.303
123.58
9.604
-116.369
-248.816
-382.889
-505.469
-601.676
-663.954
-692.352
-696.919
-689.996
-677.751
-661.254
-637.977
-606.574
-569.702
-531.473
-496.119
-466.458
-443.489
-427.163
-416.634
-410.724
-407.951
-407.032
-406.908
-406.234
-403.9
-399.368
-392.497
-383.696
-373.85
-363.688
-353.902
-345.404
-338.772
-334.212
-331.738
-330.984
-331.405
-332.57
-334.036
-335.319
-336.142
-336.358
-335.856
-334.65
-332.749
-330.103
-326.721
-322.645
-317.917
-312.618
-306.871
-300.823
-294.636
-288.475
-282.459
-276.663
-271.14
-265.908
-260.983
-256.368
-252.073
-248.116
-244.521
-241.307
-238.482
-236.028
-233.904
-232.044
-230.386
-228.867
-227.438
-226.062
-224.711
-223.369
-222.032
-220.702
-219.378
-218.049
-216.702
-215.318
-213.879
-212.376
-210.799
-209.145
-207.41
-205.593
-203.694
-201.712
-199.645
-197.487
-195.233
-192.873
-190.4
-187.811
-185.101
-182.271
-179.323
-176.258
-173.08
-169.798
-166.416
-162.941
-159.379
-155.739
-152.027
-148.252
-144.423
-140.55
-136.643
-132.713
-128.77
-124.827
-120.895
-116.986
-113.113
-109.287
-105.521
-101.827
-98.215
-94.697
-91.283
-87.983
-84.807
-81.765
-78.864
-76.113
-73.521
-71.091
-68.832
-66.746
-64.838
-63.109
-61.56
-60.192
-59.004
-57.994
-57.161
-56.5
-56.007
-55.677
-55.504
-55.48
-55.598
-55.849
-56.222
-56.709
-57.299
-57.979
-58.74
-59.569
-60.455
-61.385
-62.347
-63.33
-64.322
-65.311
-66.286
-67.238
-68.155
-69.028
-69.849
-70.609
-71.302
-71.92
-72.459
-72.913
-73.28
-73.557
-73.742
-73.835
-73.836
-73.746
-73.569
-73.308
-72.965
-72.547
-72.058
-71.503
-70.89
-70.225
-69.514
-68.765
-67.985
-67.181
-66.359
-65.526
-64.687
-63.849
-63.015
-62.191
-61.379
-60.582
-59.802
-59.041
-58.298
-57.574
-56.867
-56.174
-55.493
-54.819
-54.147
-53.471
-52.783
-52.076
-51.342
-50.573
-49.758
-48.889
-47.956
-46.95
-45.863
-44.685
-43.407
-42.021
-40.519
-38.894
-37.14
-35.253
-33.228
-31.063
-28.757
-26.31
-23.726
-21.007
-18.159
-15.187
-12.098
-8.904
-5.614
-2.241
1.202
4.7
8.235
11.787
15.333
18.852
22.32
25.716
29.014
32.192
35.226
38.098
40.792
43.289
45.571
47.619
49.417
50.95
52.205
53.17
53.835
54.191
54.235
53.969
53.4
52.533
51.371
49.916
48.162
46.111
43.776
41.174
38.324
35.254
31.996
28.596
25.116
21.611
18.138
14.744
11.469
8.356
5.452
2.804
0.47
-1.493
-3.063
-4.237
-5.012
-5.416
-5.465
-5.185
-4.669
-4.021
-3.345
-2.76
-2.346
-2.156
-2.287
-2.869
-3.974
-5.608
-7.593
-9.576
-11.226
-12.273
-12.438
-11.39
-8.842
-4.672
0.827
6.94
12.885
18.016
21.86
24.018
24.278
22.796
20.401
18.671
19.563
25.158
37.278
57.501
87.373
128.104
179.75
241.412
310.233
381.052
450.485
515.928
575.255
628.76
671.501
694.012
688.934
649.321
575.254
475.908
359.075
231.65
102.227
-22.557
-133.833
-219.707
-277.576
-311.777
-325.911
-327.754
-317.983
-291.511
-253.082
-207.038
-160.302
-123.203
-94.42
-71.754
-54.341
-38.254
-25.5
-18.052
-15.114
-17.071
-22.137
-27.854
-32.668
-35.316
-35.549
-33.643
-29.973
-24.888
-18.577
-11.604
-4.964
0.755
5.29
8.646
11.235
13.338
15.071
16.714
18.626
21.025
24.046
27.686
31.765
36.161
40.808
45.612
50.502
55.399
60.214
64.88
69.343
73.559
77.5
81.144
84.468
87.469
90.145
92.511
94.597
96.426
98.011
99.365
100.488
101.393
102.098
102.625
102.993
103.221
103.322
103.315
103.219
103.049
102.815
102.525
102.185
101.802
101.389
100.957
100.521
100.09
99.677
99.291
98.946
98.648
98.405
98.223
98.106
98.058
98.083
98.187
98.371
98.637
98.989
99.426
99.95
100.56
101.255
102.033
102.891
103.827
104.836
105.915
107.059
108.263
109.52
110.826
112.174
113.558
114.969
116.401
117.847
119.298
120.746
122.184
123.603
124.996
126.354
127.67
128.937
130.146
131.292
132.366
133.363
134.275
135.098
135.825
136.452
136.973
137.385
137.685
137.869
137.936
137.883
137.709
137.415
137
136.465
135.812
135.042
134.158
133.165
132.065
130.862
129.563
128.172
126.694
125.137
123.507
121.81
120.055
118.247
116.396
114.507
112.59
110.651
108.698
106.737
104.774
102.816
100.869
98.938
97.027
95.141
93.284
91.458
89.666
87.91
86.19
84.508
82.861
81.25
79.673
78.128
76.613
75.125
73.662
72.219
70.794
69.383
67.982
66.588
65.196
63.804
62.408
61.006
59.595
58.174
56.741
55.297
53.841
52.374
50.897
49.412
47.922
46.429
44.938
43.453
41.981
40.528
39.1
37.707
36.356
35.058
33.821
32.654
31.567
30.569
29.667
28.872
28.192
27.635
27.207
26.916
26.767
26.766
26.917
27.221
27.679
28.289
29.05
29.957
31.006
32.19
33.501
34.93
36.469
38.106
39.827
41.62
43.467
45.349
47.247
49.138
50.999
52.806
54.536
56.166
57.674
59.042
60.251
61.284
62.123
62.754
63.163
63.334
63.256
62.916
62.307
61.423
60.264
58.829
57.121
55.149
52.916
50.43
47.693
44.697
41.443
37.941
34.202
30.246
26.099
21.791
17.37
12.895
8.426
4.03
-0.24
-4.342
-8.229
-11.862
-15.186
-18.13
-20.654
-22.743
-24.386
-25.576
-26.301
-26.567
-26.448
-26.08
-25.615
-25.199
-24.928
-24.908
-25.3
-26.183
-27.581
-29.407
-31.356
-33.134
-34.55
-35.351
-35.259
-34.119
-31.815
-28.596
-25.193
-22.245
-20.269
-19.697
-20.803
-23.831
-28.819
-34.855
-40.187
-42.927
-41.106
-33.133
-17.471
7.82
44.39
92.873
151.489
216.394
283.802
350.012
414.526
479.856
544.112
602.59
644.419
651.905
616.059
536.452
422.552
295.165
169.484
53.681
-48.778
-140.499
-220.776
-285.609
-332.141
-358.009
-363.731
-352.293
-327.09
-292.428
-252.901
-212.481
-174.104
-139.629
-110.311
-87.369
-71.673
-62.974
-60.108
-61.623
-66.362
-73.525
-82.235
-91.061
-98.43
-103.515
-106.221
-106.869
-105.81
-103.228
-99.384
-94.964
-90.889
-87.716
-85.568
-84.247
-83.458
-83.03
-82.862
-82.736
-82.309
-81.349
-79.785
-77.68
-75.189
-72.423
-69.426
-66.248
-62.972
-59.678
-56.44
-53.327
-50.354
-47.527
-44.866
-42.378
-40.076
-37.966
-36.04
-34.272
-32.649
-31.162
-29.807
-28.589
-27.506
-26.548
-25.703
-24.961
-24.312
-23.75
-23.268
-22.856
-22.505
-22.208
-21.964
-21.774
-21.634
-21.541
-21.487
-21.466
-21.471
-21.498
-21.541
-21.592
-21.647
-21.702
-21.755
-21.803
-21.845
-21.877
-21.896
-21.899
-21.884
-21.847
-21.785
-21.695
-21.574
-21.418
-21.228
-21
-20.734
-20.43
-20.086
-19.704
-19.285
-18.831
-18.342
-17.82
-17.27
-16.692
-16.091
-15.47
-14.832
-14.181
-13.521
-12.857
-12.192
-11.531
-10.876
-10.234
-9.606
-8.997
-8.412
-7.855
-7.33
-6.842
-6.396
-5.997
-5.649
-5.359
-5.129
-4.964
-4.867
-4.843
-4.892
-5.018
-5.221
-5.503
-5.863
-6.302
-6.818
-7.409
-8.074
-8.81
-9.614
-10.482
-11.409
-12.392
-13.426
-14.506
-15.627
-16.785
-17.973
-19.187
-20.42
-21.668
-22.925
-24.184
-25.441
-26.688
-27.92
-29.131
-30.317
-31.471
-32.59
-33.669
-34.704
-35.693
-36.633
-37.523
-38.36
-39.145
-39.878
-40.561
-41.194
-41.782
-42.325
-42.83
-43.298
-43.734
-44.142
-44.527
-44.893
-45.243
-45.581
-45.913
-46.24
-46.567
-46.898
-47.234
-47.579
-47.935
-48.303
-48.686
-49.083
-49.494
-49.921
-50.362
-50.815
-51.279
-51.751
-52.227
-52.705
-53.178
-53.64
-54.085
-54.505
-54.89
-55.231
-55.519
-55.745
-55.897
-55.967
-55.947
-55.826
-55.597
-55.251
-54.781
-54.181
-53.446
-52.569
-51.547
-50.378
-49.059
-47.591
-45.976
-44.216
-42.315
-40.279
-38.113
-35.824
-33.421
-30.913
-28.312
-25.631
-22.881
-20.079
-17.244
-14.396
-11.558
-8.754
-6.006
-3.341
-0.782
1.646
3.922
6.025
7.94
9.65
11.137
12.385
13.378
14.098
14.533
14.669
14.496
14.009
13.203
12.082
10.653
8.926
6.908
4.601
1.996
-0.911
-4.112
-7.597
-11.344
-15.319
-19.486
-23.795
-28.178
-32.567
-36.895
-41.103
-45.154
-49.018
-52.665
-56.055
-59.122
-61.807
-64.077
-65.928
-67.381
-68.462
-69.2
-69.652
-69.912
-70.106
-70.378
-70.845
-71.594
-72.682
-74.118
-75.98
-78.432
-81.503
-85.085
-88.889
-92.383
-95.129
-96.865
-97.167
-95.495
-91.609
-85.507
-77.786
-69.762
-62.527
-56.829
-53.44
-52.83
-54.819
-58.746
-62.782
-63.961
-59.618
-47.193
-24.179
11.184
59.743
120.28
188.957
261.212
333.157
403.662
473.19
538.32
591.265
619.512
610.339
560.502
477.009
373.014
261.866
150.466
37.892
-75.27
-182.212
-273.479
-336.853
-368.016
-373.6
-361.379
-340.27
-314.991
-284.713
-250.668
-214.915
-180.309
-150.825
-128.274
-113.316
-105.885
-104.317
-106.689
-110.975
-115.089
-118.021
-119.251
-118.058
-114.208
-107.974
-99.9
-91.14
-82.947
-75.862
-70.128
-65.985
-63.39
-62.247
-62.385
-63.236
-64.141
-64.749
-64.871
-64.439
-63.523
-62.119
-60.2
-57.859
-55.22
-52.381
-49.423
-46.369
-43.213
-39.995
-36.783
-33.656
-30.706
-27.983
-25.51
-23.302
-21.363
-19.696
-18.301
-17.161
-16.246
-15.535
-15.011
-14.666
-14.493
-14.476
-14.592
-14.816
-15.123
-15.493
-15.912
-16.365
-16.839
-17.326
-17.816
-18.304
-18.785
-19.255
-19.705
-20.126
-20.509
-20.848
-21.135
-21.365
-21.533
-21.633
-21.663
-21.62
-21.504
-21.312
-21.043
-20.697
-20.274
-19.773
-19.196
-18.545
-17.819
-17.022
-16.157
-15.226
-14.233
-13.181
-12.075
-10.918
-9.716
-8.472
-7.192
-5.879
-4.539
-3.175
-1.793
-0.397
1.008
2.418
3.829
5.234
6.63
8.012
9.375
10.716
12.031
13.316
14.568
15.782
16.956
18.086
19.17
20.205
21.189
22.12
22.995
23.814
24.575
25.279
25.924
26.51
27.039
27.509
27.922
28.279
28.58
28.826
29.019
29.16
29.252
29.297
29.296
29.254
29.173
29.057
28.91
28.734
28.535
28.316
28.082
27.837
27.586
27.332
27.079
26.833
26.595
26.37
26.16
25.968
25.796
25.646
25.517
25.413
25.332
25.275
25.241
25.231
25.244
25.278
25.332
25.405
25.494
25.597
25.711
25.833
25.958
26.084
26.206
26.32
26.422
26.508
26.573
26.613
26.624
26.601
26.54
26.44
26.295
26.106
25.869
25.585
25.255
24.878
24.458
23.997
23.497
22.964
22.402
21.815
21.209
20.591
19.966
19.344
18.732
18.14
17.577
17.052
16.577
16.162
15.817
15.552
15.378
15.304
15.34
15.496
15.782
16.205
16.775
17.497
18.379
19.426
20.639
22.02
23.568
25.281
27.156
29.186
31.366
33.687
36.139
38.713
41.394
44.17
47.026
49.944
52.904
55.884
58.861
61.81
64.706
67.525
70.239
72.826
75.261
77.524
79.596
81.458
83.089
84.469
85.58
86.403
86.921
87.122
86.995
86.533
85.73
84.59
83.119
81.325
79.212
76.781
74.022
70.935
67.529
63.821
59.833
55.592
51.132
46.498
41.753
36.961
32.182
27.466
22.844
18.348
14.016
9.901
6.076
2.595
-0.521
-3.272
-5.66
-7.695
-9.384
-10.763
-11.938
-13.034
-14.165
-15.433
-16.904
-18.607
-20.601
-23.035
-25.991
-29.406
-33.091
-36.639
-39.64
-41.888
-43.151
-42.98
-41.094
-37.495
-32.485
-27.062
-22.339
-18.866
-17.057
-17.577
-20.709
-25.971
-32.513
-37.52
-36.582
-27.712
-9.965
16.38
46.756
80.294
120.74
171.686
241.315
331.895
433.337
531.542
605.977
640.419
632.48
586.82
515.439
430.088
335.856
234.887
126.985
13.708
-99.384
-205.076
-295.883
-366.301
-414.124
-439.186
-442.618
-426.849
-395.417
-352.892
-304.366
-254.868
-208.195
-167.248
-134.696
-111.789
-98.384
-93.46
-95.006
-100.599
-108.44
-116.717
-123.188
-126.535
-126.244
-122.24
-115.267
-106.353
-96.193
-85.688
-76.042
-67.912
-61.595
-57.184
-54.307
-52.501
-51.437
-50.687
-49.776
-48.47
-46.656
-44.29
-41.486
-38.342
-34.922
-31.324
-27.639
-23.912
-20.179
-16.473
-12.813
-9.251
-5.851
-2.655
0.314
3.043
5.537
7.8
9.844
11.691
13.374
14.917
16.337
17.648
18.859
19.989
21.061
22.096
23.118
24.145
25.196
26.283
27.42
28.614
29.868
31.184
32.564
34.007
35.518
37.1
38.755
40.484
42.288
44.166
46.118
48.141
50.23
52.382
54.59
56.849
59.154
61.499
63.878
66.284
68.71
71.15
73.597
76.044
78.483
80.907
83.311
85.686
88.026
90.326
92.577
94.775
96.914
98.988
100.994
102.925
104.778
106.549
108.234
109.83
111.333
112.74
114.049
115.255
116.357
117.352
118.239
119.016
119.682
120.234
120.673
120.998
121.209
121.304
121.284
121.15
120.901
120.539
120.064
119.479
118.784
117.982
117.075
116.065
114.955
113.747
112.443
111.047
109.561
107.989
106.334
104.599
102.789
100.906
98.957
96.945
94.875
92.751
90.579
88.362
86.107
83.816
81.495
79.148
76.779
74.393
71.992
69.581
67.163
64.739
62.312
59.884
57.456
55.03
52.605
50.182
47.761
45.343
42.926
40.51
38.095
35.679
33.26
30.837
28.409
25.974
23.529
21.074
18.607
16.126
13.631
11.119
8.592
6.047
3.486
0.908
-1.687
-4.296
-6.919
-9.552
-12.193
-14.837
-17.481
-20.119
-22.747
-25.358
-27.946
-30.505
-33.027
-35.504
-37.93
-40.295
-42.591
-44.808
-46.936
-48.967
-50.891
-52.699
-54.382
-55.931
-57.341
-58.603
-59.712
-60.66
-61.443
-62.057
-62.498
-62.764
-62.853
-62.765
-62.501
-62.064
-61.459
-60.69
-59.765
-58.691
-57.477
-56.132
-54.668
-53.096
-51.429
-49.68
-47.865
-46.002
-44.109
-42.209
-40.322
-38.471
-36.676
-34.962
-33.349
-31.857
-30.502
-29.298
-28.26
-27.402
-26.74
-26.288
-26.056
-26.055
-26.294
-26.781
-27.517
-28.505
-29.738
-31.207
-32.905
-34.829
-36.977
-39.358
-41.975
-44.82
-47.882
-51.146
-54.588
-58.179
-61.877
-65.623
-69.366
-73.049
-76.623
-80.053
-83.297
-86.312
-89.051
-91.45
-93.448
-95.017
-96.158
-96.874
-97.198
-97.152
-96.769
-96.153
-95.429
-94.737
-94.216
-93.973
-94.082
-94.655
-95.875
-97.843
-100.543
-103.775
-107.098
-110.084
-112.443
-113.846
-113.839
-112.17
-108.868
-104.351
-99.733
-96.099
-94.101
-94.396
-97.516
-103.372
-111.292
-119.811
-126.241
-127.813
-122.202
-106.906
-79.879
-39.991
13.009
77.878
151.685
230.753
310.809
386.642
453.076
504.925
537.277
546.695
530.971
490.264
427.598
346.904
251.847
143.792
22.743
-107.876
-238.704
-353.988
-438.164
-483.725
-493.47
-480.085
-456.712
-430.571
-403.864
-373.71
-338.224
-299.276
-259.93
-224.235
-195.282
-174.095
-160.288
-152.761
-150.392
-152.055
-156.792
-163.511
-170.447
-175.869
-178.892
-179.196
-176.914
-172.498
-166.251
-158.572
-150.363
-142.635
-135.982
-130.62
-126.401
-122.966
-120.092
-117.62
-115.248
-112.612
-109.478
-105.751
-101.491
-96.866
-91.991
-86.925
-81.733
-76.488
-71.264
-66.133
-61.153
-56.361
-51.784
-47.446
-43.367
-39.56
-36.034
-32.785
-29.795
-27.035
-24.489
-22.146
-20
-18.051
-16.288
-14.693
-13.251
-11.945
-10.76
-9.684
-8.7
-7.791
-6.946
-6.156
-5.414
-4.718
-4.06
-3.43
-2.818
-2.214
-1.608
-0.992
-0.355
0.313
1.019
1.771
2.575
3.435
4.357
5.347
6.41
7.55
8.77
10.075
11.465
12.944
14.512
16.167
17.909
19.737
21.647
23.638
25.704
27.841
30.043
32.305
34.62
36.982
39.384
41.818
44.275
46.748
49.228
51.709
54.178
56.625
59.037
61.402
63.709
65.946
68.105
70.173
72.141
73.998
75.734
77.341
78.81
80.132
81.296
82.289
83.105
83.735
84.177
84.428
84.477
84.313
83.921
83.287
82.406
81.277
79.898
78.272
76.408
74.318
72.034
69.593
67.031
64.381
61.665
58.915
56.187
53.554
51.11
48.936
47.068
45.527
44.325
43.451
42.935
42.767
42.838
43.112
43.618
44.425
45.797
47.956
50.822
54.296
58.265
62.327
66.174
69.466
71.322
71.035
68.415
63.344
56.242
48.223
40.057
32.49
