Name,Criss Capps
Date of Birth,"Feb 5, 1952"
Recorded Date,2021-08-22 13:46:46 -0400
Classification,High Heart Rate
Symptoms,
Software Version,1.90
Device,"Watch5,4"
Sample Rate,512.844 hertz


Lead,Lead I
Unit,µV

-61.796
-63.469
-64.736
-65.582
-65.992
-65.955
-65.464
-64.517
-63.112
-61.251
-58.941
-56.192
-53.017
-49.436
-45.471
-41.145
-36.485
-31.521
-26.285
-20.811
-15.134
-9.286
-3.303
2.776
8.909
15.053
21.166
27.207
33.137
38.913
44.493
49.84
54.926
59.722
64.197
68.317
72.035
75.315
78.131
80.463
82.296
83.625
84.449
84.781
84.661
84.125
83.21
81.943
80.338
78.422
76.242
73.857
71.342
68.752
66.114
63.467
60.845
58.246
55.65
52.989
50.153
47.082
43.732
40.046
35.974
31.429
26.301
20.518
13.979
6.533
-1.836
-11.042
-20.875
-30.826
-40.358
-49.027
-56.265
-61.488
-64.469
-65.303
-64.513
-63.308
-62.842
-63.844
-67.075
-73.177
-82.125
-93.18
-104.647
-113.491
-116.518
-111.111
-94.598
-64.545
-19.46
41.087
115.915
201.564
293.399
386.413
474.625
551.768
612.009
650.016
661.908
646.217
603.51
536.168
448.74
347.02
237.534
127.688
24.757
-65.006
-136.818
-187.954
-217.863
-227.455
-218.83
-195.641
-162.513
-124.582
-86.803
-52.986
-25.756
-6.781
3.023
3.818
-3.224
-16.027
-32.036
-48.954
-64.825
-78.261
-88.26
-94.269
-96.34
-95.071
-91.465
-86.662
-81.844
-77.802
-75.029
-73.832
-74.204
-75.976
-78.862
-82.4
-86.017
-89.34
-92.169
-94.399
-96.077
-97.231
-97.853
-97.997
-97.753
-97.187
-96.344
-95.238
-93.846
-92.181
-90.291
-88.238
-86.102
-83.942
-81.786
-79.66
-77.582
-75.57
-73.64
-71.796
-70.026
-68.324
-66.687
-65.116
-63.614
-62.179
-60.794
-59.442
-58.103
-56.762
-55.408
-54.033
-52.626
-51.178
-49.68
-48.13
-46.526
-44.863
-43.134
-41.331
-39.447
-37.477
-35.416
-33.26
-31.005
-28.648
-26.188
-23.625
-20.959
-18.193
-15.328
-12.368
-9.317
-6.182
-2.97
0.311
3.651
7.04
10.465
13.914
17.373
20.828
24.265
27.67
31.026
34.319
37.534
40.657
43.672
46.568
49.33
51.944
54.401
56.688
58.796
60.714
62.435
63.951
65.255
66.342
67.21
67.854
68.273
68.467
68.437
68.185
67.715
67.032
66.142
65.052
63.77
62.307
60.672
58.877
56.935
54.857
52.657
50.35
47.948
45.466
42.918
40.318
37.678
35.013
32.334
29.654
26.983
24.334
21.717
19.14
16.614
14.146
11.744
9.415
7.164
4.997
2.918
0.93
-0.966
-2.766
-4.472
-6.082
-7.598
-9.02
-10.353
-11.598
-12.758
-13.838
-14.843
-15.776
-16.644
-17.451
-18.201
-18.899
-19.548
-20.153
-20.715
-21.236
-21.718
-22.161
-22.564
-22.929
-23.252
-23.534
-23.77
-23.957
-24.092
-24.171
-24.189
-24.139
-24.016
-23.813
-23.523
-23.141
-22.66
-22.072
-21.37
-20.548
-19.599
-18.516
-17.294
-15.926
-14.407
-12.733
-10.901
-8.91
-6.761
-4.454
-1.992
0.616
3.361
6.234
9.223
12.316
15.498
18.753
22.066
25.421
28.804
32.198
35.584
38.941
42.246
45.477
48.611
51.627
54.5
57.205
59.72
62.034
64.13
65.992
67.596
68.909
69.906
70.573
70.898
70.871
70.491
69.764
68.716
67.396
65.85
64.124
62.248
60.239
58.13
55.961
53.786
51.665
49.63
47.694
45.876
44.203
42.668
41.225
39.777
38.174
36.299
34.078
31.443
28.319
24.612
20.212
15.01
8.962
2.033
-5.85
-14.649
-24.243
-34.374
-44.488
-53.969
-62.311
-68.93
-73.222
-75.027
-74.36
-71.545
-67.641
-63.543
-59.807
-57.308
-56.733
-57.832
-59.947
-61.658
-60.208
-53.131
-38.448
-13.827
22.87
72.696
135.558
210.129
291.711
373.616
451.663
521.969
581.996
633.206
670.302
684.289
669.834
619.152
533.899
423.703
294.927
159.348
28.747
-85.753
-170.095
-218.22
-233.175
-225.43
-208.201
-189.236
-169.981
-147.38
-119.625
-88.538
-57.877
-32.407
-14.701
-5.141
-3.36
-7.988
-17.379
-30.034
-44.195
-58.09
-70.514
-80.478
-87.363
-91.153
-92.21
-91.177
-88.962
-86.603
-84.785
-83.975
-84.421
-86.037
-88.632
-91.907
-95.423
-98.693
-101.412
-103.428
-104.687
-105.268
-105.224
-104.6
-103.49
-101.997
-100.194
-98.122
-95.811
-93.274
-90.555
-87.73
-84.861
-81.999
-79.179
-76.417
-73.728
-71.125
-68.613
-66.189
-63.852
-61.605
-59.454
-57.412
-55.487
-53.679
-51.986
-50.399
-48.912
-47.519
-46.215
-44.999
-43.87
-42.828
-41.876
-41.017
-40.254
-39.584
-39.004
-38.51
-38.098
-37.764
-37.504
-37.313
-37.189
-37.129
-37.13
-37.192
-37.313
-37.489
-37.718
-37.997
-38.324
-38.697
-39.113
-39.57
-40.067
-40.601
-41.171
-41.776
-42.413
-43.082
-43.781
-44.507
-45.261
-46.04
-46.842
-47.667
-48.513
-49.379
-50.264
-51.166
-52.086
-53.021
-53.971
-54.935
-55.914
-56.905
-57.907
-58.921
-59.945
-60.978
-62.021
-63.072
-64.132
-65.2
-66.276
-67.362
-68.456
-69.561
-70.676
-71.804
-72.945
-74.1
-75.273
-76.464
-77.676
-78.912
-80.173
-81.463
-82.783
-84.137
-85.526
-86.953
-88.419
-89.928
-91.482
-93.081
-94.729
-96.426
-98.174
-99.973
-101.824
-103.727
-105.683
-107.691
-109.749
-111.858
-114.015
-116.219
-118.468
-120.759
-123.089
-125.453
-127.849
-130.272
-132.716
-135.177
-137.647
-140.122
-142.594
-145.056
-147.502
-149.923
-152.311
-154.658
-156.953
-159.189
-161.354
-163.439
-165.433
-167.325
-169.107
-170.768
-172.296
-173.683
-174.917
-175.989
-176.89
-177.609
-178.138
-178.467
-178.588
-178.494
-178.177
-177.632
-176.852
-175.833
-174.57
-173.061
-171.304
-169.298
-167.043
-164.54
-161.794
-158.808
-155.589
-152.146
-148.489
-144.63
-140.586
-136.373
-132.007
-127.51
-122.9
-118.198
-113.424
-108.6
-103.745
-98.883
-94.035
-89.226
-84.484
-79.836
-75.306
-70.921
-66.704
-62.682
-58.876
-55.301
-51.975
-48.912
-46.133
-43.67
-41.548
-39.782
-38.379
-37.344
-36.671
-36.349
-36.352
-36.635
-37.153
-37.864
-38.736
-39.757
-40.905
-42.148
-43.437
-44.707
-45.903
-47.005
-47.998
-48.86
-49.591
-50.218
-50.811
-51.501
-52.396
-53.549
-54.998
-56.765
-58.903
-61.503
-64.649
-68.398
-72.81
-77.957
-83.824
-90.301
-97.119
-103.778
-109.714
-114.429
-117.434
-118.228
-116.575
-112.607
-106.803
-100.15
-93.688
-88.007
-83.584
-81.006
-80.377
-81.047
-81.655
-79.821
-72.849
-58.888
-36.381
-3.37
41.711
99.471
169.415
248.065
329.639
409.582
484.471
553.924
619.656
679.433
726.948
750.955
739.241
686.589
594.652
473.479
338.61
205.577
90.661
5.501
-45.837
-66.637
-68.648
-63.136
-56.38
-49.927
-39.833
-24.465
-6.344
11.278
24.359
31.088
32.422
29.736
24.543
18.576
13.336
9.648
7.815
7.588
8.288
9.326
10.266
10.514
9.438
6.707
2.219
-3.889
-11.266
-19.639
-28.808
-38.527
-48.561
-58.697
-68.714
-78.465
-87.88
-96.896
-105.47
-113.574
-121.17
-128.246
-134.832
-140.964
-146.687
-152.042
-157.056
-161.762
-166.208
-170.448
-174.547
-178.549
-182.474
-186.336
-190.138
-193.88
-197.562
-201.169
-204.674
-208.051
-211.28
-214.345
-217.237
-219.945
-222.45
-224.736
-226.785
-228.588
-230.14
-231.434
-232.467
-233.237
-233.746
-233.999
-234.004
-233.77
-233.302
-232.605
-231.688
-230.556
-229.221
-227.691
-225.974
-224.081
-222.023
-219.815
-217.47
-215.002
-212.424
-209.751
-206.998
-204.18
-201.312
-198.41
-195.489
-192.564
-189.652
-186.767
-183.926
-181.144
-178.436
-175.817
-173.3
-170.9
-168.63
-166.502
-164.528
-162.717
-161.081
-159.628
-158.366
-157.305
-156.449
-155.806
-155.381
-155.181
-155.207
-155.465
-155.957
-156.686
-157.651
-158.855
-160.298
-161.977
-163.892
-166.04
-168.418
-171.022
-173.846
-176.886
-180.133
-183.581
-187.22
-191.041
-195.034
-199.186
-203.486
-207.922
-212.481
-217.148
-221.911
-226.754
-231.664
-236.624
-241.62
-246.635
-251.654
-256.659
-261.633
-266.559
-271.42
-276.198
-280.874
-285.433
-289.856
-294.126
-298.227
-302.143
-305.859
-309.359
-312.629
-315.657
-318.43
-320.939
-323.172
-325.123
-326.783
-328.148
-329.213
-329.976
-330.434
-330.587
-330.434
-329.977
-329.219
-328.161
-326.808
-325.164
-323.235
-321.026
-318.546
-315.803
-312.805
-309.562
-306.082
-302.378
-298.459
-294.335
-290.018
-285.518
-280.845
-276.011
-271.026
-265.9
-260.643
-255.264
-249.772
-244.177
-238.485
-232.703
-226.838
-220.894
-214.877
-208.791
-202.642
-196.432
-190.167
-183.852
-177.495
-171.103
-164.684
-158.242
-151.784
-145.317
-138.846
-132.374
-125.903
-119.435
-112.973
-106.527
-100.103
-93.707
-87.344
-81.02
-74.743
-68.52
-62.358
-56.258
-50.219
-44.245
-38.349
-32.549
-26.872
-21.335
-15.943
-10.703
-5.619
-0.693
4.08
8.722
13.273
17.764
22.219
26.647
31.055
35.469
39.934
44.497
49.202
54.07
59.099
64.287
69.634
75.104
80.65
86.196
91.618
96.809
101.672
106.102
110.008
113.297
115.812
117.358
117.87
117.411
116.193
114.571
112.834
111.184
109.925
109.514
110.23
112.013
114.389
116.462
117.589
117.612
116.492
114.087
110.369
105.817
101.717
100.199
103.197
111.98
127.469
150.529
182.445
224.138
275.41
335.214
400.618
467.207
531.462
589.493
640.57
688.78
734.079
774.694
803.047
801.318
760.066
674.353
545.503
394.515
240.897
105.675
12.529
-36.326
-45.757
-25.601
5.84
42.969
84.257
125.265
162.477
186.645
190.625
175.928
150.703
125.979
108.991
100.71
96.567
91.899
85.444
78.498
73.958
73.115
74.953
77.707
79.868
80.939
81.047
80.268
78.448
75.496
71.68
67.555
63.617
60.139
57.18
54.702
52.765
51.461
50.817
50.801
51.337
52.358
53.846
55.812
58.243
61.109
64.349
67.884
71.644
75.558
79.568
83.636
87.722
91.793
95.827
99.799
103.701
107.537
111.302
114.99
118.597
122.116
125.549
128.908
132.204
135.446
138.645
141.805
144.931
148.032
151.112
154.177
157.231
160.274
163.311
166.347
169.39
172.449
175.53
178.638
181.778
184.957
188.177
191.443
194.756
198.115
201.52
204.97
208.462
211.993
215.559
219.156
222.776
226.413
230.06
233.709
237.352
240.978
244.578
248.142
251.658
255.116
258.505
261.815
265.035
268.154
271.161
274.049
276.807
279.428
281.902
284.225
286.389
288.39
290.224
291.89
293.385
294.711
295.87
296.864
297.698
298.378
298.908
299.298
299.554
299.685
299.701
299.612
299.428
299.16
298.82
298.419
297.97
297.484
296.973
296.449
295.924
295.408
294.912
294.445
294.017
293.635
293.307
293.039
292.837
292.703
292.642
292.654
292.739
292.896
293.123
293.414
293.764
294.166
294.612
295.093
295.6
296.121
296.646
297.163
297.659
298.122
298.54
298.899
299.185
299.386
299.487
299.476
299.341
299.069
298.648
298.069
297.323
296.401
295.295
294.001
292.512
290.826
288.941
286.857
284.574
282.095
279.425
276.572
273.545
270.355
267.014
263.534
259.931
256.221
252.42
248.545
244.615
240.645
236.655
232.665
228.694
224.762
220.89
217.098
213.405
209.835
206.405
203.131
200.028
197.109
194.384
191.863
189.552
187.452
185.565
183.893
182.433
181.182
180.13
179.265
178.571
178.031
177.626
177.336
177.136
177.002
176.913
176.855
176.814
176.782
176.74
176.665
176.537
176.334
176.026
175.577
174.937
174.041
172.841
171.298
169.379
167.055
164.28
161.003
157.186
152.799
147.813
142.21
135.947
128.974
121.296
112.97
104.097
94.832
85.305
75.587
65.791
56.102
46.587
37.204
27.78
17.901
7.229
-4.365
-17.103
-31.264
-46.738
-63.206
-80.014
-95.852
-109.703
-121.011
-128.996
-133.17
-133.981
-132.309
-129.937
-129.883
-134.562
-145.941
-166.511
-197.987
-240.914
-295.156
-358.84
-428.48
-500.99
-572.952
-639.761
-697.194
-741.291
-768.4
-776.572
-764.928
-732.696
-680.312
-609.966
-524.788
-429.205
-328.548
-228.078
-133.701
-51.578
12.837
55.302
73.065
64.996
31.6
-24.954
-100.301
-188.705
-283.653
-378.582
-467.637
-545.19
-606.479
-648.451
-670.239
-672.881
-658.907
-631.359
-593.221
-548.517
-501.654
-456.494
-415.875
-381.045
-352.058
-328.891
-311.703
-299.663
-291.161
-284.243
-276.957
-268.419
-258.586
-247.281
-234.093
-219.037
-202.594
-185.778
-169.988
-156.014
-144.035
-134.186
-126.581
-121.219
-118.01
-116.521
-116.02
-116.031
-116.334
-116.806
-117.445
-118.207
-118.963
-119.661
-120.299
-120.826
-121.203
-121.381
-121.281
-120.905
-120.308
-119.581
-118.864
-118.26
-117.82
-117.574
-117.521
-117.645
-117.946
-118.412
-119.024
-119.785
-120.694
-121.745
-122.942
-124.263
-125.662
-127.082
-128.438
-129.656
-130.686
-131.488
-132.036
-132.313
-132.306
-132.009
-131.429
-130.564
-129.409
-127.959
-126.205
-124.146
-121.787
-119.137
-116.211
-113.03
-109.61
-105.969
-102.128
-98.101
-93.906
-89.56
-85.075
-80.466
-75.754
-70.957
-66.099
-61.205
-56.299
-51.406
-46.553
-41.765
-37.068
-32.485
-28.038
-23.749
-19.638
-15.724
-12.025
-8.558
-5.338
-2.379
0.307
2.708
4.816
6.625
8.129
9.325
10.213
10.793
11.069
11.045
10.726
10.121
9.238
8.088
6.683
5.037
3.166
1.086
-1.185
-3.627
-6.221
-8.944
-11.777
-14.698
-17.686
-20.719
-23.778
-26.841
-29.889
-32.903
-35.863
-38.753
-41.555
-44.255
-46.838
-49.292
-51.606
-53.77
-55.777
-57.619
-59.293
-60.796
-62.125
-63.281
-64.266
-65.084
-65.739
-66.239
-66.593
-66.808
-66.898
-66.873
-66.748
-66.535
-66.251
-65.91
-65.528
-65.122
-64.709
-64.306
-63.928
-63.594
-63.318
-63.117
-63.004
-62.994
-63.098
-63.328
-63.694
-64.205
-64.87
-65.694
-66.682
-67.836
-69.158
-70.648
-72.304
-74.123
-76.097
-78.22
-80.483
-82.878
-85.392
-88.014
-90.729
-93.523
-96.38
-99.285
-102.221
-105.17
-108.114
-111.035
-113.916
-116.74
-119.489
-122.147
-124.7
-127.133
-129.437
-131.6
-133.613
-135.467
-137.153
-138.665
-139.999
-141.148
-142.108
-142.874
-143.446
-143.828
-144.024
-144.039
-143.881
-143.556
-143.073
-142.446
-141.684
-140.79
-139.773
-138.642
-137.412
-136.112
-134.761
-133.373
-131.959
-130.526
-129.078
-127.614
-126.118
-124.557
-122.9
-121.122
-119.209
-117.166
-114.981
-112.634
-110.097
-107.328
-104.312
-101.057
-97.562
-93.823
-89.866
-85.751
-81.578
-77.502
-73.634
-70.04
-66.782
-63.925
-61.559
-59.797
-58.735
-58.421
-58.901
-60.258
-62.499
-65.555
-69.178
-72.855
-76.034
-78.258
-79.073
-78.002
-74.807
-69.473
-62.341
-54.422
-46.715
-39.863
-34.555
-31.409
-30.525
-31.519
-33.234
-33.196
-28.84
-18.184
1.057
31.239
74.061
130.434
198.632
273.416
349.405
423.13
494.467
565.059
633.12
689.988
720.395
711.255
656.399
560.536
439.486
307.004
176.567
59.71
-39.303
-112.832
-158.855
-183.562
-190.752
-187.921
-179.404
-162.695
-138.84
-109.889
-78.748
-51.097
-30.18
-16.857
-11.671
-13.946
-22.355
-35.427
-51.257
-67.875
-83.646
-97.461
-108.42
-116.012
-120.298
-121.727
-121.061
-119.26
-117.305
-115.829
-115.272
-115.877
-117.58
-120.215
-123.513
-127.037
-130.308
-133.032
-135.05
-136.307
-136.871
-136.776
-136.041
-134.748
-132.99
-130.837
-128.336
-125.5
-122.33
-118.857
-115.143
-111.259
-107.273
-103.223
-99.135
-95.027
-90.914
-86.816
-82.74
-78.683
-74.641
-70.618
-66.619
-62.655
-58.731
-54.841
-50.975
-47.123
-43.273
-39.418
-35.555
-31.676
-27.779
-23.86
-19.919
-15.957
-11.974
-7.966
-3.93
0.139
4.243
8.385
12.564
16.784
21.042
25.338
29.668
34.027
38.413
42.82
47.243
51.675
56.109
60.537
64.951
69.341
73.697
78.009
82.264
86.451
90.557
94.57
98.477
102.266
105.923
109.437
112.795
115.984
118.995
121.815
124.435
126.845
129.037
131.004
132.739
134.237
135.495
136.508
137.276
137.799
138.078
138.114
137.911
137.474
136.808
135.92
134.818
133.509
132.004
130.311
128.442
126.408
124.221
121.892
119.434
116.859
114.182
111.414
108.57
105.662
102.702
99.705
96.682
93.644
90.603
87.569
84.551
81.559
78.6
75.681
72.809
69.989
67.226
64.523
61.883
59.308
56.799
54.356
51.98
49.669
47.422
45.239
43.116
41.054
39.05
37.103
35.212
33.374
31.588
29.854
28.168
26.531
24.942
23.4
21.906
20.459
19.062
17.717
16.427
15.197
14.03
12.931
11.907
10.963
10.107
9.345
8.685
8.135
7.704
7.402
7.236
7.217
7.351
7.648
8.117
8.762
9.591
10.608
11.815
13.217
14.815
16.609
18.601
20.788
23.168
25.738
28.494
31.431
34.539
37.809
41.229
44.783
48.456
52.234
56.097
60.026
64.003
68.011
72.035
76.058
80.065
84.037
87.957
91.806
95.566
99.219
102.748
106.137
109.375
112.45
115.357
118.094
120.656
123.039
125.232
127.217
128.979
130.512
131.813
132.886
133.741
134.392
134.862
135.19
135.418
135.586
135.733
135.882
136.052
136.262
136.546
136.957
137.541
138.318
139.277
140.403
141.683
143.109
144.668
146.283
147.832
149.195
150.255
150.923
151.173
150.934
150.044
148.414
146.077
143.235
140.349
137.855
135.976
134.987
135.297
137.133
140.517
145.018
149.458
152.665
153.893
152.436
147.677
139.527
128.431
115.728
104.202
96.878
96.243
104.873
125.329
159.429
208.052
269.35
338.029
408.647
477.212
543.478
609.004
670.629
720.555
745.286
731.071
674.356
578.395
451.848
309.035
161.323
22.017
-90.606
-166.027
-200.414
-199.593
-181.734
-159.968
-140.437
-123.573
-103.06
-77.223
-48.611
-20.711
1.539
16.214
23.54
24.01
19.655
12.643
4.489
-3.09
-9.179
-13.49
-15.307
-14.286
-10.817
-5.534
0.573
6.291
11.067
14.712
16.867
17.451
16.549
14.272
11.103
7.702
4.41
1.395
-1.227
-3.509
-5.442
-6.959
-8.128
-9.064
-9.838
-10.511
-11.088
-11.529
-11.841
-12.065
-12.257
-12.494
-12.816
-13.234
-13.752
-14.369
-15.081
-15.887
-16.768
-17.685
-18.612
-19.525
-20.412
-21.267
-22.074
-22.806
-23.438
-23.943
-24.301
-24.501
-24.53
-24.378
-24.039
-23.508
-22.788
-21.882
-20.795
-19.528
-18.084
-16.465
-14.676
-12.726
-10.622
-8.372
-5.987
-3.48
-0.862
1.853
4.649
7.515
10.435
13.395
16.379
19.374
22.366
25.339
28.28
31.175
34.011
36.774
39.453
42.035
44.511
46.869
49.101
51.198
53.154
54.961
56.616
58.114
59.452
60.628
61.641
62.49
63.177
63.703
64.069
64.279
64.336
64.245
64.011
63.64
63.137
62.51
61.763
60.905
59.942
58.88
57.727
56.488
55.173
53.786
52.336
50.829
49.273
47.673
46.037
44.37
42.679
40.967
39.241
37.504
35.761
34.015
32.269
30.526
28.79
27.062
25.345
23.641
21.952
20.278
18.62
16.98
15.357
13.751
12.164
10.594
9.043
7.509
5.994
4.495
3.014
1.549
0.1
-1.334
-2.756
-4.165
-5.561
-6.947
-8.321
-9.684
-11.035
-12.373
-13.697
-15.006
-16.298
-17.572
-18.826
-20.06
-21.27
-22.456
-23.614
-24.743
-25.84
-26.903
-27.928
-28.913
-29.856
-30.755
-31.608
-32.413
-33.167
-33.87
-34.52
-35.117
-35.658
-36.144
-36.573
-36.947
-37.267
-37.536
-37.758
-37.936
-38.078
-38.19
-38.284
-38.367
-38.45
-38.541
-38.653
-38.795
-38.979
-39.213
-39.506
-39.867
-40.31
-40.845
-41.486
-42.243
-43.128
-44.153
-45.33
-46.672
-48.185
-49.869
-51.729
-53.769
-55.999
-58.435
-61.082
-63.938
-66.998
-70.257
-73.702
-77.313
-81.053
-84.865
-88.702
-92.522
-96.299
-100.016
-103.643
-107.14
-110.468
-113.586
-116.476
-119.133
-121.542
-123.689
-125.589
-127.286
-128.878
-130.493
-132.223
-134.129
-136.244
-138.596
-141.249
-144.272
-147.717
-151.618
-155.943
-160.68
-165.909
-171.582
-177.512
-183.363
-188.548
-192.52
-194.953
-195.437
-193.497
-189.035
-182.157
-173.342
-163.731
-154.226
-145.403
-138.146
-133.132
-130.27
-129.068
-128.173
-125.168
-118.18
-105.376
-83.983
-51.786
-7.674
47.134
108.28
171.188
233.158
295.669
361.514
427.737
484.96
516.272
504.575
445.185
346.035
225.589
104.53
-5.242
-100.736
-184.039
-256.663
-316.666
-360.181
-383.953
-388.288
-375.872
-350.463
-317.125
-280.574
-244.971
-214.032
-189.777
-173.095
-164.736
-164.486
-170.961
-182.237
-195.759
-209.07
-220.908
-230.49
-236.916
-239.859
-239.55
-236.587
-232.263
-227.976
-224.381
-221.817
-220.625
-220.849
-222.424
-225.211
-228.667
-232.118
-235.215
-237.783
-239.741
-241.157
-242.036
-242.34
-242.142
-241.561
-240.671
-239.53
-238.145
-236.486
-234.569
-232.445
-230.171
-227.824
-225.449
-223.061
-220.672
-218.289
-215.913
-213.549
-211.187
-208.806
-206.388
-203.924
-201.409
-198.843
-196.219
-193.52
-190.727
-187.821
-184.789
-181.625
-178.321
-174.873
-171.278
-167.538
-163.654
-159.636
-155.488
-151.215
-146.822
-142.314
-137.699
-132.988
-128.192
-123.323
-118.393
-113.42
-108.418
-103.406
-98.4
-93.419
-88.481
-83.604
-78.806
-74.105
-69.519
-65.065
-60.759
-56.618
-52.656
-48.886
-45.322
-41.974
-38.851
-35.962
-33.313
-30.909
-28.752
-26.843
-25.18
-23.761
-22.58
-21.63
-20.902
-20.385
-20.066
-19.932
-19.965
-20.151
-20.468
-20.899
-21.422
-22.017
-22.662
-23.336
-24.017
-24.684
-25.316
-25.893
-26.396
-26.807
-27.108
-27.284
-27.32
-27.204
-26.923
-26.468
-25.83
-25.005
-23.988
-22.776
-21.369
-19.771
-17.983
-16.013
-13.867
-11.556
-9.091
-6.484
-3.75
-0.904
2.038
5.056
8.134
11.252
14.39
17.53
20.652
23.737
26.766
29.722
32.587
35.345
37.982
40.483
42.835
45.026
47.048
48.891
50.549
52.017
53.291
54.37
55.254
55.947
56.451
56.773
56.92
56.899
56.723
56.403
55.95
55.38
54.705
53.943
53.11
52.223
51.299
50.355
49.407
48.473
47.57
46.713
45.916
45.194
44.56
44.024
43.6
43.296
43.119
43.075
43.17
43.406
43.784
44.304
44.96
45.745
46.652
47.673
48.799
50.016
51.312
52.674
54.092
55.555
57.048
58.556
60.062
61.55
63.005
64.406
65.736
66.973
68.101
69.107
69.985
70.723
71.31
71.733
71.973
72.018
71.868
71.516
70.959
70.206
69.268
68.182
66.999
65.761
64.501
63.25
62.023
60.856
59.786
58.836
58.032
57.384
56.893
56.579
56.451
56.481
56.61
56.746
56.766
56.584
56.138
55.369
54.223
52.621
50.491
47.796
44.525
40.714
36.356
31.395
25.897
20.078
14.336
9.247
5.292
2.784
2.11
3.627
7.416
13.347
20.749
28.502
35.795
42.013
46.569
49.339
50.59
50.968
52.201
56.541
65.742
81.708
106.322
140.556
184.89
237.668
294.342
350.77
404.057
454.626
504.895
552.646
591.184
608.639
592.301
538.805
451.255
337.688
211.653
83.724
-34.248
-126.54
-185.116
-207.839
-201.011
-181.342
-160.482
-143.913
-132.073
-119.331
-104.017
-87.917
-73.069
-62.716
-57.509
-55.877
-56.474
-57.43
-57.139
-55.193
-51.516
-46.301
-40.155
-33.585
-26.989
-20.926
-15.925
-12.206
-9.792
-8.524
-8.098
-8.289
-8.915
-9.775
-10.665
-11.374
-11.745
-11.703
-11.231
-10.329
-8.994
-7.217
-4.999
-2.386
0.561
3.777
7.206
10.808
14.535
18.33
22.125
25.847
29.438
32.871
36.124
39.187
42.057
44.728
47.208
49.522
51.695
53.745
55.691
57.541
59.311
61.022
62.696
64.354
66.011
67.679
69.369
71.093
72.858
74.671
76.532
78.441
80.396
82.4
84.452
86.553
88.699
90.887
93.112
95.37
97.653
99.951
102.253
104.548
106.821
109.059
111.25
113.376
115.423
117.375
119.216
120.929
122.5
123.911
125.147
126.192
127.033
127.655
128.046
128.195
128.09
127.723
127.086
126.175
124.984
123.51
121.752
119.712
117.392
114.797
111.933
108.807
105.43
101.812
97.968
93.911
89.657
85.223
80.627
75.889
71.028
66.063
61.017
55.91
50.762
45.595
40.429
35.285
30.183
25.143
20.182
15.319
10.571
5.955
1.483
-2.829
-6.971
-10.932
-14.703
-18.277
-21.65
-24.816
-27.773
-30.523
-33.064
-35.4
-37.536
-39.478
-41.231
-42.806
-44.211
-45.459
-46.56
-47.528
-48.377
-49.119
-49.769
-50.342
-50.853
-51.316
-51.746
-52.158
-52.566
-52.986
-53.431
-53.914
-54.449
-55.047
-55.718
-56.474
-57.322
-58.27
-59.322
-60.486
-61.763
-63.156
-64.668
-66.295
-68.038
-69.891
-71.851
-73.912
-76.066
-78.303
-80.614
-82.987
-85.413
-87.878
-90.37
-92.876
-95.381
-97.874
-100.339
-102.764
-105.133
-107.434
-109.652
-111.774
-113.788
-115.683
-117.447
-119.071
-120.546
-121.869
-123.037
-124.044
-124.889
-125.571
-126.09
-126.448
-126.646
-126.683
-126.56
-126.282
-125.857
-125.295
-124.606
-123.799
-122.885
-121.874
-120.78
-119.615
-118.386
-117.095
-115.748
-114.359
-112.945
-111.536
-110.15
-108.797
-107.487
-106.224
-105.01
-103.843
-102.706
-101.567
-100.401
-99.19
-97.931
-96.628
-95.271
-93.831
-92.275
-90.563
-88.675
-86.602
-84.332
-81.865
-79.227
-76.46
-73.636
-70.833
-68.113
-65.532
-63.152
-61.033
-59.25
-57.869
-56.982
-56.723
-57.14
-58.167
-59.621
-61.129
-62.278
-62.768
-62.257
-60.3
-56.695
-51.586
-45.457
-39.33
-34.269
-30.833
-29.41
-30.45
-33.985
-39.399
-45.405
-49.668
-49.453
-42.873
-28.514
-4.661
30.108
76.439
134.155
200.129
268.664
335.581
398.365
457.632
516.084
571.973
617.43
639.651
627.402
576.175
491.137
385.969
272.012
160.839
62.972
-16.859
-70.559
-96.731
-103.197
-95.579
-82.856
-70.165
-54.594
-36.501
-17
2.578
18.142
28.036
33.045
34.163
33.005
31.364
30.528
31.19
33.712
37.931
43.251
49.165
55.227
60.846
65.483
68.875
70.927
71.772
71.71
70.961
69.728
68.233
66.687
65.284
64.16
63.388
62.997
62.998
63.404
64.217
65.425
66.996
68.884
71.027
73.365
75.845
78.4
80.967
83.477
85.849
88.027
89.971
91.652
93.052
94.161
94.971
95.482
95.709
95.664
95.361
94.815
94.032
93.028
91.819
90.424
88.865
87.16
85.323
83.368
81.308
79.158
76.931
74.637
72.286
69.889
67.459
65.01
62.559
60.117
57.698
55.314
52.977
50.697
48.483
46.341
44.276
42.291
40.389
38.573
36.842
35.195
33.631
32.146
30.737
29.399
28.127
26.915
25.755
24.64
23.563
22.515
21.489
20.475
19.464
18.448
17.416
16.36
15.27
14.136
12.949
11.7
10.38
8.982
7.497
5.919
4.243
2.463
0.578
-1.415
-3.517
-5.726
-8.043
-10.464
-12.985
-15.603
-18.313
-21.108
-23.984
-26.932
-29.947
-33.02
-36.143
-39.31
-42.511
-45.739
-48.984
-52.238
-55.492
-58.739
-61.968
-65.171
-68.339
-71.464
-74.537
-77.549
-80.493
-83.361
-86.145
-88.839
-91.439
-93.939
-96.336
-98.627
-100.81
-102.885
-104.851
-106.71
-108.461
-110.107
-111.648
-113.089
-114.431
-115.677
-116.831
-117.896
-118.875
-119.771
-120.587
-121.328
-121.995
-122.592
-123.122
-123.586
-123.989
-124.333
-124.62
-124.853
-125.035
-125.167
-125.251
-125.29
-125.283
-125.231
-125.132
-124.986
-124.791
-124.546
-124.247
-123.891
-123.475
-122.997
-122.454
-121.842
-121.158
-120.398
-119.561
-118.645
-117.649
-116.573
-115.417
-114.182
-112.871
-111.488
-110.038
-108.525
-106.956
-105.341
-103.689
-102.011
-100.319
-98.624
-96.94
-95.28
-93.657
-92.085
-90.575
-89.14
-87.793
-86.554
-85.438
-84.463
-83.644
-82.994
-82.53
-82.267
-82.216
-82.382
-82.768
-83.382
-84.235
-85.349
-86.74
-88.411
-90.363
-92.595
-95.092
-97.841
-100.815
-103.966
-107.251
-110.63
-114.072
-117.565
-121.083
-124.587
-128.019
-131.308
-134.397
-137.26
-139.862
-142.168
-144.179
-145.914
-147.432
-148.839
-150.186
-151.506
-152.837
-154.208
-155.682
-157.351
-159.276
-161.557
-164.348
-167.693
-171.531
-175.669
-179.634
-182.92
-185.124
-185.719
-184.15
-180.188
-173.963
-166.125
-158.014
-150.915
-145.661
-143.061
-143.851
-148.186
-155.378
-163.513
-169.371
-169.713
-161.797
-142.813
-110.019
-61.276
2.991
79.196
162.656
249.517
339.739
434.766
531.207
619.273
683.519
709.835
693.107
637.945
555.324
455.152
344.937
232.633
128.459
45.311
-7.307
-29.574
-31.613
-25.804
-20.739
-18.5
-14.466
-5.986
5.461
17.104
24.83
26.876
24.389
18.888
11.964
5.274
0.13
-2.741
-2.971
-0.721
3.302
8.409
14.034
19.502
24.193
27.785
30.092
31.125
31.086
30.128
28.394
26.072
23.323
20.29
17.099
13.855
10.672
7.67
4.937
2.534
0.489
-1.196
-2.522
-3.502
-4.182
-4.615
-4.863
-4.979
-5.009
-5.005
-5.03
-5.155
-5.459
-6.001
-6.822
-7.949
-9.403
-11.19
-13.312
-15.76
-18.506
-21.528
-24.803
-28.312
-32.037
-35.954
-40.033
-44.243
-48.549
-52.921
-57.328
-61.741
-66.128
-70.46
-74.708
-78.848
-82.857
-86.709
-90.378
-93.838
-97.062
-100.028
-102.712
-105.094
-107.153
-108.874
-110.243
-111.251
-111.889
-112.153
-112.042
-111.554
-110.694
-109.469
-107.886
-105.958
-103.698
-101.123
-98.252
-95.106
-91.71
-88.088
-84.266
-80.272
-76.134
-71.883
-67.548
-63.158
-58.744
-54.335
-49.961
-45.652
-41.436
-37.34
-33.392
-29.615
-26.035
-22.673
-19.547
-16.677
-14.075
-11.756
-9.729
-8.003
-6.583
-5.473
-4.673
-4.181
-3.994
-4.105
-4.506
-5.184
-6.126
-7.318
-8.743
-10.385
-12.225
-14.244
-16.421
-18.739
-21.176
-23.712
-26.326
-28.996
-31.7
-34.417
-37.126
-39.806
-42.437
-44.999
-47.475
-49.849
-52.106
-54.232
-56.214
-58.041
-59.703
-61.192
-62.502
-63.627
-64.565
-65.314
-65.875
-66.252
-66.448
-66.47
-66.321
-66.008
-65.537
-64.914
-64.145
-63.232
-62.18
-60.995
-59.684
-58.255
-56.715
-55.074
-53.342
-51.532
-49.656
-47.722
-45.738
-43.708
-41.633
-39.518
-37.363
-35.168
-32.929
-30.644
-28.313
-25.943
-23.533
-21.082
-18.581
-16.014
-13.372
-10.656
-7.87
-5.018
-2.11
0.84
3.797
6.711
9.53
12.22
14.768
17.18
19.456
21.597
23.602
25.473
27.24
28.939
30.596
32.223
33.837
35.471
37.196
39.124
41.344
43.903
46.804
50.017
53.519
57.274
61.218
65.25
69.21
72.953
76.379
79.413
81.988
84.016
85.365
85.877
85.451
84.042
81.646
78.287
73.972
68.749
62.721
56.066
49.033
41.83
34.596
27.44
20.455
13.737
7.408
1.558
-3.807
-8.685
-13.101
-17.084
-20.638
-23.851
-26.864
-29.85
-33.071
-36.784
-41.116
-46.074
-51.492
-56.961
-62.04
-66.294
-69.138
-69.981
-68.44
-64.482
-58.681
-52.18
-46.257
-42.004
-40.342
-42.064
-47.48
-56.115
-66.29
-75.116
-79.092
-74.755
-58.941
-28.65
18.281
82.796
164.162
259.672
365.249
475.839
585.515
687.687
776.219
845.488
890.776
909.076
898.454
859.939
798.337
719.265
627.316
524.256
410.19
288.784
170.594
71.359
4.02
-25.086
-19.014
10.511
54.298
102.477
145.128
178.214
195.245
196.34
189.668
180.528
176.472
180.159
187.074
195.446
203.317
209.861
217.414
226.4
236.011
245.689
254.211
260.741
265.329
268.045
269
268.533
266.935
264.415
261.215
257.58
253.683
249.733
245.959
242.486
239.401
236.787
234.68
233.115
232.11
231.632
231.622
232.026
232.789
233.866
235.223
236.801
238.534
240.349
242.168
243.94
245.635
247.228
248.706
250.065
251.306
252.447
253.519
254.539
255.523
256.48
257.413
258.331
259.247
260.171
261.112
262.074
263.06
264.069
265.103
266.156
267.223
268.293
269.354
270.398
271.415
272.398
273.338
274.226
275.053
275.809
276.485
277.07
277.553
277.922
278.163
278.267
278.22
278.012
277.631
277.067
276.311
275.352
274.183
272.797
271.186
269.346
267.271
264.958
262.405
259.611
256.574
253.297
249.78
246.028
242.043
237.833
233.402
228.76
223.915
218.878
213.658
208.269
202.723
197.034
191.217
185.286
179.257
173.147
166.972
160.748
154.492
148.22
141.949
135.693
129.468
123.289
117.169
111.12
105.156
99.287
93.523
87.875
82.349
76.953
71.695
66.578
61.607
56.784
52.112
47.589
43.217
38.991
34.909
30.967
27.159
23.478
19.918
16.47
13.126
9.877
6.711
3.62
0.592
-2.384
-5.317
-8.219
-11.1
-13.969
-16.837
-19.711
-22.6
-25.511
-28.451
-31.427
-34.443
-37.505
-40.616
-43.778
-46.993
-50.262
-53.582
-56.952
-60.369
-63.826
-67.32
-70.844
-74.389
-77.947
-81.508
-85.061
-88.596
-92.1
-95.562
-98.967
-102.304
-105.557
-108.717
-111.77
-114.704
-117.508
-120.172
-122.687
-125.046
-127.243
-129.27
-131.123
-132.799
-134.298
-135.619
-136.765
-137.738
-138.545
-139.195
-139.699
-140.07
-140.324
-140.476
-140.544
-140.546
-140.504
-140.438
-140.365
-140.304
-140.278
-140.311
-140.427
-140.652
-141.01
-141.525
-142.22
-143.12
-144.247
-145.615
-147.234
-149.112
-151.262
-153.703
-156.458
-159.544
-162.964
-166.722
-170.816
-175.236
-179.961
-184.957
-190.165
-195.535
-201.024
-206.596
-212.226
-217.878
-223.5
-229.037
-234.433
-239.642
-244.635
-249.369
-253.814
-257.985
-261.917
-265.686
-269.397
-273.114
-276.891
-280.808
-284.928
-289.322
-294.086
-299.254
-304.877
-311.073
-317.829
-325.049
-332.528
-339.792
-346.369
-351.923
-355.942
-357.844
-357.455
-354.794
-350.289
-345.032
-339.81
-335.039
-331.463
-329.754
-329.838
-331.147
-332.072
-329.905
-322.602
-308.402
-284.989
-250.203
-202.381
-142.082
-73.019
0.458
74.362
148.357
225.505
303.626
376.817
433.734
457.374
440.105
381.581
286.465
168.542
40.162
-86.412
-194.847
-273.806
-317.927
-329.765
-322.381
-308.388
-295.357
-285.193
-273.428
-257.861
-239.712
-221.31
-206.511
-196.598
-190.098
-185.352
-180.258
-172.811
-162.242
-148.332
-131.107
-111.276
-89.752
-67.316
-44.889
-23.405
-3.41
14.736
30.767
44.612
56.196
65.445
72.43
77.271
80.051
80.87
79.849
77.116
72.886
67.377
60.752
53.157
44.729
35.637
26.095
16.364
6.675
-2.798
-11.924
-20.612
-28.79
-36.405
-43.445
-49.942
-55.956
-61.541
-66.723
-71.511
-75.922
-80.001
-83.828
-87.513
-91.144
-94.774
-98.44
-102.159
-105.939
-109.782
-113.663
-117.533
-121.334
-125.021
-128.559
-131.929
-135.105
-138.048
-140.708
-143.029
-144.967
-146.498
-147.602
-148.269
-148.493
-148.276
-147.632
-146.593
-145.188
-143.443
-141.384
-139.032
-136.413
-133.561
-130.509
-127.293
-123.946
-120.501
-116.992
-113.452
-109.913
-106.409
-102.966
-99.61
-96.367
-93.266
-90.332
-87.593
-85.073
-82.795
-80.781
-79.051
-77.624
-76.514
-75.735
-75.297
-75.207
-75.471
-76.092
-77.071
-78.406
-80.093
-82.124
-84.492
-87.185
-90.19
-93.492
-97.075
-100.921
-105.01
-109.321
-113.832
-118.52
-123.362
-128.333
-133.409
-138.565
-143.776
-149.017
-154.264
-159.493
-164.68
-169.803
-174.839
-179.766
-184.565
-189.218
-193.706
-198.014
-202.127
-206.03
-209.714
-213.166
-216.378
-219.342
-222.053
-224.504
-226.694
-228.62
-230.282
-231.682
-232.82
-233.7
-234.326
-234.704
-234.839
-234.737
-234.405
-233.85
-233.08
-232.104
-230.928
-229.561
-228.01
-226.283
-224.387
-222.33
-220.117
-217.753
-215.245
-212.595
-209.81
-206.893
-203.848
-200.678
-197.385
-193.972
-190.441
-186.794
-183.031
-179.154
-175.162
-171.057
-166.838
-162.507
-158.065
-153.511
-148.847
-144.074
-139.195
-134.214
-129.131
-123.952
-118.681
-113.324
-107.888
-102.381
-96.813
-91.194
-85.537
-79.858
-74.173
-68.5
-62.857
-57.262
-51.734
-46.296
-40.964
-35.756
-30.687
-25.774
-21.036
-16.494
-12.166
-8.071
-4.227
-0.649
2.646
5.643
8.332
10.712
12.779
14.528
15.947
17.015
17.717
18.048
18.005
17.591
16.819
15.707
14.289
12.619
10.75
8.725
6.582
4.341
2.034
-0.291
-2.579
-4.767
-6.801
-8.646
-10.262
-11.613
-12.716
-13.606
-14.355
-15.084
-15.861
-16.748
-17.836
-19.185
-20.882
-23.045
-25.727
-29.022
-33.108
-37.993
-43.589
-49.687
-55.73
-61.164
-65.623
-68.523
-69.246
-67.708
-64.041
-58.88
-53.735
-49.756
-47.57
-48.098
-52.009
-58.914
-67.898
-76.909
-82.252
-80.939
-70.812
-49.059
-13.193
37.91
104.466
183.375
267.643
351.333
430.542
505.22
577.838
647.785
708.682
744.527
738.934
681.363
569.62
420.757
258.407
106.999
-8.493
-80.993
-113.954
-117.831
-112.323
-107.082
-104.138
-102.255
-94.148
-78.747
-60.273
-42.27
-29.038
-22.027
-19.678
-20.56
-23.25
-25.998
-27.371
-26.612
-23.468
-18.301
-11.879
-4.817
2.424
9.228
14.963
19.276
22.038
23.37
23.591
22.948
21.625
19.814
17.709
15.477
13.295
11.326
9.659
8.357
7.471
7.014
7.011
7.477
8.388
9.689
11.319
13.22
15.339
17.645
20.087
22.603
25.126
27.579
29.913
32.097
34.111
35.943
37.582
39.026
40.287
41.395
42.372
43.237
44.002
44.676
45.276
45.824
46.339
46.841
47.344
47.862
48.407
48.992
49.627
50.319
51.072
51.889
52.772
53.728
54.762
55.879
57.081
58.372
59.753
61.228
62.795
64.451
66.194
68.018
69.917
71.884
73.911
75.989
78.106
80.252
82.415
84.582
86.741
88.876
90.974
93.021
95.002
96.903
98.711
100.412
101.993
103.441
104.746
105.897
106.883
107.697
108.33
108.775
109.028
109.084
108.94
108.595
108.048
107.302
106.359
105.225
103.906
102.409
100.744
98.921
96.951
94.849
92.627
90.3
87.884
85.395
82.85
80.265
77.658
75.045
72.445
69.873
67.345
64.879
62.488
60.187
57.99
55.908
53.953
52.134
50.461
48.94
47.577
46.378
45.343
44.476
43.775
43.239
42.864
42.646
42.578
42.652
42.859
43.189
43.631
44.173
44.801
45.503
46.264
47.07
47.907
48.761
49.616
50.46
51.278
52.057
52.786
53.454
54.051
54.567
54.995
55.331
55.57
55.709
55.746
55.681
55.516
55.254
54.901
54.463
53.947
53.362
52.72
52.033
51.314
50.576
49.833
49.1
48.393
47.728
47.118
46.581
46.128
45.776
45.539
45.428
45.457
45.634
45.967
46.464
47.13
47.966
48.971
50.142
51.475
52.964
54.599
56.372
58.269
60.278
62.385
64.575
66.831
69.134
71.459
73.786
76.09
78.349
80.537
82.626
84.588
86.398
88.038
89.489
90.729
91.73
92.458
92.89
93.016
92.828
92.318
91.486
90.333
88.879
87.172
85.26
83.186
80.98
78.659
76.25
73.801
71.362
68.991
66.716
64.532
62.443
60.468
58.602
56.818
55.042
53.126
50.938
48.379
45.366
41.847
37.772
33.062
27.636
21.449
14.509
6.895
-1.304
-10.053
-19.338
-29.012
-38.724
-47.952
-56.13
-62.79
-67.558
-70.099
-69.995
-67
-61.349
-53.495
-44.065
-34.011
-24.243
-15.227
-7.435
0.246
10.842
26.374
47.739
72.438
95.655
115.515
134.056
160.857
206.89
277.405
372.889
480.843
581.83
659.633
697.351
686.402
630.432
533.801
404.651
258.246
106.643
-33.082
-138.174
-199.647
-216.734
-199.376
-170.83
-145.307
-128.466
-119.924
-111.323
-99.757
-87.21
-76.055
-70.19
-70.34
-74.383
-80.487
-86.461
-90.584
-92.411
-91.869
-89.226
-85.182
-80.406
-75.442
-70.891
-67.307
-64.931
-63.81
-63.83
-64.702
-66.192
-68.125
-70.299
-72.533
-74.675
-76.558
-78.067
-79.159
-79.792
-79.946
-79.624
-78.81
-77.518
-75.796
-73.696
-71.275
-68.583
-65.656
-62.537
-59.281
-55.952
-52.627
-49.362
-46.195
-43.151
-40.251
-37.505
-34.924
-32.504
-30.226
-28.07
-26.024
-24.078
-22.226
-20.462
-18.77
-17.133
-15.536
-13.967
-12.415
-10.872
-9.328
-7.775
-6.207
-4.623
-3.025
-1.41
0.224
1.88
3.56
5.266
7
8.762
10.554
12.376
14.225
16.099
17.991
19.898
21.814
23.733
25.647
27.548
29.428
31.277
33.087
34.849
36.553
38.187
39.741
41.206
42.572
43.828
44.966
45.977
46.852
47.585
48.168
48.595
48.863
48.964
48.897
48.658
48.244
47.654
46.887
45.943
44.824
43.532
42.07
40.443
38.657
36.719
34.636
32.417
30.073
27.612
25.048
22.391
19.655
16.852
13.998
11.105
8.189
5.265
2.346
-0.553
-3.417
-6.233
-8.987
-11.665
-14.254
-16.743
-19.119
-21.369
-23.485
-25.454
-27.268
-28.917
-30.393
-31.688
-32.798
-33.717
-34.44
-34.966
-35.293
-35.421
-35.351
-35.086
-34.63
-33.988
-33.165
-32.17
-31.011
-29.697
-28.239
-26.647
-24.932
-23.107
-21.184
-19.175
-17.094
-14.953
-12.765
-10.543
-8.3
-6.048
-3.8
-1.567
0.639
2.807
4.926
6.987
8.98
10.898
12.733
14.478
16.129
17.681
19.131
20.479
21.723
22.865
23.905
24.847
25.696
26.454
27.128
27.721
28.241
28.692
29.083
29.419
29.705
29.948
30.153
30.327
30.473
30.596
30.694
30.768
30.82
30.848
30.852
30.828
30.774
30.69
30.576
30.433
30.259
30.048
29.795
29.492
29.134
28.712
28.215
27.633
26.958
26.185
25.315
24.346
23.269
22.073
20.74
19.257
17.618
15.817
13.854
11.736
9.479
7.115
4.688
2.236
-0.213
-2.633
-5.01
-7.32
-9.527
-11.605
-13.52
-15.24
-16.746
-18.019
-19.058
-19.904
-20.624
-21.297
-22.027
-22.878
-23.907
-25.194
-26.803
-28.805
-31.29
-34.287
-37.845
-42.092
-47.033
-52.551
-58.408
-64.076
-69.004
-72.827
-75.048
-75.14
-73.029
-68.849
-63.125
-57.112
-51.858
-48.023
-46.512
-47.943
-51.994
-57.935
-64.149
-67.729
-66.152
-57.299
-38.692
-8.354
34.716
90.733
158.204
232.358
307.101
376.832
436.547
485.932
527.459
561.133
583.563
583.386
545.97
461.448
329.523
166.954
0.638
-140.461
-234.532
-278.505
-283.051
-267.148
-247.987
-231.429
-216.205
-196.912
-170.66
-140.567
-111.54
-88.539
-74.392
-69.421
-72.428
-81.34
-93.723
-106.847
-118.919
-129.192
-137.037
-141.939
-143.86
-143.051
-140.444
-137.63
-135.544
-134.475
-134.608
-135.951
-138.455
-142.082
-146.455
-150.873
-154.902
-158.344
-161.1
-163.237
-164.764
-165.624
-165.847
-165.529
-164.738
-163.541
-161.968
-159.999
-157.656
-154.989
-152.06
-148.952
-145.721
-142.394
-138.991
-135.522
-131.99
-128.405
-124.763
-121.052
-117.265
-113.392
-109.428
-105.376
-101.233
-96.988
-92.625
-88.124
-83.47
-78.655
-73.676
-68.527
-63.207
-57.714
-52.051
-46.226
-40.243
-34.108
-27.823
-21.392
-14.823
-8.123
-1.304
5.623
12.645
19.746
26.909
34.116
41.345
48.577
55.791
62.963
70.071
77.091
83.997
90.765
97.37
103.786
109.987
115.948
121.643
127.048
132.14
136.896
141.295
145.316
148.941
152.154
154.94
157.287
159.184
160.623
161.598
162.107
162.149
161.726
160.842
159.504
157.723
155.51
152.88
149.849
146.437
142.663
138.552
134.127
129.414
124.44
119.233
113.824
108.241
102.515
96.678
90.76
84.793
78.807
72.831
66.897
61.031
55.261
49.612
44.109
38.774
33.626
28.685
23.965
19.481
15.245
11.266
7.552
4.107
0.936
-1.962
-4.587
-6.942
-9.033
-10.866
-12.45
-13.795
-14.911
-15.812
-16.511
-17.022
-17.362
-17.544
-17.585
-17.502
-17.312
-17.03
-16.672
-16.254
-15.789
-15.292
-14.774
-14.246
-13.718
-13.196
-12.688
-12.197
-11.727
-11.281
-10.858
-10.457
-10.075
-9.708
-9.353
-9.002
-8.648
-8.282
-7.895
-7.479
-7.023
-6.517
-5.95
-5.311
-4.59
-3.778
-2.866
-1.844
-0.705
0.561
1.957
3.489
5.159
6.968
8.917
11
13.211
15.539
17.974
20.502
23.111
25.782
28.498
31.241
33.995
36.743
39.464
42.136
44.734
47.232
49.606
51.833
53.888
55.745
57.379
58.773
59.913
60.787
61.376
61.654
61.589
61.159
60.351
59.157
57.574
55.607
53.267
50.582
47.602
44.373
40.927
37.292
33.48
29.521
25.463
21.364
17.281
13.255
9.305
5.463
1.748
-1.861
-5.409
-8.981
-12.689
-16.593
-20.745
-25.209
-30.035
-35.299
-41.098
-47.481
-54.523
-62.332
-70.877
-80.038
-89.566
-98.973
-107.779
-115.647
-122.106
-126.632
-129.11
-129.674
-128.824
-127.597
-126.724
-126.43
-127.129
-129.309
-132.775
-136.839
-140.082
-140.137
-135.094
-123.82
-105.01
-77.07
-38.884
9.981
68.868
134.364
201.549
266.776
327.346
383.829
438.775
489.844
529.236
544.33
523.105
462.602
369.53
255.883
132.738
8.278
-110.205
-212.124
-284.911
-321.347
-323.436
-303.387
-276.071
-251.187
-231.417
-213.458
-194.849
-176.001
-158.867
-146.562
-139.802
-137.099
-136.745
-136.418
-134.311
-129.912
-123.144
-114.347
-104.293
-93.65
-82.986
-72.985
-64.253
-57.073
-51.508
-47.413
-44.484
-42.466
-41.178
-40.448
-40.102
-39.979
-39.904
-39.722
-39.359
-38.771
-37.927
-36.809
-35.394
-33.68
-31.711
-29.555
-27.276
-24.928
-22.548
-20.163
-17.816
-15.563
-13.464
-11.58
-9.949
-8.587
-7.504
-6.703
-6.181
-5.927
-5.909
-6.084
-6.418
-6.883
-7.454
-8.11
-8.822
-9.559
-10.292
-10.995
-11.645
-12.219
-12.698
-13.062
-13.298
-13.394
-13.344
-13.143
-12.785
-12.266
-11.581
-10.728
-9.706
-8.514
-7.155
-5.631
-3.947
-2.112
-0.134
1.974
4.202
6.535
8.959
11.456
14.012
16.606
19.223
21.842
24.444
27.009
29.517
31.949
34.285
36.506
38.595
40.533
42.305
43.897
45.294
46.484
47.458
48.206
48.721
48.997
49.031
48.819
48.362
47.659
46.714
45.53
44.114
42.474
40.619
38.56
36.31
33.882
31.292
28.556
25.691
22.716
19.65
16.513
13.326
10.11
6.885
3.674
0.497
-2.625
-5.671
-8.622
-11.459
-14.165
-16.723
-19.117
-21.334
-23.359
-25.183
-26.794
-28.184
-29.346
-30.273
-30.962
-31.411
-31.618
-31.585
-31.313
-30.807
-30.074
-29.12
-27.954
-26.588
-25.031
-23.298
-21.402
-19.36
-17.187
-14.9
-12.517
-10.056
-7.534
-4.971
-2.382
0.213
2.8
5.36
7.878
10.34
12.731
15.038
17.25
19.354
21.342
23.203
24.93
26.519
27.964
29.26
30.407
31.402
32.248
32.946
33.499
33.91
34.185
34.33
34.351
34.258
34.057
33.757
33.365
32.892
32.344
31.73
31.056
30.324
29.541
28.71
27.834
26.917
25.96
24.963
23.931
22.867
21.77
20.642
19.478
18.276
17.031
15.74
14.393
12.984
11.501
9.939
8.299
6.575
4.763
2.852
0.821
-1.338
-3.628
-6.053
-8.616
-11.317
-14.148
-17.081
-20.072
-23.081
-26.075
-29.035
-31.948
-34.789
-37.523
-40.109
-42.514
-44.728
-46.755
-48.583
-50.2
-51.612
-52.868
-54.075
-55.358
-56.82
-58.526
-60.505
-62.818
-65.554
-68.802
-72.66
-77.176
-82.322
-88.124
-94.656
-101.869
-109.609
-117.506
-124.925
-131.337
-136.346
-139.482
-140.415
-139.041
-135.444
-130.268
-124.564
-119.168
-114.878
-112.447
-112.044
-113.34
-115.481
-116.572
-114.317
-106.578
-91.005
-65.437
-28.675
19.527
78.195
144.585
215.162
285.991
352.042
407.703
447.773
467.739
465.693
443.106
401.714
342.648
264.576
164.997
46.838
-79.532
-196.042
-283.986
-333.929
-348.819
-342.619
-330.376
-320.639
-314.339
-306.438
-293.436
-275.932
-256.651
-239.702
-227.221
-218.661
-213.015
-209.136
-206.339
-204.635
-203.985
-203.95
-203.897
-203.634
-203.19
-202.575
-201.73
-200.286
-197.96
-194.988
-191.959
-189.237
-186.95
-185.099
-183.63
-182.685
-182.344
-182.379
-182.388
-182.045
-181.185
-179.796
-177.944
-175.617
-172.802
-169.557
-165.986
-162.208
-158.299
-154.286
-150.174
-145.986
-141.775
-137.611
-133.55
-129.621
-125.839
-122.21
-118.735
-115.414
-112.232
-109.163
-106.185
-103.281
-100.438
-97.649
-94.902
-92.184
-89.481
-86.775
-84.047
-81.283
-78.47
-75.6
-72.665
-69.662
-66.588
-63.445
-60.232
-56.949
-53.598
-50.179
-46.693
-43.144
-39.536
-35.874
-32.166
-28.422
-24.652
-20.868
-17.083
-13.309
-9.561
-5.853
-2.2
1.384
4.884
8.284
11.57
14.727
17.74
20.597
23.284
25.789
28.1
30.208
32.103
33.779
35.23
36.451
37.44
38.196
38.718
39.009
39.073
38.915
38.54
37.958
37.177
36.209
35.065
33.761
32.309
30.727
29.031
27.237
25.364
23.429
21.45
19.445
17.431
15.428
13.451
11.518
9.645
7.848
6.14
4.536
3.047
1.685
0.458
-0.626
-1.561
-2.341
-2.963
-3.426
-3.729
-3.873
-3.86
-3.695
-3.381
-2.927
-2.339
-1.625
-0.796
0.138
1.166
2.277
3.458
4.697
5.982
7.3
8.639
9.987
11.332
12.662
13.966
15.235
16.458
17.628
18.736
19.776
20.744
21.635
22.446
23.177
23.828
24.4
24.898
25.324
25.685
25.987
26.239
26.449
26.625
26.778
26.919
27.058
27.208
27.381
27.587
27.839
28.149
28.528
28.987
29.536
30.183
30.937
31.805
32.792
33.906
35.148
36.522
38.03
39.671
41.445
43.35
45.378
47.524
49.775
52.119
54.542
57.029
59.561
62.121
64.691
67.253
69.793
72.296
74.744
77.119
79.404
81.578
83.623
85.519
87.247
88.791
90.137
91.271
92.184
92.871
93.325
93.536
93.491
93.169
92.551
91.631
90.409
88.888
87.083
85.011
82.7
80.196
77.547
74.799
71.995
69.164
66.33
63.518
60.768
58.134
55.662
53.367
51.231
49.233
47.351
45.569
43.855
42.119
40.223
38.046
35.475
32.425
28.877
24.775
19.976
14.452
8.283
1.691
-4.862
-10.985
-16.524
-21.21
-24.661
-26.751
-27.433
-27.028
-26.513
-26.556
-27.382
-29.381
-32.797
-37.313
-42.486
-47.158
-49.013
-46.287
-37.784
-21.862
2.96
37.492
82.292
135.309
191.329
246.456
298.685
349.629
403.164
457.857
505.159
530.461
520.406
470.844
387.962
284.608
172.258
59.23
-47.446
-138.696
-203.221
-234.431
-234.488
-214.875
-189.704
-168.065
-151.837
-136.969
-120.317
-101.826
-83.317
-67.928
-56.496
-47.674
-40.021
-31.691
-21.312
-8.705
5.974
22.317
39.472
56.676
73.316
88.666
102.07
113.137
121.664
127.655
131.31
132.834
132.408
130.248
126.586
121.704
115.93
109.562
102.862
96.024
89.202
82.555
76.244
70.434
65.23
60.685
56.82
53.638
51.132
49.285
48.053
47.327
46.974
46.862
46.853
46.866
46.846
46.74
46.508
46.11
45.529
44.775
43.875
42.851
41.725
40.52
39.27
38.035
36.88
35.874
35.089
34.575
34.369
34.506
35.009
35.893
37.17
38.839
40.89
43.317
46.115
49.28
52.804
56.673
60.864
65.354
70.117
75.125
80.352
85.769
91.349
97.062
102.881
108.776
114.721
120.685
126.634
132.533
138.346
144.037
149.569
154.908
160.017
164.862
169.412
173.635
177.505
180.995
184.081
186.741
188.955
190.706
191.98
192.767
193.057
192.847
192.135
190.922
189.214
187.02
184.349
181.216
177.636
173.629
169.216
164.422
159.272
153.795
148.022
141.985
135.719
129.258
122.639
115.898
109.071
102.196
95.308
88.443
81.635
74.916
68.319
61.874
55.608
49.548
43.716
38.134
32.819
27.787
23.05
18.615
14.488
10.673
7.172
3.985
1.111
-1.458
-3.728
-5.706
-7.405
-8.841
-10.035
-11.013
-11.799
-12.419
-12.898
-13.262
-13.537
-13.749
-13.923
-14.076
-14.23
-14.406
-14.633
-14.949
-15.375
-15.923
-16.596
-17.386
-18.289
-19.305
-20.421
-21.614
-22.875
-24.197
-25.594
-27.104
-28.738
-30.494
-32.356
-34.278
-36.243
-38.257
-40.326
-42.472
-44.709
-47.04
-49.49
-52.11
-54.906
-57.86
-60.91
-63.941
-66.887
-69.718
-72.415
-75.002
-77.463
-79.743
-81.791
-83.538
-84.9
-85.816
-86.192
-85.906
-84.912
-83.196
-80.803
-77.848
-74.378
-70.407
-65.946
-60.962
-55.464
-49.519
-43.184
-36.551
-29.775
-22.99
-16.36
-10.069
-4.211
1.142
5.948
10.23
13.958
17.086
19.587
21.396
22.465
22.798
22.381
21.243
19.497
17.264
14.702
11.985
9.185
6.34
3.469
0.572
-2.266
-5.031
-7.899
-11.143
-15.044
-19.723
-25.008
-30.697
-36.935
-43.855
-51.254
-58.501
-64.597
-68.848
-71.438
-72.967
-73.61
-73.337
-72.385
-71.628
-72.854
-77.751
-86.712
-99.172
-114.6
-132.626
-152.817
-174.1
-193.995
-209.486
-218.411
-219.433
-211.596
-193.823
-164.905
-124.335
-72.779
-11.895
56.031
128.679
202.465
271.637
332.121
380.989
417.214
443.854
458.907
456.602
431.587
375.479
286.465
171.407
40.231
-89.85
-199.534
-276.442
-315.093
-320.795
-307.999
-288.934
-270.94
-255.024
-236.592
-214.06
-188.93
-163.834
-143.221
-128.926
-120.254
-117.1
-118.505
-122.66
-128.591
-135.421
-142.047
-148.43
-154.885
-160.544
-164.472
-166.661
-167.208
-166.379
-164.747
-162.059
-157.583
-151.786
-145.775
-140.127
-135.177
-130.927
-127.026
-123.74
-121.862
-121.435
-121.888
-122.818
-123.907
-125.126
-126.754
-128.728
-130.638
-132.321
-133.873
-135.413
-137.129
-139.1
-141.217
-143.429
-145.77
-148.231
-150.757
-153.273
-155.639
-157.7
-159.382
-160.657
-161.528
-162.05
-162.286
-162.265
-162.009
-161.548
-160.888
-160.038
-159.003
-157.756
-156.271
-154.547
-152.599
-150.472
-148.204
-145.799
-143.246
-140.52
-137.585
-134.419
-131.004
-127.311
-123.327
-119.047
-114.476
-109.638
-104.563
-99.27
-93.776
-88.094
-82.237
-76.225
-70.083
-63.836
-57.515
-51.151
-44.776
-38.426
-32.136
-25.935
-19.853
-13.913
-8.135
-2.542
2.844
8.005
12.918
17.565
21.927
25.984
29.721
33.122
36.175
38.869
41.197
43.152
44.731
45.931
46.754
47.201
47.276
46.986
46.339
45.346
44.019
42.373
40.425
38.193
35.697
32.959
30
26.844
23.513
20.032
16.425
12.716
8.93
5.091
1.223
-2.65
-6.506
-10.32
-14.072
-17.739
-21.303
-24.744
-28.045
-31.19
-34.163
-36.95
-39.541
-41.924
-44.09
-46.034
-47.749
-49.234
-50.488
-51.511
-52.307
-52.88
-53.235
-53.382
-53.327
-53.081
-52.655
-52.063
-51.316
-50.429
-49.416
-48.292
-47.073
-45.773
-44.407
-42.99
-41.534
-40.053
-38.561
-37.071
-35.594
-34.142
-32.725
-31.354
-30.037
-28.783
-27.598
-26.486
-25.452
-24.498
-23.624
-22.832
-22.12
-21.485
-20.924
-20.435
-20.011
-19.649
-19.341
-19.079
-18.857
-18.666
-18.499
-18.348
-18.205
-18.063
-17.918
-17.768
-17.613
-17.449
-17.277
-17.095
-16.903
-16.703
-16.493
-16.269
-16.026
-15.766
-15.491
-15.207
-14.919
-14.63
-14.347
-14.076
-13.825
-13.599
-13.401
-13.227
-13.08
-12.969
-12.907
-12.92
-13.026
-13.236
-13.556
-13.988
-14.523
-15.15
-15.842
-16.552
-17.245
-17.892
-18.466
-18.958
-19.341
-19.574
-19.627
-19.457
-19.027
-18.318
-17.317
-16.039
-14.536
-12.874
-11.132
-9.401
-7.759
-6.302
-5.137
-4.361
-4.088
-4.392
-5.36
-7.155
-9.813
-13.242
-17.205
-21.183
-24.629
-27.184
-28.382
-27.702
-25.129
-20.883
-15.577
-10.604
-7.051
-5.538
-6.9
-11.585
-18.957
-27.89
-36.322
-40.908
-38.951
-28.199
-5.99
29.469
78.562
140.665
213.425
292.68
374.293
453.635
525.095
583.471
624.206
643.717
640.066
613.097
563.997
495.666
412.536
319.789
223.356
129.222
43.309
-29.14
-84.977
-123.013
-143.42
-147.544
-137.807
-117.532
-91.575
-65.304
-42.226
-24.372
-12.898
-8.217
-10.507
-19.139
-31.719
-44.996
-56.9
-66.386
-73.064
-76.897
-77.478
-74.725
-69.644
-63.866
-58.557
-54.286
-51.163
-49.065
-48.175
-48.647
-50.222
-52.346
-54.508
-56.392
-57.854
-58.894
-59.431
-59.344
-58.595
-57.21
-55.245
-52.751
-49.758
-46.27
-42.301
-37.889
-33.076
-27.923
-22.499
-16.871
-11.114
-5.286
0.57
6.418
12.229
17.98
23.657
29.254
34.78
40.236
45.621
50.93
56.16
61.316
66.407
71.442
76.432
81.381
86.294
91.175
96.026
100.846
105.634
110.384
115.09
119.747
124.344
128.881
133.362
137.792
142.181
146.529
150.817
155.034
159.174
163.225
167.176
171.006
174.682
178.187
181.527
184.71
187.75
190.642
193.358
195.874
198.167
200.241
202.119
203.808
205.288
206.55
207.603
208.485
209.261
209.95
210.508
210.897
211.083
211.074
210.901
210.569
210.05
209.283
208.208
206.805
205.098
203.098
200.773
198.055
194.852
191.14
186.979
182.422
177.487
172.138
166.349
160.157
153.67
147.046
140.398
133.792
127.258
120.836
114.617
108.725
103.28
98.339
93.898
89.973
86.627
83.984
82.114
81.011
80.582
80.681
81.218
82.15
83.438
85.034
86.856
88.808
90.815
92.852
94.896
96.903
98.782
100.395
101.655
102.538
103.068
103.312
103.293
103.005
102.45
101.639
100.586
99.306
97.784
95.977
93.862
91.435
88.718
85.757
82.574
79.162
75.503
71.566
67.333
62.806
57.974
52.828
47.366
41.597
35.547
29.261
22.77
16.1
9.276
2.315
-4.757
-11.907
-19.103
-26.31
-33.494
-40.619
-47.65
-54.546
-61.273
-67.802
-74.107
-80.168
-85.967
-91.486
-96.714
-101.641
-106.256
-110.553
-114.526
-118.173
-121.489
-124.476
-127.132
-129.459
-131.464
-133.159
-134.556
-135.67
-136.513
-137.1
-137.448
-137.576
-137.502
-137.239
-136.799
-136.199
-135.462
-134.621
-133.716
-132.78
-131.835
-130.898
-129.987
-129.113
-128.281
-127.476
-126.662
-125.806
-124.883
-123.876
-122.772
-121.544
-120.152
-118.548
-116.685
-114.529
-112.072
-109.315
-106.266
-102.961
-99.447
-95.8
-92.153
-88.645
-85.423
-82.625
-80.368
-78.76
-77.953
-78.155
-79.457
-81.803
-84.981
-88.591
-92.271
-95.775
-98.768
-100.719
-101.292
-100.51
-98.791
-97.082
-96.236
-96.563
-98.345
-102.044
-107.705
-114.696
-121.582
-125.886
-125.064
-117.347
-100.961
-73.874
-34.583
17.46
81.423
154.771
234.118
316.037
396.228
469.29
529.609
572.035
592.703
589.469
561.651
509.78
436.334
345.946
244.705
139.336
36.3
-58.584
-140.494
-205.789
-252.619
-281.263
-293.613
-292.411
-280.923
-262.666
-240.842
-218.458
-197.773
-179.782
-164.932
-153.588
-145.582
-140.548
-138.33
-138.284
-139.808
-142.842
-146.959
-151.32
-155.506
-159.056
-161.316
-162.214
-161.81
-160.026
-157.299
-154.347
-151.531
-149.193
-147.703
-147.062
-147.188
-147.979
-149.065
-150.011
-150.593
-150.676
-150.175
-149.134
-147.588
-145.576
-143.215
-140.627
-137.886
-135.037
-132.099
-129.082
-126.031
-123.018
-120.096
-117.301
-114.656
-112.165
-109.832
-107.66
-105.636
-103.728
-101.912
-100.166
-98.476
-96.832
-95.223
-93.627
-92.021
-90.379
-88.678
-86.893
-85.004
-82.99
-80.834
-78.523
-76.05
-73.409
-70.593
-67.596
-64.411
-61.035
-57.463
-53.696
-49.734
-45.578
-41.236
-36.715
-32.026
-27.18
-22.191
-17.072
-11.84
-6.512
-1.106
4.36
9.864
15.387
20.905
26.397
31.838
37.205
42.473
47.619
52.62
57.451
62.091
66.518
70.713
74.656
78.331
81.724
84.821
87.612
90.088
92.244
94.075
95.579
96.756
97.61
98.145
98.367
98.285
97.91
97.251
96.324
95.142
93.72
92.075
90.224
88.186
85.978
83.621
81.135
78.539
75.855
73.103
70.304
67.478
64.645
61.824
59.033
56.289
53.606
50.999
48.48
46.061
43.749
41.553
39.477
37.526
35.702
34.004
32.432
30.982
29.651
28.433
27.321
26.307
25.384
24.542
23.771
23.062
22.403
21.786
21.198
20.629
20.067
19.501
18.922
18.317
17.678
16.995
16.26
15.464
14.603
13.672
12.666
11.584
10.423
9.185
7.871
6.483
5.028
3.509
1.935
0.315
-1.34
-3.019
-4.71
-6.398
-8.071
-9.713
-11.31
-12.848
-14.315
-15.696
-16.978
-18.147
-19.189
-20.094
-20.85
-21.447
-21.876
-22.129
-22.201
-22.089
-21.795
-21.32
-20.667
-19.836
-18.831
-17.662
-16.339
-14.871
-13.266
-11.535
-9.69
-7.751
-5.74
-3.676
-1.576
0.547
2.673
4.779
6.843
8.841
10.761
12.596
14.33
15.945
17.408
18.694
19.79
20.695
21.406
21.907
22.197
22.3
22.253
22.096
21.86
21.525
21.061
20.503
19.794
18.791
17.453
15.718
13.558
11.17
8.671
5.907
3.058
0.68
-1.256
-3.008
-4.664
-7.331
-10.643
-11.516
-10.296
-9.693
-13.768
-31.851
-65.099
-102.792
-133.063
-139.566
-115.033
-72.439
-27.771
2.315
5.618
-11.562
-37.331
-62.864
-79.981
-90.313
-101.278
-115.825
-135.086
-156.61
-174.044
-183.222
-182.187
-169.687
-145.009
-107.316
-56.205
7.406
79.313
152.834
222.447
284.591
339.801
390.794
436.773
472.095
484.237
460.386
393.765
283.462
141.457
-13.46
-161.912
-281.186
-357.117
-386.894
-373.853
-330.283
-271.6
-208.583
-150.436
-105.946
-77.75
-66.404
-71.698
-85.586
-102.879
-122.072
-137.388
-149.835
-159.213
-160.875
-158.322
-152.707
-145.313
-141.598
-140.266
-139.794
-140.097
-139.095
-137.832
-137.89
-139.07
-141.297
-143.849
-145.86
-147.279
-148.24
-148.772
-148.851
-148.401
-147.383
-145.832
-143.832
-141.415
-138.556
-135.244
-131.484
-127.313
-122.795
-118.012
-113.031
-107.899
-102.646
-97.295
-91.866
-86.383
-80.866
-75.324
-69.76
-64.179
-58.594
-53.019
-47.47
-41.952
-36.465
-31.005
-25.568
-20.155
-14.771
-9.421
-4.112
1.149
6.353
11.488
16.544
21.51
26.38
31.148
35.81
40.361
44.798
49.115
53.308
57.372
61.302
65.094
68.74
72.237
75.58
78.765
81.787
84.644
87.333
89.851
92.195
94.363
96.353
98.164
99.793
101.24
102.504
103.586
104.486
105.205
105.746
106.111
106.303
106.323
106.176
105.865
105.393
104.765
103.985
103.057
101.987
100.78
99.442
97.98
96.402
94.714
92.923
91.039
89.067
87.018
84.897
82.714
80.475
78.189
75.864
73.505
71.122
68.719
66.304
63.883
61.46
59.042
56.632
54.234
51.853
49.492
47.154
44.841
42.556
40.301
38.076
35.885
33.726
31.601
29.509
27.45
25.422
23.425
21.457
19.516
17.6
15.707
13.835
11.981
10.144
8.322
6.512
4.712
2.922
1.139
-0.636
-2.406
-4.171
-5.93
-7.684
-9.431
-11.17
-12.898
-14.615
-16.316
-17.999
-19.661
-21.297
-22.904
-24.477
-26.012
-27.504
-28.946
-30.334
-31.66
-32.921
-34.108
-35.217
-36.24
-37.173
-38.009
-38.745
-39.376
-39.898
-40.305
-40.596
-40.768
-40.819
-40.747
-40.554
-40.239
-39.805
-39.256
-38.597
-37.835
-36.979
-36.037
-35.022
-33.944
-32.816
-31.653
-30.467
-29.274
-28.088
-26.924
-25.797
-24.723
-23.72
-22.806
-21.999
-21.315
-20.77
-20.381
-20.165
-20.14
-20.319
-20.713
-21.329
-22.177
-23.269
-24.624
-26.251
-28.151
-30.315
-32.734
-35.396
-38.283
-41.366
-44.594
-47.914
-51.277
-54.643
-57.987
-61.282
-64.486
-67.549
-70.41
-73.026
-75.383
-77.481
-79.312
-80.868
-82.161
-83.243
-84.226
-85.24
-86.37
-87.679
-89.191
-90.918
-92.917
-95.261
-98.005
-101.197
-104.83
-108.836
-113.23
-118.057
-123.197
-128.396
-133.146
-136.717
-138.571
-138.293
-135.388
-129.5
-120.529
-108.63
-94.675
-79.985
-65.599
-52.579
-41.865
-33.69
-27.83
-23.394
-18.099
-9.274
5.404
28.869
63.872
111.603
172.593
244.883
322.783
402.222
480.212
554.042
623.74
683.46
722.174
729.982
698.093
628.458
532.066
420.992
306.7
194.603
89.013
-4.835
-80.564
-130.927
-157.017
-162.704
-153.7
-138.322
-118.282
-95.629
-74.102
-54.66
-40.03
-32.006
-29.591
-31.802
-37.144
-43.339
-48.533
-51.827
-52.877
-51.876
-49.495
-46.321
-42.823
-39.709
-37.697
-37.098
-37.985
-40.21
-43.396
-47.273
-51.66
-56.294
-60.929
-65.348
-69.314
-72.697
-75.461
-77.56
-78.971
-79.686
-79.676
-78.961
-77.61
-75.688
-73.269
-70.419
-67.179
-63.61
-59.783
-55.782
-51.708
-47.636
-43.613
-39.676
-35.856
-32.179
-28.678
-25.364
-22.219
-19.218
-16.339
-13.572
-10.921
-8.397
-5.999
-3.707
-1.495
0.688
2.908
5.205
7.597
10.082
12.638
15.251
17.943
20.634
23.098
25.184
26.913
28.525
30.438
32.89
35.688
38.675
42.207
46.468
51.104
55.278
57.369
57.183
57.167
59.142
62.527
62.605
50.908
23.256
-14.976
-49.202
-60.15
-35.593
21.063
91.488
150.013
176.637
166.807
131.981
91.973
63.174
51.626
52.822
57.335
59.042
57.002
53.666
52.322
53.518
55.882
58.355
60.27
61.658
62.782
63.383
63.214
62.452
61.488
60.626
59.952
59.352
58.66
57.876
57.085
56.316
55.536
54.694
53.764
52.771
51.773
50.813
49.903
49.043
48.222
47.436
46.692
45.996
45.356
44.773
44.24
43.747
43.283
42.84
42.412
41.988
41.557
41.103
40.615
40.088
39.519
38.905
38.239
37.513
36.72
35.851
34.903
33.869
32.745
31.524
30.204
28.782
27.259
25.635
23.912
22.094
20.185
18.191
16.119
13.978
11.775
9.523
7.231
4.912
2.578
0.243
-2.08
-4.377
-6.632
-8.832
-10.963
-13.011
-14.964
-16.808
-18.531
-20.122
-21.57
-22.865
-23.997
-24.959
-25.741
-26.338
-26.745
-26.96
-26.983
-26.813
-26.455
-25.914
-25.2
-24.326
-23.303
-22.147
-20.872
-19.497
-18.04
-16.521
-14.956
-13.363
-11.759
-10.166
-8.608
-7.105
-5.68
-4.354
-3.15
-2.091
-1.197
-0.484
0.04
0.363
0.475
0.357
-0.013
-0.651
-1.564
-2.761
-4.244
-6.008
-8.039
-10.299
-12.738
-15.307
-17.964
-20.68
-23.429
-26.178
-28.885
-31.51
-34.009
-36.355
-38.524
-40.483
-42.204
-43.701
-45.026
-46.272
-47.558
-48.969
-50.555
-52.378
-54.507
-57.017
-59.986
-63.471
-67.467
-72.003
-77.183
-83.009
-89.366
-95.938
-102.13
-107.35
-111.164
-113.078
-112.57
-109.46
-103.828
-96.272
-88.116
-80.539
-74.378
-70.541
-69.626
-71.413
-75.126
-78.984
-80.062
-75.479
-62.571
-38.534
-0.885
50.319
112.683
183.192
257.103
333.371
414.857
498.422
577.51
638.671
662.395
641.972
579.38
484.865
374.703
253.002
122.88
-10.247
-137.911
-239.41
-299.618
-314.191
-288.268
-238.528
-181.76
-130.869
-93.232
-71.47
-63.494
-62.41
-64.064
-65.216
-65.086
-67.917
-74.772
-84.705
-96.612
-107.269
-114.835
-118.945
-119.52
-117.325
-113.578
-109.606
-106.25
-103.882
-102.694
-102.717
-103.965
-106.402
-109.668
-113.114
-116.285
-118.937
-120.942
-122.324
-123.071
-123.113
-122.465
-121.209
-119.417
-117.15
-114.447
-111.302
-107.728
-103.781
-99.521
-95.028
-90.388
-85.654
-80.869
-76.066
-71.269
-66.502
-61.786
-57.131
-52.535
-47.999
-43.526
-39.123
-34.802
-30.562
-26.401
-22.305
-18.265
-14.277
-10.339
-6.454
-2.619
1.166
4.9
8.582
12.206
15.771
19.279
22.733
26.138
29.496
32.809
36.078
39.306
42.495
45.644
48.754
51.822
54.848
57.829
60.764
63.65
66.484
69.26
71.974
74.622
77.198
79.697
82.11
84.433
86.658
88.779
90.789
92.68
94.446
96.079
97.572
98.918
100.109
101.138
101.999
102.685
103.19
103.509
103.638
103.574
103.313
102.855
102.199
101.346
100.297
99.056
97.625
96.011
94.219
92.256
90.129
87.846
85.417
82.849
80.154
77.342
74.422
71.406
68.305
65.13
61.893
58.606
55.28
51.928
48.56
45.189
41.826
38.48
35.163
31.884
28.652
25.474
22.358
19.309
16.334
13.435
10.617
7.881
5.228
2.657
0.169
-2.239
-4.569
-6.825
-9.01
-11.128
-13.184
-15.183
-17.128
-19.027
-20.885
-22.707
-24.5
-26.269
-28.021
-29.761
-31.495
-33.228
-34.965
-36.709
-38.464
-40.233
-42.02
-43.825
-45.65
-47.493
-49.356
-51.235
-53.128
-55.032
-56.942
-58.852
-60.756
-62.649
-64.524
-66.373
-68.189
-69.964
-71.693
-73.367
-74.981
-76.527
-78
-79.393
-80.702
-81.922
-83.05
-84.082
-85.015
-85.85
-86.587
-87.231
-87.784
-88.25
-88.633
-88.939
-89.175
-89.349
-89.466
-89.53
-89.549
-89.532
-89.493
-89.441
-89.387
-89.345
-89.324
-89.338
-89.4
-89.516
-89.687
-89.918
-90.211
-90.58
-91.04
-91.598
-92.257
-93.017
-93.876
-94.827
-95.855
-96.93
-98.005
-99.043
-100.011
-100.89
-101.666
-102.31
-102.786
-103.054
-103.071
-102.815
-102.273
-101.417
-100.227
-98.717
-96.935
-94.97
-92.929
-90.879
-88.851
-86.888
-85.048
-83.41
-82.059
-81.072
-80.468
-80.289
-80.662
-81.59
-82.953
-84.476
-85.615
-85.843
-84.831
-82.138
-77.238
-70.059
-60.79
-49.966
-38.857
-28.448
-19.285
-12.334
-8.39
-7.17
-7.848
-8.856
-7.421
-1.103
12.228
35.651
72.087
121.317
180.57
246.897
315.974
388.135
468.478
554.732
639.662
708.71
739.169
719.958
652.62
549.458
433.994
323.119
224.436
139.62
64.468
-1.369
-54.503
-92.025
-111.484
-114.173
-104.126
-85.361
-62.224
-38.697
-17.894
-1.891
8.536
13.69
14.508
12.108
7.75
2.936
-0.896
-2.991
-3.256
-1.988
0.238
2.918
5.634
7.843
9.019
8.92
7.552
5.099
1.869
-1.893
-5.991
-10.214
-14.35
-18.201
-21.627
-24.563
-26.999
-28.938
-30.384
-31.332
-31.787
-31.789
-31.392
-30.659
-29.648
-28.409
-26.997
-25.475
-23.914
-22.389
-20.959
-19.658
-18.509
-17.526
-16.716
-16.087
-15.638
-15.353
-15.214
-15.208
-15.323
-15.551
-15.881
-16.294
-16.769
-17.287
-17.829
-18.382
-18.933
-19.466
-19.97
-20.432
-20.844
-21.201
-21.494
-21.712
-21.847
-21.887
-21.825
-21.653
-21.364
-20.951
-20.409
-19.735
-18.929
-17.99
-16.921
-15.723
-14.4
-12.956
-11.397
-9.731
-7.965
-6.108
-4.169
-2.16
-0.093
2.021
4.167
6.334
8.507
10.672
12.817
14.927
16.99
18.994
20.926
22.776
24.532
26.184
27.723
29.141
30.43
31.584
32.598
33.467
34.189
34.763
35.187
35.464
35.594
35.581
35.428
35.141
34.725
34.188
33.535
32.777
31.92
30.976
29.953
28.861
27.711
26.513
25.276
24.011
22.726
21.43
20.132
18.84
17.559
16.297
15.059
13.849
12.671
11.527
10.422
9.354
8.324
7.333
6.378
5.456
4.566
3.702
2.859
2.034
1.219
0.408
-0.404
-1.227
-2.065
-2.928
-3.822
-4.754
-5.731
-6.761
-7.85
-9.003
-10.224
-11.519
-12.889
-14.337
-15.863
-17.466
-19.144
-20.894
-22.712
-24.593
-26.53
-28.515
-30.539
-32.593
-34.667
-36.748
-38.824
-40.881
-42.906
-44.883
-46.799
-48.637
-50.384
-52.023
-53.541
-54.922
-56.154
-57.223
-58.116
-58.821
-59.327
-59.626
-59.71
-59.572
-59.207
-58.613
-57.792
-56.748
-55.486
-54.015
-52.342
-50.48
-48.442
-46.242
-43.895
-41.411
-38.805
-36.095
-33.301
-30.446
-27.55
-24.635
-21.722
-18.837
-16.004
-13.245
-10.58
-8.02
-5.582
-3.29
-1.169
0.746
2.431
3.867
5.039
5.938
6.559
6.907
6.999
6.874
6.564
6.096
5.495
4.773
3.958
3.087
2.195
1.327
0.517
-0.211
-0.845
-1.388
-1.874
-2.351
-2.882
-3.55
-4.44
-5.646
-7.27
-9.395
-12.107
-15.461
-19.53
-24.448
-30.25
-36.854
-44.039
-51.369
-58.407
-64.851
-70.307
-74.236
-76.347
-76.593
-75.321
-73.541
-72.162
-71.703
-72.756
-75.888
-81.248
-88.475
-96.308
-102.227
-103.652
-98.488
-84.452
-59.342
-21.394
30.625
95.03
166.922
241.629
314.01
382.784
451.147
516.595
575.174
617.401
624.411
587.686
503.762
374.588
221.359
63.862
-77.963
-180.445
-238.988
-257.627
-246.415
-225.52
-205.014
-187.392
-172.176
-153.7
-131.504
-108.951
-88.776
-74.194
-65.651
-61.221
-59.229
-57.662
-54.689
-49.692
-42.576
-33.564
-23.347
-12.613
-1.904
8.092
16.666
23.495
28.506
31.802
33.7
34.453
34.239
33.315
31.93
30.303
28.667
27.159
25.83
24.741
23.929
23.412
23.224
23.356
23.754
24.376
25.173
26.1
27.133
28.223
29.313
30.34
31.229
31.933
32.43
32.706
32.759
32.594
32.217
31.653
30.942
30.118
29.211
28.244
27.235
26.208
25.191
24.214
23.303
22.482
21.768
21.177
20.727
20.429
20.294
20.325
20.523
20.892
21.435
22.156
23.057
24.139
25.402
26.843
28.459
30.246
32.195
34.297
36.539
38.909
41.392
43.975
46.641
49.372
52.152
54.962
57.784
60.598
63.384
66.123
68.794
71.377
73.852
76.201
78.403
80.441
82.298
83.957
85.405
86.626
87.609
88.342
88.816
89.021
88.951
88.601
87.966
87.047
85.842
84.356
82.591
80.556
78.258
75.706
72.913
69.892
66.657
63.224
59.611
55.835
51.916
47.876
43.735
39.517
35.243
30.937
26.623
22.324
18.061
13.859
9.738
5.721
1.826
-1.924
-5.513
-8.923
-12.136
-15.138
-17.915
-20.455
-22.747
-24.784
-26.557
-28.062
-29.297
-30.259
-30.949
-31.369
-31.523
-31.416
-31.054
-30.448
-29.606
-28.541
-27.265
-25.792
-24.14
-22.322
-20.356
-18.259
-16.048
-13.741
-11.354
-8.903
-6.406
-3.879
-1.337
1.205
3.731
6.228
8.682
11.082
13.417
15.677
17.854
19.941
21.934
23.827
25.617
27.304
28.885
30.361
31.734
33.004
34.175
35.25
36.236
37.139
37.965
38.721
39.412
40.047
40.632
41.173
41.673
42.133
42.555
42.942
43.297
43.618
43.908
44.167
44.398
44.606
44.794
44.962
45.106
45.224
45.312
45.368
45.386
45.359
45.283
45.153
44.969
44.733
44.443
44.093
43.671
43.159
42.545
41.825
40.997
40.064
39.036
37.929
36.774
35.617
34.489
33.426
32.458
31.601
30.889
30.351
30.007
29.894
30.035
30.439
31.108
32.011
33.092
34.3
35.563
36.793
37.911
38.794
39.33
39.43
38.986
37.955
36.283
33.84
30.624
26.759
22.465
18.151
14.221
10.846
8.331
7.146
7.413
9.099
11.879
14.937
17.738
20.197
22.021
22.748
22.471
21.649
21.347
23.428
29.405
40.227
56.974
81.332
114.643
157.151
208.316
265.246
323.193
379.807
433.544
482.864
528.742
566.386
585.991
580.569
543.383
476.17
389.366
289.43
182.365
72.978
-34.938
-128.247
-192.943
-222.874
-219.618
-196.874
-170.831
-150.046
-136.973
-128.143
-119.578
-111.016
-104.135
-101.148
-102.413
-106.537
-111.45
-114.941
-116.104
-114.933
-111.662
-106.881
-101.229
-95.227
-89.556
-84.927
-81.668
-79.876
-79.482
-80.237
-81.928
-84.394
-87.447
-90.885
-94.547
-98.26
-101.843
-105.201
-108.265
-110.976
-113.312
-115.241
-116.739
-117.829
-118.563
-118.993
-119.167
-119.123
-118.878
-118.469
-117.948
-117.373
-116.81
-116.303
-115.871
-115.529
-115.284
-115.137
-115.084
-115.105
-115.16
-115.22
-115.26
-115.262
-115.212
-115.092
-114.877
-114.545
-114.076
-113.456
-112.672
-111.713
-110.569
-109.233
-107.703
-105.979
-104.066
-101.969
-99.688
-97.229
-94.595
-91.793
-88.83
-85.716
-82.459
-79.071
-75.565
-71.956
-68.261
-64.497
-60.682
-56.833
-52.971
-49.116
-45.287
-41.505
-37.79
-34.162
-30.642
-27.25
-24.004
-20.923
-18.023
-15.321
-12.833
-10.572
-8.552
-6.782
-5.274
-4.035
-3.072
-2.39
-1.993
-1.884
-2.062
-2.527
-3.277
-4.307
-5.612
-7.183
-9.014
-11.092
-13.408
-15.949
-18.701
-21.649
-24.779
-28.075
-31.52
-35.096
-38.788
-42.576
-46.444
-50.374
-54.348
-58.35
-62.363
-66.372
-70.36
-74.315
-78.223
-82.07
-85.844
-89.536
-93.134
-96.629
-100.015
-103.283
-106.428
-109.445
-112.33
-115.08
-117.694
-120.169
-122.507
-124.707
-126.77
-128.699
-130.497
-132.165
-133.708
-135.13
-136.436
-137.63
-138.717
-139.702
-140.59
-141.384
-142.089
-142.708
-143.245
-143.701
-144.078
-144.379
-144.605
-144.757
-144.835
-144.838
-144.766
-144.617
-144.39
-144.084
-143.694
-143.217
-142.652
-141.994
-141.242
-140.391
-139.44
-138.383
-137.22
-135.948
-134.567
-133.074
-131.468
-129.748
-127.917
-125.978
-123.932
-121.786
-119.544
-117.214
-114.809
-112.338
-109.816
-107.255
-104.67
-102.075
-99.487
-96.923
-94.398
-91.925
-89.522
-87.206
-84.997
-82.915
-80.979
-79.206
-77.616
-76.227
-75.06
-74.125
-73.431
-72.984
-72.793
-72.874
-73.245
-73.919
-74.897
-76.179
-77.764
-79.641
-81.795
-84.195
-86.79
-89.536
-92.395
-95.346
-98.371
-101.444
-104.526
-107.567
-110.52
-113.363
-116.08
-118.645
-121.028
-123.223
-125.267
-127.235
-129.226
-131.299
-133.47
-135.744
-138.161
-140.775
-143.652
-146.864
-150.412
-154.308
-158.635
-163.387
-168.463
-173.633
-178.402
-182.244
-184.821
-185.741
-184.589
-181.348
-176.147
-169.453
-162.383
-155.822
-150.292
-146.52
-145.015
-145.507
-147.361
-149.138
-148.338
-142.93
-131.248
-111.373
-81.694
-41.235
10.227
71.478
138.685
206.842
271.279
328.174
377.615
421.819
461.041
491.659
502.369
479.498
413.898
305.303
168.736
27.171
-95.833
-182.684
-230.679
-247.744
-247.921
-243.781
-239.889
-235.55
-226.385
-210.442
-190.466
-170.237
-153.829
-143.247
-137.875
-136.365
-137.23
-138.799
-139.509
-138.513
-135.505
-130.635
-124.498
-117.658
-110.546
-103.775
-98.03
-93.675
-90.851
-89.474
-89.236
-89.911
-91.338
-93.297
-95.572
-97.965
-100.262
-102.325
-104.099
-105.533
-106.596
-107.273
-107.534
-107.382
-106.861
-106.024
-104.927
-103.618
-102.13
-100.508
-98.807
-97.093
-95.44
-93.902
-92.506
-91.27
-90.203
-89.308
-88.585
-88.022
-87.585
-87.245
-86.977
-86.761
-86.583
-86.422
-86.253
-86.048
-85.782
-85.436
-84.991
-84.433
-83.746
-82.917
-81.936
-80.797
-79.497
-78.033
-76.399
-74.588
-72.597
-70.423
-68.066
-65.524
-62.797
-59.889
-56.805
-53.552
-50.139
-46.575
-42.871
-39.038
-35.091
-31.043
-26.909
-22.706
-18.449
-14.157
-9.847
-5.539
-1.249
3.002
7.199
11.322
15.355
19.281
23.083
26.747
30.258
33.601
36.764
39.735
42.503
45.059
47.393
49.498
51.369
52.999
54.385
55.525
56.418
57.062
57.46
57.613
57.524
57.197
56.639
55.856
54.853
53.641
52.226
50.619
48.829
46.867
44.742
42.467
40.052
37.509
34.85
32.085
29.227
26.288
23.279
20.211
17.095
13.942
10.763
7.568
4.368
1.173
-2.006
-5.159
-8.277
-11.349
-14.366
-17.318
-20.196
-22.991
-25.696
-28.302
-30.801
-33.186
-35.449
-37.584
-39.582
-41.437
-43.145
-44.698
-46.093
-47.324
-48.386
-49.277
-49.992
-50.528
-50.881
-51.048
-51.025
-50.81
-50.402
-49.799
-48.999
-48.005
-46.815
-45.434
-43.862
-42.103
-40.16
-38.037
-35.739
-33.271
-30.638
-27.847
-24.904
-21.819
-18.601
-15.259
-11.803
-8.245
-4.594
-0.863
2.939
6.797
10.701
14.639
18.597
22.561
26.515
30.442
34.325
38.149
41.898
45.555
49.106
52.539
55.844
59.012
62.038
64.912
67.626
70.174
72.545
74.733
76.731
78.532
80.136
81.541
82.752
83.779
84.63
85.314
85.832
86.184
86.37
86.396
86.272
86.012
85.644
85.2
84.719
84.254
83.853
83.559
83.414
83.445
83.676
84.124
84.809
85.764
87.018
88.589
90.487
92.693
95.166
97.872
100.754
103.734
106.748
109.704
112.503
115.081
117.372
119.335
120.957
122.171
122.884
123.138
123.071
122.954
123.227
124.212
126.143
129.392
134.259
140.767
148.728
157.558
166.299
174.248
180.905
185.676
188.391
189.473
189.753
190.697
194.227
202.103
215.956
237.405
267.511
306.462
353.604
407.498
464.893
520.973
571.277
612.095
643.699
669.516
690.868
704.931
701.134
666.544
592.909
480.541
344.515
206.841
89.914
10.907
-28.147
-36.326
-28.696
-19.318
-13.822
-10.698
-4.303
8.68
27.155
48.023
66.935
81.62
92.562
100.548
106.464
111.005
114.169
116.033
117.248
118.544
120.167
122.208
124.71
127.738
131.678
136.782
142.755
148.984
155.073
160.868
166.372
171.628
176.488
180.885
185.023
189.289
193.998
199.295
205.182
211.589
218.509
225.944
233.826
242.041
250.47
259.031
267.679
276.396
285.143
293.847
302.441
310.872
319.101
327.109
334.881
342.403
349.669
356.691
363.477
370.034
376.363
382.463
388.333
393.975
399.393
404.592
409.579
414.36
418.94
423.324
427.512
431.504
435.297
438.885
442.267
445.441
448.406
451.162
453.709
456.046
458.172
460.088
461.792
463.282
464.552
465.6
466.421
467.013
467.372
467.494
467.374
467.01
466.397
465.531
464.41
463.027
461.38
459.464
457.275
454.809
452.064
449.035
445.719
442.113
438.214
434.021
429.531
424.743
419.656
414.269
408.581
402.594
396.308
389.724
382.844
375.67
368.206
360.456
352.425
344.116
335.537
326.694
317.593
308.243
298.652
288.83
278.787
268.532
258.079
247.44
236.629
225.659
214.547
203.307
191.957
180.515
168.997
157.422
145.809
134.177
122.546
110.935
99.364
87.854
76.425
65.097
53.89
42.824
31.919
21.194
10.668
0.358
-9.718
-19.544
-29.103
-38.382
-47.365
-56.042
-64.399
-72.428
-80.119
-87.464
-94.46
-101.1
-107.383
-113.308
-118.876
-124.087
-128.945
-133.456
-137.623
-141.454
-144.955
-148.134
-151.003
-153.57
-155.846
-157.844
-159.575
-161.054
-162.292
-163.305
-164.106
-164.707
-165.124
-165.369
-165.457
-165.401
-165.215
-164.91
-164.501
-164
-163.421
-162.776
-162.074
-161.327
-160.545
-159.737
-158.913
-158.081
-157.248
-156.421
-155.61
-154.824
-154.075
-153.372
-152.723
-152.137
-151.625
-151.195
-150.855
-150.607
-150.455
-150.4
-150.447
-150.602
-150.871
-151.258
-151.767
-152.405
-153.178
-154.087
-155.136
-156.32
-157.631
-159.068
-160.628
-162.316
-164.142
-166.114
-168.231
-170.493
-172.892
-175.412
-178.032
-180.715
-183.411
-186.083
-188.687
-191.185
-193.557
-195.763
-197.78
-199.584
-201.132
-202.388
-203.332
-203.949
-204.261
-204.315
-204.153
-203.833
-203.439
-203.047
-202.777
-202.741
-203.024
-203.727
-204.886
-206.556
-208.883
-211.889
-215.474
-219.433
-223.314
-226.66
-229.224
-230.6
-230.269
-228.135
-224.237
-218.983
-213.481
-208.577
-204.79
-202.932
-203.573
-206.429
-210.851
-215.361
-217.332
-214.572
-205.062
-186.314
-156.455
-114.763
-61.408
1.986
72.081
145.249
217.227
282.624
336.13
373.018
389.427
382.925
353.051
300.906
229.195
142.515
46.924
-50.963
-144.661
-227.606
-295.909
-347.683
-380.408
-394.529
-389.677
-366.056
-331.693
-293.937
-261.247
-241.891
-232.754
-230.372
-231.439
-230.345
-229.043
-228.89
-228.613
-229.187
-229.085
-226.919
-223.533
-219.246
-214.594
-210.562
-207.635
-205.958
-205.647
-206.542
-208.29
-210.658
-213.457
-216.461
-219.476
-222.327
-224.852
-226.978
-228.704
-230.029
-230.956
-231.48
-231.6
-231.355
-230.803
-230.007
-229.027
-227.91
-226.707
-225.477
-224.284
-223.199
-222.275
-221.538
-221.008
-220.693
-220.594
-220.715
-221.048
-221.571
-222.259
-223.091
-224.046
-225.11
-226.263
-227.479
-228.729
-229.984
-231.221
-232.418
-233.554
-234.608
-235.56
-236.391
-237.088
-237.637
-238.024
-238.235
-238.253
-238.065
-237.657
-237.02
-236.143
-235.017
-233.637
-231.999
-230.103
-227.949
-225.54
-222.88
-219.975
-216.831
-213.46
-209.871
-206.078
-202.095
-197.937
-193.622
-189.17
-184.599
-179.932
-175.188
-170.392
-165.565
-160.73
-155.911
-151.13
-146.411
-141.775
-137.244
-132.841
-128.584
-124.494
-120.587
-116.881
-113.391
-110.131
-107.113
-104.347
-101.841
-99.602
-97.636
-95.947
-94.537
-93.406
-92.553
-91.976
-91.67
-91.63
-91.85
-92.321
-93.034
-93.979
-95.144
-96.518
-98.086
-99.837
-101.755
-103.826
-106.035
-108.367
-110.808
-113.342
-115.954
-118.63
-121.356
-124.118
-126.904
-129.701
-132.497
-135.281
-138.042
-140.771
-143.457
-146.094
-148.672
-151.184
-153.624
-155.986
-158.262
-160.45
-162.542
-164.536
-166.427
-168.211
-169.885
-171.445
-172.888
-174.211
-175.412
-176.488
-177.436
-178.256
-178.943
-179.496
-179.912
-180.188
-180.322
-180.309
-180.145
-179.827
-179.351
-178.713
-177.908
-176.933
-175.784
-174.457
-172.949
-171.255
-169.374
-167.301
-165.036
-162.576
-159.921
-157.07
-154.025
-150.787
-147.359
-143.747
-139.955
-135.989
-131.855
-127.563
-123.12
-118.538
-113.826
-108.996
-104.06
-99.033
-93.933
-88.779
-83.591
-78.388
-73.192
-68.025
-62.91
-57.867
-52.915
-48.069
-43.346
-38.763
-34.34
-30.097
-26.05
-22.216
-18.613
-15.256
-12.156
-9.322
-6.759
-4.46
-2.429
-0.665
0.826
2.027
2.931
3.534
3.838
3.854
3.603
3.107
2.408
1.559
0.603
-0.409
-1.436
-2.451
-3.412
-4.287
-5.043
-5.617
-5.954
-6.012
-5.762
-5.217
-4.413
-3.378
-2.158
-0.81
0.606
1.98
3.209
4.206
4.871
5.185
5.075
4.352
2.961
0.971
-1.354
-3.422
-4.657
-4.743
-3.259
0.241
5.781
13.194
21.69
29.622
35.576
38.527
37.581
32.476
23.889
13.048
2.406
-4.273
-3.472
8.064
33.182
73.331
128.421
197.127
276.215
360.581
444.557
521.921
586.377
632.793
657.437
657.877
633.621
586.25
519.019
436.861
345.725
251.536
159.774
75.457
2.847
-54.952
-96.667
-122.862
-135.174
-135.785
-126.858
-110.618
-89.943
-67.849
-46.224
-26.079
-8.094
7.226
18.837
25.639
27.716
25.808
20.308
11.655
0.379
-12.757
-26.073
-37.839
-47.276
-54.115
-58.269
-59.939
-59.323
-56.887
-53.734
-50.829
-48.65
-47.42
-47.034
-47.266
-48.009
-49.028
-49.897
-50.339
-50.211
-49.462
-48.218
-46.595
-44.644
-42.446
-40.081
-37.598
-35.044
-32.455
-29.847
-27.247
-24.683
-22.177
-19.753
-17.423
-15.193
-13.068
-11.033
-9.078
-7.198
-5.388
-3.651
-1.992
-0.404
1.124
2.601
4.04
5.451
6.846
8.24
9.645
11.071
12.522
13.999
15.506
17.049
18.634
20.266
21.951
23.691
25.489
27.35
29.274
31.26
33.307
35.41
37.565
39.77
42.021
44.312
46.639
48.995
51.375
53.774
56.183
58.596
61.006
63.404
65.783
68.136
70.455
72.733
74.964
77.141
79.259
81.314
83.301
85.217
87.06
88.827
90.517
92.131
93.668
95.129
96.516
97.831
99.077
100.257
101.375
102.434
103.439
104.395
105.305
106.175
107.008
107.808
108.58
109.327
110.053
110.762
111.455
112.134
112.804
113.463
114.114
114.755
115.386
116.006
116.61
117.197
117.762
118.3
118.804
119.27
119.691
120.061
120.373
120.621
120.796
120.893
120.904
120.823
120.642
120.353
119.951
119.429
118.779
117.998
117.079
116.017
114.807
113.448
111.935
110.268
108.445
106.466
104.333
102.049
99.618
97.047
94.343
91.516
88.577
85.541
82.419
79.227
75.979
72.687
69.368
66.035
62.701
59.377
56.078
52.818
49.617
46.493
43.466
40.557
37.787
35.178
32.756
30.542
28.552
26.802
25.307
24.089
23.173
22.578
22.307
22.36
22.73
23.402
24.363
25.585
27.016
28.61
30.323
32.119
33.99
35.929
37.92
39.946
41.983
44.028
46.112
48.274
50.539
52.939
55.508
58.305
61.438
64.996
69.03
73.567
78.583
84.041
89.915
96.168
102.743
109.553
116.465
123.334
130.05
136.496
142.548
148.046
152.771
156.533
159.203
160.694
160.979
160.054
157.908
154.547
150.004
144.325
137.611
130.001
121.628
112.611
103.051
93.053
82.813
72.602
62.611
52.851
43.136
33.23
23.086
12.937
3.083
-6.423
-15.556
-24.004
-31.009
-35.512
-36.73
-34.691
-30.004
-23.002
-13.787
-2.769
8.978
19.632
27.357
31.374
32.037
29.632
24.02
15.348
4.696
-5.632
-12.551
-13.525
-7.353
7.195
32.146
69.321
119.724
181.49
249.508
319.049
386.371
451.653
518.408
584.84
645.289
688.027
695.575
660.015
581.647
467.194
333.287
193.844
60.629
-51.606
-133.865
-181.898
-197.434
-192.352
-178.264
-161.681
-144.771
-124.382
-99.133
-71.82
-46.193
-26.441
-14.858
-11.555
-15.551
-24.924
-37.293
-50.072
-61.523
-70.922
-77.71
-81.4
-81.966
-79.741
-75.72
-71.504
-68.064
-65.724
-64.7
-65.072
-66.845
-69.98
-74.111
-78.551
-82.823
-86.7
-90.073
-92.97
-95.389
-97.274
-98.635
-99.551
-100.096
-100.328
-100.275
-99.918
-99.259
-98.339
-97.214
-95.96
-94.653
-93.343
-92.057
-90.813
-89.621
-88.489
-87.425
-86.423
-85.463
-84.527
-83.606
-82.695
-81.791
-80.884
-79.954
-78.975
-77.924
-76.784
-75.544
-74.194
-72.722
-71.12
-69.38
-67.502
-65.488
-63.337
-61.045
-58.611
-56.032
-53.307
-50.44
-47.432
-44.286
-41.006
-37.599
-34.074
-30.441
-26.711
-22.896
-19.007
-15.059
-11.066
-7.042
-3.005
1.032
5.051
9.035
12.967
16.829
20.603
24.273
27.821
31.233
34.491
37.583
40.495
43.215
45.733
48.037
50.12
51.973
53.589
54.964
56.093
56.975
57.606
57.99
58.127
58.022
57.681
57.109
56.314
55.306
54.094
52.69
51.104
49.351
47.443
45.394
43.22
40.937
38.561
36.107
33.591
31.031
28.441
25.838
23.236
20.65
18.094
15.582
13.127
10.74
8.435
6.221
4.108
2.104
0.218
-1.545
-3.179
-4.681
-6.047
-7.276
-8.368
-9.321
-10.139
-10.822
-11.374
-11.801
-12.105
-12.294
-12.374
-12.352
-12.237
-12.036
-11.759
-11.412
-11.006
-10.548
-10.048
-9.514
-8.954
-8.377
-7.79
-7.201
-6.616
-6.042
-5.483
-4.944
-4.428
-3.939
-3.477
-3.044
-2.639
-2.261
-1.907
-1.575
-1.261
-0.96
-0.665
-0.369
-0.065
0.254
0.597
0.975
1.395
1.868
2.401
3.002
3.68
4.442
5.297
6.25
7.307
8.471
9.748
11.141
12.65
14.273
16.007
17.846
19.785
21.817
23.934
26.124
28.378
30.685
33.038
35.426
37.833
40.244
42.639
45
47.309
49.55
51.702
53.745
55.663
57.449
59.093
60.583
61.902
63.02
63.914
64.57
64.974
65.118
64.999
64.618
63.989
63.146
62.116
60.923
59.586
58.104
56.491
54.776
53.003
51.225
49.488
47.816
46.241
44.795
43.466
42.23
41.025
39.763
38.403
36.91
35.238
33.361
31.23
28.767
25.903
22.498
18.339
13.381
7.678
1.364
-5.133
-11.318
-16.76
-20.801
-22.763
-22.541
-20.292
-16.376
-12.11
-9.063
-8.482
-11.963
-19.5
-28.546
-37.144
-44.475
-52.594
-66.041
-84.429
-99.599
-95.875
-57.028
22.723
136.003
264.117
387.368
493.852
579.446
645.771
693.589
720.43
722.414
696.147
641.906
563.352
466.195
357.564
244.438
132.979
29.402
-60.781
-133.623
-186.401
-218.395
-230.929
-226.143
-206.754
-176.612
-140.102
-101.54
-65.294
-34.625
-11.287
3.515
9.359
6.939
-2.342
-16.442
-32.671
-48.639
-62.791
-73.878
-81.219
-84.789
-84.919
-82.43
-78.644
-74.888
-72.012
-70.583
-70.84
-72.69
-75.962
-80.334
-85.249
-90.112
-94.555
-98.38
-101.532
-104.084
-106.066
-107.495
-108.452
-109.034
-109.312
-109.33
-109.105
-108.637
-107.966
-107.161
-106.3
-105.451
-104.651
-103.917
-103.259
-102.683
-102.191
-101.78
-101.435
-101.145
-100.9
-100.7
-100.543
-100.42
-100.318
-100.215
-100.087
-99.913
-99.676
-99.363
-98.961
-98.461
-97.855
-97.138
-96.307
-95.357
-94.283
-93.078
-91.733
-90.244
-88.609
-86.825
-84.891
-82.809
-80.583
-78.217
-75.721
-73.101
-70.367
-67.527
-64.594
-61.58
-58.497
-55.361
-52.185
-48.987
-45.782
-42.589
-39.427
-36.313
-33.266
-30.304
-27.446
-24.71
-22.111
-19.667
-17.393
-15.303
-13.411
-11.729
-10.268
-9.037
-8.044
-7.296
-6.798
-6.552
-6.559
-6.818
-7.326
-8.079
-9.072
-10.295
-11.742
-13.402
-15.263
-17.312
-19.537
-21.922
-24.451
-27.108
-29.875
-32.735
-35.668
-38.657
-41.683
-44.727
-47.771
-50.797
-53.787
-56.725
-59.593
-62.377
-65.061
-67.633
-70.079
-72.39
-74.556
-76.568
-78.419
-80.105
-81.621
-82.963
-84.132
-85.126
-85.946
-86.595
-87.077
-87.395
-87.555
-87.564
-87.43
-87.159
-86.762
-86.247
-85.624
-84.904
-84.096
-83.212
-82.262
-81.257
-80.208
-79.125
-78.018
-76.897
-75.771
-74.647
-73.534
-72.435
-71.358
-70.305
-69.28
-68.285
-67.322
-66.391
-65.491
-64.621
-63.78
-62.963
-62.167
-61.388
-60.62
-59.858
-59.096
-58.328
-57.547
-56.747
-55.923
-55.068
-54.179
-53.249
-52.273
-51.247
-50.167
-49.031
-47.836
-46.58
-45.263
-43.887
-42.456
-40.977
-39.458
-37.906
-36.333
-34.747
-33.163
-31.591
-30.043
-28.527
-27.053
-25.634
-24.284
-23.021
-21.858
-20.809
-19.888
-19.113
-18.495
-18.05
-17.783
-17.697
-17.799
-18.097
-18.606
-19.344
-20.324
-21.549
-23.02
-24.735
-26.683
-28.847
-31.197
-33.683
-36.265
-38.904
-41.568
-44.231
-46.855
-49.393
-51.801
-54.03
-56.042
-57.809
-59.313
-60.555
-61.561
-62.372
-63.044
-63.647
-64.251
-64.933
-65.779
-66.869
-68.282
-70.078
-72.331
-75.154
-78.578
-82.522
-86.765
-90.91
-94.555
-97.415
-99.148
-99.278
-97.532
-93.94
-88.897
-83.284
-77.942
-73.298
-69.769
-68.018
-68.321
-70.261
-72.686
-73.449
-70.253
-61.546
-45.587
-19.907
17.414
67.251
127.926
194.727
263.163
330.477
397.511
466.252
533.71
591.34
623.972
616.563
564.849
475.93
366.915
256.802
156.879
70.372
-4.785
-70.08
-123.952
-163.65
-186.498
-192.796
-184.958
-165.615
-138.403
-106.999
-74.477
-43.405
-15.523
8.006
25.764
36.375
39.54
35.865
26.54
12.908
-3.937
-22.674
-41.353
-58.058
-71.613
-81.536
-87.976
-91.385
-92.164
-91.019
-89.111
-87.439
-86.58
-86.777
-87.928
-89.808
-92.258
-94.99
-97.552
-99.633
-101.102
-101.932
-102.236
-102.122
-101.634
-100.84
-99.839
-98.693
-97.453
-96.161
-94.809
-93.402
-91.97
-90.53
-89.103
-87.708
-86.336
-84.975
-83.626
-82.283
-80.95
-79.635
-78.343
-77.089
-75.883
-74.693
-73.467
-72.15
-70.711
-69.167
-67.552
-65.859
-64.046
-62.104
-60.134
-58.312
-56.664
-55.026
-53.149
-50.79
-48.065
-45.201
-41.941
-38.088
-33.946
-29.808
-26.476
-23.867
-19.614
-13.423
-7.092
-4.081
-10.792
-26.598
-44.152
-55.743
-51.725
-32.249
-6.986
16.669
30.761
33.679
31.793
28.459
26.386
27.121
28.306
28.995
29.514
29.67
30.002
31.019
32.396
33.771
35.029
35.959
36.461
36.665
36.607
36.25
35.656
34.867
33.885
32.761
31.516
30.117
28.555
26.824
24.923
22.878
20.715
18.449
16.098
13.678
11.203
8.692
6.164
3.637
1.131
-1.342
-3.762
-6.112
-8.375
-10.533
-12.573
-14.488
-16.271
-17.915
-19.413
-20.759
-21.949
-22.981
-23.855
-24.57
-25.128
-25.534
-25.793
-25.911
-25.896
-25.759
-25.509
-25.156
-24.713
-24.191
-23.604
-22.965
-22.287
-21.585
-20.872
-20.161
-19.464
-18.794
-18.16
-17.573
-17.043
-16.575
-16.177
-15.855
-15.612
-15.454
-15.381
-15.395
-15.496
-15.68
-15.944
-16.285
-16.696
-17.168
-17.693
-18.261
-18.862
-19.484
-20.117
-20.745
-21.355
-21.935
-22.47
-22.947
-23.353
-23.673
-23.895
-24.008
-24.003
-23.871
-23.605
-23.2
-22.654
-21.965
-21.137
-20.172
-19.075
-17.852
-16.509
-15.057
-13.505
-11.862
-10.137
-8.343
-6.493
-4.604
-2.697
-0.788
1.102
2.954
4.746
6.456
8.066
9.565
10.939
12.174
13.247
14.127
14.79
15.225
15.419
15.365
15.063
14.52
13.764
12.84
11.79
10.653
9.449
8.186
6.889
5.587
4.327
3.161
2.117
1.205
0.444
-0.137
-0.545
-0.825
-1.071
-1.425
-1.985
-2.794
-3.895
-5.339
-7.201
-9.575
-12.553
-16.167
-20.454
-25.51
-31.321
-37.783
-44.621
-51.253
-57.06
-61.559
-64.215
-64.504
-62.368
-57.964
-51.839
-45.292
-39.388
-34.822
-32.544
-33.182
-36.322
-41.045
-45.53
-46.69
-41.968
-29.138
-5.415
31.268
81.571
145.11
219.771
301.533
386.225
469.009
543.846
604.951
647.217
666.555
660.639
629.166
573.305
496.156
402.65
298.701
191.142
86.813
-7.856
-87.375
-148.162
-188.621
-208.622
-209.522
-194.425
-167.278
-132.933
-96.628
-62.283
-32.757
-10.523
2.956
7.566
3.959
-6.123
-20.094
-36.026
-52.264
-66.853
-78.4
-86.224
-90.012
-90.195
-87.759
-83.424
-78.005
-72.644
-68.085
-64.744
-62.866
-62.29
-62.697
-63.859
-65.386
-66.767
-67.708
-68.041
-67.697
-66.763
-65.294
-63.302
-60.868
-58.088
-55.027
-51.737
-48.237
-44.524
-40.635
-36.637
-32.61
-28.627
-24.731
-20.955
-17.323
-13.855
-10.574
-7.488
-4.589
-1.871
0.665
3.017
5.179
7.153
8.951
10.588
12.084
13.455
14.714
15.875
16.951
17.953
18.892
19.776
20.609
21.4
22.16
22.899
23.63
24.363
25.108
25.872
26.667
27.498
28.373
29.295
30.268
31.295
32.377
33.518
34.715
35.967
37.273
38.629
40.031
41.474
42.95
44.453
45.975
47.509
49.045
50.576
52.094
53.589
55.054
56.482
57.864
59.194
60.466
61.673
62.81
63.873
64.857
65.759
66.577
67.309
67.953
68.512
68.985
69.375
69.684
69.918
70.079
70.173
70.208
70.188
70.121
70.015
69.878
69.718
69.544
69.365
69.189
69.024
68.878
68.759
68.673
68.628
68.627
68.677
68.782
68.944
69.166
69.45
69.797
70.206
70.676
71.205
71.791
72.43
73.117
73.847
74.614
75.411
76.231
77.065
77.906
78.742
79.566
80.366
81.133
81.856
82.523
83.124
83.649
84.087
84.429
84.665
84.787
84.788
84.66
84.4
84.001
83.462
82.779
81.953
80.983
79.872
78.621
77.234
75.717
74.075
72.316
70.447
68.478
66.419
64.28
62.072
59.81
57.506
55.173
52.826
50.479
48.149
45.852
43.603
41.419
39.313
37.3
35.396
33.612
31.962
30.454
29.097
27.898
26.863
25.993
25.289
24.75
24.373
24.152
24.082
24.158
24.37
24.713
25.177
25.749
26.416
27.161
27.969
28.821
29.699
30.581
31.448
32.281
33.062
33.783
34.428
34.979
35.415
35.705
35.828
35.78
35.556
35.153
34.573
33.821
32.92
31.912
30.833
29.704
28.536
27.317
26.051
24.76
23.478
22.257
21.118
20.038
18.998
17.974
16.965
15.98
14.953
13.756
12.286
10.452
8.273
5.885
3.233
0.099
-3.719
-8.478
-14.167
-20.448
-27.274
-34.791
-42.718
-50.428
-56.932
-60.899
-61.82
-60.029
-55.45
-47.965
-38.038
-26.56
-15.421
-7.084
-2.675
-2.222
-5.995
-13.861
-24.916
-37.56
-48.385
-53.176
-49.128
-34.052
-5.589
37.825
96.895
169.873
251.297
335.192
417.343
496.915
574.645
647.345
706.438
737.322
726.464
669.919
573.698
453.843
327.773
206.38
94.861
-6.551
-97.521
-174.79
-233.915
-271.129
-285.449
-278.263
-252.919
-214.331
-167.303
-116.534
-66.852
-21.799
15.709
42.691
57.963
62.004
55.942
41.884
22.503
-0.087
-23.449
-44.501
-61.426
-73.506
-80.505
-83.112
-82.329
-78.856
-73.844
-68.923
-65
-62.479
-61.505
-61.668
-62.585
-64.072
-65.733
-67.056
-67.791
-67.814
-67.124
-65.918
-64.319
-62.368
-60.153
-57.74
-55.182
-52.547
-49.863
-47.115
-44.31
-41.449
-38.549
-35.668
-32.823
-29.977
-27.154
-24.429
-21.867
-19.543
-17.475
-15.568
-13.794
-12.265
-10.866
-9.173
-7.079
-4.704
-1.985
0.656
4.014
10.679
20.175
30.093
36.595
32.341
17.577
-0.265
-13.853
-12.771
3.93
26.344
46.794
57.075
55.524
49.526
43.685
41.058
42.666
45.498
48.129
50.667
52.99
55.54
58.434
61.253
63.859
66.309
68.582
70.644
72.5
74.152
75.626
76.979
78.22
79.307
80.217
80.944
81.478
81.812
81.938
81.841
81.514
80.957
80.17
79.155
77.913
76.445
74.756
72.85
70.732
68.411
65.893
63.187
60.303
57.25
54.04
50.685
47.197
43.589
39.876
36.071
32.188
28.244
24.252
20.227
16.184
12.139
8.105
4.096
0.127
-3.792
-7.646
-11.427
-15.125
-18.731
-22.237
-25.639
-28.931
-32.109
-35.171
-38.114
-40.938
-43.642
-46.228
-48.697
-51.052
-53.296
-55.434
-57.469
-59.406
-61.252
-63.012
-64.691
-66.297
-67.835
-69.312
-70.733
-72.106
-73.438
-74.733
-75.998
-77.237
-78.454
-79.654
-80.84
-82.011
-83.169
-84.313
-85.441
-86.552
-87.641
-88.706
-89.741
-90.74
-91.698
-92.607
-93.461
-94.25
-94.967
-95.603
-96.149
-96.596
-96.937
-97.161
-97.262
-97.232
-97.064
-96.752
-96.29
-95.673
-94.895
-93.955
-92.849
-91.579
-90.142
-88.542
-86.78
-84.865
-82.807
-80.616
-78.303
-75.882
-73.367
-70.775
-68.121
-65.422
-62.69
-59.94
-57.188
-54.453
-51.757
-49.119
-46.558
-44.096
-41.753
-39.55
-37.504
-35.63
-33.935
-32.428
-31.125
-30.043
-29.206
-28.634
-28.336
-28.319
-28.585
-29.125
-29.923
-30.946
-32.145
-33.477
-34.911
-36.413
-37.964
-39.534
-41.083
-42.576
-43.975
-45.241
-46.35
-47.284
-48.041
-48.666
-49.222
-49.788
-50.47
-51.337
-52.455
-53.92
-55.801
-58.172
-61.123
-64.672
-68.866
-73.829
-79.544
-85.865
-92.534
-99.008
-104.768
-109.506
-112.759
-114.012
-113.173
-110.313
-105.876
-100.991
-96.517
-92.872
-90.697
-90.448
-91.79
-94.104
-96.058
-95.167
-89.294
-76.761
-55.709
-24.423
18.014
71.524
135.066
204.743
274.728
341.471
401.994
454.634
501.479
537.946
554.081
541.772
491.059
403.251
292.268
171.163
54.67
-48.645
-139.353
-216.006
-276.734
-319.639
-340.894
-339.868
-319.473
-283.699
-237.83
-187.502
-137.656
-92.423
-55.403
-29.134
-14.324
-10.517
-16.271
-29.025
-46.03
-64.765
-82.493
-96.986
-107.168
-112.593
-113.489
-110.842
-105.744
-99.345
-93.07
-87.979
-84.54
-82.968
-83.131
-84.637
-87.119
-90.122
-93.084
-95.674
-97.776
-99.353
-100.495
-101.288
-101.77
-102.022
-102.148
-102.193
-102.179
-102.115
-101.988
-101.822
-101.671
-101.569
-101.541
-101.595
-101.723
-101.918
-102.176
-102.486
-102.826
-103.18
-103.531
-103.873
-104.199
-104.498
-104.753
-104.942
-105.039
-105.025
-104.881
-104.59
-104.14
-103.519
-102.72
-101.739
-100.573
-99.218
-97.668
-95.92
-93.968
-91.811
-89.45
-86.887
-84.123
-81.166
-78.024
-74.707
-71.225
-67.593
-63.821
-59.923
-55.914
-51.81
-47.626
-43.38
-39.089
-34.77
-30.444
-26.129
-21.844
-17.609
-13.442
-9.361
-5.385
-1.532
2.181
5.738
9.124
12.323
15.32
18.104
20.661
22.981
25.054
26.874
28.433
29.727
30.752
31.507
31.993
32.209
32.159
31.846
31.276
30.454
29.388
28.085
26.556
24.809
22.856
20.707
18.376
15.875
13.215
10.411
7.475
4.421
1.263
-1.986
-5.31
-8.697
-12.132
-15.601
-19.091
-22.588
-26.081
-29.556
-33.004
-36.413
-39.774
-43.078
-46.317
-49.484
-52.571
-55.573
-58.485
-61.303
-64.023
-66.642
-69.159
-71.573
-73.881
-76.084
-78.183
-80.177
-82.068
-83.856
-85.543
-87.13
-88.62
-90.015
-91.319
-92.533
-93.663
-94.709
-95.677
-96.568
-97.387
-98.134
-98.812
-99.42
-99.961
-100.434
-100.839
-101.176
-101.444
-101.642
-101.767
-101.818
-101.791
-101.685
-101.493
-101.214
-100.843
-100.376
-99.809
-99.137
-98.358
-97.468
-96.464
-95.344
-94.105
-92.744
-91.26
-89.65
-87.915
-86.054
-84.067
-81.955
-79.72
-77.369
-74.911
-72.354
-69.707
-66.98
-64.186
-61.338
-58.449
-55.529
-52.586
-49.631
-46.675
-43.732
-40.82
-37.953
-35.144
-32.408
-29.762
-27.219
-24.792
-22.489
-20.311
-18.266
-16.364
-14.621
-13.063
-11.709
-10.566
-9.645
-8.947
-8.466
-8.19
-8.093
-8.129
-8.263
-8.467
-8.712
-8.983
-9.247
-9.461
-9.59
-9.585
-9.406
-9.021
-8.412
-7.583
-6.573
-5.434
-4.23
-3.037
-1.921
-0.969
-0.276
0.073
-0.034
-0.67
-1.927
-3.984
-6.885
-10.545
-14.741
-18.965
-22.686
-25.555
-27.098
-26.748
-24.444
-20.379
-15.171
-10.241
-6.703
-5.194
-6.604
-11.505
-19.418
-29.32
-39.161
-45.534
-45.65
-37.146
-17.191
16.256
63.863
125.224
198.056
278.201
361.523
443.288
517.599
578.843
622.134
643.674
641.566
615.649
566.719
497.432
412.406
317.208
217.969
120.554
30.219
-48.275
-110.996
-155.957
-182.972
-193.148
-188.684
-172.068
-146.326
-115.295
-82.92
-52.076
-24.812
-2.623
13.734
23.612
26.967
24.904
19.096
10.903
1.632
-7.366
-15.172
-20.809
-23.605
-23.702
-21.644
-18
-13.53
-9.089
-5.196
-2.324
-0.777
-0.469
-1.197
-2.668
-4.454
-6.115
-7.4
-8.159
-8.329
-7.958
-7.074
-5.722
-3.999
-2.006
0.187
2.545
5.046
7.678
10.395
13.123
15.806
18.402
20.887
23.251
25.489
27.593
29.561
31.409
33.149
34.79
36.335
37.782
39.131
40.391
41.576
42.703
43.786
44.836
45.862
46.873
47.874
48.87
49.861
50.845
51.822
52.796
53.769
54.748
55.733
56.729
57.735
58.753
59.784
60.823
61.867
62.912
63.953
64.985
66.004
67.002
67.974
68.913
69.813
70.666
71.464
72.199
72.864
73.448
73.945
74.346
74.644
74.833
74.904
74.853
74.674
74.362
73.913
73.325
72.592
71.715
70.691
69.521
68.206
66.748
65.148
63.413
61.548
59.558
57.452
55.237
52.922
50.517
48.03
45.474
42.857
40.192
37.49
34.762
32.021
29.277
26.544
23.831
21.151
18.512
15.927
13.404
10.953
8.581
6.297
4.109
2.023
0.044
-1.823
-3.573
-5.204
-6.715
-8.104
-9.372
-10.519
-11.549
-12.464
-13.267
-13.963
-14.556
-15.053
-15.458
-15.779
-16.022
-16.195
-16.303
-16.356
-16.36
-16.322
-16.249
-16.148
-16.024
-15.884
-15.735
-15.58
-15.426
-15.276
-15.135
-15.008
-14.895
-14.799
-14.72
-14.659
-14.615
-14.587
-14.574
-14.571
-14.576
-14.586
-14.597
-14.605
-14.604
-14.59
-14.555
-14.496
-14.407
-14.282
-14.115
-13.901
-13.637
-13.318
-12.943
-12.51
-12.015
-11.458
-10.837
-10.154
-9.41
-8.606
-7.744
-6.829
-5.868
-4.87
-3.845
-2.804
-1.757
-0.717
0.303
1.291
2.236
3.131
3.965
4.726
5.401
5.974
6.433
6.768
6.967
7.016
6.902
6.617
6.157
5.522
4.707
3.701
2.491
1.058
-0.608
-2.504
-4.63
-6.982
-9.553
-12.327
-15.274
-18.344
-21.5
-24.712
-27.953
-31.201
-34.409
-37.514
-40.469
-43.23
-45.762
-48.055
-50.096
-51.874
-53.42
-54.775
-55.983
-57.127
-58.278
-59.497
-60.886
-62.536
-64.537
-67.034
-70.179
-74.019
-78.497
-83.411
-88.401
-93.154
-97.418
-100.869
-103.125
-103.957
-103.472
-102.209
-101.078
-100.791
-101.652
-103.802
-107.458
-112.756
-119.259
-125.612
-129.644
-129.326
-123.166
-110.106
-89.166
-58.711
-17.507
33.919
93.932
159.27
224.91
288.219
347.565
401.156
450.39
491.349
514.852
513.179
477.125
407.063
314.915
212.748
113.869
25.817
-51.964
-118.426
-172.289
-212.032
-234.562
-239.804
-229.96
-208.127
-178.973
-147.251
-117.107
-91.605
-72.318
-60.153
-55.679
-58.448
-67.093
-79.309
-92.193
-103.863
-113.523
-120.53
-124.318
-124.762
-122.126
-117.414
-112.284
-107.749
-104.167
-101.774
-100.678
-100.922
-102.511
-105.122
-108.084
-110.941
-113.493
-115.63
-117.383
-118.755
-119.685
-120.181
-120.324
-120.181
-119.798
-119.209
-118.399
-117.367
-116.156
-114.811
-113.399
-111.989
-110.625
-109.334
-108.133
-107.034
-106.044
-105.175
-104.428
-103.786
-103.24
-102.779
-102.396
-102.091
-101.853
-101.661
-101.492
-101.321
-101.129
-100.904
-100.636
-100.311
-99.917
-99.444
-98.887
-98.241
-97.503
-96.663
-95.714
-94.648
-93.459
-92.144
-90.701
-89.125
-87.416
-85.574
-83.601
-81.502
-79.28
-76.94
-74.488
-71.93
-69.275
-66.532
-63.71
-60.82
-57.872
-54.878
-51.852
-48.806
-45.754
-42.709
-39.683
-36.691
-33.745
-30.858
-28.043
-25.31
-22.672
-20.139
-17.722
-15.429
-13.269
-11.25
-9.377
-7.659
-6.098
-4.699
-3.464
-2.395
-1.492
-0.755
-0.184
0.225
0.473
0.564
0.502
0.291
-0.063
-0.555
-1.178
-1.926
-2.791
-3.767
-4.845
-6.018
-7.278
-8.616
-10.025
-11.495
-13.021
-14.594
-16.206
-17.851
-19.521
-21.211
-22.914
-24.624
-26.335
-28.041
-29.739
-31.423
-33.088
-34.732
-36.348
-37.935
-39.488
-41.003
-42.478
-43.908
-45.289
-46.619
-47.892
-49.105
-50.256
-51.338
-52.349
-53.285
-54.143
-54.917
-55.603
-56.197
-56.694
-57.088
-57.374
-57.547
-57.6
-57.526
-57.32
-56.975
-56.486
-55.847
-55.051
-54.093
-52.967
-51.667
-50.19
-48.529
-46.68
-44.64
-42.406
-39.975
-37.348
-34.523
-31.501
-28.283
-24.871
-21.271
-17.485
-13.521
-9.384
-5.082
-0.625
3.974
8.704
13.551
18.499
23.531
28.626
33.762
38.918
44.072
49.202
54.284
59.294
64.209
69.008
73.672
78.178
82.503
86.623
90.514
94.156
97.528
100.612
103.39
105.842
107.959
109.735
111.165
112.24
112.947
113.266
113.186
112.708
111.835
110.576
108.948
106.972
104.683
102.135
99.375
96.441
93.365
90.166
86.877
83.545
80.226
76.978
73.842
70.844
68.02
65.392
62.944
60.647
58.432
56.209
53.942
51.596
49.12
46.475
43.585
40.375
36.807
32.816
28.302
23.26
17.77
12.066
6.599
1.804
-1.996
-4.425
-5.08
-3.772
-0.604
3.909
8.775
13.089
16.376
18.249
18.198
16.075
12.39
8.426
6.447
8.8
17.059
32.79
58.058
94.569
143.396
203.032
268.624
335.558
400.023
462.392
527.021
592.816
653.929
697.902
706.46
671.012
593.485
482.673
354.737
223.952
99.018
-10.577
-94.948
-149.486
-171.645
-162.998
-133.362
-91.52
-46.889
-12.619
3.749
-0.466
-21.841
-47.893
-67.605
-75.758
-72.841
-65.439
-58.749
-54.137
-50.923
-46.758
-40.786
-33.902
-27.03
-21.098
-16.542
-13.241
-11.134
-10.152
-10.084
-10.725
-11.905
-13.485
-15.329
-17.315
-19.273
-20.984
-22.31
-23.165
-23.471
-23.193
-22.303
-20.775
-18.628
-15.917
-12.689
-8.992
-4.873
-0.361
4.491
9.611
14.924
20.344
25.806
31.269
36.7
42.076
47.383
52.612
57.769
62.876
67.947
72.988
78.004
82.993
87.958
92.912
97.864
102.821
107.79
112.773
117.774
122.794
127.834
132.89
137.956
143.023
148.088
153.146
158.195
163.232
168.254
173.258
178.24
183.197
188.125
193.017
197.868
202.668
207.41
212.088
216.693
221.215
225.648
229.98
234.205
238.314
242.297
246.145
249.851
253.405
256.801
260.029
263.084
265.958
268.644
271.138
273.434
275.527
277.412
279.088
280.55
281.796
282.826
283.638
284.233
284.611
284.774
284.724
284.465
284
283.335
282.473
281.421
280.186
278.773
277.191
275.446
273.547
271.501
269.317
267.003
264.568
262.019
259.366
256.617
253.78
250.863
247.874
244.822
241.712
238.553
235.352
232.113
228.844
225.548
222.23
218.896
215.547
212.188
208.821
205.449
202.072
198.694
195.315
191.936
188.557
185.178
181.8
178.42
175.04
171.659
168.274
164.886
161.493
158.095
154.692
151.281
147.862
144.434
140.996
137.549
134.092
130.626
127.15
123.668
120.181
116.692
113.205
109.723
106.249
102.789
99.346
95.928
92.537
89.181
85.864
82.593
79.375
76.216
73.122
70.099
67.153
64.291
61.518
58.84
56.26
53.782
51.408
49.143
46.988
44.946
43.014
41.194
39.482
37.878
36.377
34.973
33.656
32.414
31.238
30.115
29.032
27.974
26.925
25.873
24.805
23.712
22.58
21.394
20.137
18.794
17.35
15.788
14.093
12.249
10.241
8.061
5.709
3.18
0.467
-2.44
-5.559
-8.905
-12.482
-16.297
-20.353
-24.638
-29.139
-33.825
-38.648
-43.569
-48.557
-53.576
-58.606
-63.613
-68.55
-73.384
-78.076
-82.582
-86.872
-90.904
-94.65
-98.146
-101.441
-104.592
-107.677
-110.723
-113.76
-116.877
-120.144
-123.655
-127.512
-131.717
-136.335
-141.539
-147.353
-153.7
-160.302
-166.496
-171.677
-175.498
-177.483
-177.196
-174.627
-169.933
-163.947
-158.391
-154.665
-153.741
-156.555
-163.487
-173.984
-186.954
-199.953
-209.035
-210.728
-202.114
-180.11
-142.527
-88.947
-19.934
60.839
146.02
230.257
309.26
379.265
440.134
487.611
513.495
511.132
472.068
393.737
282.367
147.692
7.611
-117.755
-214.797
-275.382
-303.571
-312.803
-311.589
-305.248
-292.177
-265.14
-227.454
-185.522
-147.972
-125.384
-116.194
-117.207
-125.275
-134.332
-145.292
-158.454
-171.718
-185.362
-197.187
-204.84
-208.323
-207.638
-203.545
-197.837
-191.914
-186.492
-182.13
-179.203
-177.755
-177.787
-179.173
-181.403
-183.87
-186.222
-188.23
-189.771
-190.868
-191.507
-191.649
-191.341
-190.658
-189.647
-188.347
-186.77
-184.9
-182.744
-180.342
-177.741
-175.008
-172.217
-169.417
-166.639
-163.913
-161.259
-158.693
-156.233
-153.885
-151.641
-149.495
-147.448
-145.499
-143.649
-141.894
-140.217
-138.598
-137.019
-135.465
-133.929
-132.402
-130.874
-129.338
-127.786
-126.215
-124.625
-123.013
-121.374
-119.7
-117.987
-116.23
-114.428
-112.577
-110.676
-108.722
-106.716
-104.659
-102.556
-100.409
-98.224
-96.004
-93.756
-91.487
-89.206
-86.922
-84.644
-82.381
-80.146
-77.948
-75.801
-73.716
-71.705
-69.777
-67.946
-66.223
-64.617
-63.139
-61.798
-60.602
-59.56
-58.679
-57.964
-57.422
-57.056
-56.869
-56.865
-57.043
-57.404
-57.946
-58.665
-59.558
-60.618
-61.84
-63.214
-64.733
-66.384
-68.158
-70.043
-72.026
-74.094
-76.233
-78.429
-80.668
-82.935
-85.215
-87.495
-89.759
-91.994
-94.186
-96.323
-98.391
-100.38
-102.278
-104.075
-105.762
-107.332
-108.776
-110.088
-111.264
-112.299
-113.19
-113.936
-114.535
-114.988
-115.297
-115.465
-115.496
-115.394
-115.166
-114.819
-114.359
-113.796
-113.137
-112.392
-111.571
-110.683
-109.738
-108.746
-107.716
-106.658
-105.58
-104.492
-103.402
-102.317
-101.245
-100.192
-99.162
-98.16
-97.189
-96.252
-95.349
-94.481
-93.647
-92.847
-92.079
-91.343
-90.636
-89.955
-89.292
-88.638
-87.984
-87.322
-86.642
-85.935
-85.192
-84.403
-83.562
-82.667
-81.715
-80.699
-79.612
-78.439
-77.172
-75.813
-74.365
-72.84
-71.246
-69.59
-67.883
-66.142
-64.38
-62.611
-60.839
-59.059
-57.272
-55.485
-53.718
-52.004
-50.359
-48.785
-47.263
-45.75
-44.226
-42.701
-41.199
-39.764
-38.42
-37.145
-35.973
-35.002
-34.246
-33.668
-33.073
-32.066
-30.491
-28.479
-26.225
-24.006
-22.142
-20.878
-20.841
-23.08
-28.075
-35.692
-45.396
-56.161
-67.109
-77.676
-86.806
-92.963
-95.315
-93.723
-88.766
-81.848
-74.042
-65.95
-58.537
-53.043
-50.242
-50.475
-53.403
-57.96
-63.467
-69.692
-76.343
-83.107
-89.762
-96.196
-102.544
-109.204
-116.209
-123.082
-129.23
-134.084
-137.078
-137.705
-135.822
-131.438
-125.022
-117.88
-111.159
-105.658
-102.372
-102.007
-104.281
-108.41
-112.634
-113.712
-108.931
-96.198
-72.771
-36.286
14.368
79.51
156.356
238.71
321.477
400.71
475.342
546.372
610.23
659.384
682.073
666.47
609.781
514.938
389.5
246.983
99
-40.085
-150.889
-224.049
-257.47
-256.487
-238.866
-214.151
-184.957
-156.188
-125.183
-95.241
-74.704
-61.724
-56.724
-58.847
-62.221
-68.334
-77.551
-87.24
-97.715
-107.08
-113.222
-116.117
-115.662
-112.275
-107.289
-102.184
-97.781
-94.483
-92.532
-91.912
-92.593
-94.576
-97.521
-100.808
-104.042
-106.957
-109.385
-111.346
-112.814
-113.723
-114.097
-113.998
-113.48
-112.61
-111.432
-109.95
-108.19
-106.19
-103.994
-101.67
-99.287
-96.91
-94.592
-92.364
-90.25
-88.269
-86.432
-84.751
-83.223
-81.831
-80.559
-79.401
-78.346
-77.39
-76.517
-75.704
-74.928
-74.169
-73.409
-72.638
-71.842
-71.006
-70.118
-69.168
-68.149
-67.059
-65.889
-64.632
-63.281
-61.829
-60.272
-58.609
-56.838
-54.957
-52.967
-50.871
-48.673
-46.38
-43.999
-41.537
-39.004
-36.409
-33.765
-31.084
-28.38
-25.667
-22.959
-20.273
-17.624
-15.029
-12.504
-10.065
-7.727
-5.506
-3.418
-1.477
0.304
1.912
3.335
4.563
5.586
6.398
6.99
7.36
7.503
7.418
7.105
6.566
5.804
4.823
3.631
2.236
0.646
-1.127
-3.071
-5.173
-7.419
-9.793
-12.28
-14.863
-17.525
-20.249
-23.018
-25.813
-28.618
-31.414
-34.184
-36.912
-39.58
-42.173
-44.675
-47.073
-49.352
-51.5
-53.507
-55.362
-57.056
-58.582
-59.934
-61.107
-62.096
-62.899
-63.515
-63.944
-64.187
-64.249
-64.133
-63.846
-63.394
-62.785
-62.029
-61.135
-60.112
-58.971
-57.721
-56.374
-54.941
-53.434
-51.862
-50.238
-48.572
-46.876
-45.161
-43.436
-41.709
-39.988
-38.283
-36.599
-34.941
-33.313
-31.719
-30.163
-28.651
-27.184
-25.765
-24.394
-23.072
-21.799
-20.574
-19.389
-18.234
-17.099
-15.974
-14.852
-13.725
-12.583
-11.417
-10.218
-8.982
-7.708
-6.392
-5.023
-3.582
-2.051
-0.422
1.296
3.087
4.942
6.855
8.814
10.797
12.768
14.707
16.611
18.502
20.406
22.322
24.23
26.089
27.871
29.57
31.205
32.793
34.331
35.816
37.263
38.724
40.267
41.917
43.647
45.374
47.016
48.553
49.992
51.354
52.667
53.886
54.919
55.721
56.265
56.515
56.487
56.092
55.05
53.311
51.041
48.439
45.86
43.429
40.827
37.913
35.104
32.627
30.101
27.088
22.796
16.466
9.944
4.893
-0.233
-5.559
-13.628
-27.205
-40.362
-49.197
-49.759
-36.729
-15.773
7.921
30.336
45.049
53.551
57.818
58.318
57.476
54.546
48.603
40.532
30.76
20.112
9.512
-1.277
-12.934
-25.772
-39.635
-53.494
-65.375
-72.68
-72.672
-62.399
-38.651
1.171
58.4
132.5
220.911
319.374
422.686
524.984
619.17
697.76
754.449
784.446
786.091
761.349
711.076
636.217
538.193
416.77
279.941
141.726
16.15
-80.638
-143.992
-180.43
-196.511
-201.474
-198.091
-181.647
-151.858
-110.094
-60.151
-9.958
35.59
73.817
101.749
118.407
124.145
119.535
106.453
87.79
65.818
42.971
22.3
5.638
-6.237
-12.996
-15.315
-14.349
-10.952
-6.333
-2.079
0.979
2.48
2.31
0.896
-1.327
-4.103
-6.994
-9.5
-11.392
-12.564
-13.021
-12.941
-12.435
-11.546
-10.365
-8.958
-7.379
-5.683
-3.903
-2.06
-0.182
1.707
3.587
5.44
7.264
9.06
10.834
12.601
14.363
16.12
17.869
19.599
21.308
23.001
24.684
26.369
28.066
29.785
31.535
33.328
35.171
37.066
39.015
41.016
43.069
45.177
47.345
49.576
51.874
54.239
56.674
59.177
61.748
64.382
67.073
69.815
72.599
75.419
78.266
81.132
84.009
86.885
89.75
92.594
95.404
98.167
100.872
103.504
106.049
108.494
110.827
113.033
115.101
117.019
118.774
120.357
121.758
122.968
123.979
124.784
125.377
125.755
125.915
125.855
125.574
125.075
124.36
123.434
122.302
120.97
119.446
117.739
115.859
113.816
111.624
109.295
106.841
104.278
101.62
98.882
96.079
93.225
90.336
87.426
84.509
81.601
78.713
75.859
73.05
70.299
67.615
65.007
62.484
60.051
57.716
55.483
53.354
51.334
49.422
47.62
45.927
44.341
42.86
41.48
40.197
39.005
37.897
36.868
35.91
35.015
34.176
33.384
32.633
31.914
31.221
30.546
29.884
29.227
28.571
27.911
27.244
26.565
25.872
25.166
24.445
23.711
22.966
22.211
21.453
20.694
19.943
19.204
18.486
17.795
17.142
16.535
15.984
15.499
15.091
14.769
14.544
14.427
14.427
14.554
14.815
15.218
15.771
16.478
17.345
18.374
19.566
20.923
22.442
24.123
25.96
27.949
30.081
32.346
34.737
37.239
39.84
42.52
45.261
48.042
50.843
53.641
56.413
59.135
61.784
64.338
66.779
69.087
71.241
73.219
74.999
76.561
77.886
78.956
79.753
80.264
80.478
80.388
79.995
79.297
78.29
76.968
75.316
73.325
70.998
68.341
65.367
62.1
58.569
54.816
50.9
46.869
42.776
38.668
34.575
30.537
26.595
22.788
19.179
15.826
12.761
10.004
7.547
5.357
3.403
1.636
-0.024
-1.658
-3.365
-5.238
-7.339
-9.736
-12.461
-15.57
-19.211
-23.419
-28.091
-33.005
-37.705
-41.731
-44.811
-46.531
-46.346
-44.109
-39.904
-34.188
-28.145
-22.766
-18.674
-16.772
-17.729
-21.289
-26.763
-32.655
-36.192
-34.883
-26.528
-8.316
21.938
64.934
120.462
186.736
259.984
336.154
410.611
477.157
529.556
562.428
572.501
559.811
526.035
473.837
402.699
309.209
195.577
68.073
-58.022
-158.539
-219.704
-238.15
-221.949
-192.53
-164.809
-144.948
-133.856
-125.046
-115.187
-105.362
-97.09
-92.958
-93.224
-96.042
-99.383
-101.088
-100.158
-96.554
-90.531
-82.762
-73.964
-64.746
-55.839
-47.934
-41.37
-36.283
-32.628
-30.176
-28.736
-28.135
-28.169
-28.672
-29.504
-30.528
-31.601
-32.597
-33.411
-33.974
-34.245
-34.196
-33.808
-33.082
-32.051
-30.775
-29.306
-27.694
-25.973
-24.173
-22.337
-20.523
-18.793
-17.212
-15.821
-14.645
-13.698
-12.992
-12.525
-12.289
-12.26
-12.401
-12.684
-13.087
-13.592
-14.182
-14.834
-15.522
-16.223
-16.915
-17.576
-18.19
-18.739
-19.209
-19.586
-19.864
-20.035
-20.098
-20.047
-19.878
-19.588
-19.173
-18.632
-17.965
-17.173
-16.257
-15.222
-14.073
-12.817
-11.464
-10.023
-8.504
-6.918
-5.278
-3.595
-1.884
-0.156
1.573
3.29
4.981
6.631
8.227
9.757
11.207
12.566
13.822
14.966
15.987
16.879
17.635
18.249
18.716
19.035
19.204
19.224
19.097
18.825
18.414
17.869
17.197
16.409
15.512
14.519
13.44
12.287
11.075
9.817
8.526
7.217
5.905
4.603
3.325
2.087
0.901
-0.219
-1.262
-2.215
-3.067
-3.809
-4.431
-4.925
-5.286
-5.508
-5.588
-5.522
-5.311
-4.955
-4.457
-3.821
-3.052
-2.156
-1.141
-0.016
1.209
2.523
3.913
5.367
6.873
8.414
9.977
11.547
13.11
14.649
16.152
17.601
18.984
20.287
21.496
22.599
23.583
24.439
25.154
25.721
26.132
26.381
26.463
26.374
26.114
25.682
25.08
24.312
23.382
22.297
21.062
19.686
18.181
16.557
14.826
13.001
11.095
9.124
7.103
5.049
2.976
0.901
-1.161
-3.192
-5.177
-7.1
-8.946
-10.702
-12.354
-13.888
-15.293
-16.558
-17.675
-18.637
-19.439
-20.077
-20.549
-20.858
-21.008
-21.004
-20.853
-20.562
-20.141
-19.601
-18.954
-18.211
-17.384
-16.484
-15.529
-14.537
-13.525
-12.511
-11.513
-10.553
-9.652
-8.832
-8.109
-7.495
-7.001
-6.643
-6.442
-6.423
-6.604
-6.99
-7.588
-8.404
-9.438
-10.683
-12.112
-13.678
-15.34
-17.068
-18.842
-20.652
-22.477
-24.278
-26.011
-27.637
-29.143
-30.528
-31.78
-32.881
-33.833
-34.675
-35.509
-36.456
-37.611
-39.021
-40.697
-42.673
-45.018
-47.807
-51.123
-55.009
-59.438
-64.419
-70.019
-76.181
-82.732
-89.319
-95.33
-100.239
-103.665
-105.155
-104.363
-101.261
-96.045
-89.304
-82.023
-74.954
-68.77
-64.37
-62.152
-61.762
-62.263
-61.911
-58.659
-50.834
-36.319
-12.531
22.216
68.68
124.982
187.723
254.987
323.609
392.302
458.595
512.673
547.565
555.696
531.216
481.997
413.492
329.779
237.516
133.35
21.381
-84.806
-173.989
-231.24
-252.931
-249.134
-229.573
-206.189
-184.555
-162.54
-140.84
-119.633
-100.036
-86.109
-78.831
-77.412
-81.137
-87.131
-92.668
-96.895
-99.264
-99.594
-98.45
-96.007
-92.273
-88.284
-85.106
-83.149
-82.731
-83.769
-85.857
-88.961
-93.116
-97.935
-103.077
-108.284
-113.227
-117.848
-122.191
-126.173
-129.748
-132.925
-135.679
-138.045
-140.109
-141.893
-143.426
-144.744
-145.859
-146.816
-147.668
-148.464
-149.26
-150.089
-150.96
-151.882
-152.854
-153.87
-154.927
-156.004
-157.064
-158.079
-159.026
-159.884
-160.64
-161.272
-161.752
-162.056
-162.161
-162.049
-161.707
-161.122
-160.278
-159.169
-157.786
-156.127
-154.195
-151.988
-149.506
-146.749
-143.721
-140.427
-136.875
-133.072
-129.03
-124.76
-120.278
-115.599
-110.744
-105.731
-100.58
-95.312
-89.949
-84.514
-79.031
-73.522
-68.01
-62.52
-57.076
-51.7
-46.417
-41.248
-36.215
-31.34
-26.643
-22.142
-17.856
-13.801
-9.991
-6.439
-3.157
-0.154
2.562
4.988
7.118
8.953
10.492
11.739
12.7
13.38
13.789
13.936
13.835
13.497
12.937
12.171
11.213
10.081
8.792
7.364
5.814
4.16
2.42
0.612
-1.245
-3.136
-5.044
-6.952
-8.846
-10.711
-12.533
-14.301
-16.003
-17.63
-19.173
-20.626
-21.984
-23.242
-24.4
-25.456
-26.411
-27.269
-28.032
-28.707
-29.298
-29.814
-30.262
-30.651
-30.99
-31.29
-31.561
-31.813
-32.057
-32.302
-32.56
-32.84
-33.151
-33.501
-33.899
-34.351
-34.864
-35.444
-36.095
-36.82
-37.624
-38.506
-39.466
-40.504
-41.617
-42.798
-44.042
-45.341
-46.686
-48.067
-49.471
-50.887
-52.3
-53.697
-55.063
-56.382
-57.637
-58.812
-59.89
-60.855
-61.689
-62.378
-62.906
-63.259
-63.424
-63.39
-63.146
-62.685
-61.998
-61.078
-59.921
-58.521
-56.879
-54.994
-52.868
-50.503
-47.906
-45.088
-42.063
-38.844
-35.448
-31.891
-28.194
-24.377
-20.461
-16.466
-12.41
-8.312
-4.196
-0.085
3.996
8.021
11.966
15.805
19.511
23.062
26.439
29.624
32.607
35.376
37.916
40.21
42.234
43.968
45.403
46.526
47.338
47.852
48.085
48.072
47.863
47.499
47.022
46.476
45.889
45.3
44.738
44.225
43.807
43.524
43.402
43.464
43.699
44.049
44.47
44.888
45.2
45.339
45.192
44.635
43.587
41.951
39.676
36.773
33.178
28.781
23.635
17.883
11.831
6.017
0.802
-3.545
-6.564
-7.859
-7.265
-4.82
-1.066
3.09
7.047
10.333
12.402
13.088
12.69
12.008
12.623
16.386
25.126
40.803
65.335
100.378
145.158
196.27
250.63
305.156
360.818
422.792
490.002
556.132
608.012
626
599.733
529.145
423.726
301.142
177.551
65.952
-26.062
-94.122
-138.142
-163.928
-176.183
-180.34
-179.364
-171.072
-155.711
-135.295
-113.019
-93.748
-79.853
-71.444
-67.87
-67.625
-69.361
-71.708
-73.071
-72.567
-70.039
-65.762
-60.356
-54.376
-48.245
-42.542
-37.872
-34.543
-32.612
-31.919
-32.15
-33.074
-34.528
-36.326
-38.284
-40.227
-41.971
-43.415
-44.531
-45.292
-45.695
-45.732
-45.386
-44.678
-43.668
-42.417
-40.987
-39.432
-37.784
-36.089
-34.402
-32.782
-31.301
-30.002
-28.908
-28.036
-27.392
-26.981
-26.807
-26.856
-27.098
-27.509
-28.069
-28.759
-29.57
-30.484
-31.475
-32.522
-33.604
-34.7
-35.797
-36.878
-37.926
-38.927
-39.871
-40.747
-41.552
-42.276
-42.911
-43.447
-43.877
-44.194
-44.392
-44.468
-44.416
-44.235
-43.924
-43.485
-42.922
-42.238
-41.438
-40.528
-39.513
-38.403
-37.205
-35.927
-34.58
-33.173
-31.719
-30.228
-28.714
-27.188
-25.664
-24.155
-22.674
-21.235
-19.851
-18.533
-17.295
-16.149
-15.107
-14.18
-13.379
-12.713
-12.191
-11.823
-11.614
-11.572
-11.701
-12.005
-12.486
-13.146
-13.985
-15.004
-16.2
-17.572
-19.116
-20.829
-22.706
-24.742
-26.93
-29.262
-31.731
-34.328
-37.042
-39.866
-42.787
-45.794
-48.877
-52.024
-55.223
-58.461
-61.725
-65.004
-68.285
-71.554
-74.8
-78.012
-81.177
-84.285
-87.325
-90.289
-93.167
-95.951
-98.633
-101.205
-103.661
-105.995
-108.202
-110.277
-112.218
-114.019
-115.681
-117.201
-118.578
-119.813
-120.905
-121.857
-122.669
-123.344
-123.885
-124.295
-124.579
-124.742
-124.789
-124.726
-124.559
-124.294
-123.937
-123.494
-122.969
-122.369
-121.697
-120.959
-120.16
-119.304
-118.393
-117.433
-116.428
-115.379
-114.291
-113.165
-112.004
-110.807
-109.578
-108.318
-107.027
-105.707
-104.358
-102.983
-101.584
-100.161
-98.717
-97.251
-95.764
-94.256
-92.729
-91.184
-89.619
-88.038
-86.443
-84.838
-83.232
-81.63
-80.039
-78.467
-76.921
-75.409
-73.94
-72.517
-71.143
-69.822
-68.561
-67.368
-66.251
-65.216
-64.269
-63.413
-62.657
-62.004
-61.458
-61.015
-60.67
-60.421
-60.273
-60.236
-60.324
-60.549
-60.909
-61.403
-62.026
-62.77
-63.619
-64.54
-65.486
-66.414
-67.285
-68.068
-68.738
-69.256
-69.574
-69.651
-69.441
-68.906
-68.028
-66.807
-65.246
-63.378
-61.246
-58.896
-56.433
-53.973
-51.64
-49.57
-47.872
-46.639
-45.997
-46.109
-47.039
-48.729
-50.983
-53.409
-55.646
-57.458
-58.545
-58.505
-57.126
-54.494
-51.041
-47.668
-45.22
-44.06
-44.482
-46.895
-51.289
-56.988
-62.589
-65.861
-64.408
-56.492
-40.685
-15.101
21.904
70.749
130.733
198.625
268.913
337.063
399.996
457.905
513.156
565.263
608.743
629.891
613.296
550.287
442.107
305.265
163.692
39.322
-52.731
-110.124
-139.968
-154.368
-163.382
-170.553
-175.584
-174.512
-165.651
-152.294
-138.211
-127.284
-121.719
-120.807
-123.048
-127.172
-131.674
-134.861
-135.816
-134.087
-129.648
-123.256
-115.679
-107.455
-99.306
-91.979
-85.887
-81.282
-78.206
-76.406
-75.685
-75.879
-76.765
-78.164
-79.915
-81.86
-83.849
-85.726
-87.353
-88.632
-89.496
-89.909
-89.851
-89.304
-88.286
-86.852
-85.054
-82.945
-80.572
-77.958
-75.148
-72.199
-69.177
-66.158
-63.193
-60.311
-57.532
-54.868
-52.32
-49.885
-47.542
-45.254
-42.992
-40.733
-38.459
-36.157
-33.809
-31.389
-28.876
-26.25
-23.495
-20.599
-17.549
-14.335
-10.951
-7.395
-3.67
0.219
4.268
8.473
12.83
17.332
21.972
26.741
31.63
36.627
41.721
46.896
52.136
57.422
62.737
68.061
73.376
78.66
83.893
89.053
94.121
99.075
103.896
108.562
113.056
117.357
121.45
125.32
128.95
132.329
135.446
138.291
140.857
143.141
145.137
146.847
148.269
149.407
150.267
150.855
151.179
151.249
151.076
150.675
150.059
149.244
148.248
147.087
145.78
144.346
142.804
141.174
139.475
137.727
135.948
134.157
132.374
130.615
128.897
127.236
125.646
124.142
122.734
121.433
120.248
119.186
118.253
117.453
116.787
116.256
115.859
115.592
115.452
115.433
115.527
115.728
116.026
116.411
116.874
117.403
117.986
118.614
119.272
119.951
120.637
121.321
121.99
122.635
123.245
123.811
124.324
124.776
125.159
125.468
125.697
125.842
125.9
125.87
125.751
125.545
125.254
124.883
124.438
123.926
123.355
122.735
122.075
121.387
120.683
119.976
119.28
118.607
117.973
117.392
116.877
116.444
116.105
115.874
115.762
115.782
115.946
116.265
116.747
117.402
118.238
119.262
120.48
121.896
123.513
125.332
127.351
129.568
131.978
134.573
137.344
140.28
143.368
146.595
149.946
153.404
156.952
160.574
164.251
167.965
171.695
175.419
179.114
182.76
186.334
189.813
193.175
196.397
199.457
202.346
205.048
207.547
209.823
211.851
213.611
215.1
216.314
217.247
217.904
218.29
218.43
218.373
218.162
217.832
217.409
216.898
216.32
215.712
215.11
214.563
214.098
213.705
213.392
213.18
213.062
213.019
212.973
212.775
212.317
211.529
210.367
208.837
206.905
204.498
201.564
198.042
193.913
189.252
184.048
178.217
171.851
165.153
158.55
152.784
148.422
145.824
145.416
147.476
152.002
158.835
167.215
175.852
183.694
189.833
193.535
194.799
194.138
192.483
191.791
194.599
203.347
220.593
248.41
287.563
337.792
397.822
464.72
534.466
602.343
662.987
711.141
742.198
752.712
740.488
704.854
648.532
575.864
490.202
396.962
299.393
199.959
108.107
30.728
-26.095
-56.684
-66.821
-62.946
-51.035
-39.171
-28.439
-19.548
-14.193
-11.591
-13.025
-19.261
-29.007
-41.255
-54.215
-65.878
-75.551
-83.154
-88.872
-93.267
-96.862
-100.072
-103.462
-107.618
-112.795
-119.006
-126.114
-133.821
-141.881
-150.12
-158.324
-166.284
-173.819
-180.749
-186.947
-192.358
-196.937
-200.654
-203.494
-205.438
-206.49
-206.695
-206.105
-204.781
-202.777
-200.139
-196.919
-193.185
-189.011
-184.482
-179.665
-174.607
-169.352
-163.931
-158.375
-152.715
-146.967
-141.137
-135.23
-129.258
-123.234
-117.18
-111.11
-105.035
-98.964
-92.907
-86.877
-80.89
-74.958
-69.097
-63.32
-57.642
-52.08
-46.652
-41.372
-36.251
-31.299
-26.526
-21.938
-17.544
-13.349
-9.357
-5.573
-2.002
1.353
4.487
7.396
10.078
12.531
14.751
16.737
18.487
20.001
21.278
22.319
23.124
23.693
24.028
24.13
24.002
23.646
23.065
22.262
21.239
20.003
18.556
16.903
15.051
13.004
10.767
8.348
5.753
2.988
0.06
-3.023
-6.253
-9.622
-13.12
-16.738
-20.466
-24.292
-28.206
-32.196
-36.252
-40.36
-44.511
-48.691
-52.89
-57.096
-61.297
-65.483
-69.641
-73.762
-77.835
-81.85
-85.796
-89.667
-93.452
-97.144
-100.737
-104.223
-107.597
-110.854
-113.988
-116.997
-119.877
-122.626
-125.242
-127.724
-130.073
-132.289
-134.374
-136.331
-138.163
-139.874
-141.468
-142.951
-144.326
-145.602
-146.782
-147.873
-148.881
-149.813
-150.676
-151.474
-152.215
-152.903
-153.545
-154.145
-154.707
-155.237
-155.737
-156.209
-156.657
-157.081
-157.483
-157.862
-158.218
-158.548
-158.852
-159.125
-159.365
-159.568
-159.728
-159.839
-159.897
-159.896
-159.828
-159.687
-159.465
-159.157
-158.754
-158.251
-157.64
-156.916
-156.073
-155.105
-154.008
-152.78
-151.419
-149.921
-148.286
-146.515
-144.611
-142.576
-140.415
-138.132
-135.734
-133.231
-130.637
-127.964
-125.225
-122.436
-119.613
-116.773
-113.934
-111.113
-108.321
-105.574
-102.887
-100.279
-97.767
-95.37
-93.104
-90.988
-89.039
-87.274
-85.708
-84.351
-83.204
-82.274
-81.569
-81.101
-80.887
-80.94
-81.262
-81.855
-82.716
-83.83
-85.175
-86.713
-88.389
-90.156
-91.977
-93.815
-95.645
-97.434
-99.135
-100.711
-102.122
-103.324
-104.291
-104.996
-105.428
-105.626
-105.651
-105.581
-105.519
-105.529
-105.669
-106.024
-106.658
-107.646
-109.078
-110.973
-113.377
-116.417
-120.093
-124.287
-128.762
-132.97
-136.347
-138.516
-138.967
-137.153
-132.99
-126.612
-118.539
-110.081
-102.379
-96.168
-92.446
-91.91
-94.211
-98.526
-103.199
-105.161
-101.576
-90.121
-68.048
-33.041
15.755
77.996
151.873
232.344
312.741
388.428
454.511
507.558
548.378
573.637
577.772
556.654
502.438
412.017
291.171
150.595
9.543
-109.081
-189.415
-225.76
-225.11
-204.597
-179.888
-159.835
-145.534
-132.136
-116.961
-100.823
-86.304
-77.214
-74.637
-77.04
-82.615
-88.985
-94.136
-97.387
-98.486
-97.484
-94.964
-91.533
-87.684
-84.089
-81.425
-79.989
-79.875
-81.01
-83.091
-85.879
-89.205
-92.831
-96.539
-100.157
-103.503
-106.465
-109.007
-111.09
-112.688
-113.796
-114.393
-114.486
-114.119
-113.338
-112.195
-110.74
-109.009
-107.049
-104.917
-102.677
-100.403
-98.149
-95.947
-93.825
-91.796
-89.871
-88.061
-86.363
-84.758
-83.228
-81.76
-80.343
-78.972
-77.638
-76.324
-75.013
-73.685
-72.327
-70.929
-69.478
-67.964
-66.376
-64.705
-62.946
-61.095
-59.148
-57.097
-54.933
-52.65
-50.24
-47.699
-45.023
-42.206
-39.247
-36.145
-32.903
-29.524
-26.012
-22.373
-18.611
-14.735
-10.755
-6.679
-2.519
1.714
6.007
10.347
14.72
19.109
23.5
27.879
32.228
36.532
40.775
44.941
49.012
52.974
56.81
60.504
64.041
67.406
70.587
73.569
76.343
78.897
81.222
83.312
85.161
86.766
88.122
89.231
90.091
90.705
91.078
91.214
91.121
90.805
90.276
89.545
88.623
87.523
86.258
84.843
83.291
81.618
79.841
77.975
76.038
74.048
72.022
69.978
67.932
65.904
63.908
61.963
60.082
58.28
56.57
54.965
53.475
52.11
50.878
49.785
48.835
48.033
47.378
46.872
46.51
46.29
46.206
46.249
46.413
46.686
47.057
47.514
48.042
48.627
49.252
49.902
50.557
51.2
51.811
52.372
52.861
53.261
53.552
53.714
53.73
53.583
53.258
52.738
52.01
51.062
49.884
48.467
46.805
44.894
42.731
40.317
37.654
34.747
31.605
28.237
24.654
20.871
16.905
12.774
8.499
4.103
-0.391
-4.957
-9.567
-14.193
-18.805
-23.371
-27.862
-32.246
-36.491
