Name,Criss Capps
Date of Birth,"Feb 5, 1952"
Recorded Date,2025-04-05 18:27:41 -0400
Classification,Poor Recording
Symptoms,
Software Version,1.90
Device,"Watch5,4"
Sample Rate,512.844 hertz


Lead,Lead I
Unit,µV

229.553
304.86
348.553
354.743
330.277
289.369
247.688
215.734
196.673
187.089
179.996
169.387
152.159
129.046
103.569
79.673
59.983
45.062
34.118
26.085
20.471
17.26
16.346
17.093
18.603
20.36
21.898
22.815
23.079
22.629
22.184
23.673
28.002
35.237
44.966
55.58
67.451
82.609
103.044
131.091
166.658
207.461
249.449
286.744
313.644
324.618
317.284
292.97
255.045
209.03
157.878
101.979
42.01
-20.988
-82.124
-134.819
-175.03
-201.729
-218.304
-229.366
-237.45
-243.22
-245.527
-243.725
-238.941
-232.967
-227.62
-223.992
-222.214
-222.147
-223.711
-226.703
-230.636
-234.931
-239.09
-242.677
-245.545
-247.66
-248.803
-248.908
-248.151
-246.75
-245.038
-243.384
-241.917
-240.679
-239.782
-239.223
-238.938
-238.852
-238.754
-238.409
-237.705
-236.587
-235.029
-233.062
-230.693
-227.929
-224.826
-221.454
-217.867
-214.116
-210.224
-206.212
-202.12
-198.001
-193.914
-189.911
-186.026
-182.28
-178.693
-175.279
-172.052
-169.019
-166.173
-163.511
-161.03
-158.729
-156.612
-154.676
-152.915
-151.317
-149.872
-148.566
-147.392
-146.339
-145.397
-144.556
-143.805
-143.135
-142.539
-142.005
-141.523
-141.077
-140.655
-140.241
-139.822
-139.384
-138.913
-138.395
-137.818
-137.17
-136.44
-135.616
-134.688
-133.645
-132.479
-131.181
-129.744
-128.159
-126.422
-124.526
-122.468
-120.243
-117.851
-115.289
-112.555
-109.651
-106.576
-103.332
-99.923
-96.35
-92.619
-88.734
-84.701
-80.527
-76.219
-71.785
-67.234
-62.574
-57.816
-52.97
-48.045
-43.053
-38.003
-32.906
-27.773
-22.615
-17.442
-12.266
-7.095
-1.941
3.188
8.281
13.329
18.325
23.26
28.127
32.917
37.626
42.247
46.775
51.204
55.533
59.756
63.872
67.88
71.779
75.568
79.249
82.822
86.291
89.657
92.925
96.097
99.179
102.175
105.09
107.929
110.698
113.402
116.047
118.639
121.183
123.683
126.146
128.575
130.974
133.348
135.7
138.033
140.349
142.651
144.939
147.214
149.476
151.724
153.956
156.171
158.364
160.532
162.67
164.772
166.833
168.846
170.803
172.695
174.515
176.252
177.898
179.442
180.874
182.183
183.36
184.392
185.271
185.985
186.524
186.878
187.037
186.991
186.732
186.251
185.538
184.587
183.391
181.942
180.236
178.268
176.033
173.529
170.754
167.707
164.387
160.796
156.937
152.812
148.427
143.786
138.897
133.768
128.407
122.825
117.032
111.041
104.864
98.515
92.007
85.357
78.58
71.693
64.713
57.657
50.544
43.392
36.221
29.049
21.896
14.781
7.722
0.738
-6.152
-12.931
-19.583
-26.091
-32.44
-38.617
-44.608
-50.403
-55.991
-61.364
-66.515
-71.439
-76.133
-80.593
-84.82
-88.815
-92.58
-96.12
-99.441
-102.551
-105.461
-108.18
-110.724
-113.106
-115.345
-117.457
-119.464
-121.386
-123.246
-125.068
-126.876
-128.696
-130.552
-132.471
-134.48
-136.603
-138.868
-141.3
-143.924
-146.764
-149.843
-153.186
-156.813
-160.744
-164.999
-169.596
-174.552
-179.882
-185.601
-191.72
-198.251
-205.205
-212.588
-220.407
-228.665
-237.363
-246.5
-256.075
-266.084
-276.523
-287.384
-298.663
-310.356
-322.46
-334.969
-347.879
-361.184
-374.878
-388.957
-403.415
-418.246
-433.442
-448.994
-464.892
-481.126
-497.683
-514.546
-531.691
-549.093
-566.722
-584.547
-602.534
-620.654
-638.869
-657.145
-675.446
-693.739
-711.998
-730.202
-748.333
-766.383
-784.346
-802.21
-819.98
-837.671
-855.267
-872.725
-889.969
-906.868
-923.322
-939.27
-954.623
-969.304
-983.326
-996.79
-1009.96
-1023.229
-1036.928
-1051.32
-1066.641
-1082.998
-1100.311
-1118.229
-1136.012
-1152.681
-1167.132
-1178.149
-1184.566
-1185.331
-1179.99
-1169.133
-1153.88
-1135.855
-1116.147
-1094.513
-1071.241
-1046.868
-1023.298
-1005.208
-996.502
-1001.393
-1024.252
-1066.288
-1128.364
-1206.84
-1289.33
-1358.833
-1393.381
-1373.865
-1294.739
-1162.89
-997.312
-822.815
-658.325
-514.982
-397.577
-305.277
-236.55
-191.021
-163.802
-147.096
-132.78
-111.46
-80.113
-42.248
-3.054
30.851
55.327
70.299
78.142
81.224
82.44
84.013
84.885
85.956
89.171
98.08
120.924
162.428
222.749
297.223
375.192
449.381
517.136
579.198
639.913
699.811
755.553
802.899
837.16
857.45
866.928
870.882
874.719
882.003
893.84
908.267
923.515
938.818
954.01
970.889
990.384
1012.281
1036.414
1061.552
1086.639
1111.01
1133.571
1153.712
1171.272
1186.105
1198.339
1208.203
1215.863
1221.716
1226.358
1230.167
1233.297
1235.754
1237.388
1238.084
1237.805
1236.439
1233.798
1229.762
1224.275
1217.377
1209.221
1199.939
1189.618
1178.335
1166.166
1153.197
1139.551
1125.382
1110.823
1095.996
1081.024
1066.046
1051.227
1036.764
1022.83
1009.53
996.922
985.036
973.909
963.6
954.151
945.589
937.916
931.104
925.136
920.011
915.706
912.172
909.33
907.033
905.14
903.557
902.207
901.036
899.988
898.975
897.918
896.75
895.392
893.771
891.8
889.35
886.326
882.655
878.281
873.224
867.524
861.187
854.23
846.659
838.479
829.735
820.481
810.751
800.609
790.123
779.375
768.495
757.59
746.73
735.977
725.332
714.772
704.31
693.959
683.733
673.658
663.73
653.935
644.289
634.802
625.475
616.308
607.269
598.353
589.613
581.132
573.025
565.419
558.409
552.064
546.457
541.649
537.711
534.714
532.694
531.684
531.716
532.823
535.043
538.373
542.737
548.009
554.04
560.683
567.806
575.287
582.995
590.797
598.552
606.124
613.383
620.185
626.389
631.845
636.405
639.974
642.509
644.012
644.505
644.008
642.544
640.151
636.88
632.787
627.948
622.435
616.338
609.784
602.897
595.802
588.632
581.474
574.394
567.44
560.645
554.034
547.63
541.438
535.454
529.678
524.097
518.693
513.435
508.257
503.104
497.93
492.688
487.356
481.918
476.358
470.673
464.871
458.96
452.966
446.915
440.83
434.744
428.698
422.746
416.964
411.407
406.123
401.152
396.519
392.255
388.386
384.927
381.888
379.272
377.064
375.251
373.817
372.721
371.923
371.369
370.989
370.742
370.599
370.536
370.556
370.659
370.855
371.186
371.692
372.419
373.442
374.834
376.679
379.096
382.18
386.022
390.737
396.398
403.063
410.792
419.606
429.509
440.494
452.511
465.504
479.421
494.169
509.646
525.746
542.339
559.341
576.697
594.331
612.179
630.175
648.246
666.35
684.464
702.561
720.631
738.65
756.594
774.491
792.348
810.112
827.673
844.788
861.177
876.636
890.995
904.114
915.968
926.613
936.233
945.201
953.865
962.441
970.926
979.081
986.431
992.319
995.967
996.453
992.87
984.528
971.214
953.126
930.867
905.475
878.144
850.345
823.825
800.086
780.071
764.415
753.325
746.481
743.469
743.363
744.645
746.12
747.049
746.83
745.197
742.111
737.409
731.53
725.542
720.213
716.077
713.537
712.659
713.648
716.952
722.474
729.603
737.723
746.118
754.165
761.491
767.625
771.889
774.473
776.56
778.793
781.713
785.138
787.534
790.183
796.69
810.359
834.695
868.283
905.321
940.807
970.643
995.007
1016.306
1034.619
1047.403
1047.415
1027.535
984.106
916.861
833.554
744.906
660.961
592.222
541.651
506.518
483.611
467.099
454.969
449.898
452.161
460.953
473.696
484.564
490.959
493.97
494.728
495.546
497.066
497.269
495.256
490.843
484.585
478.24
473.049
469.581
468.11
468.541
470.718
474.485
479.554
485.473
491.711
497.849
503.575
508.682
512.985
516.175
518.015
518.562
518.07
516.922
515.625
514.571
514.235
515.423
518.931
525.308
534.781
547.128
561.814
578.318
595.971
613.742
630.479
645.144
657.06
666.067
672.364
676.254
678.165
678.781
678.978
679.574
681.105
683.774
687.523
692.174
697.501
703.16
708.679
713.619
717.672
720.63
722.37
722.85
722.09
720.133
717.061
713.058
708.362
703.326
698.435
694.049
690.349
687.543
685.817
685.058
684.895
684.618
683.164
679.67
673.529
664.01
650.35
632.115
609.214
582.092
551.693
518.824
484.207
448.921
414.322
381.759
352.408
327.073
306.256
290.502
280.286
274.882
272.326
270.742
268.366
265.537
264.65
265.837
267.034
262.411
242.651
202.061
139.994
62.023
-20.411
-96.79
-160.648
-210.91
-251.525
-287.708
-322.966
-358.064
-391.555
-421.367
-446.674
-468.118
-487.254
-505.708
-524.176
-542.686
-560.935
-578.37
-594.55
-609.003
-621.106
-630.53
-637.224
-641.288
-643.051
-642.873
-641.089
-638.14
-634.484
-630.461
-626.328
-622.25
-618.336
-614.738
-611.613
-609.113
-607.357
-606.408
-606.313
-607.095
-608.732
-611.182
-614.361
-618.134
-622.387
-627.024
-631.939
-637.05
-642.248
-647.385
-652.333
-656.974
-661.207
-664.976
-668.234
-670.942
-673.095
-674.71
-675.822
-676.499
-676.798
-676.757
-676.428
-675.862
-675.127
-674.319
-673.514
-672.769
-672.132
-671.629
-671.284
-671.119
-671.135
-671.318
-671.648
-672.098
-672.645
-673.278
-673.973
-674.706
-675.443
-676.142
-676.771
-677.312
-677.747
-678.063
-678.252
-678.304
-678.22
-678.009
-677.677
-677.229
-676.668
-675.994
-675.209
-674.322
-673.337
-672.262
-671.103
-669.862
-668.544
-667.153
-665.693
-664.165
-662.572
-660.911
-659.183
-657.392
-655.538
-653.625
-651.654
-649.628
-647.549
-645.419
-643.24
-641.013
-638.737
-636.412
-634.038
-631.613
-629.136
-626.606
-624.02
-621.377
-618.675
-615.911
-613.084
-610.19
-607.226
-604.191
-601.083
-597.898
-594.634
-591.29
-587.862
-584.349
-580.749
-577.061
-573.283
-569.414
-565.454
-561.401
-557.258
-553.023
-548.699
-544.287
-539.789
-535.21
-530.554
-525.825
-521.031
-516.178
-511.276
-506.336
-501.369
-496.385
-491.397
-486.415
-481.453
-476.523
-471.636
-466.804
-462.037
-457.351
-452.759
-448.278
-443.921
-439.705
-435.645
-431.759
-428.063
-424.572
-421.295
-418.246
-415.436
-412.883
-410.608
-408.628
-406.95
-405.58
-404.523
-403.78
-403.343
-403.197
-403.31
-403.657
-404.216
-404.973
-405.923
-407.051
-408.336
-409.75
-411.27
-412.887
-414.604
-416.418
-418.327
-420.346
-422.514
-424.899
-427.582
-430.622
-434.048
-437.879
-442.142
-446.868
-452.094
-457.845
-464.107
-470.856
-478.09
-485.764
-493.789
-501.994
-510.082
-517.739
-524.724
-530.784
-535.666
-539.273
-541.571
-542.686
-543.016
-542.867
-542.424
-541.972
-541.739
-541.656
-541.507
-540.757
-538.468
-533.964
-526.609
-515.506
-499.871
-479.163
-453.69
-424.912
-394.55
-364.197
-333.994
-302.682
-270.79
-240.364
-216.571
-207.504
-217.27
-246.23
-289.701
-338.091
-385.359
-428.089
-465.842
-501.184
-532.572
-557.421
-573.064
-576.303
-568.82
-553.489
-533.055
-511.209
-488.978
-467.11
-446.857
-428.711
-413.879
-403.097
-396.085
-392.378
-391.028
-390.902
-391.163
-390.989
-389.674
-386.928
-382.671
-377.015
-370.323
-363.015
-355.507
-348.283
-341.708
-335.911
-330.925
-326.683
-323.025
-319.83
-316.959
-314.214
-311.484
-308.737
-305.97
-303.232
-300.569
-297.992
-295.534
-293.243
-291.157
-289.31
-287.733
-286.437
-285.447
-284.782
-284.447
-284.439
-284.73
-285.281
-286.056
-287.02
-288.156
-289.452
-290.888
-292.437
-294.058
-295.722
-297.424
-299.174
-300.972
-302.828
-304.746
-306.746
-308.915
-311.301
-313.908
-316.694
-319.53
-322.297
-324.957
-327.503
-329.935
-332.338
-334.839
-337.601
-340.909
-344.965
-349.801
-355.296
-361.139
-366.808
-371.657
-375.045
-376.296
-374.885
-370.523
-363.117
-352.836
-340.168
-325.847
-310.609
-295.151
-280.034
-265.597
-252.059
-239.546
-227.968
-217.065
-206.614
-196.425
-186.403
-176.623
-167.21
-158.273
-149.948
-142.358
-135.532
-129.493
-124.213
-119.587
-115.492
-111.767
-108.265
-104.892
-101.597
-98.342
-95.081
-91.748
-88.257
-84.56
-80.639
-76.489
-72.13
-67.564
-62.81
-57.912
-52.944
-47.998
-43.14
-38.401
-33.788
-29.31
-24.984
-20.84
-16.907
-13.19
-9.691
-6.409
-3.345
-0.503
2.126
4.566
6.858
9.043
11.153
13.204
15.207
17.171
19.104
21.019
22.918
24.8
26.665
28.516
30.361
32.208
34.061
35.917
37.773
39.624
41.469
43.308
45.14
46.967
48.789
50.611
52.438
54.277
56.133
58.009
59.908
61.83
63.779
65.756
67.761
69.794
71.857
73.949
76.072
78.226
80.412
82.628
84.874
87.149
89.451
91.778
94.126
96.494
98.879
101.277
103.685
106.1
108.519
110.936
113.349
115.752
118.141
120.51
122.854
125.167
127.443
129.678
131.865
134
136.076
138.09
140.037
141.911
143.709
145.426
147.058
148.601
150.051
151.405
152.661
153.816
154.868
155.816
156.658
157.395
158.025
158.55
158.969
159.285
159.497
159.609
159.623
159.541
159.368
159.109
158.766
158.346
157.854
157.295
156.676
156.002
155.281
154.518
153.72
152.894
152.048
151.19
150.327
149.467
148.618
147.787
146.982
146.21
145.478
144.791
144.156
143.577
143.062
142.615
142.239
141.94
141.72
141.583
141.532
141.566
141.687
141.893
142.183
142.556
143.008
143.536
144.136
144.805
145.536
146.323
147.162
148.044
148.961
149.902
150.857
151.815
152.763
153.69
154.583
155.43
156.22
156.944
157.593
158.158
158.632
159.005
159.27
159.416
159.437
159.324
159.07
158.67
158.121
157.421
156.57
155.572
154.431
153.147
151.72
150.141
148.408
146.524
144.494
142.327
140.038
137.642
135.164
132.64
130.104
127.591
125.131
122.735
120.412
118.18
116.059
114.084
112.281
110.653
109.194
107.907
106.79
105.845
105.05
104.33
103.599
102.783
101.816
100.683
99.378
97.838
96.029
93.956
91.681
89.391
87.302
85.51
84.116
83.299
83.177
83.828
85.199
86.888
88.424
89.549
90.013
89.46
87.769
85.091
81.804
79.36
79.319
82.226
89.091
100.041
114.869
134.897
159.737
189.136
223.007
259.486
298.496
337.816
372.914
399.018
408.895
399.59
372.496
331.073
281.795
228.293
172.543
117.435
66.409
24.577
-4.279
-19.968
-25.885
-26.688
-25.441
-23.057
-18.585
-11.377
-2.191
7.532
16.342
23.523
29.012
33.16
36.558
39.603
42.655
45.969
49.314
52.549
55.791
58.958
61.946
64.708
67.053
68.918
70.539
71.986
73.128
73.949
74.419
74.538
74.438
74.188
73.768
73.24
72.735
72.332
72.106
72.094
72.265
72.603
73.104
73.735
74.455
75.225
76.009
76.776
77.509
78.177
78.746
79.189
79.489
79.637
79.63
79.47
79.159
78.708
78.139
77.467
76.707
75.873
74.972
74.02
73.031
72.022
71.005
69.994
69.002
68.041
67.123
66.259
65.457
64.723
64.063
63.483
62.993
62.598
62.305
62.121
62.052
62.103
62.279
62.585
63.021
63.589
64.29
65.124
66.091
67.188
68.413
69.765
71.239
72.831
74.537
76.352
78.269
80.282
82.383
84.566
86.823
89.144
91.522
93.948
96.412
98.905
101.417
103.939
106.461
108.972
111.463
113.923
116.343
118.713
121.022
123.263
125.425
127.501
129.482
131.36
133.129
134.782
136.311
137.712
138.979
140.107
141.092
141.931
142.62
143.158
143.543
143.773
143.85
143.772
143.542
143.161
142.631
141.956
141.138
140.183
139.095
137.88
136.543
135.092
133.534
131.875
130.124
128.288
126.377
124.399
122.362
120.276
118.15
115.993
113.814
111.622
109.426
107.235
105.058
102.902
100.775
98.685
96.64
94.644
92.706
90.829
89.02
87.283
85.621
84.038
82.536
81.118
79.784
78.536
77.373
76.296
75.303
74.392
73.562
72.81
72.134
71.529
70.992
70.52
70.106
69.748
69.439
69.175
68.951
68.76
68.598
68.46
68.34
68.232
68.132
68.036
67.937
67.832
67.717
67.587
67.439
67.27
67.077
66.857
66.609
66.33
66.019
65.675
65.296
64.882
64.433
63.948
63.428
62.873
62.284
61.661
61.006
60.32
59.605
58.861
58.091
57.297
56.48
55.642
54.784
53.908
53.017
52.112
51.194
50.266
49.327
48.38
47.426
46.465
45.498
44.526
43.549
42.569
41.586
40.599
39.611
38.62
37.628
36.635
35.642
34.649
33.657
32.665
31.674
30.685
29.7
28.717
27.739
26.766
25.801
24.844
23.897
22.963
22.042
21.136
20.249
19.382
18.539
17.722
16.933
16.176
15.455
14.772
14.131
13.534
12.985
12.486
12.04
11.651
11.319
11.047
10.836
10.688
10.606
10.589
10.638
10.752
10.933
11.177
11.482
11.845
12.26
12.723
13.227
13.767
14.336
14.929
15.539
16.161
16.789
17.417
18.039
18.644
19.225
19.775
20.286
20.753
21.167
21.52
21.807
22.026
22.171
22.234
22.203
22.059
21.789
21.388
20.853
20.179
19.366
18.416
17.342
16.169
14.924
13.629
12.301
10.95
9.598
8.283
7.045
5.932
4.973
4.17
3.531
3.072
2.795
2.694
2.727
2.804
2.849
2.799
2.586
2.165
1.447
0.286
-1.414
-3.696
-6.507
-9.657
-12.967
-16.328
-19.558
-22.412
-24.701
-26.282
-27.291
-28.232
-29.573
-31.663
-34.794
-39.106
-44.585
-51.044
-57.782
-63.514
-66.865
-66.421
-60.863
-49.211
-30.613
-4.548
28.767
68.524
113.585
162.216
212.484
262.065
307.784
347.297
379.086
402.572
418.626
426.511
424.274
409.513
379.17
333.752
276.708
213.609
152.367
98.61
55.834
24.813
2.888
-12.029
-21.707
-26.655
-25.513
-18.351
-6.165
9.349
25.496
40.574
53.743
64.176
71.467
75.616
76.786
75.567
72.873
69.331
65.454
61.964
59.432
58.143
58.224
59.483
61.496
63.964
66.576
68.882
70.578
71.505
71.596
70.955
69.772
68.212
66.471
64.774
63.253
61.973
60.962
60.192
59.634
59.264
59.038
58.905
58.833
58.802
58.792
58.786
58.751
58.639
58.414
58.05
57.533
56.856
56.015
55.005
53.83
52.502
51.032
49.429
47.698
45.841
43.865
41.782
39.607
37.356
35.044
32.683
30.286
27.865
25.433
23
20.573
18.159
15.769
13.411
11.098
8.841
6.65
4.535
2.507
0.576
-1.25
-2.963
-4.558
-6.027
-7.367
-8.573
-9.639
-10.564
-11.345
-11.98
-12.468
-12.809
-13.002
-13.05
-12.954
-12.718
-12.345
-11.839
-11.205
-10.447
-9.571
-8.585
-7.493
-6.302
-5.021
-3.655
-2.215
-0.707
0.859
2.475
4.132
5.821
7.534
9.26
10.993
12.723
14.442
16.142
17.816
19.456
21.055
22.605
24.1
25.533
26.898
28.19
29.404
30.534
31.577
32.529
33.385
34.143
34.8
35.353
35.802
36.143
36.377
36.501
36.518
36.425
36.225
35.918
35.507
34.992
34.377
33.663
32.855
31.954
30.965
29.89
28.735
27.503
26.197
24.823
23.385
21.888
20.334
18.73
17.079
15.386
13.654
11.889
10.094
8.273
6.431
4.57
2.696
0.812
-1.08
-2.974
-4.869
-6.76
-8.646
-10.523
-12.39
-14.243
-16.082
-17.903
-19.705
-21.486
-23.246
-24.983
-26.696
-28.383
-30.045
-31.679
-33.287
-34.865
-36.416
-37.936
-39.427
-40.887
-42.316
-43.713
-45.078
-46.411
-47.71
-48.977
-50.21
-51.411
-52.577
-53.711
-54.812
-55.879
-56.913
-57.915
-58.885
-59.822
-60.728
-61.602
-62.446
-63.259
-64.042
-64.796
-65.522
-66.219
-66.888
-67.53
-68.146
-68.736
-69.301
-69.842
-70.361
-70.858
-71.335
-71.793
-72.233
-72.657
-73.066
-73.46
-73.842
-74.211
-74.569
-74.918
-75.257
-75.587
-75.909
-76.225
-76.534
-76.836
-77.132
-77.422
-77.706
-77.983
-78.254
-78.517
-78.774
-79.023
-79.265
-79.499
-79.725
-79.942
-80.149
-80.346
-80.531
-80.703
-80.861
-81.002
-81.126
-81.232
-81.318
-81.383
-81.427
-81.448
-81.447
-81.423
-81.374
-81.301
-81.204
-81.082
-80.935
-80.765
-80.572
-80.359
-80.128
-79.88
-79.619
-79.346
-79.065
-78.78
-78.492
-78.205
-77.923
-77.651
-77.392
-77.154
-76.942
-76.765
-76.63
-76.545
-76.517
-76.553
-76.662
-76.847
-77.114
-77.466
-77.907
-78.442
-79.075
-79.811
-80.654
-81.609
-82.681
-83.871
-85.181
-86.612
-88.162
-89.826
-91.601
-93.483
-95.473
-97.577
-99.798
-102.13
-104.57
-107.11
-109.737
-112.437
-115.192
-117.968
-120.732
-123.456
-126.109
-128.681
-131.165
-133.546
-135.806
-137.92
-139.864
-141.644
-143.271
-144.747
-146.076
-147.257
-148.306
-149.293
-150.298
-151.392
-152.641
-154.062
-155.663
-157.498
-159.597
-161.95
-164.496
-167.062
-169.443
-171.523
-173.199
-174.339
-174.846
-174.639
-173.773
-172.532
-171.275
-170.334
-169.941
-170.255
-171.456
-173.508
-175.965
-178.243
-179.088
-177.098
-171.829
-162.481
-149.095
-132.643
-112.579
-88.989
-61.708
-29.461
6.961
45.858
83.863
115.129
133.688
134.909
117.947
85.236
42.062
-6.346
-58.646
-113.405
-169.276
-223.164
-267.228
-296.469
-309.704
-309.351
-302.901
-295.518
-289.006
-283.42
-276.391
-267.309
-257.269
-247.289
-238.75
-232.075
-226.798
-222.636
-219.335
-216.481
-213.887
-211.405
-208.734
-205.812
-202.705
-199.325
-195.562
-191.488
-187.164
-182.71
-178.417
-174.384
-170.59
-167.092
-163.919
-161.027
-158.363
-155.793
-153.106
-150.203
-147.063
-143.662
-140.012
-136.124
-132.006
-127.71
-123.31
-118.858
-114.39
-109.935
-105.512
-101.158
-96.926
-92.855
-88.973
-85.298
-81.839
-78.605
-75.601
-72.826
-70.271
-67.924
-65.776
-63.817
-62.045
-60.45
-59.022
-57.746
-56.606
-55.588
-54.679
-53.862
-53.126
-52.456
-51.839
-51.266
-50.725
-50.204
-49.691
-49.17
-48.628
-48.051
-47.426
-46.74
-45.979
-45.133
-44.19
-43.141
-41.979
-40.696
-39.284
-37.737
-36.05
-34.22
-32.242
-30.116
-27.839
-25.412
-22.836
-20.114
-17.248
-14.243
-11.104
-7.836
-4.448
-0.946
2.66
6.361
10.149
14.01
17.936
21.912
25.928
29.97
34.026
38.083
42.126
46.144
50.122
54.047
57.908
61.691
65.384
68.976
72.454
75.809
79.029
82.105
85.027
87.786
90.375
92.787
95.014
97.051
98.894
100.537
101.979
103.215
104.246
105.069
105.685
106.095
106.301
106.306
106.112
105.723
105.147
104.386
103.45
102.344
101.076
99.655
98.09
96.39
94.564
92.624
90.578
88.439
86.216
83.922
81.567
79.162
76.718
74.247
71.761
69.268
66.782
64.312
61.867
59.459
57.097
54.791
52.548
50.377
48.287
46.284
44.375
42.566
40.864
39.272
37.795
36.437
35.201
34.089
33.102
32.243
31.511
30.908
30.431
30.082
29.857
29.755
29.775
29.912
30.164
30.528
30.999
31.573
32.246
33.014
33.871
34.812
35.831
36.924
38.084
39.306
40.583
41.91
43.281
44.691
46.133
47.603
49.094
50.602
52.121
53.646
55.173
56.696
58.212
59.715
61.202
62.67
64.114
65.531
66.918
68.272
69.59
70.87
72.108
73.302
74.451
75.553
76.606
77.609
78.562
79.463
80.313
81.111
81.856
82.55
83.193
83.785
84.327
84.82
85.266
85.665
86.02
86.333
86.606
86.841
87.041
87.208
87.344
87.452
87.535
87.596
87.639
87.666
87.682
87.69
87.695
87.701
87.711
87.731
87.763
87.811
87.879
87.969
88.086
88.233
88.413
88.628
88.883
89.179
89.52
89.908
90.344
90.828
91.361
91.944
92.576
93.256
93.983
94.757
95.575
96.437
97.339
98.279
99.254
100.257
101.284
102.328
103.381
104.436
105.485
106.521
107.537
108.524
109.478
110.393
111.264
112.086
112.852
113.557
114.193
114.752
115.229
115.616
115.909
116.104
116.198
116.191
116.086
115.883
115.583
115.182
114.67
114.042
113.298
112.441
111.476
110.412
109.257
108.031
106.764
105.485
104.222
102.993
101.796
100.634
99.516
98.454
97.47
96.58
95.774
95.049
94.411
93.862
93.41
93.03
92.647
92.184
91.569
90.759
89.748
88.523
87.033
85.262
83.232
81.027
78.836
76.819
75.06
73.647
72.726
72.415
72.756
73.654
74.769
75.708
76.208
76.034
74.894
72.645
69.441
65.744
62.447
60.628
61.13
64.85
72.889
86.071
104.701
128.104
154.48
181.895
209.071
235.879
262.503
287.804
308.71
319.837
315.995
295.155
259.088
213.624
165.32
118.625
75.551
35.725
-0.914
-33.211
-59.538
-78.214
-88.898
-92.551
-90.512
-84.289
-75.432
-65.327
-55.253
-46.252
-38.8
-32.908
-28.397
-25.031
-22.417
-20.164
-17.922
-15.303
-12.183
-8.697
-4.998
-1.232
2.417
5.849
8.972
11.548
13.471
14.793
15.561
15.879
15.856
15.517
14.921
14.252
13.641
13.156
12.858
12.728
12.753
12.962
13.359
13.91
14.58
15.327
16.113
16.931
17.763
18.578
19.344
20.018
20.572
20.995
21.28
21.428
21.441
21.321
21.079
20.736
20.308
19.809
19.253
18.647
18.003
17.336
16.659
15.987
15.33
14.699
14.102
13.546
13.039
12.586
12.188
11.85
11.572
11.359
11.213
11.138
11.135
11.207
11.353
11.577
11.876
12.251
12.701
13.222
13.814
14.474
15.2
15.989
16.84
17.75
18.716
19.737
20.81
21.934
23.107
24.326
25.592
26.901
28.255
29.65
31.086
32.562
34.078
35.633
37.226
38.858
40.527
42.234
43.978
45.758
47.574
49.425
51.31
53.228
55.176
57.153
59.157
61.184
63.232
65.296
67.372
69.454
71.535
73.61
75.668
77.703
79.705
81.665
83.572
85.417
87.187
88.873
90.464
91.947
93.312
94.547
95.639
96.576
97.346
97.939
98.341
98.543
98.534
98.304
97.845
97.149
96.21
95.019
93.573
91.866
89.896
87.661
85.161
82.395
79.367
76.081
72.542
68.756
64.731
60.475
55.996
51.303
46.408
41.319
36.046
30.601
24.997
19.248
13.367
7.371
1.273
-4.91
-11.157
-17.453
-23.779
-30.12
-36.462
-42.792
-49.095
-55.36
-61.575
-67.731
-73.819
-79.83
-85.752
-91.572
-97.282
-102.876
-108.356
-113.721
-118.964
-124.081
-129.062
-133.895
-138.566
-143.048
-147.303
-151.302
-155.023
-158.451
-161.584
-164.424
-166.976
-169.246
-171.24
-172.953
-174.369
-175.474
-176.261
-176.749
-176.987
-177.033
-176.932
-176.749
-176.569
-176.431
-176.328
-176.181
-175.773
-174.926
-173.619
-171.787
-169.313
-166.311
-162.947
-159.401
-156.224
-153.418
-150.194
-146.678
-143.257
-140.675
-140.874
-143.05
-144.126
-141.104
-130.199
-111.404
-88.437
-64.624
-43.486
-26.087
-10.848
2.866
15.332
26.427
35.39
42.423
48.264
53.445
58.542
64.024
70.272
77.54
85.813
94.766
103.892
112.871
121.575
129.895
137.722
144.957
151.539
157.537
163.132
168.41
173.368
177.96
182.103
185.75
188.899
191.525
193.588
195.059
195.92
196.175
195.854
194.974
193.541
191.558
189.018
185.925
182.294
178.14
173.483
168.339
162.716
156.627
150.09
143.121
135.739
127.96
119.795
111.255
102.358
93.127
83.599
73.813
63.807
53.613
43.25
32.745
22.131
11.443
0.725
-10
-20.746
-31.467
-42.068
-52.462
-62.537
-72.275
-81.777
-91.075
-100.116
-108.955
-117.697
-126.469
-135.485
-144.718
-153.847
-162.681
-171.141
-179.056
-186.262
-192.535
-197.502
-201.12
-203.719
-205.473
-206.449
-206.764
-206.473
-205.75
-204.969
-204.219
-203.295
-202.126
-200.719
-199.072
-197.249
-195.155
-192.484
-189.113
-185.128
-180.595
-175.57
-170.116
-164.323
-158.464
-153.043
-148.522
-145.124
-142.949
-142.084
-142.489
-143.892
-145.751
-147.109
-146.816
-144.038
-138.089
-128.115
-113.472
-93.859
-69.338
-41.128
-11.318
18.483
47.116
74.277
100.382
124.662
144.322
154.959
152.66
135.143
103.482
62.302
15.457
-32.561
-77.403
-117.233
-148.694
-170.552
-184.834
-192.8
-197.172
-199.474
-198.364
-193.566
-185.214
-173.929
-161.725
-149.74
-138.059
-126.722
-115.655
-104.939
-95.062
-86.423
-79.001
-72.878
-68.288
-65.26
-63.73
-63.399
-63.56
-63.599
-63.236
-62.215
-60.357
-57.637
-54.02
-49.679
-45.048
-40.446
-36.033
-31.908
-28.049
-24.416
-21.013
-17.76
-14.5
-11.146
-7.662
-4.067
-0.438
3.163
6.695
10.104
13.329
16.317
19.03
21.452
23.584
25.426
26.975
28.225
29.173
29.827
30.193
30.277
30.085
29.621
28.89
27.903
26.67
25.202
23.511
21.604
19.492
17.186
14.698
12.039
9.22
6.252
3.146
-0.086
-3.431
-6.875
-10.406
-14.01
-17.675
-21.388
-25.137
-28.909
-32.696
-36.486
-40.273
-44.045
-47.795
-51.513
-55.192
-58.824
-62.403
-65.921
-69.375
-72.759
-76.073
-79.316
-82.488
-85.59
-88.623
-91.587
-94.484
-97.317
-100.087
-102.794
-105.44
-108.029
-110.564
-113.049
-115.488
-117.886
-120.247
-122.576
-124.879
-127.163
-129.433
-131.693
-133.951
-136.216
-138.498
-140.812
-143.168
-145.571
-148.024
-150.53
-153.089
-155.698
-158.343
-160.999
-163.647
-166.264
-168.83
-171.328
-173.729
-176.006
-178.141
-180.11
-181.907
-183.532
-184.978
-186.24
-187.322
-188.227
-188.981
-189.636
-190.249
-190.877
-191.591
-192.476
-193.613
-195.065
-196.842
-198.835
-200.869
-202.775
-204.37
-205.508
-206.144
-206.195
-205.752
-205.338
-205.55
-206.932
-209.485
-212.351
-214.759
-216.741
-219.886
-226.263
-235.959
-246.334
-251.314
-244.188
-221.916
-185.101
-138.556
-89.447
-43.55
-5.834
20.728
35.922
41.326
40.649
37.428
33.775
30.14
25.313
18.915
11.504
3.972
-2.308
-6.866
-10.157
-12.63
-14.911
-17.619
-20.879
-24.684
-29.015
-33.647
-38.363
-42.998
-47.311
-51.063
-54.195
-56.768
-58.887
-60.714
-62.351
-63.86
-65.378
-67.102
-69.223
-71.876
-75.086
-78.762
-82.79
-87.054
-91.362
-95.465
-99.165
-102.315
-104.91
-107.207
-109.582
-112.432
-116.287
-121.107
-125.891
-129.688
-131.52
-131.949
-133.566
-137.061
-140.718
-139.238
-124.126
-91.284
-42.281
17.2
77.99
134.527
186.279
232.871
274.067
308.248
331.368
342.491
344.134
339.154
331.604
323.79
315.259
306.174
296.792
287.662
280.223
275.201
272.551
271.959
272.776
274.376
276.265
277.918
278.901
278.89
277.748
275.54
272.433
268.668
264.528
260.323
256.3
252.634
249.396
246.531
243.913
241.373
238.743
235.858
232.615
228.965
224.887
220.406
215.568
210.422
205.027
199.439
193.692
187.805
181.805
175.718
169.584
163.451
157.348
151.291
145.285
139.33
133.428
127.582
121.784
116.028
110.316
104.663
99.098
93.646
88.329
83.155
78.125
73.242
68.512
63.943
59.555
55.358
51.353
47.546
43.937
40.511
37.242
34.077
30.934
27.742
24.442
20.985
17.357
13.555
9.584
5.463
1.213
-3.132
-7.526
-11.925
-16.286
-20.545
-24.621
-28.399
-31.707
-34.369
-36.23
-37.143
-37.015
-35.795
-33.439
-29.925
-25.277
-19.545
-12.752
-4.891
4.093
14.293
25.736
38.382
52.19
67.075
82.827
99.129
115.551
131.655
147.082
161.425
174.232
185.176
194.566
203.39
212.604
222.593
232.307
240.069
245.795
251.56
261.206
278.288
303.501
333.568
363.685
390.424
410.786
424.261
430.231
423.863
402.531
364.215
308.072
241.008
170.157
103.112
49.265
11.214
-11.599
-22.2
-27.633
-31.458
-34.255
-35.395
-32.388
-24.859
-14.608
-3.583
6.081
13.052
16.989
17.934
16.194
12.27
6.826
0.391
-6.526
-13.219
-19.135
-23.983
-27.618
-30.183
-32.013
-33.33
-34.398
-35.619
-37.261
-39.491
-42.396
-45.886
-49.789
-53.946
-58.176
-62.282
-66.155
-69.736
-72.993
-75.951
-78.646
-81.118
-83.424
-85.617
-87.729
-89.78
-91.79
-93.781
-95.789
-97.865
-100.044
-102.354
-104.813
-107.434
-110.229
-113.208
-116.373
-119.713
-123.221
-126.894
-130.732
-134.737
-138.905
-143.229
-147.703
-152.319
-157.071
-161.956
-166.97
-172.11
-177.376
-182.765
-188.277
-193.912
-199.668
-205.544
-211.54
-217.651
-223.865
-230.173
-236.56
-243.004
-249.485
-255.974
-262.436
-268.836
-275.142
-281.323
-287.355
-293.212
-298.876
-304.325
-309.535
-314.495
-319.209
-323.686
-327.946
-332.015
-335.919
-339.696
-343.397
-347.06
-350.715
-354.384
-358.072
-361.776
-365.488
-369.19
-372.865
-376.478
-379.959
-383.227
-386.185
-388.715
-390.696
-391.988
-392.421
-391.867
-390.241
-387.454
-383.435
-378.154
-371.595
-363.802
-354.895
-344.934
-333.937
-321.959
-309.064
-295.298
-280.738
-265.372
-249.021
-231.666
-213.456
-194.571
-175.359
-156.245
-137.566
-119.849
-103.931
-90.367
-79.466
-71.444
-66.057
-62.871
-61.534
-61.377
-61.388
-60.865
-59.24
-55.961
-50.998
-44.521
-36.668
-27.921
-18.974
-10.261
-2.206
4.717
10.372
14.731
17.799
19.844
21.214
22.105
22.715
23.256
23.813
24.449
25.189
25.929
26.534
26.935
27.095
27.005
26.694
26.188
25.515
24.741
23.948
23.2
22.538
21.978
21.523
21.18
20.968
20.901
20.989
21.245
21.679
22.304
23.138
24.193
25.474
26.985
28.724
30.685
32.869
35.273
37.895
40.731
43.774
47.018
50.456
54.081
57.883
61.85
65.969
70.223
74.599
79.078
83.644
88.278
92.962
97.677
102.405
107.126
111.822
116.473
121.062
125.569
129.975
134.262
138.412
142.407
146.23
149.865
153.296
156.51
159.492
162.23
164.712
166.928
168.869
170.525
171.89
172.955
173.718
174.174
174.32
174.158
173.686
172.908
171.829
170.452
168.786
166.837
164.616
162.132
159.396
156.423
153.225
149.818
146.218
142.443
138.512
134.444
130.26
125.982
121.629
117.226
112.794
108.356
103.935
99.554
95.236
91.005
86.884
82.894
79.06
75.402
71.942
68.7
65.695
62.946
60.469
58.279
56.392
54.82
53.576
52.669
52.11
51.905
52.06
52.579
53.465
54.717
56.332
58.304
60.626
63.291
66.289
69.606
73.232
77.152
81.354
85.825
90.55
95.511
100.692
106.07
111.626
117.337
123.18
129.133
135.171
141.274
147.42
153.594
159.776
165.945
172.08
178.152
184.135
190.008
195.752
201.354
206.806
212.103
217.25
222.258
227.139
231.906
236.567
241.123
245.574
249.91
254.133
258.253
262.278
266.206
270.029
273.716
277.237
280.57
283.674
286.499
288.984
291.049
292.629
293.676
294.156
294.073
293.402
292.079
290.111
287.557
284.563
281.404
278.314
275.43
272.966
271.169
270.139
269.914
270.278
270.677
270.658
269.893
268.051
264.995
260.89
256.097
251.454
248.261
247.716
250.99
259.144
272.8
292.086
316.588
345.136
375.943
407.065
436.227
461.036
479.297
489.104
489.203
479.113
458.962
429.342
391.539
347.402
299.214
249.569
200.778
154.818
113.529
78.44
50.552
30.307
17.468
11.23
10.849
15.575
24.306
35.803
48.84
62.286
75.383
87.683
98.545
107.203
113.289
116.794
117.986
117.388
115.466
112.535
109.096
105.888
103.438
101.957
101.4
101.389
101.499
101.552
101.463
101.082
100.327
99.253
98.032
97.106
96.99
97.903
99.762
102.325
105.362
108.706
112.181
115.481
118.2
120.111
121.255
121.877
122.186
122.266
122.148
121.878
121.585
121.366
121.197
120.948
120.501
119.809
118.88
117.746
116.408
114.846
113.062
111.081
108.932
106.639
104.204
101.615
98.866
95.962
92.912
89.73
86.425
83.001
79.467
75.828
72.097
68.284
64.4
60.455
56.46
52.427
48.365
44.285
40.199
36.114
32.037
27.973
23.928
19.907
15.917
11.963
8.05
4.184
0.37
-3.389
-7.089
-10.727
-14.299
-17.804
-21.24
-24.605
-27.898
-31.119
-34.265
-37.338
-40.337
-43.263
-46.117
-48.9
-51.612
-54.257
-56.835
-59.349
-61.802
-64.195
-66.53
-68.81
-71.037
-73.214
-75.343
-77.428
-79.471
-81.476
-83.447
-85.388
-87.304
-89.198
-91.076
-92.94
-94.796
-96.647
-98.497
-100.35
-102.211
-104.082
-105.967
-107.87
-109.796
-111.748
-113.729
-115.743
-117.792
-119.879
-122.007
-124.177
-126.392
-128.653
-130.962
-133.32
-135.729
-138.189
-140.7
-143.262
-145.874
-148.535
-151.241
-153.987
-156.771
-159.588
-162.434
-165.306
-168.199
-171.111
-174.039
-176.982
-179.938
-182.905
-185.879
-188.856
-191.831
-194.8
-197.758
-200.701
-203.623
-206.519
-209.386
-212.227
-215.042
-217.831
-220.594
-223.323
-226.017
-228.683
-231.327
-233.955
-236.58
-239.215
-241.88
-244.608
-247.43
-250.37
-253.451
-256.679
-260.059
-263.6
-267.306
-271.18
-275.216
-279.392
-283.685
-288.083
-292.565
-297.106
-301.663
-306.164
-310.544
-314.75
-318.723
-322.426
-325.831
-328.906
-331.633
-334.017
-336.072
-337.832
-339.343
-340.615
-341.67
-342.545
-343.29
-343.997
-344.757
-345.645
-346.748
-348.149
-349.913
-352.107
-354.787
-357.969
-361.671
-365.895
-370.636
-375.906
-381.68
-387.862
-394.243
-400.538
-406.462
-411.715
-415.99
-419.021
-420.616
-420.813
-420.05
-418.891
-417.782
-416.621
-414.661
-411.265
-406.395
-401.17
-397.039
-393.834
-388.748
-376.364
-351.38
-310.788
-255.738
-191.35
-122.209
-53.073
12.388
73.295
126.85
172.057
210.79
243.648
272.894
299.791
322.474
340.207
352.927
361.103
366.697
371.184
374.811
377.383
378.547
377.894
375.105
369.969
362.125
351.168
337.326
321.333
304.011
286.386
269.396
253.639
239.646
227.913
218.402
210.518
203.532
196.509
188.479
178.803
167.033
152.731
135.852
116.86
96.236
74.572
52.725
31.344
10.88
-8.135
-25.441
-41.202
-55.39
-67.949
-79.214
-89.388
-98.519
-106.817
-114.24
-120.42
-125.283
-128.81
-130.688
-130.864
-129.439
-126.445
-122.271
-117.559
-112.873
-108.98
-106.772
-106.797
-109.492
-115.173
-123.822
-135.309
-149.249
-164.779
-180.971
-197.082
-212.367
-226.266
-238.34
-248.046
-255.19
-260.048
-262.909
-264.06
-263.854
-262.478
-260.199
-257.514
-254.6
-251.339
-247.725
-243.775
-239.552
-235.267
-230.969
-226.54
-222.186
-218.437
-215.771
-214.523
-214.863
-216.339
-217.815
-218.28
-216.577
-212.668
-208.727
-205.992
-203.501
-196.689
-176.732
-136.744
-75.189
4.039
92.043
181.087
267.069
347.05
418.282
475.227
510.913
521.539
507.988
476.722
435.898
391.129
344.213
292.913
235.968
175.645
117.768
71.058
40.895
27.9
28.602
36.036
45.497
54.755
63.237
72.432
82.198
91.347
98.769
102.701
102.584
99.045
92.701
84.482
75.454
66.291
57.773
50.901
46.121
43.469
42.871
43.953
46.242
49.393
52.89
56.057
58.511
60.074
60.682
60.491
59.666
58.303
56.596
54.793
53.066
51.558
50.347
49.421
48.786
48.476
48.521
48.959
49.823
51.112
52.815
54.903
57.314
59.971
62.766
65.597
68.375
71.015
73.445
75.606
77.439
78.877
79.845
80.258
80.023
79.082
77.4
74.975
71.848
68.083
63.78
59.028
53.902
48.47
42.784
36.895
30.853
24.713
18.535
12.395
6.388
0.592
-4.927
-10.128
-15.003
-19.566
-23.853
-27.895
-31.713
-35.32
-38.718
-41.901
-44.861
-47.588
-50.071
-52.312
-54.326
-56.129
-57.736
-59.148
-60.358
-61.349
-62.095
-62.574
-62.767
-62.662
-62.256
-61.553
-60.56
-59.294
-57.773
-56.015
-54.031
-51.834
-49.435
-46.848
-44.089
-41.178
-38.135
-34.982
-31.742
-28.435
-25.082
-21.701
-18.307
-14.914
-11.533
-8.177
-4.855
-1.578
1.641
4.792
7.865
10.85
13.739
16.523
19.196
21.753
24.19
26.504
28.692
30.753
32.687
34.493
36.173
37.727
39.157
40.466
41.657
42.734
43.701
44.563
45.325
45.993
46.573
47.071
47.494
47.847
48.136
48.369
48.55
48.685
48.781
48.843
48.876
48.886
48.877
48.855
48.823
48.784
48.742
48.699
48.656
48.616
48.578
48.544
48.512
48.483
48.454
48.426
48.394
48.356
48.31
48.25
48.174
48.076
47.95
47.793
47.599
47.362
47.076
46.736
46.337
45.873
45.338
44.729
44.041
43.27
42.412
41.465
40.426
39.294
38.069
36.75
35.338
33.835
32.242
30.564
28.803
26.965
25.056
23.081
21.049
18.967
16.844
14.69
12.515
10.33
8.146
5.976
3.832
1.727
-0.327
-2.315
-4.225
-6.043
-7.756
-9.351
-10.816
-12.137
-13.305
-14.307
-15.134
-15.775
-16.223
-16.469
-16.506
-16.329
-15.931
-15.308
-14.458
-13.377
-12.066
-10.523
-8.749
-6.747
-4.518
-2.067
0.601
3.483
6.571
9.859
13.339
17.003
20.841
24.843
29
33.299
37.73
42.279
46.936
51.687
56.52
61.422
66.379
71.38
76.41
81.456
86.506
91.546
96.561
101.539
106.466
111.328
116.113
120.807
125.397
129.871
134.214
138.414
142.456
146.327
150.012
153.497
156.768
159.811
162.613
165.161
167.442
169.444
171.156
172.566
173.664
174.44
174.882
174.983
174.734
174.127
173.156
171.813
170.095
167.999
165.524
162.671
159.443
155.845
151.882
147.562
142.897
137.896
132.575
126.947
121.03
114.846
108.421
101.781
94.957
87.98
80.88
73.693
66.448
59.177
51.91
44.667
37.474
30.366
23.378
16.552
9.937
3.574
-2.494
-8.216
-13.554
-18.474
-22.945
-26.952
-30.469
-33.462
-35.9
-37.736
-38.924
-39.443
-39.272
-38.415
-36.919
-34.829
-32.208
-29.141
-25.677
-21.872
-17.797
-13.474
-8.903
-4.064
1.135
6.744
12.755
19.219
26.204
33.752
41.907
50.514
59.226
67.731
75.738
82.959
89.137
94.037
97.568
100.068
102.294
105.151
109.548
116.373
126.581
141.067
160.581
184.846
212.363
241.663
271.204
300.807
331.644
362.741
391.443
412.522
418.37
405.153
372.78
324.905
269.266
211.287
153.847
98.209
43.325
-10.076
-59.687
-103.35
-138.77
-165.078
-182.78
-192.465
-194.971
-191.621
-183.857
-173.309
-161.669
-150.043
-139.252
-130.215
-123.594
-119.638
-118.226
-118.761
-120.566
-123.363
-126.786
-130.208
-133.08
-134.883
-135.401
-134.911
-133.559
-131.126
-127.581
-123.083
-117.794
-112.034
-105.872
-98.97
-91.245
-82.929
-74.135
-64.945
-55.443
-45.577
-35.511
-25.687
-16.349
-7.56
0.58
8.011
14.651
20.339
25.016
28.734
31.445
33.017
33.364
32.412
30.153
26.66
22.02
16.33
9.767
2.573
-5.039
-12.889
-20.836
-28.797
-36.688
-44.424
-51.947
-59.22
-66.217
-72.925
-79.332
-85.418
-91.196
-96.707
-102.015
-107.218
-112.387
-117.56
-122.766
-128.01
-133.294
-138.615
-143.95
-149.257
-154.498
-159.638
-164.646
-169.5
-174.166
-178.601
-182.755
-186.573
-190.012
-193.045
-195.647
-197.803
-199.503
-200.741
-201.52
-201.856
-201.759
-201.236
-200.294
-198.937
-197.175
-195.019
-192.485
-189.587
-186.339
-182.754
-178.849
-174.639
-170.139
-165.365
-160.329
-155.047
-149.533
-143.806
-137.885
-131.789
-125.539
-119.154
-112.654
-106.059
-99.389
-92.661
-85.892
-79.097
-72.291
-65.49
-58.706
-51.954
-45.247
-38.597
-32.02
-25.529
-19.138
-12.862
-6.713
-0.7
5.169
10.886
16.447
21.847
27.086
32.163
37.074
41.819
46.392
50.789
55.006
59.049
62.925
66.646
70.222
73.654
76.942
80.085
83.07
85.88
88.492
90.877
93.016
94.901
96.539
97.951
99.155
100.164
100.972
101.561
101.923
102.067
102.011
101.771
101.372
100.837
100.217
99.608
99.059
98.554
97.992
97.225
96.166
94.826
93.257
91.457
89.448
87.3
85.195
83.433
82.113
81.058
79.952
78.466
76.329
73.361
69.278
63.633
56.248
47.269
37.036
26.061
14.748
3.296
-7.998
-18.661
-28.402
-37.071
-44.683
-51.562
-57.936
-63.832
-69.35
-74.659
-79.879
-85.181
-90.641
-96.039
-101.215
-106.12
-110.687
-114.905
-118.769
-122.185
-125.097
-127.589
-129.727
-131.544
-133.071
-134.263
-135.073
-135.491
-135.506
-135.093
-134.237
-132.925
-131.147
-128.919
-126.267
-123.212
-119.778
-115.978
-111.824
-107.332
-102.522
-97.417
-92.043
-86.425
-80.589
-74.562
-68.37
-62.04
-55.599
-49.07
-42.474
-35.831
-29.161
-22.488
-15.833
-9.221
-2.674
3.785
10.134
16.348
22.407
28.287
33.97
39.435
44.663
49.638
54.341
58.757
62.869
66.663
70.124
73.239
75.994
78.378
80.377
81.982
83.181
83.966
84.329
84.261
83.758
82.812
81.42
79.58
77.29
74.548
71.356
67.716
63.632
59.111
54.161
48.79
43.01
36.834
30.278
23.357
16.09
8.497
0.597
-7.587
-16.032
-24.711
-33.597
-42.66
-51.87
-61.191
-70.586
-80.016
-89.441
-98.822
-108.121
-117.301
-126.322
-135.149
-143.749
-152.088
-160.134
-167.857
-175.227
-182.215
-188.799
-194.957
-200.669
-205.917
-210.683
-214.949
-218.7
-221.917
-224.575
-226.645
-228.094
-228.895
-229.025
-228.463
-227.182
-225.153
-222.358
-218.797
-214.493
-209.475
-203.772
-197.409
-190.439
-182.959
-175.057
-166.782
-158.131
-149.031
-139.416
-129.295
-118.68
-107.505
-95.766
-83.621
-71.398
-59.671
-49.041
-39.872
-32.447
-27.129
-24.086
-23.08
-23.441
-23.989
-23.383
-20.531
-14.38
-3.679
12.747
35.023
62.091
92.484
124.329
157.499
193.486
231.43
268.894
300.505
318.137
317.943
299.538
265.922
223.699
176.629
127.302
78.517
32.793
-5.202
-31.872
-46.851
-52.623
-53.119
-50.931
-46.338
-37.894
-24.92
-8.372
9.985
28.146
44.977
60.128
73.209
83.889
92.171
98.302
102.716
105.836
107.923
109.3
110.561
112.306
114.848
118.246
122.359
126.991
132.032
137.294
142.408
147.041
151.009
154.264
156.922
159.132
160.975
162.554
164.014
165.456
166.939
168.477
170.013
171.482
172.846
174.064
175.101
175.935
176.542
176.896
176.977
176.768
176.26
175.45
174.339
172.931
171.233
169.264
167.05
164.621
162.004
159.221
156.291
153.238
150.085
146.861
143.592
140.301
137.009
133.745
130.538
127.424
124.433
121.583
118.885
116.348
113.972
111.76
109.714
107.823
106.087
104.511
103.112
101.92
100.967
100.267
99.825
99.627
99.659
99.927
100.437
101.199
102.241
103.584
105.258
107.314
109.783
112.662
115.928
119.509
123.322
127.314
131.452
135.723
140.127
144.626
149.176
153.733
158.226
162.603
166.787
170.641
174.095
177.149
179.85
182.372
184.879
187.385
189.888
192.369
194.658
196.601
197.985
198.406
197.613
195.61
192.481
188.463
183.958
179.304
174.95
171.552
169.566
169.175
170.426
173.18
177.206
182.248
187.857
193.324
197.982
201.392
203.314
203.607
202.139
198.894
194.06
188.116
181.705
175.292
169.138
163.479
158.566
154.551
151.472
149.149
147.186
145.31
143.396
141.322
138.986
136.313
133.239
129.807
126.174
122.438
118.634
114.78
110.864
106.885
102.866
98.807
94.683
90.488
86.222
81.9
77.552
73.197
68.842
64.494
60.152
55.818
51.496
47.188
42.894
38.617
34.354
30.108
25.878
21.665
17.467
13.283
9.109
4.943
0.783
-3.37
-7.516
-11.653
-15.782
-19.903
-24.016
-28.121
-32.217
-36.303
-40.38
-44.447
-48.502
-52.543
-56.568
-60.574
-64.557
-68.514
-72.438
-76.326
-80.172
-83.969
-87.71
-91.39
-94.999
-98.531
-101.977
-105.329
-108.577
-111.714
-114.729
-117.613
-120.359
-122.956
-125.397
-127.673
-129.775
-131.697
-133.431
-134.969
-136.307
-137.436
-138.353
-139.053
-139.535
-139.796
-139.835
-139.652
-139.246
-138.618
-137.77
-136.706
-135.43
-133.946
-132.262
-130.385
-128.328
-126.101
-123.715
-121.183
-118.515
-115.722
-112.82
-109.825
-106.755
-103.63
-100.468
-97.287
-94.107
-90.946
-87.82
-84.741
-81.719
-78.762
-75.882
-73.091
-70.408
-67.848
-65.417
-63.115
-60.927
-58.843
-56.863
-54.99
-53.234
-51.607
-50.103
-48.733
-47.538
-46.519
-45.646
-44.858
-44.009
-42.993
-41.833
-40.572
-39.266
-38.103
-37.264
-36.985
-37.698
-39.698
-42.987
-47.479
-52.909
-58.791
-64.75
-70.377
-75.029
-78.287
-80.068
-80.432
-79.748
-78.621
-77.459
-76.646
-76.719
-77.987
-80.552
-84.411
-89.276
-94.702
-100.428
-106.244
-111.91
-117.33
-122.461
-127.28
-131.908
-136.513
-141.168
-145.906
-150.733
-155.598
-160.466
-165.32
-170.114
-174.815
-179.409
-183.89
-188.264
-192.53
-196.668
-200.641
-204.41
-207.945
-211.231
-214.283
-217.146
-219.876
-222.538
-225.204
-227.946
-230.795
-233.727
-236.661
-239.446
-241.958
-244.136
-245.921
-247.222
-248.019
-248.407
-248.592
-248.941
-249.825
-251.425
-253.881
-257.403
-262.057
-267.641
-273.697
-279.366
-283.569
-285.473
-284.342
-279.235
-269.334
-254.214
-233.86
-209.465
-183.283
-157.097
-132.187
-108.581
-85.384
-63.439
-45.834
-37.992
-45.35
-69.562
-107.671
-152.705
-197.34
-237.219
-271.056
-299.796
-324.157
-343.544
-356.909
-363.291
-362.74
-356.253
-345.169
-331.166
-315.904
-300.815
-287.106
-275.635
-266.912
-261.285
-258.822
-259.22
-261.847
-265.897
-270.557
-275.094
-279.016
-281.933
-283.588
-283.947
-283.162
-281.53
-279.45
-277.353
-275.502
-274.056
-273.107
-272.631
-272.595
-272.941
-273.539
-274.224
-274.893
-275.497
-276.03
-276.533
-277.033
-277.545
-278.101
-278.749
-279.529
-280.468
-281.587
-282.901
-284.413
-286.129
-288.051
-290.171
-292.488
-295.008
-297.733
-300.665
-303.797
-307.112
-310.592
-314.22
-317.984
-321.886
-325.917
-330.053
-334.28
-338.59
-342.979
-347.459
-352.006
-356.557
-361.058
-365.456
-369.71
-373.809
-377.725
-381.427
-384.879
-388.033
-390.855
-393.332
-395.426
-397.09
-398.27
-398.901
-398.967
-398.509
-397.555
-396.133
-394.258
-391.919
-389.127
-385.904
-382.268
-378.234
-373.811
-368.995
-363.81
-358.301
-352.513
-346.502
-340.288
-333.849
-327.174
-320.261
-313.114
-305.752
-298.182
-290.398
-282.411
-274.245
-265.924
-257.479
-248.924
-240.261
-231.49
-222.612
-213.644
-204.618
-195.563
-186.498
-177.446
-168.425
-159.456
-150.568
-141.777
-133.089
-124.509
-116.045
-107.704
-99.501
-91.45
-83.557
-75.832
-68.279
-60.901
-53.707
-46.699
-39.881
-33.253
-26.816
-20.571
-14.525
-8.679
-3.037
2.4
7.631
12.656
17.475
22.087
26.496
30.704
34.714
38.531
42.157
45.596
48.853
51.933
54.841
57.582
60.162
62.586
64.86
66.991
68.984
70.846
72.583
74.202
75.71
77.113
78.419
79.634
80.764
81.817
82.798
83.714
84.572
85.378
86.138
86.859
87.547
88.207
88.845
89.465
90.072
90.668
91.257
91.84
92.421
93.003
93.588
94.179
94.78
95.394
96.021
96.665
97.326
98.004
98.698
99.406
100.128
100.864
101.616
102.387
103.176
103.982
104.804
105.636
106.478
107.326
108.179
109.034
109.894
110.762
111.647
112.558
113.504
114.489
115.514
116.583
117.706
118.902
120.199
121.628
123.202
124.935
126.833
128.9
131.157
133.612
136.238
139.051
142.094
145.442
149.251
153.643
158.604
164.107
170.101
176.405
182.848
189.201
195.044
200.088
204.328
207.857
210.942
214.075
217.633
222.022
227.879
235.617
245.321
256.928
270.064
284.107
298.641
313.276
327.469
340.884
353.391
364.944
375.79
386.331
396.785
407.314
418.114
429.252
440.756
452.652
464.812
477.043
489.234
501.292
513.147
524.8
536.234
547.422
558.389
569.153
579.726
590.139
600.384
610.419
620.195
629.631
638.636
647.15
655.126
662.523
669.317
675.459
680.907
685.629
689.578
692.709
694.97
696.276
696.572
695.854
694.144
691.511
688.056
683.844
678.937
673.396
667.269
660.614
653.493
645.945
638.025
629.8
621.349
612.775
604.167
595.563
586.989
578.44
569.884
561.313
552.733
544.144
535.577
527.078
518.684
510.444
502.401
494.569
486.96
479.575
472.411
465.486
458.826
452.459
446.438
440.82
435.63
430.874
426.511
422.45
418.616
414.957
411.412
407.918
404.459
401.063
397.821
394.911
392.475
390.575
389.295
388.724
388.829
389.502
390.515
391.432
391.916
391.786
390.761
388.622
385.485
381.643
377.746
374.927
374.112
376.116
382.038
392.811
408.922
430.153
455.203
482.25
510.071
538.703
568.583
598.849
626.464
645.82
651.326
640.976
617.123
585.662
552.314
519.381
486.211
451.454
416.546
386.728
367.877
363.353
372.261
389.409
409.117
427.946
444.459
459.115
472.318
483.14
490.208
492.329
489.156
481.271
469.907
456.51
442.293
428.463
416.021
405.507
397.237
391.255
387.257
384.843
383.545
382.744
381.983
381.031
379.731
378.051
376.024
373.67
371.077
368.413
365.773
363.173
360.599
357.987
355.291
352.516
349.657
346.694
343.62
340.434
337.162
333.866
330.622
327.483
324.467
321.562
318.735
315.956
313.185
310.365
307.414
304.219
300.673
296.695
292.219
287.182
281.504
275.077
267.773
259.494
250.185
239.824
228.415
215.961
202.491
188.064
172.78
156.771
140.154
123.013
105.419
87.44
69.166
50.711
32.208
13.76
-4.553
-22.66
-40.505
-58.023
-75.177
-91.957
-108.388
-124.513
-140.352
-155.892
-171.113
-186.002
-200.551
-214.771
-228.674
-242.255
-255.517
-268.475
-281.142
-293.534
-305.653
-317.468
-328.933
-340
-350.636
-360.824
-370.546
-379.763
-388.435
-396.532
-404.025
-410.894
-417.107
-422.599
-427.316
-431.221
-434.295
-436.565
-438.074
-438.863
-438.983
-438.504
-437.509
-436.123
-434.481
-432.691
-430.86
-429.093
-427.503
-426.248
-425.466
-425.258
-425.707
-426.85
-428.705
-431.287
-434.59
-438.568
-443.151
-448.232
-453.679
-459.397
-465.298
-471.29
-477.28
-483.142
-488.765
-494.07
-498.998
-503.512
-507.586
-511.194
-514.321
-516.995
-519.253
-521.157
-522.785
-524.181
-525.382
-526.425
-527.341
-528.172
-528.956
-529.706
-530.426
-531.117
-531.78
-532.417
-533.031
-533.602
-534.107
-534.518
-534.802
-534.941
-534.926
-534.748
-534.402
-533.888
-533.205
-532.363
-531.379
-530.264
-529.027
-527.677
-526.22
-524.669
-523.038
-521.337
-519.581
-517.777
-515.935
-514.062
-512.163
-510.242
-508.302
-506.343
-504.363
-502.363
-500.342
-498.3
-496.237
-494.152
-492.044
-489.911
-487.751
-485.562
-483.341
-481.084
-478.788
-476.45
-474.065
-471.63
-469.142
-466.597
-463.991
-461.322
-458.587
-455.784
-452.91
-449.964
-446.946
-443.855
-440.692
-437.456
-434.15
-430.774
-427.33
-423.82
-420.248
-416.616
-412.93
-409.193
-405.412
-401.592
-397.742
-393.87
-389.982
-386.087
-382.192
-378.303
-374.427
-370.57
-366.735
-362.926
-359.148
-355.406
-351.706
-348.056
-344.461
-340.929
-337.465
-334.077
-330.769
-327.544
-324.401
-321.339
-318.357
-315.454
-312.634
-309.902
-307.26
-304.703
-302.224
-299.815
-297.456
-295.127
-292.792
-290.414
-287.966
-285.428
-282.791
-280.058
-277.229
-274.306
-271.298
-268.198
-265.003
-261.718
-258.335
-254.855
-251.296
-247.684
-244.07
-240.516
-237.054
-233.696
-230.443
-227.258
-224.106
-220.936
-217.671
-214.258
-210.652
-206.807
-202.701
-198.309
-193.58
-188.458
-182.864
-176.699
-169.908
-162.458
-154.329
-145.552
-136.173
-126.263
-115.933
-105.28
-94.376
-83.285
-72.053
-60.719
-49.35
-38.018
-26.799
-15.792
-5.068
5.321
15.329
24.952
34.209
43.151
51.855
60.392
68.809
77.133
85.383
93.567
101.698
109.801
117.887
125.977
134.079
142.184
150.273
158.315
166.257
174.019
181.517
188.647
195.329
201.508
207.13
212.177
216.624
220.412
223.55
226.103
228.189
230.033
231.849
233.756
235.955
238.718
242.146
246.283
250.994
255.823
260.471
264.81
268.584
271.612
274.002
275.962
278.092
281.494
286.965
295.141
306.899
322.87
343.386
368.655
397.691
428.397
459.257
488.559
515.652
541.877
566.686
588.553
604.156
606.268
590.404
555.537
503.802
444.227
385.801
334.348
294.463
264.964
242.427
225.494
212.103
202.572
199.266
202.593
212.464
227.626
245.217
263.167
280.347
295.911
309.434
320.539
328.742
334.001
336.74
337.582
337.047
335.62
333.863
332.216
331.122
330.867
331.4
332.522
334.051
335.736
337.258
338.439
339.114
339.195
338.783
338.002
336.963
335.831
334.767
333.856
333.162
332.708
332.445
332.338
332.353
332.436
332.546
332.642
332.688
332.653
332.508
332.229
331.796
331.197
330.419
329.46
328.319
326.999
325.512
323.862
322.055
320.094
317.978
315.71
313.297
310.744
308.06
305.25
302.321
299.279
296.132
292.886
289.545
286.113
282.593
278.991
275.315
271.573
267.775
263.93
260.048
256.141
252.219
248.293
244.372
240.467
236.588
232.745
228.949
225.213
221.549
217.969
214.486
211.109
207.85
204.718
201.721
198.869
196.169
193.627
191.251
189.048
187.028
185.199
183.566
182.134
180.905
179.878
179.055
178.434
178.009
177.771
177.712
177.826
178.114
178.575
179.204
179.982
180.888
181.904
183.01
184.189
185.413
186.65
187.872
189.062
190.222
191.352
192.444
193.478
194.421
195.242
195.93
196.484
196.907
197.189
197.316
197.282
197.109
196.831
196.462
195.988
195.365
194.554
193.542
192.327
190.916
189.298
187.437
185.286
182.803
179.97
176.778
173.202
169.185
164.656
159.579
153.955
147.82
141.195
134.071
126.437
118.3
109.703
100.73
91.471
82.018
72.439
62.793
53.157
43.63
34.315
25.287
16.593
8.258
0.33
-7.11
-13.997
-20.29
-25.998
-31.168
-35.857
-40.135
-44.054
-47.666
-51.027
-54.195
-57.226
-60.159
-63.023
-65.839
-68.652
-71.533
-74.541
-77.716
-81.066
-84.576
-88.216
-91.948
-95.737
-99.554
-103.372
-107.176
-110.958
-114.719
-118.465
-122.207
-125.938
-129.642
-133.306
-136.92
-140.487
-144.021
-147.544
-151.083
-154.665
-158.314
-162.05
-165.887
-169.827
-173.873
-178.021
-182.262
-186.593
-191.014
-195.524
-200.122
-204.808
-209.576
-214.417
-219.322
-224.28
-229.278
-234.306
-239.351
-244.407
-249.464
-254.516
-259.558
-264.586
-269.594
-274.575
-279.522
-284.427
-289.282
-294.08
-298.812
-303.47
-308.048
-312.538
-316.936
-321.234
-325.428
-329.512
-333.482
-337.331
-341.056
-344.652
-348.115
-351.442
-354.629
-357.673
-360.573
-363.328
-365.937
-368.399
-370.715
-372.885
-374.911
-376.795
-378.538
-380.143
-381.613
-382.949
-384.156
-385.239
-386.201
-387.049
-387.789
-388.429
-388.975
-389.438
-389.826
-390.148
-390.414
-390.634
-390.82
-390.983
-391.135
-391.289
-391.457
-391.654
-391.892
-392.185
-392.548
-392.994
-393.536
-394.189
-394.967
-395.882
-396.945
-398.166
-399.558
-401.13
-402.891
-404.847
-407.008
-409.381
-411.974
-414.795
-417.847
-421.13
-424.643
-428.383
-432.343
-436.517
-440.894
-445.463
-450.212
-455.135
-460.226
-465.488
-470.91
-476.472
-482.151
-487.919
-493.75
-499.621
-505.505
-511.367
-517.19
-522.959
-528.672
-534.339
-539.944
-545.458
-550.85
-556.07
-561.09
-565.912
-570.541
-574.995
-579.309
-583.499
-587.61
-591.721
-595.866
-600.059
-604.3
-608.544
-612.812
-617.204
-621.767
-626.511
-631.402
-636.3
-641.067
-645.627
-649.803
-653.34
-656.12
-658.17
-659.696
-661.128
-662.987
-665.72
-669.677
-675.268
-682.257
-689.482
-696.294
-702.201
-707.105
-712.236
-716.508
-716.534
-709.242
-691.593
-664.645
-633.463
-602.659
-575.566
-552.074
-530.953
-513.038
-501.696
-503.195
-521.727
-557.961
-609.737
-671.228
-736.87
-801.811
-860.625
-909.754
-947.375
-973.713
-992.096
-1005.769
-1016.246
-1023.481
-1025.718
-1022.505
-1015.889
-1008.39
-1002.623
-999.193
-995.439
-989.618
-981.122
-970.638
-962.677
-960.197
-963.722
-973.492
-984.581
-989.725
-980.758
-944.631
-869.734
-748.926
-580.21
-372.149
-140.823
94.948
315.966
507.237
660.125
771.727
844.582
885.989
905.58
913.649
919.304
928.455
943.188
961.586
979.664
993.218
999.492
999.144
994.641
988.963
984.922
983.227
983.393
984.735
986.271
987.735
989.374
991.315
993.628
995.968
997.712
998.396
997.628
995.164
990.836
984.382
975.738
965.302
953.696
941.583
929.653
918.33
907.969
899.009
891.619
885.61
880.476
875.53
870.148
863.868
856.324
847.264
836.533
824.2
810.808
796.993
783.24
770.176
758.282
748.196
741.3
738.518
739.643
743.064
745.286
742.571
733.62
720.371
707.69
701.766
704.311
709.77
705.957
675.454
604.273
488.079
333.23
156.149
-24.012
-192.009
-339.205
-462.787
-563.062
-641.371
-698.029
-735.975
-761.104
-780.535
-803.903
-836.505
-878.48
-926.213
-970.354
-1003.873
-1023.482
-1030.737
-1035.156
-1046.527
-1072.337
-1112.657
-1154.491
-1176.82
-1154.934
-1070.091
-919.075
-714.597
-481.999
-249.658
-40.084
133.092
264.672
353.769
401.486
412.93
398.345
372.568
353.395
353.288
374.271
410.546
448.426
474.674
484.657
478.618
463.348
448.388
437.787
433.194
433.164
433.221
431.444
427.257
420.657
412.985
404.703
395.467
385.266
374.117
362.086
349.566
336.868
323.924
311.474
300.409
290.299
281.246
271.93
259.953
246.875
234.453
225.228
224.067
229.328
236.115
240.455
235.724
221.483
204
187.23
176.348
173.636
174.246
175.375
174.959
170.853
165.364
160.205
155.617
152.282
149.219
145.168
139.655
132.395
123.487
113.354
102.734
92.491
83.521
75.483
66.662
55.803
42.74
31.566
30.11
44.405
77.316
124.847
176.232
221.098
252.052
267.302
271.382
270.445
269.054
268.799
268.27
265.018
257.948
247.855
236.497
225.622
216.043
207.676
200.128
193.058
186.245
179.39
172.146
164.295
155.779
146.684
137.18
127.411
117.512
107.684
98.174
89.187
80.882
73.396
66.83
61.24
56.651
53.026
50.295
48.422
47.399
47.223
47.893
49.386
51.666
54.708
58.471
62.873
67.791
73.045
78.455
83.893
89.268
94.524
99.625
104.521
109.168
113.545
117.642
121.454
124.976
128.184
131.071
133.656
135.991
138.16
140.237
142.263
144.263
146.243
148.203
150.14
152.039
153.867
155.585
157.158
158.558
159.769
160.766
161.517
161.976
162.09
161.817
161.124
159.987
158.389
156.315
153.756
150.711
147.189
143.2
138.758
133.874
128.551
122.796
116.612
110.003
102.985
95.573
87.783
79.638
71.163
62.391
53.376
44.173
34.837
25.425
15.978
6.539
-2.846
-12.123
-21.213
-30.04
-38.534
-46.635
-54.304
-61.511
-68.213
-74.418
-80.207
-85.7
-91.089
-96.543
-102.109
-107.81
-113.698
-119.743
-125.891
-132.022
-137.748
-142.649
-146.544
-149.298
-150.854
-151.365
-150.887
-149.484
-147.761
-146.538
-146.484
-148.311
-151.838
-155.661
-158.466
-159.022
-157.789
-157.65
-160.62
-166.934
-171.411
-163.045
-132.415
-73.405
11.006
107.511
203.264
286.939
352.845
404.736
445.997
479.505
509.504
535.969
559.931
585.423
612.47
641.715
673.383
701.702
722.18
730.247
720.285
692.933
650.856
597.257
537.991
476.856
417.278
364.407
321.698
290.979
271.711
259.961
251.877
245.439
240.248
237.388
237.27
238.913
240.973
242.108
241.77
240.198
237.866
235.41
233.441
232.501
232.864
234.437
236.951
240.008
243.191
246.18
248.649
250.266
250.874
250.463
249.099
246.948
244.163
240.852
237.154
233.202
229.107
225.001
221.005
217.221
213.774
210.749
208.194
206.148
204.618
203.581
203.016
202.876
203.103
203.649
204.467
205.512
206.743
208.108
209.548
211.006
212.421
213.746
214.95
216.006
216.896
217.614
218.155
218.523
218.729
218.776
218.666
218.401
217.978
217.398
216.666
215.785
214.76
213.597
212.299
210.868
209.31
207.627
205.82
203.892
201.844
199.679
197.402
195.019
192.538
189.967
187.312
184.583
181.788
178.935
176.034
173.093
170.118
167.118
164.103
161.079
158.055
155.04
152.042
149.07
146.131
143.234
140.387
137.598
134.875
132.223
129.651
127.164
124.768
122.469
120.27
118.177
116.191
114.316
112.554
110.905
109.369
107.944
106.631
105.424
104.322
103.319
102.41
101.589
100.85
100.185
99.585
99.043
98.547
98.089
97.656
97.238
96.823
96.398
95.951
95.468
94.938
94.348
93.684
92.934
92.087
91.129
90.051
88.841
87.49
85.99
84.331
82.507
80.513
78.345
75.998
73.47
70.762
67.873
64.806
61.564
58.151
54.573
50.838
46.953
42.927
38.773
34.5
30.122
25.652
21.104
16.493
11.835
7.145
2.439
-2.266
-6.953
-11.606
-16.209
-20.745
-25.2
-29.557
-33.803
-37.924
-41.907
-45.74
-49.413
-52.916
-56.242
-59.382
-62.331
-65.085
-67.641
-69.997
-72.154
-74.112
-75.874
-77.445
-78.828
-80.031
-81.062
-81.928
-82.642
-83.212
-83.65
-83.97
-84.184
-84.306
-84.35
-84.33
-84.262
-84.16
-84.038
-83.912
-83.796
-83.704
-83.649
-83.645
-83.703
-83.834
-84.05
-84.359
-84.771
-85.293
-85.93
-86.688
-87.572
-88.582
-89.722
-90.99
-92.386
-93.907
-95.549
-97.307
-99.175
-101.147
-103.214
-105.366
-107.595
-109.89
-112.239
-114.63
-117.051
-119.488
-121.928
-124.358
-126.764
-129.132
-131.449
-133.702
-135.877
-137.963
-139.946
-141.816
-143.561
-145.172
-146.639
-147.953
-149.107
-150.094
-150.911
-151.552
-152.014
-152.297
-152.4
-152.323
-152.068
-151.639
-151.038
-150.27
-149.343
-148.262
-147.036
-145.674
-144.187
-142.585
-140.881
-139.088
-137.218
-135.285
-133.304
-131.289
-129.254
-127.214
-125.184
-123.18
-121.218
-119.313
-117.481
-115.737
-114.095
-112.571
-111.177
-109.927
-108.832
-107.904
-107.154
-106.592
-106.227
-106.07
-106.13
-106.415
-106.932
-107.689
-108.691
-109.94
-111.438
-113.186
-115.18
-117.416
-119.888
-122.592
-125.521
-128.67
-132.032
-135.597
-139.357
-143.3
-147.412
-151.681
-156.089
-160.615
-165.241
-169.949
-174.726
-179.566
-184.456
-189.378
-194.313
-199.238
-204.13
-208.966
-213.711
-218.32
-222.752
-226.966
-230.934
-234.65
-238.099
-241.26
-244.114
-246.623
-248.771
-250.574
-252.032
-253.144
-253.911
-254.325
-254.422
-254.293
-254.018
-253.675
-253.315
-252.939
-252.579
-252.307
-252.158
-252.126
-252.124
-251.938
-251.394
-250.412
-248.893
-246.696
-243.718
-239.926
-235.471
-230.774
-226.306
-222.38
-219.25
-217.19
-216.281
-216.284
-216.673
-216.503
-214.604
-210.073
-202.085
-189.592
-171.845
-148.771
-120.695
-89.047
-56.294
-23.845
7.075
35.291
60.964
81.813
93.707
93.388
77.041
44.997
2.513
-45.811
-95.041
-142.874
-191.268
-239.539
-285.259
-324.722
-351.894
-364.751
-364.737
-355.411
-343.049
-331.824
-323.993
-319.664
-315.992
-310.999
-303.432
-293.614
-284.09
-276.456
-271.513
-269.238
-268.355
-268.178
-268.39
-268.495
-268.28
-267.417
-265.541
-262.643
-258.883
-254.39
-249.401
-244.235
-239.106
-234.223
-229.725
-225.556
-221.595
-217.715
-213.757
-209.561
-205.05
-200.167
-194.892
-189.264
-183.333
-177.155
-170.803
-164.34
-157.811
-151.257
-144.717
-138.232
-131.858
-125.643
-119.625
-113.835
-108.294
-103.021
-98.031
-93.332
-88.922
-84.799
-80.963
-77.414
-74.157
-71.192
-68.514
-66.113
-63.981
-62.106
-60.478
-59.087
-57.918
-56.961
-56.203
-55.633
-55.24
-55.012
-54.932
-54.984
-55.15
-55.413
-55.754
-56.155
-56.596
-57.06
-57.53
-57.988
-58.42
-58.809
-59.14
-59.399
-59.572
-59.647
-59.612
-59.456
-59.17
-58.746
-58.176
-57.456
-56.581
-55.547
-54.352
-52.996
-51.478
-49.8
-47.964
-45.975
-43.838
-41.557
-39.14
-36.595
-33.931
-31.156
-28.282
-25.318
-22.277
-19.169
-16.008
-12.804
-9.572
-6.323
-3.069
0.176
3.401
6.594
9.744
12.838
15.867
18.82
21.687
24.46
27.131
29.692
32.135
34.456
36.65
38.712
40.638
42.427
44.077
45.588
46.959
48.191
49.286
50.247
51.077
51.78
52.36
52.823
53.176
53.423
53.572
53.63
53.605
53.503
53.334
53.104
52.821
52.494
52.13
51.737
51.322
50.893
50.455
50.016
49.581
49.157
48.747
48.356
47.989
47.648
47.337
47.057
46.811
46.6
46.424
46.284
46.178
46.107
46.07
46.064
46.087
46.138
46.214
46.311
46.428
46.561
46.706
46.861
47.023
47.187
47.352
47.515
47.672
47.82
47.959
48.084
48.196
48.292
48.372
48.434
48.479
48.505
48.514
48.505
48.48
48.439
48.385
48.318
48.24
48.154
48.061
47.964
47.866
47.767
47.671
47.581
47.498
47.424
47.362
47.313
47.28
47.264
47.267
47.289
47.332
47.396
47.481
47.589
47.717
47.867
48.036
48.224
48.43
48.652
48.889
49.138
49.399
49.669
49.946
50.227
50.511
50.796
51.078
51.357
51.629
51.895
52.152
52.4
52.636
52.862
53.075
53.276
53.464
53.64
53.803
53.955
54.097
54.229
54.355
54.477
54.596
54.716
54.84
54.97
55.11
55.262
55.43
55.616
55.822
56.053
56.31
56.596
56.914
57.267
57.657
58.085
58.552
59.059
59.606
60.191
60.815
61.475
62.17
62.898
63.656
64.442
65.253
66.084
66.931
67.788
68.65
69.509
70.356
71.184
71.984
72.748
73.469
74.139
74.751
75.301
75.785
76.198
76.536
76.793
76.963
77.039
77.017
76.891
76.66
76.32
75.871
75.315
74.659
73.907
73.064
72.129
71.096
69.964
68.736
67.419
66.024
64.565
63.054
61.518
59.99
58.506
57.098
55.786
54.573
53.465
52.469
51.601
50.885
50.339
49.957
49.732
49.664
49.748
49.984
50.347
50.767
51.165
51.47
51.634
51.644
51.503
51.182
50.63
49.837
48.845
47.78
46.842
46.182
45.87
46.03
46.853
48.435
50.807
53.803
56.934
59.786
62.106
63.582
63.977
63.385
62.042
60.52
59.972
61.402
65.631
73.694
86.407
104.046
126.557
152.88
180.786
208.392
234.247
257.775
279.234
297.724
310.572
313.19
301.182
273.077
231.249
181.898
131.649
84.824
43.138
6.043
-26.927
-55.078
-77.261
-92.487
-100.928
-103.644
-101.861
-96.948
-89.935
-81.714
-73.365
-65.561
-58.608
-52.841
-48.364
-45.127
-43.323
-42.924
-43.543
-44.981
-46.972
-49.023
-50.922
-52.486
-53.335
-53.355
-52.631
-51.168
-49.177
-47.002
-44.747
-42.512
-40.45
-38.527
-36.697
-34.937
-33.098
-31.018
-28.642
-25.927
-22.863
-19.503
-15.882
-12.034
-8.03
-3.931
0.207
4.332
8.401
12.375
16.213
19.881
23.346
26.583
29.573
32.3
34.755
36.936
38.838
40.458
41.794
42.84
43.596
44.065
44.25
44.161
43.805
43.19
42.327
41.231
39.913
38.387
36.665
34.76
32.686
30.462
28.108
25.642
23.086
20.46
17.786
15.086
12.381
9.691
7.035
4.433
1.9
-0.544
-2.883
-5.102
-7.186
-9.123
-10.902
-12.51
-13.941
-15.187
-16.243
-17.106
-17.775
-18.249
-18.53
-18.622
-18.531
-18.263
-17.827
-17.234
-16.496
-15.624
-14.636
-13.545
-12.369
-11.125
-9.832
-8.508
-7.173
-5.846
-4.546
-3.293
-2.106
-1.003
-0.003
0.877
1.62
2.209
2.628
2.865
2.904
2.734
2.343
1.723
0.863
-0.242
-1.599
-3.212
-5.083
-7.214
-9.605
-12.254
-15.157
-18.312
-21.71
-25.347
-29.212
-33.297
-37.592
-42.085
-46.764
-51.617
-56.629
-61.788
-67.079
-72.489
-78.002
-83.605
-89.282
-95.02
-100.804
-106.621
-112.457
-118.299
-124.134
-129.95
-135.735
-141.477
-147.168
-152.795
-158.352
-163.828
-169.217
-174.512
-179.707
-184.797
-189.776
-194.643
-199.394
-204.026
-208.539
-212.931
-217.203
-221.354
-225.385
-229.297
-233.092
-236.77
-240.334
-243.785
-247.125
-250.356
-253.48
-256.498
-259.412
-262.224
-264.936
-267.55
-270.065
-272.484
-274.808
-277.038
-279.173
-281.215
-283.164
-285.02
-286.783
-288.451
-290.025
-291.503
-292.884
-294.166
-295.347
-296.425
-297.398
-298.263
-299.018
-299.66
-300.186
-300.593
-300.88
-301.041
-301.076
-300.981
-300.752
-300.388
-299.885
-299.24
-298.451
-297.515
-296.428
-295.188
-293.792
-292.237
-290.518
-288.633
-286.576
-284.346
-281.936
-279.343
-276.563
-273.591
-270.423
-267.053
-263.477
-259.69
-255.686
-251.461
-247.008
-242.324
-237.402
-232.237
-226.826
-221.162
-215.243
-209.064
-202.621
-195.912
-188.933
-181.683
-174.159
-166.361
-158.289
-149.943
-141.325
-132.439
-123.29
-113.882
-104.225
-94.326
-84.196
-73.847
-63.29
-52.54
-41.614
-30.529
-19.303
-7.959
3.482
14.994
26.553
38.131
49.701
61.234
72.701
84.071
95.316
106.403
117.302
127.982
138.409
148.552
158.379
167.859
176.961
185.654
193.91
201.703
209.008
215.804
222.07
227.791
232.95
237.536
241.542
244.959
247.783
250.01
251.643
252.686
253.149
253.046
252.389
251.197
249.49
247.293
244.631
241.528
238.005
234.078
229.77
225.108
220.125
214.858
209.35
203.649
197.81
191.893
185.952
180.035
174.181
168.42
162.787
157.316
152.053
147.055
142.378
138.081
134.206
130.778
127.794
125.214
122.983
121.045
119.328
117.76
116.315
115.006
113.906
113.162
112.874
113.084
113.846
115.201
117.149
119.631
122.407
125.09
127.365
128.984
129.764
129.579
128.3
125.953
123.008
120.27
118.619
119.039
122.346
129.238
140.635
157.264
179.097
205.633
235.605
266.762
297.71
327.379
354.752
379.891
400.682
413.246
414.123
399.926
371.467
333.33
289.738
244.225
197.487
149.066
101.503
59.977
30.413
16.234
16.039
24.44
35.659
46.219
55.128
63.365
71.62
79.527
86.404
91.45
94.567
96.346
97.52
98.866
100.923
103.807
107.437
111.627
116.098
120.602
124.899
128.72
131.853
134.218
135.843
136.824
137.295
137.357
137.101
136.627
136.053
135.498
135.041
134.716
134.532
134.486
134.584
134.832
135.219
135.709
136.265
136.848
137.429
137.985
138.487
138.899
139.18
139.285
139.182
138.856
138.296
137.494
136.448
135.155
133.623
131.869
129.907
127.751
125.411
122.895
120.216
117.393
114.441
111.378
108.219
104.98
101.673
98.316
94.922
91.504
88.076
84.648
81.234
77.849
74.506
71.221
68.007
64.879
61.85
58.933
56.142
53.486
50.977
48.624
46.436
44.422
42.589
40.944
39.493
38.24
37.19
36.345
35.707
35.277
35.053
35.035
35.219
35.603
36.182
36.95
37.901
39.027
40.321
41.774
43.376
45.116
46.984
48.968
51.056
53.236
55.495
57.821
60.2
62.621
65.07
67.536
70.005
72.465
74.905
77.314
79.679
81.991
84.24
86.417
88.512
90.518
92.428
94.237
95.938
97.528
99.003
100.36
101.598
102.716
103.713
104.591
105.352
105.999
106.535
106.964
107.292
107.524
107.666
107.726
107.71
107.626
107.482
107.287
107.049
106.777
106.479
106.165
105.844
105.524
105.215
104.923
104.657
104.425
104.233
104.087
103.995
103.96
103.987
104.081
104.245
104.482
104.794
105.18
105.643
106.18
106.791
107.475
108.227
109.044
109.923
110.859
111.846
112.878
113.949
115.052
116.179
117.323
118.476
119.629
120.774
121.902
123.005
124.075
125.103
126.081
127.002
127.858
128.642
129.347
129.966
130.494
130.924
131.251
131.471
131.581
131.576
131.455
131.216
130.859
130.382
129.788
129.077
128.251
127.314
126.269
125.121
123.875
122.537
121.114
119.612
118.039
116.403
114.714
112.981
111.212
109.416
107.605
105.787
103.973
102.174
100.402
98.668
96.984
95.365
93.822
92.368
91.013
89.769
88.644
87.649
86.792
86.078
85.514
85.107
84.864
84.789
84.886
85.157
85.605
86.232
87.041
88.034
89.211
90.573
92.122
93.865
95.811
97.962
100.316
102.868
105.609
108.53
111.619
114.852
118.192
121.604
125.054
128.512
131.95
135.329
138.6
141.711
144.619
147.296
149.729
151.895
153.769
155.344
156.631
157.673
158.54
159.286
159.951
160.597
161.313
162.169
163.217
164.468
165.825
167.161
168.357
169.253
169.668
169.578
169.017
168.05
167.045
166.492
166.808
168.491
171.424
174.52
176.796
177.762
177.933
178.778
180.408
179.982
172.369
152.409
117.461
70.104
16.443
-37.591
-86.393
-127.863
-162.028
-188.07
-207.528
-221.366
-230.017
-235.507
-237.866
-237.138
-234.513
-230.649
-226.924
-224.607
-223.936
-224.881
-227.337
-231.229
-236.36
-242.315
-248.601
-254.632
-260.063
-264.857
-268.88
-271.898
-273.862
-274.815
-274.883
-274.396
-273.539
-272.326
-270.86
-269.237
-267.476
-265.612
-263.634
-261.445
-259.009
-256.3
-253.207
-249.618
-245.454
-240.703
-235.415
-229.577
-223.209
-216.451
-209.572
-203.053
-197.383
-192.789
-189.407
-187.459
-186.987
-187.761
-189.257
-190.416
-190.071
-187.406
-181.539
-171.438
-156.342
-135.853
-110.57
-82.248
-52.649
-22.928
6.765
36.46
64.721
88.408
102.322
101.961
85.938
55.264
14.863
-30.346
-77.576
-123.481
-167.194
-207.182
-240.18
-265.947
-283.976
-294.638
-300.206
-300.651
-296.06
-287.427
-275.308
-261.468
-247.751
-234.867
-223.343
-213.509
-205.498
-199.521
-195.577
-193.341
-192.327
-192.203
-192.636
-193.174
-193.47
-193.185
-192.101
-190.267
-187.838
-184.932
-181.742
-178.547
-175.515
-172.799
-170.475
-168.447
-166.612
-164.888
-163.155
-161.287
-159.222
-156.913
-154.355
-151.611
-148.734
-145.773
-142.79
-139.839
-136.967
-134.225
-131.657
-129.304
-127.205
-125.387
-123.873
-122.682
-121.825
-121.31
-121.138
-121.299
-121.788
-122.598
-123.725
-125.163
-126.904
-128.935
-131.24
-133.799
-136.595
-139.606
-142.812
-146.187
-149.709
-153.352
-157.094
-160.91
-164.773
-168.655
-172.526
-176.354
-180.107
-183.757
-187.27
-190.615
-193.764
-196.687
-199.358
-201.752
-203.845
-205.613
-207.037
-208.096
-208.775
-209.057
-208.929
-208.383
-207.408
-206
-204.155
-201.875
-199.16
-196.015
-192.448
-188.468
-184.087
-179.321
-174.185
-168.7
-162.886
-156.766
-150.365
-143.711
-136.83
-129.752
-122.507
-115.127
-107.643
-100.086
-92.489
-84.883
-77.299
-69.77
-62.324
-54.993
-47.803
-40.785
-33.963
-27.364
-21.011
-14.928
-9.134
-3.649
1.509
6.325
10.785
14.877
18.592
21.919
24.855
27.393
29.532
31.271
32.61
33.554
34.106
34.272
34.061
33.48
32.54
31.252
29.629
27.684
25.431
22.884
20.059
16.972
13.639
10.076
6.301
2.33
-1.818
-6.128
-10.581
-15.16
-19.847
-24.627
-29.482
-34.396
-39.353
-44.335
-49.329
-54.319
-59.29
-64.228
-69.12
-73.952
-78.712
-83.388
-87.968
-92.442
-96.799
-101.03
-105.125
-109.077
-112.876
-116.517
-119.992
-123.295
-126.421
-129.366
-132.124
-134.694
-137.071
-139.255
-141.244
-143.039
-144.639
-146.046
-147.262
-148.29
-149.133
-149.797
-150.286
-150.605
-150.762
-150.761
-150.612
-150.322
-149.901
-149.358
-148.701
-147.94
-147.083
-146.141
-145.123
-144.04
-142.899
-141.711
-140.484
-139.229
-137.958
-136.681
-135.407
-134.142
-132.891
-131.661
-130.46
-129.295
-128.171
-127.09
-126.053
-125.061
-124.118
-123.225
-122.38
-121.573
-120.793
-120.026
-119.262
-118.496
-117.724
-116.933
-116.105
-115.214
-114.236
-113.158
-111.975
-110.689
-109.29
-107.755
-106.062
-104.21
-102.239
-100.171
-97.967
-95.523
-92.723
-89.526
-86.01
-82.298
-78.412
-74.367
-70.287
-66.439
-63.207
-60.865
-59.312
-58.202
-57.278
-56.316
-55.033
-53.034
-49.673
-44.367
-37.12
-28.395
-18.707
-8.606
1.443
11.025
19.43
25.915
30.279
32.78
33.878
34.191
34.132
33.928
34.001
34.831
36.614
39.303
42.628
46.136
49.558
52.808
55.745
58.22
60.15
61.493
62.335
62.874
63.209
63.362
63.351
63.169
62.83
62.389
61.837
61.14
60.342
59.48
58.613
57.831
57.114
56.412
55.775
55.233
54.725
54.232
53.671
52.927
52.149
51.501
50.987
50.652
50.586
50.821
51.526
52.896
54.772
56.994
59.54
62.332
65.339
68.569
71.874
75.094
78.335
81.701
85.227
89.003
93.044
97.344
101.981
107.02
112.375
117.938
123.619
129.289
134.866
140.279
145.398
150.159
154.603
158.805
162.909
167.026
171.145
175.303
179.624
184.058
188.486
192.68
196.127
198.486
199.663
199.418
197.555
194.216
189.653
184.515
180.03
177.188
176.848
180.117
187.875
200.595
218.436
240.776
266.192
293.283
320.402
345.315
365.685
379.374
384.552
380.516
367.861
346.594
316.776
278.76
232.339
180.324
127.812
79.828
42.143
16.643
1.109
-6.749
-10.204
-10.519
-6.265
2.512
15.235
30.667
46.178
60.216
72.036
80.769
86.248
88.712
88.354
85.713
81.575
76.482
71.084
66.289
62.618
60.275
59.358
59.672
60.938
62.982
65.479
67.946
70.112
71.859
73.166
74.158
74.951
75.594
76.198
76.92
77.845
79.006
80.393
81.935
83.579
85.297
87.053
88.804
90.511
92.137
93.645
95.022
96.256
97.334
98.249
98.993
99.561
99.954
100.181
100.246
100.153
99.904
99.497
98.936
98.227
97.378
96.4
95.303
94.095
92.787
91.39
89.913
88.367
86.76
85.098
83.39
81.645
79.873
78.087
76.298
74.515
72.749
71.01
69.308
67.651
66.048
64.504
63.026
61.62
60.292
59.048
57.892
56.828
55.859
54.989
54.219
53.551
52.985
52.52
52.156
51.889
51.719
51.641
51.652
51.748
51.923
52.173
52.491
52.871
53.306
53.789
54.312
54.869
55.45
56.048
56.654
57.262
57.862
58.447
59.01
59.543
60.039
60.491
60.892
61.236
61.517
61.73
61.869
61.93
61.91
61.805
61.612
61.331
60.958
60.494
59.939
59.294
58.559
57.738
56.832
55.844
54.78
53.643
52.439
51.172
49.849
48.477
47.062
45.61
44.131
42.63
41.115
39.595
38.077
36.568
35.076
33.608
32.172
30.775
29.422
28.12
26.875
25.69
24.572
23.522
22.545
21.644
20.818
20.07
19.4
18.807
18.289
17.845
17.471
17.163
16.917
16.727
16.588
16.494
16.436
16.407
16.399
16.404
16.412
16.415
16.402
16.365
16.293
16.177
16.007
15.774
15.468
15.081
14.604
14.028
13.347
12.552
11.638
10.599
9.428
8.122
6.678
5.092
3.362
1.488
-0.531
-2.693
-4.997
-7.44
-10.019
-12.728
-15.562
-18.516
-21.581
-24.751
-28.015
-31.366
-34.792
-38.285
-41.831
-45.421
-49.041
-52.681
-56.327
-59.968
-63.59
-67.181
-70.728
-74.218
-77.64
-80.981
-84.229
-87.372
-90.4
-93.302
-96.068
-98.688
-101.153
-103.454
-105.586
-107.539
-109.309
-110.89
-112.278
-113.47
-114.461
-115.251
-115.838
-116.222
-116.404
-116.384
-116.165
-115.749
-115.14
-114.341
-113.359
-112.197
-110.862
-109.36
-107.698
-105.883
-103.923
-101.826
-99.598
-97.25
-94.788
-92.223
-89.563
-86.816
-83.993
-81.102
-78.153
-75.156
-72.119
-69.051
-65.962
-62.859
-59.753
-56.651
-53.561
-50.491
-47.45
-44.443
-41.48
-38.568
-35.712
-32.92
-30.198
-27.551
-24.985
-22.507
-20.121
-17.833
-15.648
-13.573
-11.614
-9.778
-8.071
-6.497
-5.063
-3.772
-2.628
-1.634
-0.789
-0.093
0.452
0.845
1.084
1.17
1.105
0.888
0.523
0.009
-0.649
-1.445
-2.368
-3.412
-4.572
-5.847
-7.238
-8.741
-10.344
-12.036
-13.805
-15.634
-17.503
-19.384
-21.236
-23.026
-24.728
-26.319
-27.784
-29.097
-30.223
-31.133
-31.795
-32.193
-32.322
-32.181
-31.765
-31.092
-30.194
-29.107
-27.898
-26.619
-25.311
-24.027
-22.812
-21.709
-20.793
-20.141
-19.784
-19.713
-19.846
-20.025
-20.109
-19.978
-19.461
-18.374
-16.575
-14.001
-10.821
-7.404
-4.07
-1.006
1.684
3.983
5.892
7.439
9.037
11.494
15.63
22.152
31.537
44.006
59.805
79.35
102.707
129.455
159.025
190.08
220.771
249.755
275.4
297.386
317.398
335.381
350.442
359.252
354.382
331.748
289.933
230.29
161.146
89.962
23.811
-29.13
-67.165
-90.922
-103.354
-111.663
-119.471
-127.846
-136.632
-143.205
-147.016
-149.372
-151.359
-154.316
-158.561
-163.427
-168.345
-172.72
-175.964
-177.627
-177.457
-175.473
-171.918
-167.169
-161.605
-155.524
-149.231
-143.039
-137.134
-131.602
-126.445
-121.578
-116.93
-112.462
-108.129
-103.89
-99.708
-95.516
-91.24
-86.814
-82.136
-77.11
-71.636
-65.594
-58.913
-51.572
-43.592
-35.016
-25.869
-16.185
-6.048
4.396
14.974
25.555
36.103
46.595
56.894
66.85
76.347
85.363
93.978
102.149
109.617
116.036
121.165
124.812
126.766
126.721
124.275
119.265
111.884
102.549
91.658
79.56
66.632
53.356
40.304
27.86
16.092
4.839
-6.036
-16.549
-26.666
-36.374
-45.732
-54.774
-63.402
-71.406
-78.626
-85.039
-90.728
-95.846
-100.514
-104.789
-108.719
-112.361
-115.758
-118.939
-121.897
-124.587
-126.98
-129.079
-130.913
-132.535
-133.975
-135.205
-136.169
-136.793
-136.999
-136.738
-135.977
-134.685
-132.854
-130.502
-127.669
-124.415
-120.79
-116.812
-112.477
-107.771
-102.684
-97.231
-91.436
-85.316
-78.895
-72.198
-65.253
-58.092
-50.727
-43.135
-35.268
-27.079
-18.549
-9.693
-0.552
8.827
18.388
28.065
37.771
47.394
56.831
66.003
74.849
83.311
91.314
98.75
105.486
111.414
116.46
120.587
123.779
126.027
127.347
127.785
127.428
126.399
124.804
122.716
120.193
117.291
114.08
110.66
107.142
103.611
100.132
96.753
93.516
90.459
87.602
84.933
82.408
79.962
77.551
75.155
72.771
70.396
68.022
65.631
63.206
60.747
58.258
55.742
53.203
50.639
48.059
45.49
42.97
40.543
38.241
36.081
34.074
32.229
30.55
29.042
27.704
26.523
25.491
24.602
23.851
23.235
22.748
22.376
22.105
21.919
21.805
21.753
21.75
21.786
21.853
21.94
22.045
22.163
22.29
22.42
22.546
22.663
22.765
22.848
22.906
22.936
22.933
22.895
22.822
22.713
22.568
22.389
22.176
21.932
21.66
21.361
21.039
20.697
20.339
19.969
19.589
19.205
18.82
18.439
18.065
17.703
17.357
17.03
16.726
16.448
16.199
15.982
15.799
15.655
15.55
15.488
15.472
15.504
15.586
15.719
15.905
16.146
16.44
16.79
17.194
17.651
18.162
18.726
19.342
20.01
20.729
21.498
22.317
23.184
24.099
25.06
26.065
27.112
28.199
29.325
30.488
31.686
32.915
34.176
35.465
36.78
38.118
39.475
40.848
42.231
43.621
45.013
46.402
47.783
49.151
50.502
51.83
53.132
54.402
55.633
56.819
57.955
59.032
60.044
60.982
61.837
62.604
63.275
63.847
64.313
64.671
64.917
65.049
65.066
64.966
64.746
64.403
63.935
63.344
62.631
61.799
60.852
59.796
58.637
57.386
56.051
54.636
53.143
51.566
49.908
48.175
46.376
44.52
42.62
40.695
38.774
36.897
35.099
33.399
31.812
30.34
28.994
27.794
26.763
25.918
25.274
24.838
24.632
24.685
25.003
25.562
26.297
27.107
27.918
28.691
29.386
29.95
30.351
30.592
30.74
30.949
31.371
32.094
33.188
34.759
36.873
39.478
42.42
45.346
47.813
49.526
50.232
49.616
47.535
44.198
40.129
36.291
33.924
34.046
37.59
45.681
59.251
78.692
103.829
133.27
164.582
195.664
224.826
251.577
276.319
298.41
315.508
322.448
313.392
284.683
236.571
175.096
109.347
48.622
-0.427
-35.998
-60.025
-77.279
-91.193
-102.193
-108.764
-106.964
-95.966
-79.166
-60.953
-47.138
-39.74
-36.331
-34.64
-31.974
-27.884
-24.554
-22.849
-23.092
-25.021
-27.134
-28.756
-29.776
-29.838
-28.995
-27.449
-25.288
-22.817
-20.429
-18.254
-16.348
-14.829
-13.7
-12.906
-12.363
-11.877
-11.227
-10.314
-9.111
-7.602
-5.813
-3.757
-1.445
1.068
3.711
6.434
9.199
11.971
14.714
17.366
19.836
22.056
23.977
25.565
26.803
27.678
28.169
28.268
27.972
27.277
26.175
24.651
22.679
20.248
17.368
14.091
10.498
6.662
2.641
-1.527
-5.808
-10.156
-14.578
-19.13
-23.912
-29.06
-34.662
-40.717
-47.252
-54.344
-61.955
-69.988
-78.264
-86.428
-94.254
-101.689
-108.599
-114.83
-120.448
-125.685
-131.058
-137.429
-145.477
-155.64
-168.436
-184.351
-203.596
-226.034
-250.956
-277.161
-303.557
-329.24
-353.171
-374.156
-391.054
-402.983
-409.64
-411.182
-407.731
-399.292
-386.094
-368.832
-348.553
-326.415
-303.343
-280.029
-257.257
-235.997
-217.095
-200.924
-187.41
-176.192
-166.889
-159.205
-152.742
-146.901
-141.074
-134.929
-128.399
-121.593
-114.673
-107.742
-100.936
-94.518
-88.741
-83.699
-79.369
-75.65
-72.401
-69.525
-66.905
-64.338
-61.667
-58.805
-55.708
-52.397
-48.918
-45.292
-41.566
-37.829
-34.151
-30.607
-27.278
-24.195
-21.384
-18.876
-16.684
-14.831
-13.339
-12.209
-11.433
-11.003
-10.906
-11.13
-11.662
-12.469
-13.518
-14.769
-16.178
-17.714
-19.354
-21.076
-22.864
-24.703
-26.581
-28.492
-30.439
-32.421
-34.435
-36.477
-38.543
-40.632
-42.747
-44.892
-47.069
-49.282
-51.53
-53.813
-56.133
-58.488
-60.876
-63.292
-65.731
-68.188
-70.66
-73.144
-75.638
-78.137
-80.639
-83.142
-85.642
-88.138
-90.626
-93.101
-95.559
-97.996
-100.406
-102.785
-105.128
-107.429
-109.682
-111.884
-114.028
-116.112
-118.13
-120.077
-121.949
-123.743
-125.456
-127.085
-128.627
-130.081
-131.443
-132.711
-133.885
-134.963
-135.946
-136.831
-137.618
-138.306
-138.896
-139.388
-139.783
-140.078
-140.269
-140.352
-140.328
-140.197
-139.96
-139.62
-139.178
-138.634
-137.991
-137.25
-136.408
-135.461
-134.396
-133.197
-131.85
-130.338
-128.653
-126.784
-124.714
-122.423
-119.88
-117.057
-113.939
-110.514
-106.774
-102.72
-98.332
-93.607
-88.583
-83.278
-77.697
-71.825
-65.563
-58.813
-51.6
-43.967
-35.974
-27.813
-19.635
-11.664
-4.371
1.84
6.804
10.472
13.071
15.142
17.13
19.632
23.584
29.755
38.67
50.608
65.285
81.967
99.983
118.453
136.214
152.298
165.855
176.288
183.58
188.101
190.242
190.57
189.824
188.592
187.452
186.845
186.867
187.403
188.293
189.265
189.955
190.116
189.527
188.01
185.551
182.212
178.097
173.397
168.348
163.099
157.757
152.41
147.064
141.727
136.384
130.967
125.417
119.722
113.885
107.941
101.942
95.923
89.924
84.004
78.189
72.508
66.983
61.62
56.441
51.489
46.814
42.478
38.538
35.029
31.988
29.458
27.447
25.935
24.857
24.102
23.591
23.278
23.114
23.043
23.032
23.073
23.223
23.627
24.412
25.648
27.394
29.728
32.682
36.177
40.024
43.871
47.311
50.081
51.963
52.694
52.206
50.77
48.948
47.675
48.056
50.968
57.241
67.786
83.251
103.858
129.362
158.87
190.654
222.572
252.571
278.837
301.079
319.938
334.772
343.161
340.411
322.041
287.299
239.435
184.783
128.425
72.361
17.54
-35.03
-81.072
-114.662
-132.691
-135.698
-128.659
-117.732
-106.716
-96.888
-87.255
-77.169
-67.304
-58.866
-53.45
-51.667
-53.016
-56.688
-61.625
-66.785
-71.445
-75.069
-77.188
-77.611
-76.392
-73.741
-70.061
-65.88
-61.68
-57.771
-54.359
-51.518
-49.213
-47.369
-45.844
-44.406
-42.787
-40.813
-38.394
-35.495
-32.147
-28.368
-24.169
-19.597
-14.724
-9.616
-4.336
1.058
6.527
12.015
17.458
22.79
27.924
32.783
37.304
41.419
45.09
48.3
51.03
53.27
55.028
56.316
57.183
57.711
57.96
57.985
57.835
57.545
57.202
56.924
56.791
56.83
56.985
57.114
57.102
56.899
56.414
55.482
53.957
51.756
48.993
46.023
43.14
40.407
37.764
35.143
32.43
29.42
25.651
20.248
12.321
1.348
-12.99
-30.877
-52.447
-77.805
-106.721
-138.366
-171.627
-205.496
-238.988
-271.195
-301.052
-327.269
-348.808
-365.039
-375.768
-381.069
-381.073
-375.9
-365.939
-351.862
-334.38
-314.354
-292.422
-268.941
-244.407
-219.413
-194.552
-170.533
-147.934
-126.895
-107.561
-90.174
-74.778
-61.342
-49.642
-39.057
-29.019
-19.298
-9.725
-0.206
9.239
18.636
27.884
36.637
44.608
51.686
57.838
63.185
67.926
72.208
76.232
80.242
84.394
88.79
93.481
98.439
103.615
108.96
114.391
119.827
125.22
130.521
135.688
140.673
145.393
149.78
153.78
157.357
160.494
163.182
165.41
167.189
168.547
169.517
170.144
170.464
170.502
170.29
169.865
169.272
168.565
167.786
166.968
166.139
165.319
164.527
163.781
163.087
162.444
161.85
161.305
160.808
160.364
159.971
159.625
159.319
159.046
158.798
158.57
158.355
158.146
157.935
157.715
157.478
157.221
156.936
156.616
156.251
155.833
155.351
154.798
154.165
153.444
152.625
151.703
150.672
149.528
148.266
146.885
145.381
143.754
142.003
140.131
138.138
136.029
133.808
131.48
129.051
126.531
123.926
121.246
118.502
115.704
112.864
109.995
107.11
104.222
101.346
98.495
95.684
92.928
90.242
87.64
85.136
82.744
80.478
78.351
76.374
74.56
72.919
71.459
70.189
69.116
68.246
67.582
67.129
66.887
66.858
67.039
67.429
68.022
68.813
69.794
70.955
72.287
73.776
75.407
77.166
79.036
80.998
83.034
85.124
87.246
89.38
91.502
93.591
95.622
97.572
99.416
101.132
102.694
104.081
105.269
106.236
106.963
107.429
107.617
107.508
107.086
106.336
105.244
103.799
101.99
99.81
97.252
94.313
90.991
87.289
83.209
78.758
73.942
68.769
63.252
57.402
51.234
44.763
38.004
30.976
23.701
16.2
8.499
0.624
-7.399
-15.542
-23.772
-32.061
-40.381
-48.701
-56.995
-65.234
-73.387
-81.426
-89.322
-97.045
-104.568
-111.863
-118.901
-125.659
-132.118
-138.265
-144.094
-149.596
-154.758
-159.571
-164.022
-168.096
-171.773
-175.025
-177.816
-180.128
-181.947
-183.272
-184.111
-184.465
-184.332
-183.72
-182.624
-181.045
-178.984
-176.429
-173.384
-169.889
-166.011
-161.851
-157.524
-153.11
-148.683
-144.338
-140.118
-136.033
-132.045
-128.017
-123.838
-119.463
-114.843
-109.903
-104.627
-99.072
-93.39
-87.914
-82.969
-78.742
-75.407
-73.173
-72.123
-72.073
-72.569
-72.79
-71.728
-68.586
-62.607
-52.847
-38.487
-19.13
5.158
33.171
62.757
92.23
120.229
146.52
171.76
194.785
212.44
219.546
210.705
184.488
144.376
96.773
48.124
1.795
-42.863
-86.19
-126.055
-159.135
-180.753
-189.445
-188.328
-180.838
-170.719
-160.05
-148.182
-135.06
-121.07
-106.882
-93.93
-83.17
-75.023
-69.439
-65.973
-64.182
-63.549
-63.671
-64.152
-64.324
-63.616
-61.768
-58.665
-54.39
-49.188
-43.195
-36.626
-29.894
-23.289
-16.968
-11.008
-5.318
0.223
5.678
11.152
16.793
22.677
28.845
35.294
41.953
48.761
55.666
62.607
69.528
76.378
83.112
89.686
96.063
102.209
108.093
113.69
118.98
123.948
128.582
132.877
136.835
140.455
143.741
146.696
149.317
151.611
153.585
155.25
156.622
157.715
158.543
159.121
159.468
159.602
159.541
159.302
158.901
158.356
157.69
156.923
156.079
155.179
154.244
153.298
152.36
151.451
150.591
149.795
149.082
148.465
147.96
147.58
147.336
147.24
147.299
147.521
147.913
148.479
149.222
150.141
151.237
152.509
153.952
155.562
157.333
159.259
161.33
163.537
165.87
168.318
170.869
173.509
176.225
179.004
181.833
184.695
187.579
190.469
193.352
196.215
199.044
201.827
204.553
207.211
209.789
212.279
214.671
216.958
219.131
221.185
223.114
224.913
226.578
228.106
229.494
230.741
231.846
232.807
233.626
234.303
234.839
235.235
235.493
235.615
235.604
235.462
235.19
234.792
234.27
233.626
232.862
231.979
230.98
229.865
228.635
227.29
225.83
224.254
222.561
220.75
218.818
216.765
214.586
212.279
209.842
207.271
204.563
201.714
198.721
195.581
192.291
188.849
185.25
181.494
177.579
173.503
169.267
164.869
160.31
155.592
150.717
145.688
140.507
135.18
129.713
124.11
118.38
112.53
106.57
100.509
94.358
88.129
81.834
75.485
69.096
62.682
56.257
49.836
43.435
37.07
30.756
24.511
18.349
12.287
6.342
0.53
-5.135
-10.636
-15.959
-21.088
-26.009
-30.708
-35.173
-39.389
-43.346
-47.032
-50.435
-53.547
-56.357
-58.858
-61.042
-62.902
-64.432
-65.628
-66.484
-66.998
-67.167
-66.99
-66.465
-65.593
-64.374
-62.81
-60.903
-58.658
-56.078
-53.168
-49.934
-46.383
-42.522
-38.36
-33.907
-29.171
-24.165
-18.899
-13.388
-7.644
-1.682
4.482
10.834
17.355
24.028
30.836
37.759
44.779
51.875
59.028
66.215
73.415
80.607
87.769
94.879
101.913
108.85
115.668
122.344
128.858
135.189
141.315
147.216
152.872
158.265
163.377
168.19
172.688
176.855
180.68
184.148
187.25
189.975
192.315
194.265
195.817
196.97
197.719
198.065
198.006
197.546
196.687
195.435
193.796
191.778
189.389
186.639
183.541
180.106
176.346
172.274
167.903
163.245
158.316
153.131
147.703
142.051
136.189
130.137
123.914
117.54
111.033
104.41
97.688
90.882
84.007
77.08
70.113
63.124
56.124
49.131
42.163
35.236
28.364
21.557
14.817
8.149
1.561
-4.938
-11.334
-17.61
-23.751
-29.73
-35.517
-41.083
-46.401
-51.449
-56.216
-60.696
-64.884
-68.77
-72.333
-75.557
-78.439
-80.989
-83.233
-85.198
-86.917
-88.429
-89.797
-91.096
-92.4
-93.772
-95.258
-96.888
-98.668
-100.641
-102.884
-105.416
-108.199
-111.109
-113.907
-116.388
-118.414
-119.772
-120.207
-119.607
-117.966
-115.533
-112.902
-110.597
-109.024
-108.625
-109.667
-112.024
-115.384
-119.019
-121.569
-121.691
-118.133
-109.43
-94.967
-75.443
-51.607
-24.646
4.713
37.593
73.826
110.721
143.106
163.064
164.395
145.349
108.47
59.429
3.203
-56.612
-117.452
-176.325
-227.883
-267.996
-294.904
-310.176
-319.2
-325.89
-331.906
-337.086
-339.419
-338.772
-336.586
-334.265
-333.534
-335.068
-338.667
-344.42
-352.128
-361.16
-370.899
-380.713
-389.97
-398.446
-406.061
-412.524
-417.729
-421.85
-425.145
-428.031
-430.977
-434.166
-437.676
-441.653
-446.127
-451.093
-456.536
-462.287
-468.146
-474.013
-479.833
-485.571
-491.229
-496.762
-502.089
-507.178
-512.015
-516.596
-520.932
-525.024
-528.863
-532.425
-535.733
-538.862
-541.923
-545.115
-548.644
-552.684
-557.464
-563.276
-570.284
-578.558
-588.012
-598.264
-608.972
-619.932
-630.877
-641.699
-652.667
-664.247
-677.262
-693.014
-712.636
-737.06
-767.228
-803.546
-845.81
-893.475
-945.269
-999.297
-1053.801
-1106.843
-1156.872
-1202.942
-1243.748
-1278.713
-1306.964
-1328.027
-1344.228
-1357.676
-1371.317
-1388.152
-1407.013
-1426.854
-1446.676
-1464.542
-1481.449
-1498.149
-1514.188
-1529.939
-1544.82
-1558.185
-1570.304
-1581.231
-1590.954
-1599.677
-1607.469
-1614.212
-1619.864
-1624.425
-1627.778
-1629.911
-1631.063
-1631.433
-1631.076
-1630.195
-1628.437
-1624.567
-1618.066
-1608.765
-1596.977
-1584.808
-1572.361
-1557.1
-1535.875
-1503.407
-1457.479
-1401.492
-1340.742
-1283.478
-1236.032
-1198.578
-1168.288
-1139.168
-1105.533
-1065.882
-1021.316
-974.629
-928.216
-882.56
-837.003
-790.693
-743.539
-695.948
-648.284
-600.783
-553.387
-506.014
-458.786
-411.76
-364.86
-318.033
-271.253
-224.604
-178.239
-132.21
-86.528
-41.226
3.589
47.664
90.727
132.699
173.52
213.06
251.34
288.447
324.594
360.341
395.843
430.48
463.782
495.93
528.504
563.987
603.68
645.693
684.106
712.935
728.325
730.939
728.212
726.812
731.281
743.647
759.484
775.403
789.941
801.459
811.829
822.285
832.252
841.791
849.887
855.443
858.4
858.787
856.848
853.122
848.063
841.926
834.933
827.338
819.275
810.822
802.046
792.875
783.202
773.025
762.369
751.271
739.81
728.039
715.994
703.747
691.37
678.917
666.438
653.963
641.511
629.114
616.806
604.621
592.598
580.762
569.14
557.754
546.627
535.783
525.244
515.028
505.151
495.625
486.463
477.674
469.266
461.242
453.603
446.345
439.464
432.952
426.805
421.015
415.575
410.473
405.699
401.238
397.079
393.207
389.606
386.257
383.143
380.247
377.553
375.05
372.724
370.565
368.563
366.709
364.997
363.419
361.966
360.629
359.395
358.257
357.208
356.245
355.37
354.578
353.865
353.225
352.652
352.13
351.645
351.17
350.678
350.153
349.587
348.976
348.335
347.67
346.991
346.313
345.635
344.962
344.304
343.661
343.047
342.485
342.006
341.663
341.513
341.586
341.902
342.463
343.239
344.202
345.315
346.523
347.806
349.14
350.486
351.822
353.108
354.279
355.268
355.981
356.3
356.149
355.467
354.213
352.408
350.064
347.213
343.906
340.153
335.969
331.4
326.48
321.264
315.842
310.303
304.771
299.416
294.369
289.742
285.629
282.061
279.077
276.718
275.006
274.006
273.773
274.321
275.677
277.857
280.841
284.608
289.102
294.205
299.838
305.95
312.493
319.453
326.796
334.449
342.35
350.424
358.578
366.716
374.753
382.621
390.32
397.924
405.519
413.189
421.017
429.068
437.346
445.764
454.071
461.846
468.663
474.164
478.03
480.007
479.984
478.056
474.718
470.858
467.524
465.813
466.808
471.542
480.853
495.385
515.307
540.042
568.548
599.017
628.912
656.217
679.219
696.89
709.501
715.845
713.779
700.769
673.369
631.575
578.386
519.251
462.263
413.234
375.767
350.326
333.722
323.441
317.268
314.445
316.3
322.836
333.276
346.131
358.945
370.176
379.074
385.152
388.323
388.722
386.618
382.599
377.422
371.74
366.146
361.112
357.006
354.033
352.181
351.242
350.88
350.745
350.48
349.841
348.682
346.921
344.604
341.855
338.819
335.677
332.617
329.737
327.085
324.683
322.502
320.512
318.692
316.994
315.37
313.794
312.241
310.692
309.13
307.519
305.829
304.041
302.137
300.109
297.958
295.68
293.278
290.762
288.137
285.409
282.584
279.659
276.637
273.524
270.326
267.051
263.71
260.306
256.847
253.338
249.783
246.186
242.548
238.867
235.147
231.389
227.598
223.776
219.927
216.055
212.162
208.252
204.328
200.391
196.443
192.484
188.517
184.544
180.566
176.586
172.606
168.628
164.656
160.691
156.737
152.796
148.873
144.969
141.087
137.232
133.406
129.614
125.859
122.145
118.475
114.855
111.287
107.777
104.327
100.943
97.627
94.384
91.219
88.133
85.132
82.219
79.397
76.67
74.041
71.513
69.088
66.768
64.555
62.45
60.454
58.566
56.787
55.115
53.551
52.092
50.736
49.481
48.325
47.264
46.295
45.413
44.616
43.898
43.254
42.68
42.17
41.719
41.322
40.973
40.665
40.393
40.151
39.933
39.732
39.542
39.358
39.174
38.984
38.784
38.567
38.329
38.067
37.775
37.45
37.089
36.687
36.244
35.755
35.219
34.633
33.996
33.307
32.564
31.767
30.914
30.004
29.039
28.016
26.937
25.801
24.609
23.36
22.057
20.699
19.288
17.824
16.309
14.744
13.128
11.464
9.752
7.993
6.186
4.333
2.433
0.487
-1.506
-3.546
-5.635
-7.771
-9.958
-12.195
-14.485
-16.827
-19.225
-21.679
-24.191
-26.762
-29.394
-32.088
-34.846
-37.67
-40.561
-43.521
-46.551
-49.653
-52.829
-56.081
-59.409
-62.816
-66.301
-69.867
-73.514
-77.241
-81.05
-84.939
-88.909
-92.959
-97.086
-101.289
-105.565
-109.913
-114.328
-118.806
-123.344
-127.937
-132.579
-137.266
-141.992
-146.751
-151.537
-156.342
-161.161
-165.986
-170.809
-175.622
-180.417
-185.184
-189.915
-194.6
-199.23
-203.796
-208.286
-212.691
-217.002
-221.207
-225.297
-229.262
-233.09
-236.773
-240.3
-243.661
-246.849
-249.854
-252.669
-255.286
-257.699
-259.899
-261.883
-263.642
-265.174
-266.471
-267.531
-268.348
-268.922
-269.248
-269.327
-269.157
-268.74
-268.077
-267.171
-266.025
-264.642
-263.028
-261.188
-259.13
-256.861
-254.389
-251.724
-248.878
-245.862
-242.69
-239.373
-235.926
-232.364
-228.699
-224.947
-221.124
-217.243
-213.322
-209.375
-205.42
-201.474
-197.557
-193.688
-189.884
-186.163
-182.545
-179.045
-175.68
-172.463
-169.408
-166.523
-163.821
-161.312
-159.004
-156.909
-155.034
-153.386
-151.971
-150.794
-149.856
-149.156
-148.692
-148.457
-148.445
-148.652
-149.076
-149.721
-150.585
-151.662
-152.942
-154.411
-156.051
-157.841
-159.753
-161.744
-163.775
-165.807
-167.803
-169.747
-171.624
-173.413
-175.09
-176.62
-177.973
-179.147
-180.149
-180.977
-181.631
-182.111
-182.438
-182.692
-182.962
-183.325
-183.849
-184.555
-185.457
-186.623
-188.085
-189.826
-191.773
-193.736
-195.51
-196.993
-198.066
-198.549
-198.346
-197.412
-195.831
-193.985
-192.262
-190.925
-190.274
-190.561
-191.814
-193.823
-196.019
-197.424
-197.021
-193.771
-186.595
-174.586
-156.999
-134.145
-106.992
-76.19
-43.186
-8.607
26.719
58.849
84.39
99.682
101.547
91.945
72.879
45.694
11.702
-31.086
-82.806
-139.73
-195.682
-242.842
-276.185
-295.764
-305.881
-311.401
-315.147
-317.285
-315.729
-309.513
-299.548
-287.588
-275.747
-265.301
-256.687
-250.156
-245.867
-243.728
-243.369
-244.2
-245.744
-247.614
-249.357
-250.603
-250.94
-250.104
-248.159
-245.333
-241.865
-238.029
-234.153
-230.448
-227.109
-224.277
-221.926
-219.964
-218.257
-216.622
-214.869
-212.899
-210.66
-208.126
-205.324
-202.275
-199.012
-195.598
-192.095
-188.546
-184.98
-181.414
-177.868
-174.375
-170.985
-167.736
-164.654
-161.758
-159.059
-156.565
-154.287
-152.225
-150.374
-148.723
-147.267
-146.003
-144.929
-144.042
-143.331
-142.784
-142.387
-142.127
-141.993
-141.972
-142.05
-142.218
-142.462
-142.774
-143.144
-143.561
-144.013
-144.488
-144.971
-145.451
-145.915
-146.351
-146.747
-147.092
-147.376
-147.591
-147.73
-147.783
-147.744
-147.607
-147.367
-147.019
-146.56
-145.988
-145.301
-144.498
-143.581
-142.55
-141.408
-140.158
-138.805
-137.352
-135.805
-134.17
-132.454
-130.664
-128.808
-126.894
-124.93
-122.927
-120.893
-118.838
-116.771
-114.702
-112.641
-110.598
-108.582
-106.602
-104.667
-102.785
-100.965
-99.215
-97.541
-95.95
-94.449
-93.043
-91.736
-90.533
-89.438
-88.452
-87.578
-86.818
-86.171
-85.637
-85.216
-84.905
-84.703
-84.606
-84.611
-84.713
-84.908
-85.189
-85.55
-85.986
-86.489
-87.052
-87.667
-88.326
-89.02
-89.743
-90.484
-91.236
-91.99
-92.738
-93.47
-94.18
-94.859
-95.499
-96.093
-96.636
-97.119
-97.537
-97.885
-98.158
-98.352
-98.462
-98.486
-98.421
-98.266
-98.02
-97.682
-97.251
-96.73
-96.12
-95.422
-94.639
-93.775
-92.832
-91.816
-90.731
-89.581
-88.372
-87.11
-85.8
-84.448
-83.061
-81.645
-80.206
-78.75
-77.284
-75.813
-74.343
-72.88
-71.429
-69.995
-68.583
-67.196
-65.84
-64.516
-63.229
-61.978
-60.767
-59.595
-58.463
-57.371
-56.316
-55.297
-54.311
-53.356
-52.426
-51.518
-50.626
-49.744
-48.867
-47.986
-47.094
-46.184
-45.247
-44.274
-43.257
-42.185
-41.05
-39.841
-38.548
-37.161
-35.67
-34.064
-32.332
-30.465
-28.453
-26.285
-23.952
-21.446
-18.757
-15.878
-12.801
-9.52
-6.028
-2.32
1.609
5.762
10.144
14.755
19.598
24.671
29.976
35.509
41.269
47.251
53.451
59.864
66.483
73.301
80.308
87.496
94.854
102.37
110.031
117.822
125.73
133.737
141.829
149.989
158.197
166.438
174.691
182.938
191.16
199.336
207.448
215.474
223.394
231.187
238.834
246.315
253.609
260.697
267.561
274.183
280.544
286.627
292.416
297.893
303.043
307.851
312.304
316.389
320.096
323.414
326.335
328.854
330.963
332.66
333.941
334.803
335.245
335.266
334.867
334.05
332.818
331.175
329.128
326.688
323.863
320.667
317.115
313.222
309.004
304.478
299.66
294.567
289.217
283.631
277.831
271.838
265.674
259.364
252.936
246.414
239.823
233.18
226.498
219.792
213.082
206.39
199.741
193.161
186.676
180.321
174.143
168.187
162.497
157.103
152.013
147.241
142.806
138.728
135.043
131.761
128.867
126.357
124.232
122.491
121.125
120.076
119.235
118.499
117.777
117.014
116.181
115.215
114.066
112.737
111.266
109.791
108.486
107.437
106.717
106.458
106.714
107.477
108.694
110.078
111.311
112.217
112.581
112.155
110.888
108.964
106.831
105.312
105.304
107.497
112.627
121.572
135.02
153.259
176.127
202.38
229.949
257.196
282.293
304.466
324.697
342.437
356.333
363.167
356.185
331.381
288.184
229.248
163.704
100.274
44.588
1.005
-31.83
-57.232
-76.688
-92.238
-103.543
-108.617
-107.548
-101.094
-90.895
-79.71
-69.225
-60.343
-53.975
-50.601
-50.33
-53.004
-58.019
-64.46
-71.618
-78.897
-85.496
-90.735
-94.233
-95.825
-95.666
-94.174
-91.682
-88.53
-85.207
-82.075
-79.335
-77.118
-75.381
-73.976
-72.776
-71.621
-70.314
-68.757
-66.923
-64.806
-62.455
-59.926
-57.261
-54.529
-51.803
-49.128
-46.541
-44.072
-41.746
-39.61
-37.72
-36.126
-34.862
-33.957
-33.428
-33.294
-33.569
-34.261
-35.367
-36.881
-38.8
-41.12
-43.84
-46.951
-50.437
-54.278
-58.452
-62.936
-67.706
-72.737
-78.002
-83.475
-89.129
-94.941
-100.883
-106.929
-113.049
-119.214
-125.392
-131.554
-137.671
-143.713
-149.651
-155.457
-161.107
-166.576
-171.842
-176.883
-181.679
-186.21
-190.457
-194.406
-198.042
-201.352
-204.325
-206.954
-209.231
-211.153
-212.72
-213.931
-214.784
-215.282
-215.424
-215.216
-214.664
-213.778
-212.568
-211.045
-209.219
-207.101
-204.707
-202.047
-199.134
-195.975
-192.579
-188.954
-185.112
-181.069
-176.842
-172.443
-167.877
-163.141
-158.229
-153.144
-147.898
-142.51
-136.992
-131.349
-125.576
-119.689
-113.731
-107.716
-101.612
-95.332
-88.777
-81.925
-74.864
-67.705
-60.486
-53.256
-46.137
-39.374
-33.262
-27.925
-23.216
-18.842
-14.615
-10.405
-6.041
-1.228
4.437
11.157
18.769
26.876
35.163
43.44
51.549
59.275
66.284
72.364
77.588
82.238
86.559
90.677
94.647
98.508
102.378
106.357
110.418
114.437
118.292
121.918
125.307
128.48
131.432
134.137
136.591
138.807
140.806
142.598
144.18
145.533
146.647
147.518
148.151
148.555
148.736
148.7
148.453
148.001
147.352
146.516
145.502
144.322
142.985
141.503
139.888
138.153
136.314
134.382
132.369
130.287
128.144
125.954
123.727
121.474
119.207
116.936
114.672
112.423
110.2
108.011
105.865
103.768
101.727
99.747
97.835
95.996
94.232
92.547
90.944
89.425
87.991
86.642
85.378
84.2
83.105
82.094
81.164
80.313
79.539
78.84
78.213
77.656
77.165
76.738
76.373
76.066
75.817
75.624
75.483
75.394
75.357
75.368
75.43
75.54
75.7
75.909
76.17
76.484
76.853
77.279
77.764
78.312
78.925
79.606
80.358
81.182
82.082
83.06
84.117
85.255
86.477
87.782
89.171
90.645
92.202
93.84
95.557
97.349
99.212
101.139
103.125
105.162
107.242
109.356
111.492
113.642
115.792
117.93
120.041
122.109
124.119
126.054
127.897
129.63
131.235
132.694
133.989
135.103
136.02
136.721
137.19
137.409
137.363
137.036
136.412
135.477
134.217
132.62
130.678
128.381
125.726
122.709
119.33
115.592
111.498
107.054
102.265
97.139
91.685
85.917
79.852
73.505
66.897
60.05
52.991
45.748
38.349
30.819
23.178
15.443
7.637
-0.211
-8.071
-15.911
-23.7
-31.399
-38.963
-46.332
-53.454
-60.288
-66.806
-72.992
-78.82
-84.262
-89.279
-93.837
-97.927
-101.541
-104.67
-107.296
-109.405
-111.011
-112.18
-113.009
-113.593
-113.996
-114.244
-114.369
-114.446
-114.526
-114.622
-114.674
-114.498
-113.929
-112.892
-111.312
-109.072
-106.104
-102.395
-98.075
-93.6
-89.482
-86.083
-83.741
-82.732
-83.11
-84.68
-86.898
-88.63
-88.59
-85.722
-78.904
-67.057
-49.458
-25.82
3.043
34.973
67.705
99.645
130.418
160.356
188.454
211.363
223.253
218.542
194.916
154.427
103.659
49.616
-2.928
-51.766
-97.388
-139.846
-177.83
-209.637
-233.558
-249.161
-257.319
-259.37
-256.894
-251.571
-244.994
-238.6
-233.298
-229.378
-226.771
-225.202
-224.296
-223.552
-222.329
-219.997
-216.268
-211.247
-205.219
-198.532
-191.483
-184.315
-177.315
-170.802
-164.953
-159.793
-155.259
-151.219
-147.563
-144.233
-141.163
-138.258
-135.423
-132.544
-129.517
-126.294
-122.847
-119.156
-115.217
-111.024
-106.586
-101.946
-97.158
-92.275
-87.345
-82.403
-77.481
-72.624
-67.883
-63.316
-58.982
-54.922
-51.165
-47.734
-44.647
-41.917
-39.55
-37.539
-35.868
-34.526
-33.503
-32.794
-32.393
-32.287
-32.464
-32.908
-33.604
-34.538
-35.696
-37.062
-38.622
-40.359
-42.259
-44.308
-46.493
-48.799
-51.209
-53.705
-56.268
-58.88
-61.523
-64.176
-66.82
-69.437
-72.008
-74.517
-76.945
-79.278
-81.498
-83.592
-85.544
-87.342
-88.973
-90.425
-91.688
-92.752
-93.609
-94.252
-94.675
-94.872
-94.84
-94.576
-94.079
-93.348
-92.385
-91.191
-89.77
-88.126
-86.265
-84.193
-81.917
-79.446
-76.79
-73.959
-70.964
-67.817
-64.531
-61.118
-57.592
-53.965
-50.252
-46.468
-42.625
-38.738
-34.821
-30.889
-26.953
-23.029
-19.128
-15.264
-11.447
-7.69
-4.002
-0.395
3.123
6.543
9.856
13.057
16.137
19.093
21.918
24.609
27.163
29.577
31.85
33.98
35.968
37.814
39.519
41.084
42.513
43.808
44.972
46.008
46.921
47.715
48.394
48.964
49.427
49.791
50.058
50.234
50.324
50.332
50.263
50.121
49.911
49.636
49.301
48.909
48.464
47.969
47.428
46.843
46.218
45.556
44.859
44.13
43.372
42.587
41.778
40.948
40.099
39.233
38.353
37.461
36.561
35.655
34.745
33.835
32.928
32.026
31.134
30.253
29.389
28.544
27.721
26.926
26.162
25.432
24.741
24.092
23.49
22.938
22.441
22.001
21.622
21.308
21.06
20.883
20.778
20.747
20.792
20.914
21.114
21.392
21.748
22.183
22.696
23.284
23.948
24.684
25.492
26.368
27.309
28.314
29.377
30.495
31.665
32.881
34.14
35.437
36.767
38.126
39.508
40.909
42.323
43.747
45.175
46.604
48.028
49.445
50.852
52.244
53.62
54.978
56.316
57.634
58.93
60.204
61.457
62.688
63.899
65.091
66.263
67.419
68.56
69.688
70.805
71.913
73.014
74.11
75.205
76.3
77.397
78.498
79.604
80.718
81.84
82.971
84.113
85.264
86.424
87.591
88.764
89.938
91.11
92.275
93.425
94.555
95.656
96.721
97.74
98.703
99.601
100.422
101.157
101.792
102.317
102.719
102.986
103.106
103.067
102.854
102.456
101.858
101.05
100.025
98.771
97.279
95.541
93.552
91.307
88.806
86.045
83.02
79.733
76.186
72.392
68.364
64.115
59.658
55.007
50.177
45.187
40.058
34.804
29.434
23.955
18.38
12.729
7.036
1.331
-4.367
-10.041
-15.673
-21.243
-26.715
-32.046
-37.212
-42.186
-46.935
-51.433
-55.618
-59.393
-62.719
-65.614
-68.114
-70.288
-72.128
-73.523
-74.45
-74.972
-75.07
-74.674
-73.641
-71.728
-68.9
-65.351
-61.174
-56.394
-51.121
-45.437
-39.539
-33.844
-28.594
-23.868
-19.878
-16.833
-14.866
-14.174
-14.775
-16.316
-18.291
-20.012
-20.57
-19.071
-14.545
-5.911
7.733
27.009
51.407
79.226
108.899
138.865
169.003
200.733
233.074
263.117
285.764
293.631
283.222
254.974
212.001
160.854
106.981
54.521
7.875
-30.26
-58.35
-76.538
-87.767
-95.049
-100.278
-103.951
-104.633
-101.552
-95.294
-86.907
-78.039
-69.701
-61.903
-54.632
-48.013
-42.027
-36.756
-32.398
-28.908
-26.274
-24.598
-23.722
-23.265
-23.022
-22.786
-22.266
-21.384
-20.088
-18.286
-16.122
-13.872
-11.679
-9.66
-7.926
-6.428
-5.118
-3.979
-2.892
-1.715
-0.372
1.187
2.983
4.961
7.075
9.289
11.543
13.781
15.956
18.02
19.932
21.655
23.153
24.399
25.372
26.052
26.426
26.482
26.221
25.648
24.769
23.591
22.115
20.342
18.278
15.932
13.314
10.436
7.311
3.95
0.366
-3.422
-7.399
-11.549
-15.857
-20.308
-24.886
-29.571
-34.342
-39.176
-44.053
-48.95
-53.843
-58.707
-63.519
-68.257
-72.898
-77.421
-81.803
-86.024
-90.063
-93.9
-97.516
-100.893
-104.013
-106.861
-109.421
-111.68
-113.627
-115.252
-116.544
-117.498
-118.108
-118.37
-118.283
-117.846
-117.061
-115.932
-114.464
-112.665
-110.543
-108.11
-105.376
-102.356
-99.065
-95.519
-91.735
-87.733
-83.532
-79.151
-74.612
-69.935
-65.144
-60.259
-55.304
-50.299
-45.269
-40.234
-35.216
-30.237
-25.317
-20.475
-15.731
-11.103
-6.606
-2.256
1.932
5.947
9.776
13.411
16.843
20.066
23.074
25.865
28.436
30.787
32.919
34.834
36.537
38.033
39.327
40.428
41.343
42.083
42.657
43.076
43.352
43.497
43.523
43.443
43.27
43.016
42.695
42.319
41.901
41.452
40.984
40.507
40.033
39.569
39.125
38.707
38.324
37.98
37.681
37.43
37.231
37.086
36.996
36.961
36.981
37.055
37.18
37.354
37.574
37.835
38.134
38.466
38.826
39.209
39.608
40.018
40.433
40.847
41.254
41.647
42.022
42.373
42.694
42.982
43.231
43.438
43.6
43.713
43.776
43.786
43.742
43.642
43.487
43.276
43.009
42.689
42.315
41.891
41.417
40.896
40.33
39.723
39.077
38.394
37.678
36.933
36.161
35.367
34.553
33.724
32.883
32.034
31.18
30.324
29.469
28.619
27.775
26.94
26.117
25.308
24.516
23.742
22.988
22.257
21.55
20.868
20.213
19.587
18.991
18.426
17.895
17.399
16.94
16.519
16.14
15.805
15.514
15.272
15.078
14.937
14.848
14.814
14.838
14.921
15.065
15.273
15.546
15.888
16.3
16.784
17.341
17.972
18.678
19.459
20.316
21.248
22.254
23.334
24.486
25.709
27.001
28.358
29.777
31.253
32.78
34.351
35.962
37.603
39.268
40.949
42.637
44.324
46.003
47.663
49.294
50.886
52.428
53.907
55.311
56.627
57.843
58.946
59.926
60.772
61.477
62.033
62.433
62.671
62.741
62.637
62.354
61.886
61.23
60.384
59.346
58.12
56.706
55.109
53.338
51.401
49.303
47.049
44.634
42.061
39.34
36.479
33.492
30.395
27.202
23.941
20.65
17.367
14.132
10.969
7.886
4.898
2.025
-0.706
-3.26
-5.622
-7.801
-9.791
-11.578
-13.148
-14.487
-15.634
-16.674
-17.69
-18.754
-19.902
-21.148
-22.547
-24.138
-25.921
-27.847
-29.75
-31.427
-32.766
-33.674
-34.036
-33.822
-33.023
-31.722
-30.263
-29.03
-28.342
-28.519
-29.78
-32.145
-35.477
-39.29
-42.737
-44.849
-44.607
-41.011
-33.14
-20.225
-1.827
21.996
50.196
80.785
111.721
140.818
167.296
192.156
214.89
234.349
246.979
245.571
226.321
187.844
131.607
66.165
-0.758
-62.159
-110.139
-143.658
-164.197
-173.769
-177.766
-177.913
-172.875
-163.58
-150.952
-137.683
-129.064
-126.3
-127.315
-129.888
-130.509
-128.26
-125.061
-121.73
-118.856
-116.482
-113.566
-109.857
-105.676
-101.232
-96.906
-93.003
-89.639
-86.901
-84.807
-83.258
-82.102
-81.229
-80.566
-80.03
-79.532
-78.962
-78.221
-77.261
-76.076
-74.668
-73.034
-71.162
-69.056
-66.74
-64.256
-61.648
-58.952
-56.195
-53.41
-50.635
-47.92
-45.316
-42.863
-40.584
-38.499
-36.618
-34.953
-33.511
-32.294
-31.292
-30.495
-29.896
-29.488
-29.269
-29.232
-29.364
-29.653
-30.085
-30.65
-31.338
-32.139
-33.042
-34.036
-35.113
-36.263
-37.48
-38.754
-40.074
-41.428
-42.804
-44.19
-45.574
-46.944
-48.287
-49.59
-50.844
-52.037
-53.16
-54.203
-55.155
-56.008
-56.755
-57.386
-57.896
-58.277
-58.524
-58.633
-58.598
-58.418
-58.091
-57.614
-56.987
-56.209
-55.283
-54.21
-52.992
-51.632
-50.135
-48.504
-46.746
-44.866
-42.872
-40.77
-38.57
-36.278
-33.906
-31.461
-28.955
-26.396
-23.796
-21.165
-18.513
-15.851
-13.19
-10.54
-7.912
-5.317
-2.764
-0.263
2.175
4.543
6.831
9.032
11.138
13.142
15.038
16.821
18.484
20.024
21.438
22.721
23.872
24.89
25.772
26.521
27.135
27.616
27.968
28.191
28.291
28.27
28.135
27.889
27.539
27.091
26.552
25.929
25.229
24.46
23.629
22.745
21.816
20.849
19.852
18.834
17.801
16.761
15.722
14.689
13.671
12.674
11.703
10.764
9.862
9.003
8.19
7.429
6.721
6.072
5.482
4.955
4.492
4.095
3.764
3.5
3.302
3.17
3.103
3.1
3.159
3.279
3.457
3.691
3.978
4.316
4.701
5.13
5.601
6.111
6.655
7.231
7.836
8.465
9.117
9.787
10.473
11.171
11.878
12.59
13.306
14.021
14.733
15.439
16.137
16.823
17.494
18.15
18.786
19.402
19.995
20.562
21.104
21.617
22.1
22.552
22.971
23.357
23.708
24.022
24.3
24.539
24.74
24.901
25.023
25.105
25.146
25.147
25.107
25.028
24.91
24.752
24.556
24.324
24.056
23.755
23.422
23.059
22.669
22.254
21.817
21.36
20.887
20.399
19.901
19.395
18.884
18.372
17.863
17.36
16.868
16.39
15.931
15.494
15.083
14.701
14.352
14.038
13.762
13.529
13.339
13.195
13.101
13.056
13.065
13.126
13.241
13.409
13.628
13.898
14.216
14.58
14.989
15.437
15.923
16.443
16.993
17.569
18.167
18.778
19.398
20.018
20.631
21.227
21.799
22.337
22.834
23.285
23.681
24.019
24.294
24.501
24.637
24.696
24.673
24.563
24.363
24.069
23.68
23.196
22.615
21.94
21.178
20.33
19.402
18.392
17.292
16.1
14.82
13.456
12.015
10.506
8.939
7.333
5.722
4.137
2.613
1.171
-0.188
-1.453
-2.611
-3.641
-4.513
-5.217
-5.767
-6.162
-6.391
-6.442
-6.305
-6.018
-5.669
-5.344
-5.121
-5.039
-5.119
-5.42
-5.986
-6.82
-7.87
-8.963
-9.898
-10.563
-10.862
-10.674
-9.953
-8.684
-6.972
-5.191
-3.737
-2.927
-3.084
-4.45
-7.103
-10.931
-15.402
-19.551
-22.348
-22.779
-19.734
-12.13
0.969
20.24
45.073
73.648
104.308
135.269
165.987
197.341
228.094
255.56
275.13
280.075
266.74
234.801
187.375
130.939
71.896
15.912
-33.291
-73.491
-104.071
-126.578
-142.379
-153.112
-159.545
-160.633
-156.163
-146.731
-133.931
-120.41
-107.881
-97.227
-88.853
-82.718
-79.012
-77.718
-78.206
-79.689
-81.467
-82.935
-83.85
-84.089
-83.324
-81.438
-78.621
-75.181
-71.553
-68.165
-65.175
-62.635
-60.671
-59.309
-58.503
-58.16
-58.044
-57.9
-57.608
-57.117
-56.407
-55.496
-54.38
-53.053
-51.564
-49.98
-48.35
-46.711
-45.08
-43.463
-41.891
-40.407
-39.059
-37.89
-36.92
-36.162
-35.625
-35.316
-35.242
-35.403
-35.788
-36.387
-37.191
-38.196
-39.397
-40.789
-42.359
-44.09
-45.967
-47.974
-50.097
-52.324
-54.641
-57.034
-59.49
-61.998
-64.547
-67.124
-69.713
-72.301
-74.871
-77.408
-79.897
-82.322
-84.67
-86.926
-89.078
-91.114
-93.023
-94.795
-96.418
-97.884
-99.184
-100.311
-101.259
-102.02
-102.592
-102.97
-103.153
-103.14
-102.93
-102.525
-101.927
-101.14
-100.168
-99.016
-97.691
-96.201
-94.553
-92.759
-90.827
-88.769
-86.596
-84.322
-81.958
-79.519
-77.017
-74.466
-71.88
-69.272
-66.656
-64.046
-61.453
-58.892
-56.374
-53.911
-51.515
-49.196
-46.964
-44.828
-42.797
-40.877
-39.075
-37.396
-35.845
-34.423
-33.134
-31.978
-30.954
-30.061
-29.296
-28.656
-28.134
-27.725
-27.423
-27.219
-27.104
-27.069
-27.104
-27.197
-27.338
-27.514
-27.713
-27.924
-28.132
-28.326
-28.493
-28.62
-28.696
-28.708
-28.644
-28.495
-28.249
-27.897
-27.43
-26.84
-26.121
-25.264
-24.267
-23.123
-21.831
-20.389
-18.795
-17.05
-15.156
-13.114
-10.928
-8.604
-6.145
-3.558
-0.852
1.968
4.89
7.907
11.007
14.181
17.417
20.704
24.03
27.383
30.752
34.125
37.49
40.835
44.148
47.42
50.639
53.795
56.877
59.878
62.789
65.601
68.308
70.904
73.383
75.741
77.973
80.076
82.048
83.887
85.592
87.164
88.602
89.909
91.087
92.139
93.068
93.879
94.577
95.166
95.653
96.043
96.342
96.558
96.697
96.765
96.771
96.722
96.624
96.486
96.314
96.116
95.898
95.668
95.432
95.195
94.965
94.747
94.546
94.369
94.22
94.106
94.029
93.996
94.009
94.072
94.188
94.359
94.588
94.876
95.226
95.637
96.112
96.652
97.258
97.93
98.668
99.473
100.344
101.281
102.281
103.344
104.469
105.653
106.896
108.195
109.548
110.953
112.408
113.911
115.457
117.043
118.665
120.317
121.994
123.692
125.406
127.129
128.857
130.584
132.305
134.014
135.703
137.366
138.994
140.579
142.109
143.576
144.969
146.277
147.491
148.604
149.608
150.495
151.259
151.895
152.394
152.751
152.958
153.007
152.891
152.602
152.137
151.491
150.661
149.644
148.44
147.05
145.473
143.705
141.736
139.56
137.176
134.586
131.795
128.813
125.653
122.332
118.883
115.339
111.732
108.097
104.448
100.795
97.157
93.555
90.016
86.562
83.191
79.895
76.676
73.542
70.489
67.492
64.475
61.353
58.049
54.504
50.677
46.516
41.988
37.102
31.928
26.618
21.355
16.278
11.499
7.171
3.379
0.102
-2.767
-5.532
-8.527
-11.895
-15.744
-20.247
-25.413
-31.003
-36.526
-41.067
-43.588
-43.415
-39.973
-32.488
-20.328
-3.148
19.126
45.296
73.166
101.214
127.899
152.89
177.632
201.52
222.845
237.822
239.412
223.57
188.79
137.151
76.737
15.315
-39.715
-82.637
-113.122
-132.799
-145.064
-153.539
-159.238
-161.671
-159.278
-151.331
-138.814
-123.558
-107.907
-93.387
-80.607
-70.114
-62.217
-56.903
-54.057
-53.296
-53.972
-55.633
-57.85
-59.935
-61.335
-61.764
-61.073
-59.349
-56.863
-53.777
-50.322
-46.915
-43.836
-41.238
-39.204
-37.648
-36.446
-35.535
-34.799
-34.078
-33.288
-32.381
-31.348
-30.25
-29.131
-28.024
-26.978
-26.037
-25.241
-24.626
-24.221
-24.054
-24.146
-24.515
-25.177
-26.138
-27.399
-28.958
-30.809
-32.935
-35.325
-37.965
-40.841
-43.942
-47.253
-50.755
-54.426
-58.241
-62.175
-66.205
-70.307
-74.452
-78.617
-82.778
-86.911
-90.997
-95.013
-98.934
-102.737
-106.397
-109.891
-113.197
-116.294
-119.162
-121.781
-124.135
-126.211
-127.995
-129.477
-130.647
-131.498
-132.023
-132.218
-132.082
-131.614
-130.815
-129.691
-128.245
-126.486
-124.425
-122.071
-119.437
-116.538
-113.39
-110.008
-106.412
-102.619
-98.651
-94.527
-90.269
-85.899
-81.44
-76.912
-72.34
-67.745
-63.15
-58.576
-54.044
-49.575
-45.188
-40.901
-36.732
-32.697
-28.812
-25.091
-21.547
-18.191
-15.033
-12.081
-9.344
-6.826
-4.531
-2.463
-0.623
0.989
2.374
3.535
4.476
5.201
5.717
6.031
6.15
6.084
5.842
5.435
4.874
4.17
3.336
2.382
1.323
0.17
-1.065
-2.367
-3.727
-5.131
-6.567
-8.025
-9.494
-10.964
-12.424
-13.868
-15.286
-16.67
-18.016
-19.316
-20.565
-21.76
-22.898
-23.975
-24.989
-25.94
-26.826
-27.65
-28.41
-29.11
-29.751
-30.336
-30.868
-31.352
-31.791
-32.189
-32.552
-32.885
-33.191
-33.477
-33.748
-34.008
-34.263
-34.517
-34.774
-35.04
-35.318
-35.611
-35.922
-36.254
-36.61
-36.991
-37.398
-37.832
-38.294
-38.783
-39.299
-39.842
-40.409
-40.999
-41.609
-42.238
-42.881
-43.536
-44.2
-44.867
-45.535
-46.198
-46.852
-47.492
-48.115
-48.714
-49.286
-49.826
-50.329
-50.792
-51.21
-51.578
-51.894
-52.154
-52.354
-52.492
-52.565
-52.571
-52.508
-52.374
-52.168
-51.888
-51.534
-51.105
-50.601
-50.02
-49.364
-48.632
-47.825
-46.943
-45.987
-44.96
-43.861
-42.693
-41.457
-40.155
-38.789
-37.359
-35.868
-34.316
-32.707
-31.04
-29.32
-27.546
-25.721
-23.847
-21.926
-19.96
-17.95
-15.9
-13.811
-11.685
-9.524
-7.332
-5.11
-2.862
-0.592
1.697
4
6.314
8.633
10.953
13.269
15.576
17.869
20.142
22.389
24.604
26.78
28.908
30.978
32.982
34.911
36.756
38.507
40.155
41.692
43.112
44.41
45.579
46.612
47.503
48.245
48.833
49.26
49.523
49.615
49.534
49.277
48.847
48.246
47.473
46.527
45.408
44.108
42.627
40.969
39.137
37.138
34.983
32.687
30.276
27.781
25.228
22.645
20.057
17.485
14.959
12.504
10.142
7.904
5.81
3.871
2.099
0.49
-0.969
-2.283
-3.482
-4.622
-5.751
-6.933
-8.228
-9.673
-11.329
-13.266
-15.512
-18.058
-20.832
-23.679
-26.445
-29.015
-31.229
-32.9
-33.903
-34.231
-34.052
-33.716
-33.575
-33.802
-34.522
-35.947
-38.123
-40.799
-43.403
-44.935
-44.32
-40.839
-33.852
-22.538
-6.314
15.03
41.244
71.282
103.77
137.506
171.016
202.331
229.466
250.463
263.539
267.73
262.565
247.611
223.631
192.265
154.814
113.509
69.901
25.089
-17.34
-54.372
-83.034
-100.719
-109.164
-110.445
-106.563
-100.264
-91.685
-81.187
-70.021
-58.515
-47.655
-38.337
-30.712
-25.041
-21.374
-19.359
-18.573
-18.704
-19.535
-20.794
-22.136
-23.215
-23.663
-23.335
-22.331
-20.737
-18.629
-16.18
-13.608
-11.09
-8.816
-6.856
-5.132
-3.575
-2.101
-0.589
1.072
2.956
5.114
7.553
10.227
13.093
16.096
19.174
22.271
25.333
28.315
31.173
33.866
36.354
38.603
40.581
42.265
43.635
44.673
45.368
45.714
45.704
45.336
44.607
43.51
42.045
40.214
38.023
35.48
32.597
29.384
25.854
22.023
17.908
13.527
8.897
4.038
-1.029
-6.28
-11.686
-17.221
-22.854
-28.555
-34.293
-40.036
-45.751
-51.408
-56.975
-62.423
-67.721
-72.84
-77.751
-82.428
-86.843
-90.973
-94.796
-98.29
-101.436
-104.219
-106.625
-108.644
-110.267
-111.488
-112.303
-112.713
-112.718
-112.324
-111.537
-110.366
-108.824
-106.924
-104.682
-102.117
-99.246
-96.093
-92.679
-89.028
-85.165
-81.115
-76.904
-72.558
-68.104
-63.568
-58.975
-54.352
-49.723
-45.112
-40.542
-36.034
-31.608
-27.283
-23.075
-18.999
-15.067
-11.291
-7.677
-4.234
-0.966
2.127
5.041
7.781
10.348
12.748
14.987
17.074
19.018
20.829
22.52
24.102
25.59
26.996
28.335
29.622
30.869
32.093
33.307
34.523
35.755
37.015
38.313
39.659
41.062
42.528
44.063
45.67
47.353
49.111
50.943
52.847
54.817
56.848
58.931
61.057
63.217
65.397
67.585
69.767
71.929
74.055
76.129
78.134
80.056
81.876
83.579
85.148
86.568
87.824
88.901
89.786
90.466
90.93
91.167
91.17
90.93
90.442
89.701
88.706
87.456
85.952
84.196
82.193
79.95
77.475
74.777
71.867
68.758
65.463
61.997
58.377
54.619
50.741
46.761
42.698
38.571
34.399
30.202
25.998
21.807
17.647
13.537
9.493
5.532
1.671
-2.076
-5.695
-9.173
-12.497
-15.658
-18.646
-21.454
-24.074
-26.501
-28.731
-30.762
-32.592
-34.221
-35.648
-36.877
-37.911
-38.753
-39.408
-39.882
-40.183
-40.316
-40.29
-40.113
-39.794
-39.341
-38.762
-38.066
-37.263
-36.36
-35.366
-34.289
-33.138
-31.921
-30.646
-29.319
-27.949
-26.54
-25.1
-23.634
-22.147
-20.644
-19.13
-17.608
-16.083
-14.56
-13.041
-11.531
-10.032
-8.548
-7.082
-5.635
-4.211
-2.813
-1.442
-0.102
1.205
2.473
3.698
4.874
5.996
7.058
8.054
8.979
9.828
10.595
11.279
11.877
12.384
12.798
13.115
13.332
13.446
13.453
13.35
13.137
12.813
12.377
11.833
11.183
10.43
9.574
8.614
7.545
6.364
5.074
3.679
2.185
0.604
-1.052
-2.759
-4.49
-6.215
-7.907
-9.54
-11.092
-12.542
-13.872
-15.057
-16.067
-16.88
-17.483
-17.874
-18.055
-18.022
-17.778
-17.351
-16.797
-16.188
-15.595
-15.068
-14.664
-14.451
-14.469
-14.731
-15.202
-15.746
-16.216
-16.476
-16.361
-15.711
-14.434
-12.502
-10.061
-7.458
-5.086
-3.305
-2.429
-2.724
-4.322
-7.12
-10.58
-13.736
-15.402
-14.38
-9.613
-0.057
15.193
36.673
64.302
97.222
133.963
172.757
211.754
248.772
281.386
307.175
324.018
330.962
328.189
316.156
295.169
264.736
224.21
174.903
120.735
68.149
23.902
-8.079
-27.761
-38.779
-45.321
-49.909
-52.883
-52.562
-48.008
-39.642
-28.847
-17.778
-7.678
1.151
8.648
15.033
20.401
24.578
27.762
30.39
32.731
35.111
37.696
40.425
43.404
46.843
50.714
54.862
59.068
62.974
66.404
69.374
71.819
73.672
74.937
75.659
76.001
76.208
76.406
76.629
76.887
77.161
77.452
77.763
78.047
78.234
78.268
78.112
77.75
77.175
76.361
75.267
73.849
72.071
69.92
67.391
64.484
61.206
57.563
53.572
49.263
44.663
39.796
34.688
29.36
23.836
18.147
12.328
6.41
0.43
-5.583
-11.596
-17.578
-23.5
-29.334
-35.052
-40.632
-46.049
-51.276
-56.29
-61.067
-65.586
-69.826
-73.77
-77.4
-80.704
-83.669
-86.288
-88.554
-90.464
-92.015
-93.208
-94.046
-94.534
-94.68
-94.493
-93.984
-93.167
-92.058
-90.673
-89.032
-87.153
-85.059
-82.771
-80.313
-77.708
-74.981
-72.157
-69.26
-66.315
-63.348
-60.382
-57.442
-54.551
-51.731
-49.005
-46.393
-43.913
-41.585
-39.424
-37.444
-35.66
-34.082
-32.72
-31.582
-30.674
-30.001
-29.566
-29.37
-29.412
-29.69
-30.2
-30.938
-31.896
-33.067
-34.442
-36.01
-37.762
-39.683
-41.762
-43.986
-46.34
-48.81
-51.381
-54.038
-56.767
-59.552
-62.378
-65.231
-68.097
-70.963
-73.814
-76.64
-79.427
-82.167
-84.848
-87.463
-90.003
-92.461
-94.832
-97.111
-99.294
-101.379
-103.365
-105.251
-107.037
-108.726
-110.32
-111.823
-113.239
-114.572
-115.828
-117.014
-118.137
-119.203
-120.222
-121.2
-122.147
-123.07
-123.979
-124.882
-125.788
-126.704
-127.638
-128.598
-129.591
-130.624
-131.701
-132.829
-134.012
-135.253
-136.555
-137.92
-139.349
-140.841
-142.395
-144.008
-145.679
-147.402
-149.172
-150.983
-152.828
-154.699
-156.587
-158.482
-160.374
-162.252
-164.104
-165.917
-167.678
-169.374
-170.991
-172.514
-173.929
-175.221
-176.377
-177.381
-178.22
-178.878
-179.342
-179.6
-179.637
-179.442
-179.003
-178.31
-177.353
-176.123
-174.613
-172.815
-170.724
-168.336
-165.647
-162.655
-159.359
-155.759
-151.855
-147.651
-143.151
-138.358
-133.278
-127.92
-122.29
-116.398
-110.254
-103.871
-97.259
-90.434
-83.408
-76.196
-68.816
-61.282
-53.613
-45.825
-37.937
-29.967
-21.933
-13.854
-5.748
2.366
10.471
18.547
26.576
34.539
42.419
50.197
57.855
65.375
72.739
79.93
86.93
93.724
100.292
106.618
112.686
118.481
123.988
129.192
134.081
138.643
142.867
146.743
150.263
153.419
156.2
158.599
160.612
162.23
163.447
164.257
164.656
164.64
164.212
163.371
162.118
160.452
158.371
155.878
152.986
149.705
146.05
142.036
137.683
133.02
128.084
122.909
117.518
111.934
106.171
100.255
94.217
88.089
81.897
75.657
69.375
63.057
56.715
50.349
43.943
37.461
30.855
24.104
17.217
10.211
3.107
-4.103
-11.439
-18.905
-26.486
-34.142
-41.841
-49.583
-57.341
-65.028
-72.467
-79.39
-85.531
-90.734
-94.862
-97.755
-99.349
-99.649
-98.817
-97.319
-95.654
-94.176
-93.213
-93.045
-93.716
-95.072
-96.709
-97.723
-97.043
-93.733
-86.881
-75.565
-59.168
-37.644
-11.309
18.408
49.091
79.106
106.982
131.591
153.078
169.451
177.119
173.188
154.489
121.861
80.257
34.497
-10.049
-50.286
-86.038
-116.466
-140.84
-158.467
-168.168
-169.894
-164.517
-153.259
-137.876
-120.239
-102.049
-84.664
-69.073
-56.054
-46.123
-39.422
-35.723
-34.428
-34.651
-35.634
-36.744
-37.27
-36.661
-34.624
-31.033
-26.024
-19.954
-13.115
-5.805
1.558
8.711
15.537
21.976
28.11
34.069
39.918
45.769
51.78
58.032
64.554
71.346
78.346
85.503
92.793
100.168
107.571
114.951
122.252
129.424
136.426
143.218
149.761
156.019
161.958
167.55
172.775
177.615
182.057
186.084
189.678
192.821
195.5
197.701
199.419
200.647
201.386
201.635
201.398
200.679
199.483
197.817
195.689
193.105
190.073
186.607
182.719
178.428
173.752
168.713
163.334
157.637
151.65
145.399
138.912
132.215
125.336
118.306
111.151
103.903
96.591
89.244
81.892
74.564
67.29
60.096
53.01
46.059
39.268
32.659
26.253
20.069
14.127
8.443
3.031
-2.096
-6.925
-11.447
-15.651
-19.532
-23.082
-26.3
-29.184
-31.737
-33.961
-35.861
-37.446
-38.726
-39.711
