Name,Criss Capps
Date of Birth,"Feb 5, 1952"
Recorded Date,2023-12-20 08:33:44 -0400
Classification,Sinus Rhythm
Symptoms,
Software Version,1.90
Device,"Watch5,4"
Sample Rate,512.844 hertz


Lead,Lead I
Unit,µV

-55.001
-67.651
-82.978
-99.528
-115.978
-131.341
-144.634
-154.542
-160.044
-160.627
-156.118
-145.522
-126.665
-97.737
-58.448
-11.561
38.859
90.145
141.582
196.883
260.212
332.917
415.194
500.468
577.246
633.851
655.858
633.095
564.942
455.4
314.006
155.309
-8.479
-164.544
-297.341
-396.744
-458.055
-482.311
-479.811
-461.948
-434.861
-401.717
-361.848
-313.146
-258.063
-201.168
-147.123
-101.132
-65.823
-41.393
-27.104
-21.172
-21.417
-25.894
-32.649
-39.483
-44.55
-46.603
-45.167
-40.592
-33.633
-25.131
-15.975
-7.176
0.284
5.588
8.377
8.797
7.2
4.042
-0.229
-5.186
-10.319
-15.117
-19.265
-22.639
-25.227
-27.097
-28.287
-28.804
-28.701
-28.066
-26.984
-25.538
-23.787
-21.784
-19.6
-17.329
-15.089
-12.985
-11.09
-9.446
-8.075
-6.985
-6.188
-5.682
-5.446
-5.448
-5.649
-6.013
-6.514
-7.118
-7.785
-8.47
-9.117
-9.68
-10.129
-10.442
-10.6
-10.593
-10.406
-10.031
-9.473
-8.734
-7.813
-6.708
-5.414
-3.928
-2.25
-0.385
1.666
3.901
6.318
8.919
11.699
14.658
17.794
21.104
24.588
28.243
32.063
36.039
40.164
44.427
48.818
53.326
57.937
62.638
67.415
72.255
77.143
82.066
87.006
91.949
96.878
101.776
106.628
111.416
116.122
120.729
125.22
129.576
133.781
137.815
141.661
145.3
148.715
151.889
154.804
157.444
159.793
161.837
163.561
164.954
166.004
166.701
167.035
166.999
166.588
165.796
164.621
163.06
161.114
158.784
156.073
152.986
149.529
145.709
141.536
137.021
132.175
127.012
121.548
115.799
109.782
103.517
97.025
90.327
83.447
76.407
69.232
61.946
54.575
47.144
39.678
32.203
24.743
17.322
9.966
2.697
-4.462
-11.489
-18.365
-25.07
-31.587
-37.898
-43.988
-49.844
-55.453
-60.804
-65.886
-70.693
-75.217
-79.452
-83.395
-87.044
-90.398
-93.457
-96.225
-98.704
-100.899
-102.816
-104.463
-105.846
-106.977
-107.863
-108.516
-108.946
-109.166
-109.188
-109.023
-108.684
-108.183
-107.532
-106.744
-105.829
-104.799
-103.664
-102.435
-101.122
-99.734
-98.281
-96.769
-95.208
-93.603
-91.963
-90.293
-88.597
-86.881
-85.148
-83.402
-81.646
-79.881
-78.11
-76.333
-74.552
-72.766
-70.976
-69.181
-67.381
-65.573
-63.758
-61.934
-60.099
-58.252
-56.392
-54.518
-52.628
-50.723
-48.802
-46.865
-44.913
-42.945
-40.962
-38.964
-36.954
-34.932
-32.899
-30.858
-28.812
-26.761
-24.711
-22.663
-20.621
-18.587
-16.567
-14.562
-12.577
-10.615
-8.681
-6.778
-4.911
-3.084
-1.302
0.43
2.107
3.725
5.279
6.766
8.18
9.519
10.78
11.96
13.057
14.068
14.99
15.823
16.564
17.212
17.765
18.223
18.586
18.856
19.032
19.115
19.107
19.01
18.826
18.556
18.202
17.768
17.255
16.668
16.013
15.293
14.516
13.688
12.818
11.914
10.986
10.042
9.088
8.134
7.186
6.252
5.338
4.447
3.588
2.769
1.999
1.289
0.649
0.09
-0.377
-0.741
-0.994
-1.128
-1.137
-1.02
-0.771
-0.386
0.146
0.837
1.693
2.715
3.901
5.246
6.734
8.348
10.052
11.81
13.598
15.397
17.2
19.015
20.844
22.688
24.558
26.445
28.344
30.257
32.171
34.08
35.999
37.948
39.976
42.141
44.469
46.966
49.623
52.391
55.219
58.043
60.767
63.32
65.64
67.667
69.365
70.699
71.604
72.014
71.844
70.983
69.366
66.951
63.705
59.646
54.819
49.293
43.19
36.621
29.676
22.448
15.021
7.47
-0.104
-7.601
-14.922
-21.943
-28.554
-34.665
-40.174
-45.024
-49.199
-52.703
-55.591
-57.944
-59.826
-61.326
-62.552
-63.594
-64.558
-65.567
-66.721
-68.151
-69.996
-72.358
-75.371
-79.189
-83.83
-89.24
-95.247
-101.477
-107.564
-113.182
-117.88
-121.2
-122.902
-122.86
-121.275
-118.796
-116.013
-113.444
-111.64
-110.911
-111.35
-112.97
-115.211
-116.74
-115.35
-107.996
-91.977
-66.002
-31.763
7.467
49.367
93.919
146.161
211.547
292.261
386.127
482.581
569.823
637.077
673.999
677.237
643.594
570.896
462.665
321.626
156.65
-17.453
-185.558
-329.988
-438.688
-507.184
-538.156
-539.881
-518.914
-482.473
-435.469
-382.564
-333.668
-295.297
-270.474
-259.119
-253.521
-245.65
-232.311
-212.217
-188.47
-167.696
-152.518
-143.914
-142.107
-143.651
-146.837
-151.441
-156.138
-160.907
-165.656
-169.709
-173.04
-175.442
-176.376
-175.463
-172.775
-168.981
-164.904
-161.036
-157.594
-154.627
-152.331
-151.098
-150.973
-151.504
-152.045
-152.119
-151.536
-150.3
-148.394
-145.669
-142.085
-137.841
-133.31
-128.814
-124.506
-120.416
-116.527
-112.887
-109.586
-106.66
-104.078
-101.794
-99.778
-98.033
-96.591
-95.456
-94.589
-93.94
-93.444
-93.054
-92.748
-92.501
-92.292
-92.098
-91.893
-91.658
-91.385
-91.061
-90.67
-90.19
-89.597
-88.869
-87.996
-86.97
-85.786
-84.436
-82.911
-81.2
-79.293
-77.179
-74.845
-72.279
-69.465
-66.392
-63.048
-59.428
-55.531
-51.354
-46.895
-42.154
-37.124
-31.811
-26.224
-20.377
-14.288
-7.981
-1.483
5.17
11.933
18.765
25.628
32.485
39.308
46.068
52.736
59.283
65.674
71.889
77.921
83.773
89.455
94.984
100.378
105.666
110.891
116.082
121.246
126.385
131.486
136.524
141.472
146.301
150.983
155.482
159.743
163.689
167.221
170.235
172.631
174.301
175.125
175.007
173.882
171.705
168.456
164.131
158.733
152.264
144.717
136.083
126.362
115.585
103.852
91.297
78.039
64.193
49.874
35.152
20.123
4.926
-10.407
-25.913
-41.56
-57.256
-72.718
-87.434
-101.064
-113.555
-124.824
-134.672
-143.087
-150.213
-156.434
-162.737
-169.18
-174.408
-178.239
-181.179
-184.64
-191.92
-201.93
-209.48
-209.604
-196.354
-169.923
-136.908
-102.773
-73.378
-50.985
-33.289
-19.593
-9.403
-2.377
0.481
-0.582
-4.292
-9.746
-15.789
-21.224
-25.464
-28.286
-29.774
-30.464
-31.089
-32.024
-33.424
-35.48
-38.196
-41.491
-45.266
-49.211
-52.916
-56.166
-58.882
-61.035
-62.708
-63.972
-64.842
-65.387
-65.71
-65.879
-65.978
-66.085
-66.231
-66.456
-66.807
-67.312
-68.005
-68.907
-70.013
-71.301
-72.751
-74.333
-76.03
-77.829
-79.71
-81.648
-83.611
-85.565
-87.484
-89.356
-91.166
-92.904
-94.56
-96.13
-97.617
-99.035
-100.395
-101.706
-102.974
-104.203
-105.4
-106.575
-107.738
-108.897
-110.059
-111.228
-112.409
-113.605
-114.819
-116.053
-117.306
-118.575
-119.858
-121.155
-122.465
-123.789
-125.126
-126.475
-127.836
-129.208
-130.59
-131.98
-133.377
-134.776
-136.177
-137.575
-138.969
-140.356
-141.733
-143.098
-144.448
-145.78
-147.091
-148.378
-149.639
-150.871
-152.071
-153.238
-154.369
-155.463
-156.518
-157.531
-158.502
-159.428
-160.307
-161.137
-161.914
-162.637
-163.301
-163.903
-164.44
-164.907
-165.3
-165.614
-165.844
-165.985
-166.032
-165.978
-165.82
-165.55
-165.162
-164.65
-164.009
-163.233
-162.315
-161.252
-160.037
-158.665
-157.132
-155.434
-153.567
-151.528
-149.314
-146.924
-144.356
-141.612
-138.693
-135.601
-132.339
-128.913
-125.329
-121.594
-117.719
-113.713
-109.587
-105.356
-101.035
-96.64
-92.187
-87.696
-83.186
-78.679
-74.199
-69.768
-65.412
-61.154
-57.019
-53.032
-49.216
-45.594
-42.185
-39.01
-36.089
-33.443
-31.09
-29.047
-27.329
-25.947
-24.913
-24.236
-23.921
-23.963
-24.362
-25.111
-26.21
-27.666
-29.477
-31.635
-34.129
-36.944
-40.061
-43.46
-47.107
-50.957
-54.964
-59.083
-63.275
-67.518
-71.769
-75.983
-80.106
-84.068
-87.815
-91.313
-94.518
-97.399
-99.946
-102.16
-104.072
-105.746
-107.226
-108.566
-109.825
-111.056
-112.347
-113.787
-115.476
-117.574
-120.176
-123.304
-126.908
-130.759
-134.532
-137.923
-140.531
-141.871
-141.65
-139.7
-136.155
-131.725
-127.209
-123.412
-121.206
-121.244
-123.941
-129.47
-137.237
-145.641
-152.685
-156.006
-153.17
-142.06
-120.463
-86.507
-39.208
20.565
89.916
165.096
241.965
318.396
394.194
467.838
536.258
591.358
621.208
616.597
570.951
485.609
368.442
226.673
71.319
-86.556
-236.01
-361.35
-452.254
-506.445
-526.263
-521.578
-501.747
-468.752
-425.632
-375.754
-322.011
-273.03
-233.418
-201.87
-178.169
-159.176
-143.402
-133.674
-130.447
-133.248
-140.842
-149.616
-156.838
-161.055
-161.497
-158.542
-152.925
-145.35
-136.629
-127.655
-119.397
-112.773
-108.254
-105.849
-105.271
-106.012
-107.603
-109.672
-111.801
-113.584
-114.752
-115.135
-114.684
-113.471
-111.56
-108.998
-105.85
-102.181
-98.071
-93.637
-89.003
-84.302
-79.656
-75.141
-70.819
-66.746
-62.968
-59.54
-56.49
-53.817
-51.514
-49.578
-48.006
-46.801
-45.942
-45.382
-45.063
-44.922
-44.903
-44.972
-45.091
-45.226
-45.347
-45.426
-45.445
-45.396
-45.265
-45.033
-44.676
-44.169
-43.492
-42.633
-41.577
-40.312
-38.823
-37.098
-35.123
-32.887
-30.379
-27.586
-24.495
-21.093
-17.371
-13.324
-8.949
-4.247
0.782
6.132
11.796
17.764
24.024
30.563
37.365
44.414
51.69
59.174
66.84
74.666
82.624
90.686
98.822
107.002
115.193
123.363
131.476
139.5
147.399
155.138
162.683
169.997
177.047
183.798
190.215
196.264
201.914
207.135
211.897
216.172
219.937
223.167
225.844
227.948
229.465
230.381
230.686
230.369
229.428
227.858
225.66
222.839
219.4
215.353
210.711
205.488
199.704
193.377
186.529
179.186
171.372
163.115
154.447
145.398
136.001
126.292
116.306
106.08
95.651
85.056
74.332
63.517
52.645
41.751
30.87
20.033
9.273
-1.38
-11.895
-22.244
-32.399
-42.336
-52.031
-61.459
-70.603
-79.447
-87.98
-96.195
-104.083
-111.639
-118.858
-125.737
-132.276
-138.476
-144.33
-149.835
-154.99
-159.801
-164.283
-168.461
-172.35
-175.957
-179.29
-182.346
-185.127
-187.638
-189.868
-191.8
-193.427
-194.751
-195.792
-196.594
-197.192
-197.597
-197.802
-197.78
-197.512
-197.01
-196.308
-195.434
-194.416
-193.277
-192.038
-190.791
-189.659
-188.647
-187.655
-186.537
-185.122
-183.402
-181.569
-179.7
-177.707
-175.667
-173.763
-172.223
-171.418
-171.31
-171.341
-171.128
-170.525
-169.237
-166.988
-163.462
-158.07
-150.798
-142.306
-133.015
-123.207
-113.243
-103.322
-93.792
-85.297
-77.981
-71.506
-65.74
-60.575
-55.957
-52.049
-48.787
-45.907
-43.385
-41.352
-39.87
-39.01
-38.717
-38.788
-39.127
-39.701
-40.442
-41.283
-42.111
-42.795
-43.244
-43.395
-43.206
-42.657
-41.717
-40.357
-38.586
-36.426
-33.933
-31.192
-28.251
-25.143
-21.895
-18.514
-15.026
-11.463
-7.847
-4.201
-0.543
3.114
6.753
10.35
13.902
17.411
20.892
24.378
27.882
31.408
34.953
38.506
42.057
45.597
49.11
52.575
55.976
59.301
62.538
65.681
68.72
71.64
74.429
77.069
79.546
81.853
83.981
85.925
87.684
89.258
90.65
91.869
92.921
93.814
94.554
95.149
95.607
95.938
96.152
96.26
96.274
96.206
96.069
95.877
95.644
95.383
95.106
94.823
94.546
94.284
94.045
93.838
93.67
93.545
93.469
93.443
93.47
93.55
93.68
93.854
94.065
94.306
94.566
94.836
95.103
95.356
95.581
95.77
95.91
95.99
95.996
95.913
95.725
95.419
94.981
94.399
93.659
92.749
91.664
90.402
88.963
87.344
85.54
83.538
81.329
78.915
76.293
73.47
70.458
67.271
63.936
60.496
56.992
53.461
49.935
46.432
42.978
39.608
36.354
33.267
30.382
27.717
25.304
23.162
21.276
19.62
18.136
16.725
15.324
13.867
12.262
10.442
8.31
5.763
2.751
-0.823
-5.084
-10.068
-15.766
-22.032
-28.483
-34.726
-40.415
-45.088
-48.293
-49.718
-49.179
-46.965
-43.865
-40.723
-38.303
-37.293
-38.286
-41.668
-47.435
-54.704
-61.663
-66.086
-65.713
-58.369
-41.818
-14.104
26.39
79.436
142.122
210.858
281.639
352.278
423.881
495.633
562.975
616.704
641.882
626.759
567.83
469.218
343.025
201.061
51.341
-98.493
-241.05
-365.195
-459.014
-517.665
-541.894
-539.291
-519.957
-487.48
-445.427
-397.572
-346.389
-299.55
-260.961
-228.969
-203.089
-180.099
-158.795
-142.226
-130.998
-124.922
-123.255
-122.947
-121.961
-119.472
-114.674
-107.693
-99.145
-89.481
-79.254
-69.209
-59.96
-52.094
-46.295
-42.794
-41.405
-41.856
-43.735
-46.614
-50.166
-53.968
-57.472
-60.338
-62.394
-63.563
-63.91
-63.469
-62.227
-60.23
-57.571
-54.346
-50.671
-46.639
-42.308
-37.759
-33.094
-28.432
-23.929
-19.697
-15.802
-12.29
-9.174
-6.469
-4.19
-2.325
-0.835
0.322
1.191
1.81
2.204
2.413
2.485
2.477
2.454
2.466
2.547
2.729
3.037
3.494
4.124
4.938
5.94
7.137
8.54
10.161
12.019
14.125
16.487
19.112
22.009
25.183
28.643
32.395
36.442
40.788
45.436
50.389
55.648
61.213
67.078
73.237
79.68
86.396
93.371
100.59
108.035
115.687
123.525
131.527
139.67
147.929
156.278
164.689
173.135
181.586
190.01
198.377
206.655
214.811
222.812
230.627
238.222
245.565
252.625
259.369
265.77
271.796
277.42
282.617
287.36
291.626
295.395
298.647
301.365
303.533
305.141
306.177
306.636
306.512
305.804
304.513
302.641
300.195
297.184
293.62
289.515
284.887
279.756
274.141
268.067
261.561
254.648
247.358
239.722
231.771
223.538
215.058
206.364
197.491
188.475
179.351
170.155
160.92
151.682
142.473
133.328
124.276
115.348
106.574
97.979
89.59
81.43
73.519
65.879
58.525
51.473
44.736
38.324
32.246
26.508
21.113
16.064
11.361
7.001
2.981
-0.703
-4.06
-7.097
-9.824
-12.25
-14.389
-16.252
-17.854
-19.207
-20.327
-21.228
-21.927
-22.438
-22.776
-22.958
-22.998
-22.91
-22.71
-22.412
-22.028
-21.571
-21.053
-20.485
-19.877
-19.238
-18.577
-17.9
-17.214
-16.525
-15.838
-15.157
-14.486
-13.827
-13.183
-12.556
-11.947
-11.357
-10.786
-10.235
-9.704
-9.192
-8.699
-8.223
-7.765
-7.323
-6.897
-6.484
-6.084
-5.697
-5.32
-4.954
-4.597
-4.248
-3.908
-3.576
-3.253
-2.938
-2.632
-2.337
-2.052
-1.778
-1.518
-1.271
-1.039
-0.823
-0.624
-0.443
-0.282
-0.14
-0.019
0.08
0.157
0.211
0.242
0.249
0.232
0.19
0.124
0.032
-0.085
-0.228
-0.398
-0.594
-0.817
-1.067
-1.344
-1.649
-1.981
-2.341
-2.728
-3.143
-3.584
-4.054
-4.551
-5.076
-5.63
-6.212
-6.823
-7.464
-8.135
-8.836
-9.569
-10.333
-11.129
-11.958
-12.819
-13.713
-14.64
-15.599
-16.589
-17.609
-18.656
-19.73
-20.828
-21.945
-23.081
-24.23
-25.389
-26.554
-27.721
-28.884
-30.039
-31.179
-32.3
-33.396
-34.458
-35.483
-36.462
-37.389
-38.257
-39.06
-39.792
-40.444
-41.012
-41.488
-41.868
-42.144
-42.313
-42.369
-42.309
-42.131
-41.832
-41.411
-40.868
-40.204
-39.422
-38.525
-37.518
-36.405
-35.193
-33.89
-32.504
-31.046
-29.526
-27.956
-26.349
-24.722
-23.089
-21.467
-19.872
-18.323
-16.837
-15.433
-14.126
-12.934
-11.872
-10.955
-10.199
-9.619
-9.233
-9.053
-9.092
-9.359
-9.865
-10.616
-11.615
-12.861
-14.35
-16.078
-18.044
-20.252
-22.704
-25.392
-28.307
-31.437
-34.761
-38.259
-41.902
-45.647
-49.452
-53.28
-57.095
-60.873
-64.588
-68.201
-71.669
-74.938
-77.956
-80.69
-83.108
-85.181
-86.908
-88.3
-89.389
-90.246
-90.93
-91.492
-92
-92.503
-93.067
-93.789
-94.744
-96.033
-97.798
-100.08
-102.864
-106.056
-109.369
-112.481
-115.081
-116.751
-117.07
-115.827
-112.911
-108.546
-103.424
-98.225
-93.663
-90.449
-88.979
-89.577
-92.466
-97.132
-102.295
-105.564
-103.42
-93.318
-73.995
-46.526
-13.866
23.757
68.172
123.39
194
278.147
369.48
460.069
541.024
607.779
656.956
680.879
669.975
613.409
504.938
350.276
165.681
-24.345
-194.41
-326.659
-413.834
-460.48
-477.131
-473.407
-455.399
-424.469
-382.59
-336.186
-292.663
-258.708
-235.718
-218.179
-201.25
-182.768
-163.711
-148.883
-141.098
-139.896
-143.532
-148.771
-152.766
-154.12
-152.283
-147.354
-139.852
-130.453
-119.779
-108.544
-97.788
-88.534
-81.402
-76.655
-74.171
-73.558
-74.462
-76.505
-79.216
-82.107
-84.793
-87.044
-88.751
-89.887
-90.44
-90.392
-89.747
-88.54
-86.808
-84.581
-81.911
-78.856
-75.485
-71.899
-68.192
-64.454
-60.794
-57.294
-54.017
-51.025
-48.346
-45.994
-43.988
-42.328
-41
-39.99
-39.267
-38.793
-38.536
-38.457
-38.509
-38.646
-38.81
-38.953
-39.042
-39.042
-38.929
-38.68
-38.272
-37.687
-36.915
-35.943
-34.759
-33.35
-31.701
-29.798
-27.634
-25.2
-22.492
-19.502
-16.226
-12.655
-8.788
-4.62
-0.149
4.625
9.705
15.087
20.768
26.74
32.992
39.514
46.293
53.314
60.56
68.013
75.653
83.461
91.415
99.493
107.67
115.922
124.223
132.546
140.863
149.146
157.366
165.492
173.496
181.348
189.018
196.477
203.695
210.644
217.296
223.624
229.603
235.207
240.414
245.2
249.547
253.436
256.85
259.774
262.195
264.103
265.489
266.347
266.672
266.462
265.718
264.441
262.636
260.31
257.472
254.134
250.308
246.012
241.263
236.081
230.488
224.506
218.163
211.482
204.493
197.224
189.703
181.962
174.029
165.937
157.716
149.396
141.009
132.584
124.151
115.739
107.376
99.088
90.9
82.839
74.926
67.182
59.63
52.285
45.166
38.288
31.662
25.302
19.216
13.411
7.894
2.667
-2.267
-6.907
-11.256
-15.316
-19.091
-22.587
-25.81
-28.769
-31.473
-33.931
-36.153
-38.153
-39.94
-41.527
-42.928
-44.154
-45.218
-46.133
-46.912
-47.566
-48.109
-48.551
-48.905
-49.181
-49.39
-49.541
-49.644
-49.708
-49.74
-49.748
-49.738
-49.716
-49.687
-49.655
-49.625
-49.599
-49.581
-49.571
-49.573
-49.586
-49.611
-49.648
-49.697
-49.757
-49.826
-49.903
-49.987
-50.076
-50.169
-50.264
-50.358
-50.451
-50.54
-50.624
-50.701
-50.77
-50.829
-50.877
-50.914
-50.939
-50.95
-50.947
-50.931
-50.9
-50.855
-50.796
-50.721
-50.633
-50.531
-50.415
-50.287
-50.147
-49.997
-49.838
-49.672
-49.501
-49.326
-49.151
-48.977
-48.808
-48.645
-48.492
-48.351
-48.225
-48.117
-48.03
-47.967
-47.929
-47.92
-47.942
-47.997
-48.087
-48.214
-48.38
-48.587
-48.836
-49.131
-49.472
-49.862
-50.301
-50.791
-51.334
-51.929
-52.578
-53.279
-54.034
-54.84
-55.698
-56.604
-57.556
-58.552
-59.588
-60.66
-61.762
-62.89
-64.038
-65.2
-66.369
-67.539
-68.703
-69.854
-70.986
-72.09
-73.16
-74.187
-75.164
-76.084
-76.936
-77.714
-78.408
-79.012
-79.516
-79.913
-80.195
-80.356
-80.388
-80.286
-80.044
-79.656
-79.119
-78.428
-77.581
-76.579
-75.42
-74.106
-72.638
-71.022
-69.261
-67.362
-65.331
-63.177
-60.908
-58.533
-56.065
-53.513
-50.891
-48.211
-45.489
-42.743
-39.989
-37.247
-34.534
-31.871
-29.276
-26.77
-24.37
-22.093
-19.953
-17.966
-16.148
-14.516
-13.086
-11.869
-10.878
-10.122
-9.609
-9.348
-9.339
-9.577
-10.057
-10.775
-11.731
-12.933
-14.383
-16.073
-17.998
-20.145
-22.498
-25.04
-27.739
-30.547
-33.42
-36.313
-39.189
-42.024
-44.782
-47.417
-49.883
-52.111
-54.057
-55.693
-56.985
-57.911
-58.476
-58.693
-58.608
-58.308
-57.867
-57.366
-56.9
-56.548
-56.418
-56.608
-57.239
-58.481
-60.407
-63.015
-66.214
-69.733
-73.261
-76.505
-79.033
-80.34
-80.14
-78.245
-74.815
-70.57
-66.163
-62.257
-59.708
-59.074
-60.581
-64.459
-70.202
-76.118
-80.606
-81.076
-73.551
-56.105
-27.796
11.459
57.801
109.649
169.181
237.299
317.583
410.417
507.654
601.372
680.831
733.91
755.231
738.662
679.787
580.757
443.624
276.721
95.314
-84.533
-243.823
-367.611
-449.054
-488.892
-493.571
-470.063
-426.687
-369.28
-305.296
-246.923
-200.686
-170.373
-154.473
-143.051
-130.91
-116.838
-101.973
-92.163
-89.758
-93.338
-100.69
-108.096
-113.152
-115.183
-114.091
-110.443
-104.879
-97.958
-90.366
-82.724
-75.687
-69.928
-65.691
-62.914
-61.388
-60.724
-60.564
-60.655
-60.702
-60.37
-59.48
-57.94
-55.709
-52.861
-49.455
-45.534
-41.194
-36.556
-31.747
-26.888
-22.082
-17.402
-12.92
-8.69
-4.748
-1.124
2.171
5.12
7.7
9.899
11.715
13.153
14.233
14.984
15.448
15.672
15.704
15.587
15.357
15.044
14.671
14.26
13.826
13.387
12.966
12.584
12.265
12.034
11.914
11.927
12.091
12.42
12.929
13.631
14.541
15.674
17.042
18.659
20.543
22.709
25.174
27.951
31.049
34.472
38.226
42.311
46.729
51.476
56.544
61.927
67.619
73.616
79.923
86.529
93.418
100.563
107.932
115.493
123.216
131.064
138.992
146.964
154.95
162.936
170.925
178.907
186.857
194.742
202.512
210.133
217.59
224.871
231.966
238.872
245.574
252.082
258.429
264.614
270.613
276.369
281.78
286.774
291.306
295.34
298.862
301.843
304.234
306
307.112
307.534
307.237
306.161
304.216
301.362
297.604
292.989
287.624
281.588
274.93
267.706
259.958
251.739
243.117
234.14
224.839
215.267
205.48
195.565
185.639
175.782
166.035
156.411
146.883
137.443
128.106
118.877
109.762
100.773
91.915
83.213
74.712
66.437
58.402
50.607
43.03
35.667
28.532
21.644
15.036
8.732
2.744
-2.91
-8.214
-13.158
-17.739
-21.965
-25.857
-29.433
-32.704
-35.679
-38.366
-40.776
-42.925
-44.832
-46.515
-47.994
-49.287
-50.415
-51.403
-52.27
-53.036
-53.715
-54.32
-54.865
-55.362
-55.825
-56.266
-56.694
-57.122
-57.557
-58.012
-58.494
-59.009
-59.563
-60.161
-60.804
-61.495
-62.234
-63.021
-63.854
-64.731
-65.649
-66.604
-67.592
-68.607
-69.645
-70.699
-71.764
-72.833
-73.9
-74.958
-76
-77.019
-78.01
-78.966
-79.882
-80.752
-81.571
-82.336
-83.044
-83.689
-84.271
-84.785
-85.23
-85.604
-85.906
-86.135
-86.293
-86.379
-86.395
-86.343
-86.225
-86.045
-85.806
-85.511
-85.165
-84.773
-84.338
-83.867
-83.364
-82.835
-82.286
-81.724
-81.154
-80.584
-80.018
-79.465
-78.928
-78.416
-77.932
-77.483
-77.073
-76.707
-76.389
-76.124
-75.916
-75.767
-75.682
-75.663
-75.711
-75.829
-76.018
-76.278
-76.61
-77.013
-77.487
-78.029
-78.639
-79.313
-80.05
-80.845
-81.693
-82.591
-83.532
-84.51
-85.518
-86.549
-87.595
-88.647
-89.698
-90.739
-91.76
-92.752
-93.707
-94.614
-95.465
-96.249
-96.957
-97.579
-98.106
-98.529
-98.84
-99.03
-99.091
-99.016
-98.799
-98.433
-97.914
-97.235
-96.394
-95.386
-94.209
-92.862
-91.346
-89.661
-87.809
-85.795
-83.623
-81.299
-78.831
-76.228
-73.499
-70.654
-67.705
-64.666
-61.551
-58.374
-55.151
-51.9
-48.642
-45.396
-42.182
-39.023
-35.938
-32.949
-30.077
-27.34
-24.755
-22.34
-20.109
-18.081
-16.273
-14.702
-13.381
-12.321
-11.535
-11.029
-10.814
-10.89
-11.254
-11.901
-12.829
-14.038
-15.539
-17.334
-19.416
-21.777
-24.401
-27.268
-30.357
-33.633
-37.044
-40.542
-44.078
-47.613
-51.124
-54.576
-57.926
-61.126
-64.106
-66.819
-69.235
-71.325
-73.079
-74.504
-75.617
-76.473
-77.163
-77.773
-78.397
-79.127
-80.03
-81.199
-82.714
-84.686
-87.276
-90.542
-94.462
-98.923
-103.635
-108.286
-112.605
-116.164
-118.46
-119.215
-118.241
-115.683
-112.224
-108.462
-104.96
-102.471
-101.459
-102.029
-104.352
-108.032
-111.59
-113.605
-111.677
-102.186
-83.61
-55.414
-18.032
25.28
74.097
130.33
194.774
269.406
352.293
437.731
521.388
596.954
657.07
693.578
693.915
647.327
549.983
404.796
226.126
34.717
-149.449
-306.235
-423.562
-497.992
-530.733
-531.176
-509.306
-472.763
-429.388
-382.073
-332.85
-284.812
-238.316
-195.728
-159.657
-130.886
-111.825
-102.701
-101.804
-107.662
-116.9
-126.396
-134.07
-137.836
-136.953
-131.732
-122.723
-110.966
-97.749
-84.231
-71.633
-61.141
-53.344
-48.354
-46.016
-45.911
-47.552
-50.502
-54.283
-58.394
-62.517
-66.455
-70.032
-73.154
-75.749
-77.746
-79.135
-79.946
-80.179
-79.841
-78.968
-77.599
-75.798
-73.648
-71.198
-68.49
-65.583
-62.548
-59.487
-56.519
-53.718
-51.132
-48.798
-46.735
-44.958
-43.471
-42.246
-41.241
-40.418
-39.741
-39.187
-38.737
-38.361
-38.022
-37.677
-37.276
-36.782
-36.168
-35.408
-34.482
-33.373
-32.067
-30.562
-28.86
-26.957
-24.845
-22.514
-19.948
-17.14
-14.083
-10.772
-7.203
-3.375
0.711
5.055
9.657
14.52
19.652
25.055
30.729
36.666
42.85
49.259
55.86
62.619
69.498
76.466
83.497
90.577
97.704
104.875
112.093
119.345
126.607
133.859
141.079
148.255
155.377
162.451
169.492
176.526
183.587
190.69
197.83
204.972
212.057
219.007
225.732
232.157
238.227
243.892
249.107
253.828
258.009
261.591
264.507
266.674
267.997
268.404
267.851
266.336
263.894
260.591
256.523
251.772
246.408
240.494
234.08
227.216
219.951
212.34
204.446
196.349
188.151
179.938
171.784
163.733
155.797
147.969
140.215
132.51
124.837
117.19
109.575
102.006
94.496
87.063
79.728
72.499
65.373
58.345
51.405
44.565
37.858
31.324
25.014
18.962
13.182
7.695
2.538
-2.298
-6.852
-11.163
-15.28
-19.213
-22.909
-26.356
-29.616
-32.632
-35.197
-37.278
-38.952
-40.207
-41.293
-41.791
-40.369
-37.334
-33.933
-32.217
-36.032
-45.143
-55.71
-63.907
-64.294
-56.547
-45.828
-36.128
-31.761
-33.479
-37.439
-41.288
-43.416
-43.344
-42.651
-42.05
-41.496
-41.045
-40.466
-39.702
-38.97
-38.334
-37.761
-37.257
-36.835
-36.485
-36.2
-35.959
-35.725
-35.488
-35.263
-35.055
-34.861
-34.681
-34.513
-34.356
-34.212
-34.082
-33.961
-33.843
-33.727
-33.608
-33.484
-33.353
-33.211
-33.055
-32.884
-32.694
-32.482
-32.247
-31.984
-31.692
-31.369
-31.013
-30.622
-30.195
-29.733
-29.236
-28.703
-28.138
-27.539
-26.91
-26.251
-25.563
-24.85
-24.111
-23.352
-22.573
-21.78
-20.974
-20.162
-19.347
-18.536
-17.733
-16.943
-16.172
-15.425
-14.708
-14.027
-13.387
-12.796
-12.258
-11.78
-11.369
-11.029
-10.765
-10.581
-10.478
-10.458
-10.521
-10.666
-10.889
-11.189
-11.562
-12.005
-12.516
-13.091
-13.725
-14.416
-15.159
-15.95
-16.78
-17.64
-18.518
-19.404
-20.286
-21.15
-21.982
-22.767
-23.492
-24.147
-24.72
-25.2
-25.57
-25.809
-25.901
-25.837
-25.613
-25.226
-24.679
-23.973
-23.124
-22.16
-21.108
-19.993
-18.827
-17.604
-16.323
-14.985
-13.592
-12.152
-10.656
-9.075
-7.39
-5.593
-3.667
-1.601
0.643
3.134
5.922
9.044
12.506
16.276
20.326
24.625
29.12
33.748
38.415
42.993
47.379
51.5
55.273
58.622
61.443
63.597
64.975
65.5
65.121
63.823
61.603
58.462
54.446
49.635
44.144
38.13
31.725
25.035
18.174
11.243
4.365
-2.319
-8.69
-14.652
-20.122
-25.028
-29.311
-32.93
-35.871
-38.162
-39.876
-41.117
-41.99
-42.604
-43.044
-43.387
-43.739
-44.201
-44.875
-45.862
-47.229
-49.07
-51.5
-54.54
-58.16
-62.236
-66.449
-70.466
-73.98
-76.58
-77.901
-77.76
-76.012
-72.795
-68.68
-64.199
-59.94
-56.559
-54.377
-53.632
-54.63
-57.109
-60.12
-61.753
-58.856
-48.754
-30.375
-5.585
22.156
51.243
83.005
123.91
180.705
255.597
345.998
441.955
531.961
604.804
649.787
660.004
628.973
556.188
446.497
306.491
148.895
-15.538
-176.045
-318.212
-432.716
-512.245
-554.879
-567.179
-555.39
-525.638
-482.777
-430.038
-373.782
-320.866
-276.339
-241.707
-213.391
-187.576
-162.562
-139.139
-120.894
-109.788
-105.292
-105.776
-108.077
-109.883
-110.223
-108.304
-104.1
-98.011
-90.323
-81.504
-72.308
-63.401
-55.485
-49.334
-45.214
-43
-42.473
-43.292
-45.091
-47.573
-50.317
-52.774
-54.627
-55.744
-56.085
-55.739
-54.75
-53.111
-50.879
-48.166
-45.074
-41.714
-38.167
-34.455
-30.631
-26.774
-22.984
-19.401
-16.12
-13.189
-10.636
-8.476
-6.72
-5.382
-4.449
-3.874
-3.612
-3.616
-3.85
-4.29
-4.902
-5.636
-6.439
-7.247
-8.011
-8.695
-9.269
-9.705
-9.973
-10.05
-9.918
-9.574
-9.01
-8.213
-7.17
-5.862
-4.279
-2.413
-0.257
2.196
4.952
8.019
11.402
15.102
19.123
23.467
28.133
33.124
38.436
44.062
49.993
56.22
62.727
69.5
76.521
83.77
91.226
98.866
106.667
114.602
122.646
130.77
138.945
147.142
155.331
163.48
171.559
179.537
187.381
195.06
202.544
209.8
216.797
223.504
229.892
235.931
241.592
246.849
251.675
256.048
259.943
263.342
266.226
268.579
270.386
271.638
272.324
272.44
271.982
270.95
269.346
267.176
264.445
261.166
257.35
253.013
248.171
242.844
237.053
230.822
224.176
217.14
209.745
202.019
193.995
185.704
177.181
168.459
159.575
150.563
141.459
132.298
123.116
113.948
104.827
95.787
86.86
78.076
69.466
61.056
52.871
44.936
37.272
29.897
22.83
16.084
9.673
3.607
-2.106
-7.459
-12.447
-17.068
-21.321
-25.207
-28.731
-31.895
-34.707
-37.176
-39.311
-41.123
-42.624
-43.829
-44.752
-45.408
-45.814
-45.986
-45.943
-45.701
-45.279
-44.694
-43.966
-43.109
-42.143
-41.082
-39.942
-38.738
-37.484
-36.192
-34.875
-33.545
-32.211
-30.883
-29.57
-28.282
-27.024
-25.804
-24.627
-23.5
-22.424
-21.406
-20.447
-19.55
-18.716
-17.946
-17.241
-16.601
-16.025
-15.513
-15.061
-14.669
-14.335
-14.055
-13.828
-13.651
-13.521
-13.437
-13.395
-13.395
-13.433
-13.51
-13.624
-13.772
-13.955
-14.172
-14.421
-14.703
-15.016
-15.36
-15.734
-16.138
-16.573
-17.037
-17.53
-18.053
-18.605
-19.186
-19.796
-20.436
-21.106
-21.805
-22.535
-23.296
-24.089
-24.914
-25.773
-26.664
-27.59
-28.551
-29.546
-30.577
-31.642
-32.74
-33.873
-35.038
-36.235
-37.462
-38.719
-40.004
-41.315
-42.651
-44.011
-45.391
-46.79
-48.205
-49.635
-51.075
-52.524
-53.977
-55.431
-56.883
-58.329
-59.764
-61.183
-62.582
-63.954
-65.295
-66.598
-67.857
-69.065
-70.216
-71.302
-72.317
-73.254
-74.109
-74.873
-75.542
-76.109
-76.568
-76.915
-77.144
-77.25
-77.228
-77.075
-76.787
-76.362
-75.797
-75.092
-74.244
-73.255
-72.125
-70.856
-69.451
-67.914
-66.248
-64.46
-62.558
-60.55
-58.446
-56.257
-53.997
-51.679
-49.319
-46.932
-44.535
-42.145
-39.778
-37.453
-35.185
-32.991
-30.887
-28.89
-27.015
-25.281
-23.703
-22.296
-21.077
-20.061
-19.26
-18.689
-18.356
-18.265
-18.42
-18.826
-19.486
-20.41
-21.602
-23.056
-24.767
-26.726
-28.917
-31.321
-33.905
-36.622
-39.424
-42.272
-45.128
-47.968
-50.767
-53.486
-56.088
-58.531
-60.779
-62.822
-64.646
-66.229
-67.568
-68.684
-69.635
-70.526
-71.46
-72.508
-73.721
-75.141
-76.82
-78.837
-81.272
-84.183
-87.581
-91.466
-95.882
-100.864
-106.364
-112.171
-117.832
-122.824
-126.722
-129.142
-129.665
-127.981
-123.913
-117.664
-110.08
-102.108
-94.497
-88.055
-83.524
-81.368
-81.843
-83.641
-83.748
-79.607
-69.385
-53.444
-33.935
-10.516
19.57
61.272
119.798
194.983
282.048
372.675
457.025
528.502
580.78
608.221
606.705
570.401
498.778
395.346
264.541
117.219
-36.628
-186.13
-317.251
-421.621
-492.731
-529.155
-535.21
-514.807
-475.245
-424.841
-372.715
-327.964
-294.283
-270.541
-251.277
-231.609
-210.823
-190.836
-175.714
-167.799
-166.295
-169.29
-173.917
-177.587
-178.903
-177.301
-172.944
-166.432
-158.477
-149.683
-140.619
-132.117
-125.053
-119.928
-116.896
-115.748
-116.011
-117.245
-119.082
-121.123
-122.956
-124.31
-125.008
-124.957
-124.182
-122.72
-120.6
-117.881
-114.634
-110.91
-106.785
-102.361
-97.748
-93.086
-88.499
-84.059
-79.825
-75.843
-72.152
-68.799
-65.807
-63.165
-60.862
-58.886
-57.227
-55.881
-54.819
-53.989
-53.33
-52.775
-52.268
-51.77
-51.245
-50.657
-49.977
-49.178
-48.242
-47.161
-45.922
-44.506
-42.894
-41.064
-38.998
-36.688
-34.124
-31.297
-28.2
-24.823
-21.158
-17.201
-12.946
-8.386
-3.514
1.675
7.185
13.014
19.158
25.612
32.368
39.416
46.742
54.333
62.172
70.241
78.522
86.995
95.638
104.427
113.338
122.346
131.422
140.539
149.666
158.775
167.833
176.811
185.676
194.397
202.942
211.279
219.377
227.206
234.736
241.935
248.776
255.23
261.271
266.875
272.017
276.676
280.833
284.47
287.572
290.127
292.122
293.55
294.404
294.682
294.38
293.501
292.049
290.029
287.452
284.327
280.669
276.495
271.823
266.672
261.067
255.03
248.589
241.77
234.604
227.12
219.351
211.328
203.085
194.656
186.075
177.376
168.592
159.758
150.906
142.068
133.277
124.561
115.952
107.475
99.159
91.027
83.102
75.405
67.957
60.773
53.869
47.258
40.952
34.96
29.288
23.941
18.924
14.237
9.879
5.849
2.143
-1.246
-4.323
-7.099
-9.581
-11.782
-13.712
-15.384
-16.81
-18.006
-18.983
-19.758
-20.344
-20.756
-21.009
-21.118
-21.095
-20.957
-20.715
-20.382
-19.973
-19.497
-18.967
-18.392
-17.784
-17.151
-16.502
-15.845
-15.187
-14.535
-13.895
-13.272
-12.669
-12.092
-11.542
-11.023
-10.537
-10.084
-9.667
-9.287
-8.944
-8.638
-8.371
-8.142
-7.951
-7.798
-7.683
-7.605
-7.565
-7.562
-7.595
-7.666
-7.773
-7.917
-8.098
-8.315
-8.568
-8.858
-9.183
-9.542
-9.936
-10.364
-10.825
-11.319
-11.847
-12.408
-13.001
-13.629
-14.291
-14.987
-15.717
-16.481
-17.278
-18.108
-18.969
-19.86
-20.78
-21.727
-22.7
-23.698
-24.718
-25.758
-26.816
-27.89
-28.976
-30.072
-31.175
-32.282
-33.39
-34.498
-35.602
-36.702
-37.795
-38.88
-39.953
-41.013
-42.056
-43.078
-44.075
-45.042
-45.973
-46.863
-47.707
-48.501
-49.24
-49.921
-50.541
-51.1
-51.595
-52.026
-52.388
-52.677
-52.888
-53.016
-53.055
-52.997
-52.839
-52.574
-52.2
-51.715
-51.12
-50.414
-49.594
-48.653
-47.58
-46.371
-45.025
-43.544
-41.932
-40.203
-38.374
-36.477
-34.547
-32.605
-30.667
-28.739
-26.814
-24.886
-22.949
-20.994
-19.023
-17.038
-15.033
-13.016
-10.988
-8.933
-6.827
-4.623
-2.257
0.296
3.044
5.978
9.056
12.23
15.442
18.602
21.642
24.502
27.121
29.465
31.498
33.158
34.378
35.064
35.11
34.456
33.066
30.914
28.023
24.42
20.163
15.366
10.126
4.522
-1.369
-7.495
-13.796
-20.17
-26.52
-32.74
-38.705
-44.335
-49.551
-54.27
-58.444
-62.025
-65.008
-67.445
-69.372
-70.818
-71.827
-72.434
-72.694
-72.715
-72.585
-72.4
-72.285
-72.337
-72.681
-73.429
-74.69
-76.627
-79.295
-82.641
-86.532
-90.661
-94.683
-98.338
-101.248
-102.92
-103.074
-101.553
-98.503
-94.644
-90.63
-86.988
-84.354
-83.219
-83.893
-86.535
-90.546
-94.34
-96.201
-94.242
-86.469
-71.128
-46.26
-10.047
38.45
98.389
167.11
241.016
315.897
389.182
460.728
530.259
596.105
652.342
687.315
687.268
641.724
548.006
412.106
249.348
77.732
-88.057
-233.738
-352.262
-441.326
-496.664
-520.502
-514.581
-479.101
-422.86
-353.924
-282.441
-222.722
-179.632
-153.769
-142.012
-134.872
-128.268
-121.812
-116.385
-116.141
-121.695
-130.575
-140.074
-146.613
-148.58
-146.415
-140.781
-132.709
-123.28
-113.314
-103.836
-95.957
-90.216
-86.687
-85.201
-85.311
-86.512
-88.377
-90.432
-92.205
-93.444
-94.038
-93.921
-93.114
-91.639
-89.504
-86.769
-83.508
-79.766
-75.599
-71.087
-66.335
-61.49
-56.685
-52.007
-47.515
-43.252
-39.253
-35.566
-32.228
-29.249
-26.629
-24.368
-22.468
-20.931
-19.747
-18.879
-18.268
-17.85
-17.573
-17.398
-17.292
-17.227
-17.177
-17.117
-17.028
-16.902
-16.726
-16.481
-16.145
-15.694
-15.108
-14.37
-13.47
-12.396
-11.135
-9.673
-7.996
-6.092
-3.949
-1.553
1.111
4.058
7.298
10.84
14.689
18.847
23.316
28.094
33.179
38.563
44.24
50.2
56.434
62.929
69.671
76.645
83.832
91.215
98.773
106.484
114.324
122.268
130.29
138.365
146.462
154.554
162.61
170.6
178.494
186.26
193.867
201.284
208.478
215.419
222.076
228.419
234.421
240.053
245.29
250.107
254.481
258.392
261.82
264.749
267.162
269.047
270.393
271.191
271.435
271.121
270.247
268.815
266.827
264.291
261.215
257.609
253.487
248.865
243.762
238.196
232.192
225.773
218.966
211.798
204.3
196.502
188.435
180.134
171.63
162.959
154.153
145.248
136.278
127.276
118.274
109.307
100.404
91.598
82.916
74.387
66.039
57.894
49.978
42.312
34.916
27.807
21.001
14.511
8.351
2.528
-2.95
-8.078
-12.853
-17.274
-21.343
-25.061
-28.435
-31.471
-34.176
-36.562
-38.639
-40.419
-41.916
-43.144
-44.119
-44.856
-45.371
-45.681
-45.803
-45.753
-45.55
-45.209
-44.748
-44.184
-43.533
-42.81
-42.031
-41.212
-40.364
-39.503
-38.639
-37.784
-36.949
-36.143
-35.374
-34.649
-33.974
-33.355
-32.795
-32.298
-31.866
-31.5
-31.201
-30.967
-30.799
-30.694
-30.651
-30.666
-30.737
-30.86
-31.032
-31.248
-31.505
-31.797
-32.119
-32.468
-32.838
-33.225
-33.622
-34.026
-34.431
-34.833
-35.228
-35.612
-35.981
-36.331
-36.661
-36.967
-37.247
-37.501
-37.726
-37.923
-38.091
-38.23
-38.343
-38.429
-38.49
-38.529
-38.548
-38.549
-38.535
-38.508
-38.473
-38.431
-38.386
-38.342
-38.302
-38.27
-38.251
-38.247
-38.263
-38.303
-38.371
-38.471
-38.607
-38.781
-38.997
-39.258
-39.567
-39.926
-40.336
-40.799
-41.317
-41.888
-42.514
-43.193
-43.924
-44.704
-45.532
-46.403
-47.314
-48.261
-49.238
-50.241
-51.265
-52.302
-53.348
-54.395
-55.435
-56.462
-57.468
-58.443
-59.38
-60.269
-61.102
-61.869
-62.563
-63.174
-63.693
-64.113
-64.426
-64.624
-64.7
-64.647
-64.46
-64.134
-63.663
-63.046
-62.28
-61.364
-60.298
-59.084
-57.724
-56.222
-54.583
-52.813
-50.918
-48.908
-46.791
-44.578
-42.281
-39.913
-37.489
-35.024
-32.537
-30.047
-27.573
-25.135
-22.754
-20.45
-18.245
-16.159
-14.21
-12.416
-10.793
-9.361
-8.139
-7.143
-6.389
-5.889
-5.655
-5.697
-6.024
-6.64
-7.542
-8.729
-10.198
-11.949
-13.993
-16.333
-18.964
-21.877
-25.061
-28.496
-32.165
-36.037
-40.065
-44.204
-48.406
-52.629
-56.846
-61.02
-65.101
-69.039
-72.763
-76.215
-79.357
-82.154
-84.582
-86.636
-88.321
-89.671
-90.76
-91.668
-92.48
-93.293
-94.183
-95.251
-96.59
-98.312
-100.581
-103.468
-106.967
-110.993
-115.301
-119.616
-123.695
-127.19
-129.669
-130.896
-130.714
-129.21
-126.965
-124.533
-122.426
-121.228
-121.21
-122.461
-125.109
-128.768
-132.255
-133.513
-129.572
-117.886
-97.283
-68.989
-35.482
2.529
46.077
99.04
165.555
245.139
334.566
427.634
516.109
593.637
651.798
680.572
672.688
622.542
532.265
410.939
267.021
111.403
-45.969
-195.905
-323.71
-417.75
-473.699
-492.907
-485.68
-462.661
-427.686
-383.486
-331.859
-277.154
-228.767
-193.185
-171.63
-160.216
-152.465
-144.447
-136.078
-130.303
-129.296
-132.798
-138.777
-143.964
-146.231
-145.239
-141.384
-135.5
-128.346
-120.414
-112.341
-104.96
-99.04
-94.948
-92.626
-91.773
-91.97
-92.833
-94.065
-95.329
-96.246
-96.586
-96.235
-95.135
-93.343
-90.92
-87.887
-84.3
-80.245
-75.8
-71.084
-66.246
-61.396
-56.638
-52.053
-47.679
-43.561
-39.74
-36.241
-33.085
-30.28
-27.816
-25.696
-23.923
-22.487
-21.371
-20.528
-19.894
-19.413
-19.041
-18.743
-18.491
-18.257
-18.014
-17.743
-17.435
-17.077
-16.656
-16.153
-15.543
-14.805
-13.922
-12.881
-11.671
-10.281
-8.695
-6.901
-4.889
-2.646
-0.163
2.575
5.581
8.866
12.438
16.303
20.463
24.919
29.672
34.718
40.051
45.665
51.55
57.697
64.096
70.733
77.593
84.661
91.918
99.347
106.925
114.631
122.44
130.328
138.268
146.232
154.192
162.12
169.984
177.755
185.401
192.892
200.196
207.283
214.119
220.675
226.92
232.826
238.362
243.504
248.224
252.499
256.308
259.629
262.446
264.74
266.499
267.708
268.36
268.445
267.959
266.899
265.265
263.06
260.29
256.962
253.087
248.678
243.751
238.325
232.42
226.058
219.264
212.067
204.494
196.576
188.346
179.838
171.087
162.127
152.996
143.729
134.364
124.937
115.485
106.043
96.646
87.329
78.124
69.065
60.18
51.501
43.053
34.862
26.952
19.345
12.059
5.111
-1.483
-7.712
-13.565
-19.034
-24.114
-28.802
-33.097
-37.001
-40.517
-43.651
-46.411
-48.807
-50.85
-52.554
-53.933
-55.003
-55.781
-56.284
-56.532
-56.544
-56.339
-55.937
-55.359
-54.626
-53.757
-52.772
-51.691
-50.534
-49.319
-48.064
-46.785
-45.499
-44.221
-42.965
-41.744
-40.57
-39.454
-38.405
-37.431
-36.541
-35.738
-35.029
-34.416
-33.902
-33.486
-33.17
-32.952
-32.83
-32.801
-32.861
-33.008
-33.234
-33.536
-33.906
-34.339
-34.828
-35.364
-35.942
-36.553
-37.19
-37.846
-38.513
-39.183
-39.851
-40.509
-41.15
-41.769
-42.36
-42.917
-43.435
-43.911
-44.34
-44.72
-45.048
-45.322
-45.541
-45.705
-45.812
-45.864
-45.862
-45.807
-45.7
-45.545
-45.344
-45.1
-44.817
-44.499
-44.151
-43.776
-43.379
-42.966
-42.542
-42.111
-41.678
-41.25
-40.831
-40.427
-40.041
-39.68
-39.347
-39.046
-38.783
-38.559
-38.378
-38.244
-38.157
-38.119
-38.132
-38.196
-38.31
-38.474
-38.687
-38.946
-39.249
-39.592
-39.973
-40.386
-40.827
-41.292
-41.773
-42.265
-42.761
-43.254
-43.737
-44.203
-44.642
-45.048
-45.411
-45.723
-45.977
-46.165
-46.278
-46.309
-46.252
-46.099
-45.844
-45.482
-45.006
-44.414
-43.701
-42.863
-41.901
-40.812
-39.596
-38.256
-36.792
-35.21
-33.513
-31.706
-29.797
-27.793
-25.703
-23.537
-21.306
-19.022
-16.698
-14.35
-11.993
-9.646
-7.326
-5.051
-2.839
-0.708
1.321
3.231
5.005
6.629
8.086
9.361
10.439
11.303
11.94
12.34
12.493
12.393
12.031
11.404
10.516
9.368
7.967
6.32
4.422
2.273
-0.12
-2.749
-5.601
-8.653
-11.886
-15.273
-18.771
-22.345
-25.949
-29.547
-33.109
-36.601
-39.993
-43.253
-46.338
-49.208
-51.823
-54.137
-56.127
-57.793
-59.15
-60.258
-61.154
-61.848
-62.462
-63.115
-63.923
-65.055
-66.525
-68.266
-70.421
-73.169
-76.425
-80.114
-83.937
-87.296
-90.018
-92.07
-93.032
-92.505
-90.416
-86.726
-82.007
-77.491
-73.846
-71.449
-70.927
-72.873
-77.458
-84.482
-92.963
-99.979
-102.811
-100.269
-90.268
-72.544
-47.431
-11.293
37.399
99.884
176.919
261.076
344.804
421.048
483.486
534.671
576.838
608.641
626.06
616.282
567.63
475.955
342.456
179.598
4.874
-165.794
-315.544
-433.261
-514.351
-557.488
-567.214
-550.811
-514.563
-465.957
-412.678
-359.648
-311.805
-270.963
-234.683
-202.345
-173.17
-147.907
-130.104
-120.86
-119.801
-125.351
-133.902
-142.426
-148.812
-151.425
-149.879
-144.508
-135.795
-124.559
-111.812
-98.652
-86.253
-75.696
-67.547
-61.849
-58.418
-56.886
-56.847
-57.96
-59.804
-61.926
-64.045
-65.99
-67.669
-69.068
-70.127
-70.778
-71.005
-70.817
-70.23
-69.281
-67.991
-66.382
-64.498
-62.375
-60.05
-57.568
-54.963
-52.294
-49.627
-47.027
-44.58
-42.348
-40.371
-38.678
-37.269
-36.129
-35.239
-34.571
-34.084
-33.746
-33.527
-33.396
-33.334
-33.31
-33.287
-33.225
-33.073
-32.786
-32.332
-31.679
-30.803
-29.688
-28.316
-26.676
-24.767
-22.581
-20.11
-17.346
-14.275
-10.887
-7.177
-3.14
1.223
5.913
10.927
16.264
21.918
27.883
34.151
40.715
47.567
54.696
62.088
69.728
77.596
85.674
93.939
102.37
110.939
119.622
128.39
137.217
146.074
154.93
163.756
172.519
181.188
189.729
198.111
206.299
214.261
221.963
229.373
236.459
243.19
249.536
255.47
260.965
265.995
270.538
274.573
278.081
281.045
283.449
285.283
286.535
287.199
287.269
286.744
285.623
283.911
281.612
278.735
275.291
271.294
266.759
261.705
256.154
250.129
243.655
236.76
229.474
221.829
213.857
205.593
197.072
188.329
179.402
170.327
161.141
151.881
142.582
133.28
124.011
114.807
105.703
96.73
87.918
79.296
70.892
62.73
54.834
47.226
39.925
32.949
26.312
20.027
14.106
8.555
3.381
-1.413
-5.826
-9.858
-13.514
-16.797
-19.716
-22.28
-24.498
-26.384
-27.95
-29.21
-30.181
-30.879
-31.319
-31.52
-31.5
-31.275
-30.866
-30.289
-29.562
-28.705
-27.734
-26.666
-25.519
-24.309
-23.05
-21.758
-20.445
-19.126
-17.812
-16.513
-15.24
-14.001
-12.804
-11.655
-10.56
-9.523
-8.547
-7.635
-6.789
-6.008
-5.292
-4.642
-4.054
-3.529
-3.062
-2.651
-2.294
-1.987
-1.726
-1.508
-1.329
-1.185
-1.072
-0.987
-0.925
-0.883
-0.858
-0.847
-0.847
-0.856
-0.871
-0.891
-0.913
-0.938
-0.965
-0.992
-1.021
-1.053
-1.088
-1.127
-1.174
-1.229
-1.297
-1.378
-1.478
-1.597
-1.741
-1.913
-2.115
-2.352
-2.627
-2.944
-3.306
-3.716
-4.178
-4.695
-5.269
-5.902
-6.598
-7.357
-8.181
-9.072
-10.03
-11.055
-12.148
-13.307
-14.532
-15.821
-17.172
-18.584
-20.052
-21.573
-23.143
-24.758
-26.412
-28.099
-29.814
-31.55
-33.299
-35.055
-36.808
-38.552
-40.277
-41.975
-43.637
-45.255
-46.819
-48.32
-49.75
-51.1
-52.359
-53.521
-54.577
-55.52
-56.341
-57.036
-57.596
-58.018
-58.297
-58.428
-58.407
-58.233
-57.904
-57.418
-56.777
-55.981
-55.034
-53.94
-52.703
-51.329
-49.826
-48.201
-46.466
-44.63
-42.705
-40.704
-38.641
-36.531
-34.391
-32.238
-30.087
-27.958
-25.871
-23.845
-21.903
-20.066
-18.357
-16.798
-15.408
-14.205
-13.206
-12.424
-11.874
-11.566
-11.508
-11.71
-12.178
-12.922
-13.951
-15.262
-16.851
-18.708
-20.812
-23.15
-25.712
-28.485
-31.465
-34.645
-38.011
-41.56
-45.285
-49.173
-53.199
-57.317
-61.472
-65.623
-69.75
-73.848
-77.914
-81.918
-85.808
-89.527
-93.009
-96.222
-99.128
-101.641
-103.735
-105.456
-106.912
-108.369
-110.087
-112.108
-114.443
-117.097
-119.83
-122.439
-124.692
-125.96
-125.781
-124.111
-120.886
-116.31
-111.018
-105.371
-99.747
-95.074
-91.919
-90.522
-91.372
-94.417
-99.233
-105.766
-113.625
-122.015
-130.561
-138.702
-145.324
-148.932
-147.142
-137.781
-120.224
-96.105
-68.138
-37.195
-1.123
45.301
106.23
181.036
263.611
343.992
414.397
470.515
510.902
534.637
537.232
511.816
451.922
355.247
224.19
67.948
-97.789
-256.538
-389.363
-482.371
-534.096
-548.312
-536.173
-510.507
-474.601
-431.848
-385.409
-336.187
-291.516
-255.406
-226.346
-204.48
-186.779
-171.74
-162.093
-158.226
-159.821
-165.779
-172.665
-177.94
-180.25
-178.898
-174.269
-167.048
-157.868
-147.481
-136.763
-126.677
-118.151
-111.693
-107.368
-104.985
-104.159
-104.483
-105.584
-107.013
-108.315
-109.208
-109.534
-109.216
-108.281
-106.751
-104.623
-101.943
-98.768
-95.145
-91.131
-86.789
-82.182
-77.408
-72.566
-67.76
-63.077
-58.579
-54.321
-50.352
-46.704
-43.392
-40.426
-37.796
-35.495
-33.515
-31.833
-30.422
-29.245
-28.256
-27.409
-26.651
-25.936
-25.227
-24.491
-23.703
-22.838
-21.879
-20.808
-19.615
-18.288
-16.81
-15.166
-13.34
-11.318
-9.089
-6.642
-3.969
-1.06
2.093
5.501
9.171
13.115
17.338
21.848
26.654
31.758
37.162
42.865
48.862
55.148
61.714
68.55
75.645
82.983
90.551
98.331
106.306
114.457
122.763
131.202
139.75
148.382
157.072
165.793
174.516
183.212
191.851
200.4
208.83
217.108
225.202
233.08
240.71
248.059
255.098
261.795
268.121
274.048
279.549
284.599
289.176
293.259
296.828
299.866
302.36
304.296
305.666
306.461
306.677
306.309
305.359
303.827
301.72
299.044
295.809
292.027
287.715
282.888
277.568
271.776
265.536
258.875
251.821
244.403
236.654
228.605
220.291
211.746
203.005
194.103
185.077
175.961
166.791
157.601
148.425
139.295
130.243
121.3
112.494
103.854
95.405
87.172
79.178
71.443
63.986
56.826
49.975
43.449
37.257
31.408
25.909
20.764
15.976
11.546
7.471
3.75
0.376
-2.657
-5.357
-7.735
-9.801
-11.566
-13.046
-14.252
-15.199
-15.903
-16.379
-16.642
-16.707
-16.592
-16.31
-15.879
-15.312
-14.626
-13.835
-12.953
-11.994
-10.971
-9.897
-8.785
-7.645
-6.489
-5.326
-4.167
-3.018
-1.889
-0.786
0.286
1.319
2.312
3.258
4.156
5.004
5.799
6.54
7.227
7.861
8.44
8.966
9.439
9.861
10.233
10.557
10.835
11.068
11.259
11.411
11.524
11.603
11.649
11.666
11.655
11.619
11.562
11.485
11.391
11.283
11.162
11.032
10.893
10.747
10.596
10.441
10.282
10.12
9.955
9.787
9.616
9.441
9.261
9.075
8.883
8.683
8.474
8.253
8.019
7.771
7.506
7.221
6.915
6.586
6.23
5.847
5.434
4.988
4.507
3.99
3.433
2.837
2.198
1.516
0.79
0.02
-0.794
-1.652
-2.552
-3.493
-4.471
-5.486
-6.532
-7.606
-8.705
-9.823
-10.955
-12.095
-13.237
-14.375
-15.501
-16.607
-17.687
-18.732
-19.734
-20.685
-21.576
-22.401
-23.151
-23.817
-24.394
-24.873
-25.247
-25.51
-25.657
-25.681
-25.578
-25.345
-24.98
-24.481
-23.847
-23.08
-22.181
-21.154
-20.003
-18.734
-17.352
-15.865
-14.283
-12.616
-10.876
-9.074
-7.225
-5.343
-3.447
-1.555
0.316
2.146
3.915
5.605
7.194
8.665
10
11.183
12.197
13.027
13.655
14.066
14.248
14.188
13.876
13.305
12.466
11.356
9.979
8.337
6.433
4.269
1.837
-0.863
-3.826
-7.044
-10.505
-14.19
-18.081
-22.148
-26.344
-30.625
-34.945
-39.26
-43.54
-47.746
-51.831
-55.744
-59.423
-62.813
-65.88
-68.589
-70.919
-72.865
-74.44
-75.679
-76.655
-77.453
-78.161
-78.877
-79.693
-80.707
-82.018
-83.75
-86.052
-89.001
-92.599
-96.762
-101.276
-105.908
-110.417
-114.43
-117.494
-119.311
-119.695
-118.712
-116.811
-114.417
-111.941
-110.017
-109.157
-109.518
-111.291
-114.263
-117.301
-119.278
-118.071
-110.134
-93.832
-68.641
-35.192
3.048
46.156
97.143
158.371
233.261
319.511
409.609
496.538
572.35
631.19
668.16
675.869
646.404
573.41
456.064
301.455
123.453
-59.208
-227.504
-366.997
-467.698
-525.807
-544.414
-527.57
-482.686
-420.8
-351.198
-285.671
-234.24
-198.906
-178.751
-168.09
-158.932
-148.965
-138.437
-129.719
-126.929
-130.519
-138.551
-148.261
-156.12
-160.268
-160.56
-157.42
-151.693
-144.188
-135.596
-126.787
-118.692
-112.11
-107.372
-104.357
-102.782
-102.252
-102.376
-102.845
-103.306
-103.412
-103.012
-102.068
-100.599
-98.682
-96.335
-93.546
-90.361
-86.85
-83.097
-79.22
-75.306
-71.427
-67.677
-64.12
-60.802
-57.764
-55.009
-52.53
-50.331
-48.415
-46.791
-45.481
-44.481
-43.78
-43.355
-43.156
-43.142
-43.271
-43.494
-43.772
-44.071
-44.361
-44.625
-44.853
-45.029
-45.136
-45.155
-45.057
-44.822
-44.429
-43.857
-43.092
-42.118
-40.92
-39.486
-37.805
-35.867
-33.661
-31.174
-28.392
-25.306
-21.907
-18.188
-14.146
-9.778
-5.085
-0.069
5.263
10.904
16.845
23.076
29.586
36.359
43.38
50.63
58.092
65.742
73.558
81.517
89.591
97.754
105.979
114.235
122.494
130.724
138.896
146.976
154.934
162.739
170.358
177.761
184.917
191.794
198.364
204.598
210.468
215.949
221.014
225.642
229.81
233.5
236.693
239.374
241.53
243.148
244.221
244.741
244.706
244.112
242.962
241.259
239.009
236.221
232.907
229.078
224.75
219.942
214.673
208.965
202.84
196.325
189.446
182.231
174.708
166.909
158.864
150.603
142.16
133.567
124.855
116.057
107.206
98.333
89.469
80.645
71.891
63.236
54.706
46.328
38.126
30.124
22.342
14.8
7.516
0.506
-6.216
-12.638
-18.751
-24.544
-30.012
-35.151
-39.956
-44.428
-48.566
-52.373
-55.851
-59.005
-61.841
-64.367
-66.59
-68.52
-70.166
-71.541
-72.656
-73.524
-74.159
-74.574
-74.783
-74.803
-74.646
-74.329
-73.866
-73.271
-72.56
-71.746
-70.844
-69.866
-68.826
-67.735
-66.607
-65.451
-64.278
-63.098
-61.92
-60.753
-59.604
-58.48
-57.389
-56.335
-55.325
-54.363
-53.454
-52.602
-51.808
-51.077
-50.408
-49.804
-49.265
-48.791
-48.38
-48.031
-47.743
-47.514
-47.34
-47.219
-47.147
-47.121
-47.137
-47.19
-47.278
-47.394
-47.536
-47.7
-47.88
-48.073
-48.275
-48.482
-48.691
-48.898
-49.1
-49.292
-49.473
-49.638
-49.786
-49.913
-50.017
-50.096
-50.15
-50.176
-50.174
-50.144
-50.086
-50
-49.888
-49.751
-49.591
-49.409
-49.208
-48.992
-48.762
-48.522
-48.276
-48.027
-47.779
-47.535
-47.299
-47.076
-46.867
-46.676
-46.507
-46.362
-46.245
-46.157
-46.101
-46.079
-46.093
-46.144
-46.233
-46.359
-46.523
-46.723
-46.958
-47.225
-47.522
-47.846
-48.192
-48.556
-48.933
-49.318
-49.705
-50.088
-50.46
-50.814
-51.142
-51.436
-51.689
-51.892
-52.038
-52.119
-52.128
-52.056
-51.898
-51.646
-51.293
-50.835
-50.266
-49.582
-48.777
-47.849
-46.796
-45.617
-44.312
-42.883
-41.332
-39.662
-37.878
-35.988
-33.997
-31.915
-29.749
-27.512
-25.214
-22.867
-20.486
-18.085
-15.682
-13.293
-10.939
-8.638
-6.411
-4.278
-2.258
-0.371
1.364
2.931
4.315
5.5
6.471
7.21
7.706
7.947
7.922
7.626
7.051
6.193
5.055
3.642
1.962
0.02
-2.183
-4.653
-7.389
-10.384
-13.626
-17.103
-20.798
-24.69
-28.746
-32.92
-37.163
-41.429
-45.681
-49.887
-54.007
-57.992
-61.783
-65.309
-68.518
-71.371
-73.837
-75.89
-77.523
-78.74
-79.579
-80.124
-80.464
-80.686
-80.884
-81.146
-81.576
-82.3
-83.477
-85.23
-87.603
-90.546
-93.883
-97.371
-100.735
-103.645
-105.686
-106.491
-105.858
-103.846
-100.909
-97.696
-94.929
-93.307
-93.371
-95.635
-100.438
-107.379
-115.413
-122.301
-124.5
-119.863
-107.128
-85.756
-57.486
-20.694
28.361
91.258
170.354
262.091
358.163
453.238
540.776
616.781
677.537
713.847
716.945
678.341
595.945
475.928
326.989
162.856
-4.587
-164.032
-301.139
-406.99
-475.75
-507.362
-510.201
-491.115
-454.893
-406.069
-346.883
-283.817
-228.085
-186.643
-162.714
-153.726
-150.344
-146.735
-140.955
-133.55
-128.637
-127.629
-128.92
-130.426
-129.341
-124.59
-116.918
-107.22
-96.536
-85.727
-75.445
-66.503
-59.698
-55.372
-53.458
-53.67
-55.56
-58.683
-62.609
-66.824
-70.834
-74.306
-77.041
-78.95
-80.026
-80.259
-79.649
-78.235
-76.078
-73.246
-69.818
-65.869
-61.494
-56.815
-51.972
-47.115
-42.364
-37.812
-33.54
-29.607
-26.052
-22.905
-20.166
-17.824
-15.869
-14.281
-13.032
-12.093
-11.42
-10.963
-10.667
-10.47
-10.319
-10.173
-9.996
-9.761
-9.446
-9.028
-8.495
-7.84
-7.051
-6.114
-5.013
-3.731
-2.254
-0.573
1.321
3.437
5.783
8.374
11.219
14.319
17.688
21.347
25.314
29.607
34.232
39.17
44.415
49.983
55.853
61.972
68.294
74.768
81.375
88.158
95.117
102.172
109.367
116.905
124.807
132.985
141.443
149.914
158.819
169.507
181.641
193.931
204.248
208.636
207.332
204.236
203.248
209.914
224.517
241.76
257.544
267.432
270.659
271.141
271.262
272.657
275.794
279.045
281.672
283.714
285.104
286.074
286.677
286.691
286.048
284.785
282.898
280.383
277.255
273.533
269.25
264.458
259.186
253.434
247.221
240.571
233.51
226.068
218.273
210.15
201.731
193.051
184.144
175.047
165.792
156.416
146.952
137.436
127.9
118.379
108.904
99.508
90.22
81.07
72.084
63.29
54.71
46.369
38.286
30.481
22.971
15.771
8.895
2.352
-3.846
-9.694
-15.185
-20.317
-25.089
-29.502
-33.557
-37.26
-40.617
-43.635
-46.324
-48.693
-50.754
-52.519
-54.001
-55.215
-56.175
-56.896
-57.393
-57.681
-57.777
-57.696
-57.453
-57.063
-56.542
-55.905
-55.165
-54.337
-53.434
-52.47
-51.456
-50.405
-49.328
-48.235
-47.136
-46.039
-44.954
-43.886
-42.842
-41.829
-40.85
-39.91
-39.012
-38.158
-37.352
-36.595
-35.888
-35.23
-34.624
-34.068
-33.562
-33.105
-32.696
-32.335
-32.02
-31.751
-31.524
-31.34
-31.197
-31.091
-31.022
-30.987
-30.984
-31.01
-31.064
-31.142
-31.245
-31.368
-31.512
-31.674
-31.853
-32.049
-32.26
-32.486
-32.727
-32.982
-33.25
-33.532
-33.831
-34.146
-34.48
-34.833
-35.201
-35.591
-36.005
-36.438
-36.884
-37.34
-37.798
-38.267
-38.761
-39.27
-39.784
-40.33
-40.929
-41.596
-42.356
-43.19
-44.062
-44.992
-46.02
-47.046
-47.948
-48.799
-49.589
-50.297
-51.175
-51.53
-50.683
-49.594
-48.553
-49.327
-54.029
-60.311
-66.603
-70.572
-69.015
-64.755
-60.186
-56.946
-57.743
-60.631
-63.635
-66.31
-67.451
-67.748
-68.088
-68.295
-68.477
-68.567
-68.377
-68.022
-67.59
-67.045
-66.378
-65.593
-64.688
-63.652
-62.482
-61.161
-59.668
-58.015
-56.212
-54.261
-52.167
-49.937
-47.576
-45.094
-42.502
-39.81
-37.027
-34.165
-31.237
-28.257
-25.243
-22.212
-19.181
-16.169
-13.194
-10.276
-7.435
-4.69
-2.057
0.448
2.806
5.003
7.017
8.834
10.438
11.815
12.954
13.843
14.474
14.841
14.948
14.795
14.385
13.715
12.778
11.571
10.101
8.372
6.398
4.197
1.788
-0.798
-3.513
-6.319
-9.173
-12.044
-14.914
-17.751
-20.517
-23.172
-25.66
-27.939
-29.988
-31.772
-33.269
-34.489
-35.453
-36.215
-36.866
-37.462
-38.061
-38.735
-39.537
-40.552
-41.876
-43.57
-45.735
-48.489
-51.853
-55.801
-60.212
-64.745
-69.047
-72.794
-75.513
-76.778
-76.399
-74.291
-70.702
-66.336
-61.874
-57.931
-55.276
-54.467
-55.547
-58.453
-62.647
-66.575
-68.604
-66.37
-56.415
-36.919
-7.366
31.51
76.608
126.855
182.603
244.138
312.921
387
463.492
538.781
605.099
654.294
673.298
648.033
572.101
445.131
280.03
99.101
-76.685
-227.194
-341.746
-420.286
-465.669
-484.884
-484.544
-466.775
-435.178
-395.059
-350.738
-308.887
-273.451
-242.643
-215.779
-191.545
-169.73
-153.853
-145.323
-143.719
-147.35
-152.592
-156.528
-157.3
-154.002
-146.784
-136.15
-122.916
-108.204
-93.106
-78.847
-66.61
-56.975
-50.192
-46.287
-44.926
-45.707
-48.194
-51.751
-55.812
-60.099
-64.274
-67.891
-70.803
-72.925
-74.1
-74.646
-74.115
-71.102
-66.058
-60.221
-55.758
-56.94
-63.488
-71.245
-76.08
-72.023
-58.791
-42.271
-27.097
-18.009
-15.774
-16.442
-17.606
-17.812
-16.93
-16.345
-16.449
-17.093
-18.135
-19.193
-20.177
-21.003
-21.403
-21.483
-21.393
-21.176
-20.94
-20.645
-20.196
-19.661
-19.138
-18.557
-17.849
-16.958
-15.787
-14.347
-12.664
-10.704
-8.44
-5.871
-2.983
0.22
3.726
7.549
11.705
16.201
21.053
26.27
31.85
37.784
44.062
50.671
57.59
64.791
72.231
79.851
87.607
95.465
103.4
111.399
119.444
127.515
135.592
143.661
151.71
159.731
167.708
175.614
183.443
191.201
198.914
206.641
214.406
222.2
230.002
237.764
245.431
252.947
260.228
267.172
273.691
279.701
285.139
289.967
294.122
297.523
300.074
301.646
302.151
301.551
299.818
296.956
292.995
287.977
281.992
275.174
267.631
259.459
250.733
241.503
231.844
221.849
211.622
201.284
190.935
180.645
170.481
160.5
150.733
141.195
131.868
122.692
113.634
104.683
95.837
87.117
78.532
70.08
61.765
53.586
45.548
37.66
29.929
22.355
14.954
7.751
0.781
-5.901
-12.259
-18.269
-23.914
-29.188
-34.088
-38.608
-42.754
-46.536
-49.965
-53.05
-55.799
-58.217
-60.314
-62.106
-63.611
-64.849
-65.841
-66.604
-67.154
-67.508
-67.683
-67.692
-67.548
-67.26
-66.841
-66.302
-65.656
-64.918
-64.101
-63.216
-62.277
-61.295
-60.282
-59.247
-58.2
-57.148
-56.098
-55.057
-54.03
-53.022
-52.038
-51.08
-50.151
-49.255
-48.392
-47.564
-46.773
-46.018
-45.3
-44.621
-43.979
-43.375
-42.808
-42.277
-41.783
-41.323
-40.897
-40.505
-40.143
-39.812
-39.508
-39.231
-38.978
-38.747
-38.535
-38.341
-38.162
-37.998
-37.845
-37.703
-37.571
-37.447
-37.332
-37.226
-37.128
-37.038
-36.958
-36.887
-36.825
-36.773
-36.73
-36.696
-36.67
-36.653
-36.646
-36.647
-36.658
-36.678
-36.709
-36.751
-36.805
-36.87
-36.946
-37.035
-37.135
-37.25
-37.378
-37.522
-37.681
-37.857
-38.05
-38.261
-38.489
-38.732
-38.989
-39.257
-39.534
-39.816
-40.098
-40.376
-40.648
-40.911
-41.164
-41.404
-41.628
-41.835
-42.022
-42.188
-42.327
-42.433
-42.499
-42.516
-42.481
-42.388
-42.232
-42.01
-41.716
-41.346
-40.901
-40.377
-39.771
-39.073
-38.266
-37.343
-36.308
-35.168
-33.939
-32.635
-31.264
-29.842
-28.395
-26.937
-25.474
-23.999
-22.483
-20.916
-19.296
-17.635
-15.961
-14.285
-12.598
-10.895
-9.164
-7.393
-5.578
-3.692
-1.688
0.447
2.701
5.027
7.338
9.573
11.695
13.677
15.507
17.161
18.592
19.768
20.659
21.231
21.449
21.256
20.562
19.329
17.557
15.284
12.595
9.55
6.186
2.543
-1.346
-5.435
-9.667
-13.988
-18.351
-22.693
-26.945
-31.022
-34.819
-38.263
-41.315
-43.958
-46.198
-48.038
-49.47
-50.499
-51.146
-51.449
-51.457
-51.237
-50.865
-50.429
-50.039
-49.812
-49.869
-50.331
-51.281
-52.806
-55.016
-57.966
-61.638
-65.923
-70.544
-75.135
-79.36
-82.833
-85.118
-85.925
-85.11
-82.782
-79.516
-76.075
-73.222
-71.649
-71.796
-73.928
-78.154
-83.912
-89.937
-93.807
-92.004
-82.557
-64.545
-38.236
-6.199
32.705
81.425
140.696
212.579
293.055
373.615
450.438
518.425
573.888
614.72
632.208
615.895
558.176
455.897
312.621
141.207
-39.762
-211.643
-354.249
-455.19
-514.147
-535.93
-531.23
-510.232
-476.73
-434.46
-388.726
-344.373
-306.765
-277.339
-251.592
-225.674
-198.07
-170.266
-147.201
-131.913
-124.184
-122.283
-123.311
-124.943
-126.174
-126.27
-124.607
-121.041
-115.759
-109.104
-101.577
-93.821
-86.385
-79.898
-75.073
-72.133
-70.946
-71.29
-72.805
-75.153
-78.051
-81.069
-83.714
-85.704
-86.916
-87.329
-87.02
-86.013
-84.306
-81.961
-79.083
-75.781
-72.158
-68.287
-64.217
-60.017
-55.786
-51.649
-47.724
-44.086
-40.778
-37.818
-35.221
-33.004
-31.171
-29.698
-28.55
-27.685
-27.065
-26.666
-26.454
-26.39
-26.422
-26.488
-26.539
-26.538
-26.455
-26.268
-25.953
-25.486
-24.852
-24.044
-23.055
-21.877
-20.495
-18.893
-17.059
-14.984
-12.661
-10.085
-7.249
-4.145
-0.766
2.89
6.828
11.05
15.559
20.358
25.446
30.817
36.467
42.384
48.559
54.98
61.63
68.495
75.554
82.79
90.182
97.708
105.345
113.069
120.853
128.671
136.496
144.299
152.052
159.724
167.285
174.707
181.959
189.01
195.832
202.394
208.667
214.624
220.237
225.481
230.331
234.763
238.756
242.29
245.348
247.913
249.971
251.511
252.522
252.998
252.933
252.327
251.177
249.488
247.264
244.512
241.243
237.468
233.202
228.463
223.268
217.638
211.597
205.169
198.381
191.258
183.831
176.13
168.185
160.027
151.688
143.2
134.595
125.906
117.164
108.401
99.647
90.933
82.288
73.74
65.317
57.043
48.943
41.039
33.352
25.901
18.703
11.772
5.123
-1.234
-7.29
-13.037
-18.47
-23.586
-28.382
-32.86
-37.021
-40.869
-44.407
-47.644
-50.585
-53.239
-55.616
-57.725
-59.577
-61.184
-62.558
-63.71
-64.655
-65.405
-65.972
-66.372
-66.617
-66.719
-66.693
-66.551
-66.304
-65.965
-65.545
-65.055
-64.504
-63.902
-63.258
-62.58
-61.875
-61.15
-60.411
-59.663
-58.909
-58.155
-57.403
-56.656
-55.916
-55.186
-54.466
-53.76
-53.066
-52.388
-51.725
-51.078
-50.447
-49.833
-49.235
-48.652
-48.085
-47.533
-46.995
-46.471
-45.961
-45.463
-44.976
-44.501
-44.037
-43.582
-43.137
-42.7
-42.273
-41.853
-41.442
-41.041
-40.648
-40.266
-39.895
-39.536
-39.191
-38.859
-38.543
-38.243
-37.96
-37.695
-37.45
-37.224
-37.02
-36.838
-36.679
-36.545
-36.436
-36.353
-36.298
-36.272
-36.276
-36.31
-36.375
-36.473
-36.604
-36.77
-36.971
-37.207
-37.48
-37.789
-38.134
-38.515
-38.931
-39.379
-39.859
-40.368
-40.904
-41.463
-42.043
-42.64
-43.25
-43.869
-44.493
-45.116
-45.732
-46.337
-46.924
-47.487
-48.019
-48.513
-48.962
-49.359
-49.698
-49.972
-50.173
-50.294
-50.328
-50.269
-50.111
-49.845
-49.468
-48.972
-48.354
-47.608
-46.733
-45.726
-44.585
-43.309
-41.899
-40.356
-38.683
-36.884
-34.962
-32.923
-30.775
-28.527
-26.187
-23.768
-21.28
-18.737
-16.157
-13.555
-10.948
-8.355
-5.793
-3.283
-0.842
1.509
3.755
5.879
7.863
9.69
11.341
12.799
14.047
15.07
15.855
16.389
16.662
16.665
16.399
15.862
15.055
13.973
12.608
10.953
9.012
6.79
4.297
1.553
-1.423
-4.598
-7.928
-11.366
-14.872
-18.407
-21.948
-25.468
-28.926
-32.282
-35.479
-38.465
-41.211
-43.687
-45.868
-47.761
-49.385
-50.785
-52.045
-53.235
-54.416
-55.665
-57.036
-58.599
-60.441
-62.62
-65.237
-68.424
-72.208
-76.561
-81.355
-86.263
-90.95
-95.106
-98.266
-99.978
-100.015
-98.231
-94.855
-90.594
-86.059
-81.842
-78.683
-77.016
-76.919
-78.48
-81.204
-83.589
-84.256
-80.843
-69.774
-49.609
-19.969
18.259
61.119
107.914
160.931
221.957
294.098
375.518
459.008
537.77
604.075
651.265
674.853
667.961
623.235
537.112
408.967
246.435
66.287
-112.185
-266.876
-381.338
-451.318
-480.428
-480.143
-461.783
-429.494
-384.929
-328.743
-265.354
-205.734
-159.051
-130.003
-116.815
-110.955
-106.336
-100.737
-95.229
-94.146
-98.65
-106.845
-115.942
-122.295
-124.372
-122.597
-117.592
-110.304
-101.675
-92.438
-83.586
-76.193
-70.739
-67.245
-65.501
-65.094
-65.62
-66.736
-68.027
-69.051
-69.557
-69.45
-68.701
-67.356
-65.45
-62.997
-60.039
-56.662
-52.943
-48.965
-44.843
-40.671
-36.537
-32.533
-28.712
-25.111
-21.764
-18.69
-15.897
-13.405
-11.221
-9.344
-7.781
-6.526
-5.557
-4.843
-4.33
-3.961
-3.692
-3.484
-3.304
-3.126
-2.925
-2.683
-2.391
-2.036
-1.602
-1.072
-0.424
0.363
1.303
2.413
3.702
5.18
6.858
8.748
10.858
13.199
15.781
18.614
21.712
25.083
28.736
32.674
36.901
41.416
46.218
51.303
56.666
62.298
68.19
74.334
80.717
87.327
94.148
101.166
108.363
115.719
123.215
130.828
138.536
146.315
154.138
161.979
169.811
177.607
185.335
192.968
200.475
207.826
214.99
221.937
228.637
235.059
241.173
246.952
252.369
257.396
262.011
266.189
269.909
273.153
275.902
278.141
279.855
281.033
281.665
281.744
281.264
280.222
278.617
276.453
273.734
270.466
266.66
262.327
257.481
252.141
246.324
240.053
233.351
226.244
218.759
210.926
202.776
194.34
185.651
176.743
167.65
158.406
149.046
139.604
130.113
120.607
111.119
101.68
92.322
83.075
73.967
65.025
56.275
47.741
39.445
31.408
23.648
16.182
9.025
2.19
-4.313
-10.475
-16.29
-21.754
-26.865
-31.622
-36.027
-40.086
-43.802
-47.184
-50.24
-52.98
-55.415
-57.556
-59.418
-61.013
-62.356
-63.462
-64.345
-65.02
-65.504
-65.81
-65.956
-65.954
-65.82
-65.568
-65.213
-64.766
-64.242
-63.653
-63.01
-62.325
-61.609
-60.871
-60.119
-59.363
-58.608
-57.862
-57.13
-56.416
-55.725
-55.059
-54.42
-53.812
-53.235
-52.689
-52.176
-51.695
-51.245
-50.825
-50.436
-50.075
-49.741
-49.432
-49.149
-48.889
-48.65
-48.432
-48.234
-48.053
-47.889
-47.739
-47.604
-47.48
-47.368
-47.266
-47.173
-47.087
-47.01
-46.94
-46.876
-46.819
-46.769
-46.726
-46.691
-46.664
-46.646
-46.638
-46.641
-46.658
-46.688
-46.735
-46.8
-46.884
-46.989
-47.118
-47.27
-47.449
-47.655
-47.891
-48.156
-48.454
-48.785
-49.15
-49.552
-49.99
-50.467
-50.983
-51.538
-52.134
-52.771
-53.448
-54.165
-54.923
-55.72
-56.555
-57.428
-58.335
-59.274
-60.243
-61.238
-62.256
-63.291
-64.339
-65.395
-66.453
-67.507
-68.552
-69.581
-70.586
-71.562
-72.5
-73.394
-74.235
-75.015
-75.726
-76.361
-76.913
-77.373
-77.734
-77.989
-78.132
-78.156
-78.055
-77.825
-77.459
-76.955
-76.307
-75.515
-74.577
-73.492
-72.26
-70.883
-69.363
-67.706
-65.917
-64.001
-61.965
-59.819
-57.572
-55.235
-52.821
-50.342
-47.812
-45.248
-42.667
-40.088
-37.531
-35.015
-32.559
-30.184
-27.911
-25.759
-23.744
-21.882
-20.191
-18.686
-17.387
-16.308
-15.462
-14.863
-14.52
-14.443
-14.64
-15.116
-15.864
-16.883
-18.169
-19.722
-21.552
-23.66
-26.038
-28.679
-31.566
-34.683
-38.012
-41.519
-45.159
-48.886
-52.658
-56.436
-60.201
-63.917
-67.54
-71.02
-74.29
-77.3
-80.025
-82.427
-84.486
-86.2
-87.58
-88.666
-89.54
-90.265
-90.91
-91.549
-92.238
-93.068
-94.131
-95.526
-97.404
-99.831
-102.798
-106.236
-109.916
-113.531
-116.792
-119.309
-120.624
-120.505
-118.818
-115.668
-111.681
-107.525
-103.889
-101.529
-100.861
-102.085
-105.398
-110.422
-115.931
-119.741
-118.618
-109.729
-91.715
-65.572
-33.645
3.404
46.855
100.632
168.658
250.051
340.565
433.25
520.332
596.384
655.164
688.481
687.111
642.568
552.404
421.097
260.124
85.641
-85.875
-237.626
-357.092
-438.279
-481.187
-493.147
-482.417
-454.18
-412.135
-358.069
-296.697
-238.115
-190.807
-159.935
-144.956
-138.053
-133.077
-127.156
-120.601
-117.711
-120.102
-126.485
-134.288
-139.63
-140.808
-138.116
-132.183
-124.148
-114.991
-105.352
-96.258
-88.802
-83.477
-80.385
-79.319
-79.799
-81.352
-83.568
-85.975
-88.11
-89.721
-90.68
-90.925
-90.471
-89.325
-87.496
-85.033
-82.003
-78.451
-74.434
-70.034
-65.362
-60.571
-55.8
-51.137
-46.642
-42.36
-38.328
-34.59
-31.186
-28.125
-25.406
-23.029
-20.997
-19.314
-17.969
-16.924
-16.123
-15.501
-15.004
-14.595
-14.243
-13.92
-13.602
-13.264
-12.892
-12.477
-12.009
-11.47
-10.84
-10.093
-9.21
-8.176
-6.981
-5.611
-4.054
-2.296
-0.322
1.881
4.324
7.023
9.993
13.25
16.806
20.668
24.844
29.337
34.147
39.275
44.718
50.468
56.519
62.862
69.485
76.377
83.522
90.905
98.507
106.307
114.285
122.417
130.676
139.037
147.47
155.946
164.435
172.904
181.321
189.651
197.86
205.915
213.779
221.419
228.798
235.883
242.638
249.032
255.032
260.609
265.734
270.379
274.522
278.139
281.211
283.72
285.65
286.99
287.727
287.856
287.372
286.271
284.557
282.231
279.302
275.778
271.672
266.999
261.777
256.026
249.77
243.034
235.846
228.235
220.233
211.875
203.195
194.23
185.018
175.597
166.007
156.286
146.473
136.608
126.729
116.872
107.076
97.374
87.801
78.39
69.17
60.172
51.423
42.947
34.767
26.905
19.378
12.203
5.394
-1.038
-7.085
-12.738
-17.994
-22.852
-27.31
-31.372
-35.042
-38.327
-41.235
-43.778
-45.967
-47.817
-49.341
-50.557
-51.482
-52.132
-52.528
-52.687
-52.628
-52.371
-51.934
-51.337
-50.598
-49.735
-48.767
-47.709
-46.58
-45.393
-44.164
-42.907
-41.635
-40.359
-39.091
-37.84
-36.616
-35.426
-34.278
-33.177
-32.128
-31.135
-30.202
-29.328
-28.516
-27.765
-27.074
-26.442
-25.867
-25.345
-24.875
-24.453
-24.075
-23.738
-23.436
-23.167
-22.925
-22.706
-22.507
-22.322
-22.149
-21.983
-21.821
-21.661
-21.5
-21.335
-21.165
-20.987
-20.801
-20.605
-20.398
-20.18
-19.951
-19.712
-19.463
-19.207
-18.945
-18.679
-18.411
-18.146
-17.884
-17.631
-17.389
-17.161
-16.951
-16.764
-16.602
-16.471
-16.374
-16.315
-16.298
-16.327
-16.405
-16.535
-16.72
-16.963
-17.265
-17.627
-18.052
-18.541
-19.093
-19.708
-20.387
-21.128
-21.93
-22.79
-23.705
-24.672
-25.687
-26.744
-27.838
-28.964
-30.115
-31.285
-32.466
-33.65
-34.83
-35.997
-37.142
-38.256
-39.328
-40.349
-41.308
-42.196
-43.003
-43.719
-44.335
-44.841
-45.231
-45.494
-45.623
-45.612
-45.455
-45.144
-44.676
-44.046
-43.252
-42.292
-41.165
-39.873
-38.416
-36.798
-35.023
-33.097
-31.026
-28.817
-26.48
-24.023
-21.46
-18.802
-16.064
-13.26
-10.407
-7.522
-4.624
-1.734
1.127
3.94
6.682
9.334
11.874
14.281
16.537
18.624
20.526
22.226
23.707
24.951
25.945
26.677
27.137
27.315
27.204
26.801
26.108
25.128
23.865
22.321
20.493
18.38
15.988
13.325
10.405
7.25
3.88
0.327
-3.362
-7.144
-10.975
-14.812
-18.626
-22.386
-26.05
-29.577
-32.913
-36.008
-38.83
-41.346
-43.53
-45.386
-46.931
-48.207
-49.299
-50.276
-51.212
-52.197
-53.303
-54.618
-56.248
-58.257
-60.73
-63.786
-67.454
-71.725
-76.513
-81.523
-86.404
-90.869
-94.525
-96.966
-97.98
-97.393
-95.269
-92.187
-88.831
-85.744
-83.471
-82.48
-82.951
-84.985
-88.48
-91.594
-91.315
-85.39
-71.565
-50.434
-26.044
0.762
30.764
67.53
119.446
188.887
273.712
368.818
462.831
547.551
614.727
654.458
660.624
626.072
549.909
438.045
296.472
136.895
-29.092
-190.409
-330.237
-436.016
-502.29
-529.738
-529.495
-514.78
-492.544
-465.84
-433.401
-392.125
-343.751
-292.558
-243.071
-200.368
-167.024
-143.293
-128.549
-121.204
-119.353
-121.29
-125.3
-129.467
-132.097
-131.962
-128.607
-122.339
-113.862
-104.017
-93.637
-83.637
-74.962
-68.422
-64.373
-62.709
-63.073
-64.968
-67.944
-71.579
-75.375
-78.85
-81.659
-83.634
-84.742
-85.032
-84.537
-83.269
-81.272
-78.617
-75.405
-71.738
-67.705
-63.403
-58.923
-54.376
-49.898
-45.601
-41.58
-37.902
-34.601
-31.695
-29.203
-27.132
-25.469
-24.199
-23.281
-22.676
-22.35
-22.259
-22.357
-22.592
-22.898
-23.219
-23.518
-23.758
-23.915
-23.969
-23.895
-23.677
-23.306
-22.769
-22.055
-21.152
-20.04
-18.703
-17.131
-15.313
-13.24
-10.904
-8.291
-5.392
-2.197
1.303
5.114
9.245
13.701
18.487
23.602
29.043
34.804
40.876
47.251
53.915
60.855
68.054
75.493
83.155
91.02
99.064
107.265
115.597
124.034
132.547
141.108
149.686
158.25
166.766
175.202
183.524
191.697
199.687
207.459
214.979
222.213
229.127
235.69
241.87
247.637
252.963
257.823
262.191
266.047
269.37
272.144
274.352
275.984
277.03
277.483
277.338
276.594
275.251
273.314
270.788
267.682
264.009
259.782
255.018
249.738
243.963
237.718
231.029
223.926
216.439
208.601
200.444
192.005
183.319
174.422
165.351
156.144
146.837
137.468
128.072
118.684
109.34
100.071
90.91
81.887
73.03
64.366
55.92
47.714
39.77
32.106
24.74
17.685
10.955
4.559
-1.494
-7.199
-12.553
-17.554
-22.203
-26.503
-30.459
-34.077
-37.365
-40.333
-42.993
-45.357
-47.437
-49.249
-50.806
-52.126
-53.223
-54.114
-54.814
-55.34
-55.707
-55.931
-56.026
-56.007
-55.888
-55.681
-55.4
-55.057
-54.661
-54.225
-53.756
-53.265
-52.757
-52.241
-51.721
-51.204
-50.692
-50.19
-49.701
-49.225
-48.764
-48.319
-47.89
-47.476
-47.076
-46.688
-46.312
-45.945
-45.586
-45.232
-44.881
-44.533
-44.184
-43.835
-43.484
-43.129
-42.772
-42.41
-42.044
-41.674
-41.301
-40.925
-40.548
-40.171
-39.795
-39.423
-39.057
-38.699
-38.352
-38.018
-37.701
-37.403
-37.127
-36.877
-36.656
-36.467
-36.314
-36.199
-36.126
-36.098
-36.118
-36.189
-36.312
-36.49
-36.724
-37.016
-37.367
-37.776
-38.244
-38.77
-39.354
-39.994
-40.688
-41.435
-42.232
-43.075
-43.961
-44.887
-45.847
-46.838
-47.854
-48.89
-49.94
-50.999
-52.059
-53.116
-54.161
-55.189
-56.192
-57.162
-58.092
-58.975
-59.801
-60.565
-61.257
-61.87
-62.396
-62.828
-63.161
-63.387
-63.5
-63.496
-63.369
-63.115
-62.731
-62.214
-61.562
-60.772
-59.844
-58.78
-57.579
-56.245
-54.779
-53.185
-51.468
-49.634
-47.69
-45.642
-43.498
-41.268
-38.963
-36.593
-34.173
-31.715
-29.234
-26.745
-24.266
-21.816
-19.411
-17.072
-14.815
-12.66
-10.626
-8.729
-6.986
-5.41
-4.014
-2.814
-1.822
-1.053
-0.517
-0.226
-0.188
-0.411
-0.902
-1.663
-2.688
-3.975
-5.518
-7.314
-9.368
-11.677
-14.232
-17.026
-20.045
-23.27
-26.676
-30.225
-33.866
-37.553
-41.241
-44.892
-48.479
-51.969
-55.324
-58.507
-61.469
-64.176
-66.604
-68.723
-70.505
-71.955
-73.105
-74.017
-74.797
-75.521
-76.238
-77.016
-77.913
-79.01
-80.405
-82.174
-84.361
-87.027
-90.275
-94.148
-98.613
-103.448
-108.188
-112.338
-115.467
-117.136
-116.905
-114.519
-109.918
-103.468
-96.181
-89.114
-83.145
-79.136
-77.697
-78.987
-82.83
-88.196
-92.836
-94.28
-90.15
-77.828
-55.109
-20.412
27.736
88.538
157.856
231.233
303.933
373.048
440.661
507.324
568.357
614.811
631.311
603.59
528.09
409.012
257.471
90.285
-78.873
-237.18
-369.907
-467.584
-525.566
-544.622
-533.569
-502.364
-458.217
-407.808
-356.675
-309.059
-269.264
-238.451
-213.548
-191.951
-172.386
-155.303
-143.764
-139.209
-140.474
-145.393
-150.633
-153.615
-153.259
-149.274
-142.094
-132.478
-121.22
-109.169
-97.255
-86.415
-77.491
-70.941
-66.789
-64.796
-64.543
-65.588
-67.548
-70.026
-72.58
-74.882
-76.728
-77.984
-78.632
-78.689
-78.132
-76.972
-75.241
-72.965
-70.204
-67.039
-63.539
-59.781
-55.849
-51.811
-47.762
-43.818
-40.069
-36.592
-33.44
-30.631
-28.187
-26.128
-24.454
-23.15
-22.187
-21.519
-21.107
-20.918
-20.915
-21.054
-21.283
-21.54
-21.775
-21.951
-22.032
-21.994
-21.812
-21.458
-20.919
-20.184
-19.245
-18.095
-16.72
-15.104
-13.232
-11.093
-8.676
-5.972
-2.973
0.331
3.946
7.878
12.129
16.699
21.588
26.799
32.334
38.199
44.392
50.9
57.705
64.78
72.091
79.603
87.281
95.08
102.964
110.905
118.884
126.899
134.949
143.02
151.087
159.112
167.056
174.901
182.632
190.237
197.723
205.09
212.346
219.523
226.632
233.652
240.543
247.22
253.587
259.576
265.132
270.217
274.805
278.85
282.304
285.134
287.288
288.716
289.357
289.119
287.933
285.787
282.696
278.733
274
268.569
262.504
255.866
248.702
241.07
233.03
224.62
215.892
206.908
197.745
188.516
179.317
170.203
161.205
152.32
143.518
134.789
126.134
117.544
109.027
100.594
92.254
84.041
75.988
68.11
60.415
52.891
45.526
38.328
31.314
24.511
17.957
11.68
5.703
0.054
-5.249
-10.197
-14.784
-19.018
-22.913
-26.48
-29.722
-32.646
-35.253
-37.552
-39.555
-41.275
-42.728
-43.931
-44.899
-45.654
-46.214
-46.596
-46.815
-46.883
-46.812
-46.614
-46.302
-45.886
-45.381
-44.798
-44.15
-43.448
-42.706
-41.935
-41.143
-40.341
-39.535
-38.733
-37.941
-37.164
-36.406
-35.671
-34.963
-34.283
-33.635
-33.02
-32.438
-31.889
-31.375
-30.894
-30.445
-30.026
-29.637
-29.275
-28.939
-28.627
-28.336
-28.065
-27.813
-27.576
-27.353
-27.143
-26.942
-26.75
-26.564
-26.382
-26.203
-26.027
-25.853
-25.68
-25.509
-25.341
-25.177
-25.017
-24.862
-24.715
-24.577
-24.449
-24.333
-24.233
-24.15
-24.089
-24.051
-24.039
-24.057
-24.107
-24.193
-24.318
-24.482
-24.688
-24.94
-25.241
-25.592
-25.998
-26.458
-26.971
-27.541
-28.171
-28.854
-29.582
-30.348
-31.143
-31.969
-32.837
-33.732
-34.637
-35.573
-36.555
-37.59
-38.695
-39.844
-40.988
-42.143
-43.337
-44.458
-45.376
-46.154
-46.776
-47.21
-47.71
-47.557
-46.055
-44.179
-42.22
-41.979
-45.613
-50.72
-55.697
-58.163
-54.848
-48.639
-41.985
-36.564
-35.153
-35.77
-36.412
-36.638
-35.228
-32.902
-30.585
-28.115
-25.619
-23.052
-20.243
-17.33
-14.431
-11.532
-8.647
-5.809
-3.036
-0.344
2.25
4.741
7.132
9.393
11.498
13.43
15.17
16.697
17.996
19.049
19.841
20.361
20.599
20.551
20.217
19.597
18.694
17.508
16.03
14.259
12.199
9.857
7.246
4.384
1.293
-1.996
-5.439
-8.993
-12.619
-16.28
-19.953
-23.61
-27.213
-30.723
-34.085
-37.245
-40.171
-42.826
-45.184
-47.244
-49.018
-50.543
-51.894
-53.126
-54.288
-55.448
-56.659
-57.988
-59.527
-61.336
-63.507
-66.188
-69.436
-73.243
-77.503
-81.888
-86.025
-89.601
-92.189
-93.325
-92.759
-90.381
-86.422
-81.663
-76.951
-73.005
-70.585
-70.303
-72.4
-76.822
-82.863
-88.838
-92.676
-92.252
-85.361
-69.919
-44.188
-6.795
43.045
104.125
173.167
246.33
319.105
388.658
455.496
519.611
578.887
627.433
654.07
646.164
594.953
498.293
360.45
194.878
20.337
-145.068
-281.992
-379.705
-439.972
-467.983
-474.527
-468.955
-450.541
-419.917
-379.676
-331.965
-285.503
-245.614
-210.92
-181.343
-154.476
-129.696
-110.758
-98.992
-94.446
-96.16
-100.973
-106.435
-110.986
-113.201
-112.676
-109.599
-104.271
-97.325
-89.492
-81.494
-74.165
-68.385
-64.627
-62.892
-62.955
-64.375
-66.674
-69.492
-72.425
-75.004
-76.93
-78.051
-78.313
-77.786
-76.55
-74.631
-72.099
-69.044
-65.545
-61.706
-57.637
-53.435
-49.227
-45.12
-41.188
-37.504
-34.129
-31.102
-28.453
-26.189
-24.293
-22.755
-21.566
-20.709
-20.165
-19.896
-19.853
-19.984
-20.23
-20.541
-20.878
-21.199
-21.472
-21.668
-21.762
-21.738
-21.587
-21.295
-20.843
-20.217
-19.4
-18.377
-17.139
-15.677
-13.982
-12.045
-9.854
-7.397
-4.663
-1.644
1.67
5.287
9.215
13.459
18.021
22.895
28.077
33.564
39.353
45.448
51.843
58.518
65.45
72.608
79.961
87.481
95.134
102.873
110.667
118.486
126.316
134.164
142.017
149.855
157.643
165.334
172.894
180.311
187.573
194.675
201.61
208.369
214.96
221.417
227.741
233.904
239.849
245.475
250.711
255.51
259.839
263.682
267.011
269.777
271.945
273.485
274.362
274.545
273.975
272.559
270.258
267.078
263.067
258.329
252.944
246.957
240.422
233.382
225.886
217.999
209.767
201.218
192.402
183.374
174.216
165.045
155.936
146.927
138.028
129.21
120.463
111.801
103.226
94.745
86.365
78.094
69.955
61.991
54.227
46.678
39.343
32.199
25.243
18.49
11.96
5.686
-0.306
-6.003
-11.385
-16.434
-21.137
-25.489
-29.494
-33.172
-36.534
-39.587
-42.339
-44.79
-46.949
-48.828
-50.44
-51.8
-52.923
-53.824
-54.522
-55.037
-55.386
-55.585
-55.648
-55.585
-55.409
-55.131
-54.764
-54.319
-53.808
-53.241
-52.629
-51.982
-51.312
-50.625
-49.931
-49.235
-48.542
-47.859
-47.19
-46.537
-45.904
-45.293
-44.706
-44.145
-43.611
-43.104
-42.625
-42.174
-41.751
-41.356
-40.987
-40.643
-40.322
-40.025
-39.748
-39.491
-39.253
-39.031
-38.825
-38.634
-38.457
-38.293
-38.142
-38.003
-37.875
-37.758
-37.652
-37.558
-37.477
-37.41
-37.357
-37.322
-37.307
-37.312
-37.342
-37.397
-37.48
-37.595
-37.742
-37.925
-38.144
-38.404
-38.704
-39.048
-39.436
-39.871
-40.353
-40.884
-41.464
-42.094
-42.774
-43.502
-44.28
-45.104
-45.975
-46.889
-47.844
-48.837
-49.865
-50.922
-52.006
-53.109
-54.226
-55.349
-56.473
-57.588
-58.687
-59.76
-60.798
-61.792
-62.733
-63.612
-64.419
-65.146
-65.783
-66.322
-66.754
-67.072
-67.266
-67.331
-67.258
-67.043
-66.679
-66.163
-65.491
-64.66
-63.668
-62.515
-61.2
-59.725
-58.093
-56.307
-54.372
-52.295
-50.085
-47.75
-45.303
-42.756
-40.125
-37.427
-34.68
-31.901
-29.11
-26.327
-23.571
-20.864
-18.223
-15.667
-13.217
-10.889
-8.706
-6.686
-4.848
-3.21
-1.789
-0.6
0.343
1.028
1.45
1.602
1.481
1.079
0.386
-0.606
-1.898
-3.488
-5.369
-7.529
-9.949
-12.599
-15.436
-18.417
-21.497
-24.638
-27.806
-30.969
-34.089
-37.12
-40.012
-42.718
-45.2
-47.432
-49.386
-51.055
-52.459
-53.645
-54.693
-55.692
-56.714
-57.835
-59.13
-60.677
-62.564
-64.887
-67.711
-71.116
-75.196
-79.954
-85.35
-91.236
-97.29
-103.158
-108.475
-112.792
-115.671
-116.83
-116.067
-113.477
-109.565
-104.796
-99.71
-94.883
-90.649
-87.327
-85.23
-84.04
-82.75
-79.479
-71.286
-55.69
-31.595
-0.504
34.568
71.847
111.963
160.542
223.447
302.587
395.461
491.403
578.717
647.652
688.898
698.737
672.717
606.917
503.104
363.8
199.348
26.073
-139.783
-280.28
-385.055
-451.655
-483.474
-488.052
-469.664
-432.991
-382.51
-325.123
-273.047
-233.5
-208.938
-196.275
-186.295
-174.367
-159.89
-144.728
-133.953
-129.184
-129.147
-131.96
-134.185
-133.716
-130.382
-124.405
-116.575
-107.823
-98.648
-89.58
-81.495
-75.193
-71.079
-69.256
-69.489
-71.319
-74.34
-78.151
-82.265
-86.221
-89.71
-92.535
-94.594
-95.876
-96.373
-96.083
-95.047
-93.323
-90.971
-88.055
-84.653
-80.856
-76.784
-72.578
-68.369
-64.26
-60.329
-56.638
-53.247
-50.2
-47.521
-45.211
-43.262
-41.663
-40.403
-39.465
-38.817
-38.413
-38.202
-38.128
-38.132
-38.164
-38.185
-38.159
-38.057
-37.855
-37.536
-37.088
-36.503
-35.771
-34.879
-33.812
-32.554
-31.094
-29.417
-27.511
-25.366
-22.973
-20.322
-17.406
-14.215
-10.741
-6.981
-2.93
1.421
6.08
11.056
16.357
21.974
27.895
34.101
40.561
47.249
54.134
61.178
68.35
75.626
82.994
90.454
98.011
105.655
113.365
121.106
128.841
136.556
144.237
151.873
159.471
167.033
174.566
182.102
189.652
197.192
204.682
212.038
219.157
225.968
232.414
238.45
244.044
249.145
253.701
257.671
260.999
263.628
265.492
266.492
266.554
265.659
263.814
261.083
257.562
253.318
248.407
242.886
236.796
230.189
223.121
215.626
207.749
199.551
191.104
182.516
173.881
165.253
156.663
148.109
139.559
131.008
122.456
113.896
105.339
96.799
88.288
79.842
71.498
63.275
55.185
47.221
39.375
31.66
24.095
16.712
9.553
2.649
-3.972
-10.279
-16.25
-21.872
-27.137
-32.047
-36.614
-40.844
-44.74
-48.304
-51.535
-54.441
-57.032
-59.318
-61.316
-63.04
-64.506
-65.734
-66.742
-67.547
-68.163
-68.604
-68.88
-69.004
-68.989
-68.847
-68.591
-68.233
-67.787
-67.263
-66.676
-66.036
-65.352
-64.633
-63.888
-63.124
-62.346
-61.561
-60.773
-59.986
-59.203
-58.428
-57.662
-56.906
-56.162
-55.43
-54.71
-54.002
-53.306
-52.62
-51.946
-51.281
-50.625
-49.977
-49.337
-48.705
-48.079
-47.459
-46.845
-46.237
-45.634
-45.037
-44.446
-43.86
-43.28
-42.707
-42.142
-41.585
-41.039
-40.504
-39.982
-39.476
-38.987
-38.519
-38.073
-37.653
-37.262
-36.901
-36.573
-36.281
-36.027
-35.812
-35.639
-35.507
-35.42
-35.378
-35.381
-35.431
-35.527
-35.67
-35.86
-36.095
-36.376
-36.701
-37.069
-37.479
-37.93
-38.418
-38.944
-39.504
-40.096
-40.717
-41.364
-42.033
-42.719
-43.42
-44.128
-44.84
-45.55
-46.253
-46.943
-47.614
-48.262
-48.88
-49.462
-50.004
-50.499
-50.941
-51.325
-51.645
-51.894
-52.07
-52.166
-52.178
-52.101
-51.932
-51.665
-51.299
-50.828
-50.25
-49.562
-48.761
-47.845
-46.814
-45.668
-44.406
-43.031
-41.544
-39.95
-38.252
-36.455
-34.566
-32.591
-30.537
-28.414
-26.231
-23.998
-21.727
-19.43
-17.123
-14.821
-12.537
-10.29
-8.094
-5.966
-3.922
-1.978
-0.149
1.552
3.11
4.512
5.74
6.78
7.617
8.24
8.636
8.797
8.712
8.374
7.784
6.944
5.854
4.511
2.909
1.042
-1.086
-3.467
-6.09
-8.938
-11.992
-15.224
-18.59
-22.048
-25.558
-29.081
-32.594
-36.073
-39.475
-42.758
-45.869
-48.755
-51.391
-53.755
-55.819
-57.582
-59.06
-60.293
-61.358
-62.329
-63.267
-64.24
-65.311
-66.55
-68.053
-69.894
-72.171
-75.016
-78.456
-82.467
-86.958
-91.663
-96.293
-100.577
-104.079
-106.347
-107.155
-106.336
-103.978
-100.64
-96.786
-92.88
-89.637
-87.499
-86.568
-87.07
-88.758
-90.391
-90.827
-87.927
-78.272
-60.466
-34.015
0.669
40.52
85.435
137.664
198.486
270.151
350.635
433.801
514.632
586.78
643.797
679.594
684.091
647.351
564.696
436.43
273.266
94.319
-80.544
-230.809
-343.465
-416.226
-452.621
-461.799
-451.618
-425.426
-385.671
-335.69
-282.466
-234.745
-198.51
-174.356
-157.438
-142.522
-127.337
-113.006
-103.395
-100.757
-104.461
-112.265
-120.692
-127.223
-130.818
-131.204
-128.844
-124.358
-118.305
-111.368
-104.306
-97.874
-92.761
-89.265
-87.308
-86.647
-86.905
-87.707
-88.755
-89.729
-90.301
-90.286
-89.603
-88.22
-86.194
-83.582
-80.427
-76.817
-72.873
-68.714
-64.457
-60.204
-56.033
-52.018
-48.215
-44.659
-41.377
-38.38
-35.682
-33.307
-31.267
-29.565
-28.197
-27.147
-26.386
-25.874
-25.566
-25.413
-25.372
-25.408
-25.491
-25.597
-25.706
-25.806
-25.882
-25.913
-25.881
-25.765
-25.543
-25.195
-24.705
-24.055
-23.23
-22.218
-21.005
-19.576
-17.919
-16.018
-13.861
-11.432
-8.718
-5.708
-2.394
1.23
5.169
9.424
13.994
18.878
24.07
29.565
35.355
41.431
47.782
54.395
61.256
68.348
75.652
83.15
90.819
98.636
106.577
114.615
122.724
130.873
139.034
147.177
155.269
163.278
171.173
178.92
186.486
193.84
200.949
207.78
214.302
220.485
226.301
231.721
236.72
241.272
245.355
248.948
252.033
254.592
256.611
258.078
258.982
259.316
259.074
258.256
256.861
254.891
252.353
249.256
245.609
241.428
236.727
231.527
225.847
219.712
213.147
206.18
198.84
191.157
183.164
174.895
166.384
157.665
148.775
139.749
130.622
121.431
112.211
102.995
93.819
84.715
75.714
66.848
58.145
49.634
41.339
33.285
25.495
17.989
10.786
3.901
-2.651
-8.858
-14.71
-20.199
-25.32
-30.071
-34.448
-38.454
-42.091
-45.364
-48.279
-50.843
-53.066
-54.958
-56.532
-57.8
-58.776
-59.475
-59.91
-60.099
-60.057
-59.8
-59.344
-58.707
-57.903
-56.95
-55.863
-54.658
-53.351
-51.956
-50.488
-48.961
-47.389
-45.783
-44.157
-42.521
-40.886
-39.26
-37.654
-36.074
-34.528
-33.021
-31.56
-30.149
-28.792
-27.493
-26.253
-25.076
-23.963
-22.914
-21.931
-21.014
-20.162
-19.375
-18.653
-17.995
-17.4
-16.865
-16.391
-15.974
-15.613
-15.306
-15.049
-14.841
-14.678
-14.558
-14.479
-14.437
-14.431
-14.459
-14.519
-14.609
-14.727
-14.873
-15.045
-15.242
-15.463
-15.708
-15.976
-16.268
-16.584
-16.924
-17.289
-17.679
-18.094
-18.535
-19.002
-19.495
-20.013
-20.556
-21.124
-21.718
-22.339
-22.987
-23.661
-24.359
-25.081
-25.826
-26.594
-27.382
-28.186
-29.003
-29.83
-30.664
-31.504
-32.347
-33.186
-34.014
-34.826
-35.615
-36.379
-37.114
-37.814
-38.47
-39.072
-39.61
-40.079
-40.473
-40.782
-40.994
-41.09
-41.054
-40.877
-40.552
-40.077
-39.442
-38.62
-37.585
-36.311
-34.79
-33.043
-31.081
-28.909
-26.518
-23.879
-21.015
-18.018
-14.903
-11.608
-8.054
-4.11
0.225
4.74
9.323
13.999
18.64
23.063
27.019
30.016
31.856
32.821
33.115
32.919
32.643
32.565
33.06
34.908
38.536
43.815
50.577
58.325
66.266
73.952
80.859
86.109
89.099
89.525
87.268
82.804
76.935
70.103
62.736
55.381
48.457
42.41
37.501
33.483
29.851
26.297
22.646
18.799
14.703
10.178
5.11
-0.38
-6.011
-11.529
-16.814
-21.844
-26.635
-31.147
-35.318
-39.151
-42.715
-46.128
-49.463
-52.748
-55.982
-59.182
-62.409
-65.752
-69.313
-73.158
-77.361
-82.045
-87.264
-93.002
-99.101
-105.174
-110.776
-115.527
-118.997
-120.712
-120.416
-118.025
-113.812
-108.638
-103.429
-98.939
-95.95
-95.124
-96.719
-100.637
-106.081
-111.192
-113.73
-111.488
-102.157
-83.463
-53.532
-10.974
44.889
112.515
188.34
268.545
348.504
425.116
498.155
566.197
626.293
672.223
693.543
679.829
623.51
523.078
382.272
211.471
27.566
-151.379
-304.422
-415.771
-482.065
-508.06
-507.456
-494.343
-474.667
-448.571
-412.325
-364.806
-309.684
-254.092
-205.69
-166.657
-136.991
-115.099
-98.015
-86.463
-80.601
-79.368
-82.541
-87.694
-92.538
-96.14
-97.346
-95.997
-92.719
-87.882
-81.946
-75.64
-69.523
-64.198
-60.388
-58.286
-57.67
-58.227
-59.569
-61.342
-63.309
-65.149
-66.418
-66.868
-66.425
-65.107
-63.042
-60.326
-56.993
-53.123
-48.863
-44.359
-39.773
-35.26
-30.89
-26.721
-22.814
-19.218
-15.996
-13.196
-10.823
-8.861
-7.298
-6.124
-5.332
-4.911
-4.817
-4.994
-5.382
-5.914
-6.541
-7.227
-7.931
-8.619
-9.258
-9.818
-10.283
-10.644
-10.886
-10.986
-10.924
-10.674
-10.222
-9.555
-8.658
-7.52
-6.127
-4.466
-2.526
-0.296
2.234
5.077
8.242
11.741
15.58
19.762
24.287
29.155
34.361
39.899
45.759
51.93
58.398
65.149
72.167
79.433
86.927
94.628
102.512
110.555
118.729
127.007
135.359
143.755
152.163
160.551
168.886
177.134
185.262
193.234
201.017
208.578
215.882
222.896
229.587
235.925
241.878
247.418
252.518
257.151
261.295
264.928
268.031
270.587
272.581
274.002
274.84
275.087
274.739
273.794
272.254
270.121
267.403
264.107
260.247
255.836
250.891
245.433
239.482
233.063
226.203
218.928
211.27
203.259
194.928
186.311
177.443
168.359
159.095
149.688
140.174
130.59
120.97
111.351
101.765
92.248
82.83
73.543
64.416
55.477
46.751
38.264
30.036
22.089
14.44
7.105
0.098
-6.569
-12.888
-18.851
-24.454
-29.694
-34.57
-39.084
-43.239
-47.039
-50.492
-53.605
-56.389
-58.852
-61.009
-62.871
-64.452
-65.768
-66.833
-67.663
-68.274
-68.683
-68.906
-68.96
-68.86
-68.622
-68.263
-67.797
-67.24
-66.605
-65.906
-65.156
-64.366
-63.547
-62.71
-61.863
-61.014
-60.171
-59.338
-58.523
-57.729
-56.961
-56.222
-55.514
-54.84
-54.201
-53.598
-53.03
-52.498
-52.001
-51.536
-51.103
-50.699
-50.323
-49.971
-49.642
-49.331
-49.036
-48.754
-48.481
-48.214
-47.949
-47.683
-47.413
-47.138
-46.856
-46.566
-46.266
-45.958
-45.642
-45.317
-44.986
-44.649
-44.306
-43.958
-43.608
-43.255
-42.903
-42.552
-42.205
-41.865
-41.534
-41.216
-40.913
-40.627
-40.363
-40.122
-39.907
-39.724
-39.575
-39.466
-39.4
-39.381
-39.413
-39.497
-39.636
-39.831
-40.083
-40.39
-40.749
-41.159
-41.616
-42.12
-42.666
-43.249
-43.864
-44.505
-45.17
-45.862
-46.582
-47.327
-48.093
-48.873
-49.661
-50.452
-51.236
-52.001
-52.728
-53.4
-54.007
-54.547
-55.016
-55.415
-55.726
-55.915
-55.955
-55.818
-55.5
-55.017
-54.377
-53.587
-52.665
-51.627
-50.524
-49.459
-48.411
-47.268
-45.933
-44.269
-42.288
-40.205
-38.079
-35.817
-33.526
-31.416
-29.736
-28.879
-28.793
-28.903
-28.89
-28.658
-27.978
-26.656
-24.372
-20.538
-15.179
-8.969
-2.379
4.267
10.639
16.59
21.79
25.614
27.887
28.877
28.743
27.648
25.714
22.883
19.239
15.058
10.428
5.304
-0.281
-6.33
-12.798
-19.536
-26.447
-33.454
-40.412
-47.148
-53.524
-59.42
-64.753
-69.483
-73.547
-76.9
-79.537
-81.497
-82.859
-83.685
-84.03
-83.942
-83.499
-82.835
-82.107
-81.478
-81.088
-81.061
-81.505
-82.556
-84.405
-87.154
-90.813
-95.26
-100.187
-105.29
-110.322
-114.945
-118.711
-121.258
-122.314
-121.923
-120.671
-119.154
-117.866
-117.39
-118.179
-120.542
-124.691
-130.177
-135.565
-139.172
-139.127
-133.405
-120.163
-97.424
-63.304
-16.668
41.72
109.352
183.166
259.404
335.827
411.755
485.1
552.886
608.722
642.546
644.179
604.568
520.534
395.269
238.802
67.206
-103.674
-257.176
-381.281
-471.596
-526.585
-551.114
-551.148
-529.146
-488.62
-432.56
-365.865
-298.625
-240.102
-195.922
-167.226
-148.968
-135.569
-124.265
-114.911
-110.24
-111.844
-118.612
-127.792
-135.609
-139.557
-139.111
-134.74
-127.427
-118.148
-107.708
-97.106
-87.48
-79.803
-74.552
-71.702
-70.94
-71.795
-73.785
-76.454
-79.306
-81.875
-83.873
-85.148
-85.656
-85.442
-84.55
-83.011
-80.883
-78.233
-75.121
-71.621
-67.82
-63.803
-59.685
-55.584
-51.59
-47.777
-44.212
-40.947
-38.026
-35.472
-33.288
-31.463
-29.99
-28.859
-28.051
-27.536
-27.27
-27.207
-27.291
-27.467
-27.688
-27.914
-28.109
-28.243
-28.292
-28.233
-28.052
-27.738
-27.276
-26.648
-25.837
-24.828
-23.608
-22.168
-20.5
-18.595
-16.447
-14.049
-11.394
-8.473
-5.276
-1.792
1.989
6.073
10.464
15.161
20.163
25.465
31.059
36.932
43.072
49.467
56.107
62.99
70.104
77.424
84.924
92.566
100.315
108.139
116.001
123.852
131.656
139.384
147.021
154.57
162.02
169.349
176.525
183.5
190.24
196.736
202.977
208.957
214.678
220.129
225.326
230.306
235.076
239.617
243.877
247.763
251.212
254.187
256.66
258.627
260.067
260.939
261.217
260.88
259.9
258.254
255.89
252.723
248.72
243.894
238.297
232.04
225.206
217.848
210.022
201.775
193.161
184.249
175.087
165.707
156.158
146.498
136.81
127.211
117.774
108.536
99.506
90.651
81.958
73.436
65.086
56.907
48.903
41.075
33.44
26.037
18.885
11.993
5.355
-1.057
-7.251
-13.216
-18.938
-24.386
-29.54
-34.389
-38.921
-43.117
-46.972
-50.483
-53.657
-56.518
-59.08
-61.354
-63.349
-65.068
-66.522
-67.726
-68.693
-69.44
-69.983
-70.338
-70.523
-70.557
-70.459
-70.244
-69.923
-69.508
-69.009
-68.439
-67.808
-67.129
-66.411
-65.666
-64.905
-64.138
-63.376
-62.626
-61.896
-61.193
-60.522
-59.887
-59.292
-58.741
-58.234
-57.775
-57.363
-56.998
-56.681
-56.411
-56.186
-56.005
-55.866
-55.766
-55.704
-55.676
-55.679
-55.711
-55.769
-55.849
-55.948
-56.063
-56.19
-56.326
-56.469
-56.614
-56.758
-56.898
-57.031
-57.155
-57.266
-57.363
-57.446
-57.511
-57.56
-57.593
-57.609
-57.611
-57.599
-57.576
-57.545
-57.506
-57.463
-57.419
-57.377
-57.339
-57.308
-57.288
-57.281
-57.29
-57.319
-57.368
-57.442
-57.542
-57.67
-57.828
-58.018
-58.241
-58.498
-58.788
-59.113
-59.472
-59.863
-60.286
-60.738
-61.215
-61.715
-62.233
-62.764
-63.302
-63.841
-64.372
-64.889
-65.384
-65.849
-66.275
-66.653
-66.975
-67.234
-67.421
-67.53
-67.555
-67.486
-67.316
-67.038
-66.645
-66.132
-65.496
-64.731
-63.834
-62.804
-61.644
-60.356
-58.943
-57.407
-55.75
-53.973
-52.083
-50.093
-48.016
-45.87
-43.671
-41.436
-39.186
-36.943
-34.728
-32.558
-30.448
-28.408
-26.451
-24.595
-22.864
-21.285
-19.879
-18.652
-17.597
-16.704
-15.974
-15.428
-15.093
-14.986
-15.105
-15.434
-15.99
-16.837
-17.999
-19.414
-20.92
-22.334
-23.605
-24.855
-26.246
-27.8
-29.543
-31.627
-34.409
-38.341
-43.591
-49.856
-56.586
-63.404
-70.026
-76.111
-81.118
-84.329
-85.362
-84.472
-82.341
-79.548
-76.504
-73.566
-71.167
-69.927
-70.258
-72.104
-75.068
-78.821
-83.199
-88.118
-93.507
-99.191
-104.991
-110.862
-116.77
-122.458
-127.554
-131.681
-134.425
-135.41
-134.375
-131.124
-125.785
-119.012
-111.468
-103.66
-96.202
-89.597
-84.186
-80.369
-77.034
-71.42
-61.355
-44.713
-21.827
3.781
31.527
62.303
99.549
150.868
218.165
299.42
390.308
480.992
564.142
632.538
676.387
686.042
651.106
566.43
433.945
265.893
84.126
-89.182
-232.056
-331.62
-389.696
-414.548
-419.317
-415.198
-403.339
-380.079
-343.662
-295.603
-242.974
-196.56
-161.213
-136.212
-119.561
-106.754
-96.4
-90.9
-90.672
-95.605
-104.476
-113.834
-121.356
-125.885
-126.795
-124.525
-119.767
-113.053
-105.079
-96.67
-88.585
-81.552
-75.967
-71.8
-68.85
-66.798
-65.294
-64.055
-62.792
-61.198
-59.132
-56.575
-53.55
-50.162
-46.493
-42.572
-38.488
-34.332
-30.158
-26.034
-22.008
-18.114
-14.414
-10.96
-7.772
-4.867
-2.249
0.094
2.157
3.947
5.48
6.76
7.808
8.646
9.286
9.753
10.075
10.275
10.388
10.447
10.472
10.487
10.513
10.567
10.671
10.847
11.112
11.488
11.996
12.654
13.487
14.513
15.752
17.223
18.94
20.918
23.173
25.716
28.558
31.71
35.18
38.973
43.094
47.547
52.332
57.447
62.888
68.65
74.725
81.102
87.769
94.713
101.917
109.362
117.03
124.898
132.942
141.137
149.457
157.873
166.356
174.873
183.394
191.885
200.312
208.642
216.84
224.871
232.702
240.298
247.627
254.656
261.353
267.688
273.631
279.154
284.232
288.839
292.953
296.554
299.624
302.147
304.11
305.501
306.313
306.539
306.176
305.223
303.682
301.558
298.859
295.593
291.775
287.419
282.544
277.168
271.315
265.008
258.274
251.141
243.637
235.795
227.645
219.22
210.555
201.682
192.637
183.454
174.167
164.809
155.414
146.013
136.639
127.321
118.089
108.97
99.991
91.177
82.551
74.134
65.948
58.008
50.332
42.933
35.824
29.014
22.511
16.322
10.451
4.899
-0.331
-5.243
-9.838
-14.121
-18.099
-21.778
-25.167
-28.276
-31.115
-33.695
-36.03
-38.13
-40.009
-41.679
-43.154
-44.447
-45.57
-46.539
-47.364
-48.059
-48.637
-49.109
-49.487
-49.782
-50.005
-50.167
-50.275
-50.34
-50.37
-50.372
-50.354
-50.321
-50.28
-50.236
-50.193
-50.153
-50.12
-50.097
-50.087
-50.091
-50.111
-50.148
-50.198
-50.266
-50.356
-50.459
-50.57
-50.683
-50.792
-50.901
-51.023
-51.146
-51.26
-51.389
-51.551
-51.76
-52.04
-52.37
-52.712
-53.085
-53.529
-53.942
-54.202
-54.381
-54.474
-54.457
-54.591
-54.176
-52.534
-50.637
-48.781
-48.755
-52.698
-58.246
-63.822
-67.079
-64.794
-59.822
-54.585
-50.742
-51.037
-53.512
-56.184
-58.615
-59.596
-59.832
-60.228
-60.613
-61.105
-61.645
-62.05
-62.442
-62.918
-63.445
-64.017
-64.644
-65.323
-66.046
-66.806
-67.583
-68.354
-69.123
-69.895
-70.662
-71.419
-72.161
-72.879
-73.571
-74.231
-74.85
-75.42
-75.932
-76.378
-76.748
-77.035
-77.23
-77.325
-77.31
-77.177
-76.918
-76.525
-75.991
-75.309
-74.473
-73.478
-72.317
-70.989
-69.49
-67.82
-65.976
-63.961
-61.776
-59.424
-56.91
-54.239
-51.418
-48.456
-45.362
-42.146
-38.82
-35.399
-31.899
-28.34
-24.741
-21.122
-17.505
-13.912
-10.367
-6.892
-3.51
-0.24
2.899
5.885
8.695
11.305
13.693
15.839
17.729
19.347
20.681
21.716
22.443
22.859
22.961
22.747
22.207
21.328
20.097
18.519
16.6
14.357
11.817
8.998
5.923
2.628
-0.854
-4.478
-8.177
-11.908
-15.633
-19.301
-22.883
-26.301
-29.424
-32.251
-34.858
-37.315
-39.755
-42.186
-44.451
-46.58
-48.753
-50.937
-52.99
-54.714
-55.773
-56.271
-56.796
-57.687
-59.029
-61.058
-64.055
-68.382
-74.572
-82.42
-90.884
-99.127
-106.567
-112.587
-116.616
-118.008
-115.982
-110.601
-102.859
-93.528
-83.288
-72.855
-62.808
-54.025
-46.505
-38.389
-27.591
-12.222
6.978
26.222
44.601
63.938
90.32
133.682
197.568
279.579
373.048
466.713
553.233
628.581
686.111
718.708
717.92
674.856
589.648
469.03
322.202
162.796
0.937
-153.593
-288.464
-395.274
-465.913
-498.648
-498.17
-468.583
-418.744
-356.082
-287.965
-226.639
-178.287
-145.837
-128.246
-116.796
-106.723
-96.576
-86.827
-82.237
-84.432
-91.791
-101.857
-110.641
-115.694
-116.748
-114.163
-108.838
-101.723
-93.516
-85.076
-77.415
-71.424
-67.529
-65.691
-65.609
-66.789
-68.762
-71.157
-73.575
-75.629
-77.098
-77.864
-77.874
-77.184
-75.854
-73.915
-71.427
-68.455
-65.058
-61.333
-57.403
-53.401
-49.447
-45.627
-41.989
-38.578
-35.432
-32.59
-30.087
-27.927
-26.103
-24.613
-23.457
-22.635
-22.135
-21.917
-21.921
-22.079
-22.338
-22.657
-23.003
-23.345
-23.652
-23.899
-24.067
-24.146
-24.123
-23.98
-23.693
-23.238
-22.594
-21.745
-20.682
-19.392
-17.863
-16.083
-14.04
-11.724
-9.125
-6.234
-3.039
0.472
4.304
8.462
12.946
17.755
22.885
28.332
34.086
40.138
46.475
53.086
59.954
67.063
74.397
81.935
89.655
97.535
105.551
113.676
121.884
130.147
138.433
146.714
154.959
163.134
171.207
179.146
186.917
194.488
201.827
208.901
215.679
222.129
228.223
233.931
239.228
244.087
248.485
252.399
255.81
258.699
261.05
262.849
264.084
264.745
264.826
264.321
263.228
261.548
259.283
256.438
253.022
249.045
244.52
239.464
233.895
227.833
221.302
214.327
206.936
199.157
191.021
182.56
173.808
164.798
155.565
146.145
136.574
126.887
117.12
107.311
97.493
87.703
77.975
68.34
58.833
49.483
40.321
31.374
22.668
14.229
6.078
-1.762
-9.274
-16.442
-23.249
-29.686
-35.741
-41.409
-46.683
-51.561
-56.042
-60.129
-63.825
-67.135
-70.066
-72.626
-74.827
-76.68
-78.198
-79.395
-80.286
-80.887
-81.216
-81.29
-81.128
-80.746
-80.164
-79.401
-78.475
-77.404
-76.206
-74.899
-73.5
-72.027
-70.494
-68.918
-67.313
-65.692
-64.068
-62.452
-60.855
-59.285
-57.751
-56.261
-54.82
-53.433
-52.106
-50.841
-49.642
-48.509
-47.444
-46.447
-45.518
-44.654
-43.855
-43.119
-42.442
-41.822
-41.255
-40.739
-40.269
-39.842
-39.454
-39.102
-38.781
-38.489
-38.222
-37.977
-37.751
-37.542
-37.347
-37.165
-36.995
-36.835
-36.686
-36.546
-36.417
-36.298
-36.191
-36.097
-36.017
-35.954
-35.908
-35.882
-35.879
-35.901
-35.951
-36.032
-36.146
-36.297
-36.487
-36.72
-36.996
-37.319
-37.69
-38.111
-38.584
-39.109
-39.687
-40.318
-41.002
-41.739
-42.527
-43.365
-44.25
-45.178
-46.148
-47.154
-48.192
-49.258
-50.344
-51.446
-52.557
-53.67
-54.777
-55.872
-56.946
-57.99
-58.997
-59.956
-60.86
-61.7
-62.464
-63.146
-63.736
-64.226
-64.608
-64.874
-65.018
-65.032
-64.91
-64.647
-64.238
-63.679
-62.964
-62.093
-61.063
-59.874
-58.526
-57.02
-55.36
-53.549
-51.592
-49.497
-47.269
-44.918
-42.452
-39.882
-37.222
-34.483
-31.68
-28.828
-25.944
-23.047
-20.156
-17.291
-14.471
-11.716
-9.046
-6.48
-4.038
-1.735
0.413
2.39
4.18
5.766
7.132
8.264
9.151
9.783
10.149
10.243
10.063
9.614
8.901
7.929
6.701
5.21
3.458
1.452
-0.8
-3.285
-5.98
-8.866
-11.908
-15.058
-18.271
-21.505
-24.724
-27.909
-31.03
-34.049
-36.931
-39.62
-42.073
-44.265
-46.156
-47.717
-48.956
-49.887
-50.557
-51.055
-51.427
-51.728
-52.035
-52.405
-52.926
-53.695
-54.758
-56.219
-58.217
-60.806
-63.991
-67.632
-71.337
-74.707
-77.397
-78.946
-78.908
-76.986
-73.035
-67.444
-61.141
-55.119
-50.276
-47.386
-47.103
-49.866
-55.646
-63.429
-71.179
-76.385
-76.502
-69.2
-52.088
-22.939
19.972
76.616
144.337
219.083
296.137
372.416
447.484
521.157
591.699
652.776
693.016
698.427
656.785
563.408
421.591
244.627
52.865
-133.102
-292.663
-412.283
-488.158
-523.214
-527.849
-513.629
-488.713
-457.262
-419.646
-375.066
-324.075
-270.332
-218.696
-173.942
-139.911
-117.352
-105.049
-101.273
-103.554
-109.389
-116.701
-122.991
-125.985
-124.739
-119.175
-109.802
-97.71
-84.06
-69.905
-56.622
-45.547
-37.33
-32.171
-29.885
-29.943
-31.842
-35.125
-39.197
-43.459
-47.493
-50.976
-53.753
-55.814
-57.13
-57.696
-57.532
-56.663
-55.126
-52.981
-50.291
-47.125
-43.573
-39.72
-35.663
-31.509
-27.373
-23.394
-19.673
-16.276
-13.249
-10.61
-8.377
-6.567
-5.171
-4.154
-3.477
-3.096
-2.971
-3.072
-3.357
-3.772
-4.262
-4.762
-5.223
-5.613
-5.9
-6.06
-6.07
-5.909
-5.564
-5.034
-4.312
-3.386
-2.241
-0.859
0.778
2.679
4.853
7.308
10.052
13.095
16.441
20.091
24.048
28.317
32.902
37.819
43.073
48.656
54.557
60.756
67.221
73.926
80.841
87.924
95.143
102.474
109.901
117.425
125.051
132.764
140.544
148.354
156.157
163.936
171.677
179.366
187.009
194.606
202.163
209.709
217.254
224.773
232.222
239.515
246.551
253.258
259.577
265.462
270.882
275.784
280.113
283.83
286.875
289.19
290.708
291.329
290.98
289.641
287.32
284.082
280.023
275.209
269.696
263.543
256.788
249.487
241.694
233.446
224.789
215.786
206.512
197.076
187.574
178.06
168.566
159.092
149.607
140.105
130.59
121.055
111.513
101.98
92.471
83.024
73.676
64.452
55.363
46.404
37.571
28.877
20.346
12.011
3.917
-3.901
-11.415
-18.589
-25.399
-31.832
-37.874
-43.53
-48.809
-53.715
-58.25
-62.415
-66.208
-69.636
-72.707
-75.432
-77.825
-79.9
-81.674
-83.165
-84.392
-85.372
-86.122
-86.655
-86.982
-87.119
-87.078
-86.875
-86.523
-86.039
-85.436
-84.73
-83.937
-83.072
-82.147
-81.176
-80.169
-79.138
-78.093
-77.043
-75.995
-74.958
-73.938
-72.941
-71.973
-71.039
-70.144
-69.291
-68.483
-67.724
-67.014
-66.357
-65.751
-65.198
-64.698
-64.251
-63.858
-63.517
-63.229
-62.993
-62.808
-62.673
-62.586
-62.547
-62.551
-62.599
-62.686
-62.811
-62.973
-63.169
-63.397
-63.656
-63.945
-64.263
-64.607
-64.978
-65.373
-65.791
-66.231
-66.693
-67.174
-67.674
-68.193
-68.729
-69.284
-69.856
-70.445
-71.05
-71.671
-72.306
-72.956
-73.619
-74.295
-74.982
-75.68
-76.387
-77.104
-77.829
-78.561
-79.299
-80.041
-80.786
-81.53
-82.273
-83.01
-83.739
-84.457
-85.162
-85.849
-86.516
-87.158
-87.772
-88.353
-88.898
-89.4
-89.856
-90.259
-90.603
-90.885
-91.099
-91.239
-91.302
-91.283
-91.176
-90.979
-90.688
-90.299
-89.808
-89.212
-88.509
-87.697
-86.776
-85.745
-84.604
-83.355
-82
-80.544
-78.99
-77.344
-75.609
-73.793
-71.903
-69.947
-67.935
-65.876
-63.782
-61.665
-59.542
-57.427
-55.338
-53.289
-51.297
-49.38
-47.554
-45.835
-44.235
-42.767
-41.444
-40.281
-39.293
-38.493
-37.891
-37.498
-37.323
-37.372
-37.653
-38.168
-38.91
-39.876
-41.064
-42.473
-44.114
-45.987
-48.086
-50.403
-52.927
-55.641
-58.527
-61.554
-64.673
-67.841
-71.011
-74.145
-77.22
-80.195
-83.025
-85.666
-88.055
-90.151
-91.932
-93.367
-94.439
-95.156
-95.536
-95.625
-95.506
-95.252
-94.95
-94.699
-94.582
-94.71
-95.174
-96.078
-97.577
-99.735
-102.534
-105.881
-109.515
-113.143
-116.533
-119.341
-121.108
-121.558
-120.504
-118.038
-114.753
-111.169
-107.702
-104.874
-103.104
-102.699
-103.824
-105.944
-107.679
-107.545
-103.905
-95.055
-79.402
-55.078
-20.496
25.06
80.611
143.749
211.773
281.444
350.879
418.987
482.659
538.474
579.729
597.544
586.463
541.642
463.594
357.506
227.076
80.984
-70.225
-214.901
-336.293
-423.229
-473.081
-489.105
-482.123
-461.443
-429.816
-388.948
-339.958
-287.387
-239.388
-201.389
-175.797
-159.384
-148.069
-140.384
-133.598
-128.595
-124.908
-119.079
-112.376
-104.625
-95.876
-88.868
-82.214
-74.788
-66.92
-57.876
-48.891
-41.532
-36.21
-33.262
-32.499
-33.422
-35.707
-39.039
-43.023
-47.215
-51.174
-54.577
-57.224
-59.034
-60.005
-60.136
-59.437
-57.952
-55.749
-52.918
-49.556
-45.761
-41.634
-37.293
-32.866
-28.491
-24.288
-20.353
-16.758
-13.545
-10.738
-8.348
-6.374
-4.8
-3.604
-2.752
-2.206
-1.929
-1.879
-2.003
-2.248
-2.547
-2.848
-3.106
-3.287
-3.36
-3.304
-3.095
-2.718
-2.165
-1.427
-0.492
0.65
2.012
3.605
5.438
7.518
9.853
12.451
15.324
18.481
21.933
25.685
29.744
34.113
38.796
43.791
49.094
54.7
60.607
66.814
73.315
80.099
87.146
94.433
101.926
109.589
117.379
125.251
133.167
141.094
149.011
156.909
164.78
172.616
180.4
188.102
195.695
203.153
210.458
217.597
224.572
231.395
238.09
244.688
251.205
257.636
263.949
270.085
275.972
281.522
286.665
291.351
295.534
299.178
302.242
304.689
306.468
307.517
307.764
307.121
305.526
302.943
299.375
294.868
289.494
283.357
276.548
269.144
261.216
252.823
244.021
234.867
225.423
215.758
205.958
196.13
186.364
176.74
167.304
158.077
149.052
140.201
131.502
122.94
114.51
106.22
98.082
90.114
82.335
74.766
67.415
60.273
53.337
46.599
40.067
33.759
27.7
21.925
16.466
11.35
6.598
2.218
-1.784
-5.412
-8.674
-11.585
-14.159
-16.403
-18.327
-19.939
-21.249
-22.274
-23.03
-23.537
-23.816
-23.888
-23.776
-23.499
-23.076
-22.523
-21.857
-21.089
-20.233
-19.303
-18.313
-17.276
-16.207
-15.119
-14.025
-12.938
-11.868
-10.826
-9.82
-8.858
-7.947
-7.091
-6.295
-5.563
-4.897
-4.299
-3.771
-3.314
-2.927
-2.61
-2.361
-2.178
-2.06
-2.004
-2.005
-2.062
-2.17
-2.325
-2.524
-2.764
-3.04
-3.348
-3.686
-4.049
-4.433
-4.835
-5.251
-5.678
-6.112
-6.552
-6.996
-7.441
-7.888
-8.334
-8.781
-9.228
-9.676
-10.124
-10.574
-11.026
-11.48
-11.94
-12.406
-12.881
-13.367
-13.865
-14.378
-14.909
-15.46
-16.032
-16.627
-17.248
-17.896
-18.573
-19.28
-20.02
-20.793
-21.601
-22.444
-23.321
-24.233
-25.176
-26.149
-27.148
-28.171
-29.212
-30.267
-31.329
-32.395
-33.462
-34.523
-35.574
-36.609
-37.622
-38.609
-39.562
-40.475
-41.335
-42.133
-42.86
-43.509
-44.073
-44.544
-44.916
-45.18
-45.333
-45.372
-45.294
-45.091
-44.75
-44.258
-43.611
-42.816
-41.885
-40.829
-39.655
-38.374
-37.003
-35.565
-34.074
-32.533
-30.927
-29.243
-27.478
-25.643
-23.767
-21.875
-19.983
-18.086
-16.179
-14.266
-12.353
-10.44
-8.507
-6.52
-4.475
-2.404
-0.378
1.53
3.272
4.822
6.172
7.307
8.197
8.803
9.09
9.048
8.665
7.913
6.732
5.047
2.815
0.06
-3.14
-6.714
-10.612
-14.8
-19.25
-23.907
-28.693
-33.539
-38.391
-43.218
-47.989
-52.637
-57.058
-61.144
-64.8
-67.998
-70.761
-73.098
-75.01
-76.513
-77.627
-78.421
-79
-79.439
-79.808
-80.18
-80.624
-81.25
-82.182
-83.547
-85.507
-88.105
-91.289
-94.95
-98.822
-102.604
-106.032
-108.723
-110.232
-110.354
-108.972
-106.233
-102.799
-99.256
-96.188
-94.259
-93.741
-94.815
-97.796
-102.315
-107.156
-110.041
-107.272
-95.724
-74.402
-45.727
-13.941
18.557
53.194
98.145
161.954
247.992
353.487
464.634
566.166
645.999
693.74
707.518
685.034
622.785
522.213
383.398
214.509
32.954
-143.812
-294.209
-403.576
-470.823
-500.943
-507.065
-501.736
-487.855
-463.315
-422.903
-363.517
-291.017
-218.102
-157.703
-118.312
-100.522
-96.8
-98.74
-101.639
-104.287
-108.96
-117.173
-127.227
-136.276
-141.661
-142.322
-138.888
-132.56
-124.563
-115.845
-107.516
-100.763
-96.178
-93.839
-93.423
-94.345
-96.124
-98.421
-100.792
-102.748
-103.983
-104.32
-103.74
-102.359
-100.263
-97.499
-94.136
-90.269
-86.002
-81.475
-76.833
-72.183
-67.621
-63.217
-59.018
-55.077
-51.441
-48.144
-45.205
-42.622
-40.391
-38.509
-36.981
-35.796
-34.925
-34.314
-33.896
-33.617
-33.433
-33.311
-33.221
-33.13
-33.01
-32.842
-32.615
-32.317
-31.933
-31.442
-30.818
-30.04
-29.092
-27.964
-26.643
-25.116
-23.368
-21.387
-19.16
-16.676
-13.924
-10.89
-7.559
-3.921
0.03
4.298
8.885
13.791
19.013
24.548
30.388
36.522
42.942
49.636
56.589
63.786
71.211
78.843
86.663
94.649
102.777
111.021
119.356
127.753
136.185
144.621
153.031
161.383
169.646
177.788
185.775
193.576
201.159
208.49
215.539
222.275
228.667
234.688
240.31
245.508
250.258
254.538
258.329
261.614
264.375
266.601
268.279
269.402
269.961
269.954
269.379
268.236
266.529
264.264
261.45
258.097
254.221
249.835
244.959
239.614
233.822
227.608
221
214.025
206.715
199.1
191.213
183.087
174.757
166.257
157.622
148.886
140.083
131.248
122.412
113.608
104.867
96.219
87.693
79.316
71.113
63.109
55.326
47.784
40.502
33.497
26.784
20.375
14.281
8.511
3.071
-2.035
-6.804
-11.236
-15.333
-19.098
-22.537
-25.655
-28.462
-30.967
-33.18
-35.115
-36.783
-38.197
-39.372
-40.323
-41.063
-41.608
-41.972
-42.17
-42.218
-42.128
-41.916
-41.595
-41.179
-40.679
-40.109
-39.481
-38.805
-38.091
-37.35
-36.591
-35.821
-35.048
-34.278
-33.518
-32.772
-32.043
-31.337
-30.655
-30
-29.373
-28.776
-28.21
-27.675
-27.17
-26.696
-26.253
-25.838
-25.453
-25.094
-24.762
-24.455
-24.172
-23.913
-23.675
-23.458
-23.26
-23.081
-22.919
-22.773
-22.642
-22.525
-22.42
-22.328
-22.249
-22.181
-22.126
-22.084
-22.056
-22.043
-22.044
-22.06
-22.092
-22.14
-22.204
-22.285
-22.381
-22.495
-22.626
-22.775
-22.943
-23.13
-23.338
-23.567
-23.817
-24.089
-24.384
-24.702
-25.044
-25.412
-25.805
-26.227
-26.678
-27.158
-27.669
-28.21
-28.78
-29.378
-30.002
-30.647
-31.31
-31.989
-32.68
-33.381
-34.09
-34.804
-35.524
-36.25
-36.982
-37.717
-38.453
-39.183
-39.901
-40.602
-41.278
-41.921
-42.521
-43.07
-43.56
-43.99
-44.354
-44.644
-44.85
-44.956
-44.95
-44.829
-44.591
-44.238
-43.77
-43.198
-42.541
-41.831
-41.1
-40.366
-39.633
-38.892
-38.139
-37.367
-36.574
-35.756
-34.893
-33.961
-32.942
-31.828
-30.607
-29.256
-27.728
-25.947
-23.855
-21.426
-18.666
-15.604
-12.274
-8.713
-4.978
-1.145
2.68
6.393
9.916
13.19
16.156
18.734
20.813
22.255
22.951
22.839
21.89
20.099
17.462
13.993
9.735
4.786
-0.727
-6.689
-13.011
-19.624
-26.451
-33.381
-40.276
-46.988
-53.397
-59.423
-65.001
-70.068
-74.559
-78.418
-81.626
-84.225
-86.28
-87.841
-88.961
-89.689
-90.1
-90.322
-90.485
-90.713
-91.127
-91.819
-92.892
-94.475
-96.656
-99.53
-103.207
-107.667
-112.832
-118.567
-124.545
-130.412
-135.877
-140.531
-143.937
-145.835
-145.999
-144.466
-141.757
-138.382
-134.719
-131.099
-127.807
-125.164
-123.503
-122.695
-121.016
-115.766
-104.817
-87.191
-64.72
-40.413
-14.508
16.339
58.869
119.028
197.107
286.612
376.867
459.729
531.391
591.302
638.422
665.425
660.655
613.417
518.936
381.315
213.774
34.063
-139.549
-289.849
-405.837
-482.156
-519.883
-524.752
-501.834
-458.852
-402.382
-340.078
-283.755
-239.216
-209.098
-191.904
-179.383
-167.794
-156.353
-145.704
-140.252
-141.141
-146.646
-154.649
-161.525
-164.905
-164.482
-160.494
-153.76
-145.311
-135.864
-126.175
-117.192
-109.806
-104.5
-101.361
-100.198
-100.56
-101.968
-104.012
-106.246
-108.254
-109.795
-110.748
-111.046
-110.703
-109.74
-108.172
-106.052
-103.448
-100.395
-96.942
-93.166
-89.164
-85.08
-81.043
-77.137
-73.416
-69.922
-66.685
-63.747
-61.138
-58.859
-56.901
-55.258
-53.926
-52.905
-52.18
-51.715
-51.45
-51.322
-51.275
-51.269
-51.269
-51.245
-51.168
-51.012
-50.758
-50.397
-49.916
-49.298
-48.52
-47.561
-46.399
-45.022
-43.42
-41.582
-39.499
-37.159
-34.554
-31.675
-28.515
-25.066
-21.319
-17.264
-12.897
-8.216
-3.221
2.085
7.696
13.607
19.807
26.286
33.029
40.022
47.25
54.693
62.334
70.15
78.119
86.217
94.419
102.697
111.024
119.371
127.709
136.006
144.232
152.357
160.347
168.171
175.799
183.198
190.338
197.189
203.719
209.902
215.707
221.11
226.084
230.606
234.653
238.206
241.245
243.756
245.724
247.137
247.987
248.265
247.967
247.093
245.641
243.616
241.022
237.869
234.167
229.928
225.169
219.906
214.16
207.953
201.307
194.249
186.806
179.007
170.881
162.459
153.774
144.859
135.747
126.473
117.07
107.574
98.017
88.436
78.862
69.329
59.869
50.512
41.289
32.226
23.351
14.689
6.261
-1.91
-9.806
-17.41
-24.705
-31.68
-38.321
-44.621
-50.572
-56.169
-61.408
-66.288
-70.808
-74.972
-78.783
-82.246
-85.368
-88.158
-90.624
-92.779
-94.633
-96.2
-97.494
-98.53
-99.323
-99.89
-100.248
-100.412
-100.4
-100.228
-99.913
-99.471
-98.918
-98.27
-97.54
-96.743
-95.893
-95.003
-94.085
-93.15
-92.21
-91.274
-90.35
-89.447
-88.572
-87.732
-86.932
-86.177
-85.47
-84.815
-84.215
-83.672
-83.185
-82.756
-82.384
-82.067
-81.803
-81.591
-81.426
-81.305
-81.225
-81.181
-81.169
-81.185
-81.224
-81.282
-81.354
-81.436
-81.523
-81.611
-81.696
-81.775
-81.844
-81.902
-81.946
-81.973
-81.984
-81.976
-81.95
-81.905
-81.84
-81.755
-81.652
-81.53
-81.391
-81.236
-81.066
-80.883
-80.69
-80.49
-80.284
-80.077
-79.87
-79.668
-79.472
-79.286
-79.112
-78.953
-78.812
-78.691
-78.591
-78.513
-78.458
-78.425
-78.413
-78.416
-78.43
-78.451
-78.473
-78.49
-78.493
-78.478
-78.436
-78.362
-78.249
-78.088
-77.871
-77.588
-77.226
-76.775
-76.22
-75.547
-74.743
-73.79
-72.675
-71.386
-69.91
-68.232
-66.338
-64.208
-61.827
-59.189
-56.289
-53.125
-49.701
-46.026
-42.116
-37.996
-33.693
-29.231
-24.63
-19.905
-15.069
-10.132
-5.107
-0.011
5.152
10.395
15.734
21.194
26.802
32.584
38.58
44.843
51.416
58.328
65.591
73.198
81.13
89.351
97.818
106.476
115.243
124.017
132.674
141.075
149.084
156.572
163.398
169.413
174.484
178.503
181.386
183.082
183.56
182.817
180.872
177.763
173.564
168.371
162.307
155.528
148.179
140.4
132.337
124.142
115.96
107.928
100.159
92.743
85.758
79.261
73.297
67.888
63.029
58.702
54.875
51.506
48.575
46.051
43.878
41.976
40.283
38.767
37.372
35.96
34.297
32.142
29.367
26.063
22.337
18.11
13.41
8.478
3.85
0.35
-1.481
-1.659
-0.336
2.605
7.188
13.244
20.001
25.912
29.781
31.144
29.895
25.942
19.168
9.627
-1.68
-12.488
-20.438
-23.452
-19.757
-7.697
14.711
49.246
96.76
155.967
223.775
296.705
370.697
443
512.608
577.51
635.052
680.018
703.367
695.214
647.201
555.682
423.252
261.124
86.587
-81.513
-223.792
-329.376
-397.062
-431.01
-440.438
-431.354
-405.33
-364.538
-312.86
-258.504
-211.214
-176.418
-153.691
-137.588
-122.429
-106.277
-90.742
-79.72
-75.606
-77.84
-84.11
-90.995
-95.927
-97.702
-95.979
-91.18
-83.887
-74.669
-64.246
-53.48
-43.299
-34.623
-27.979
-23.433
-20.858
-19.957
-20.386
-21.852
-24.015
-26.477
-28.975
-31.352
-33.463
-35.236
-36.626
-37.57
-38.059
-38.124
-37.767
-37.005
-35.877
-34.413
-32.667
-30.689
-28.5
-26.126
-23.612
-21.013
-18.421
-15.936
-13.621
-11.521
-9.672
-8.09
-6.789
-5.768
-4.996
-4.434
-4.048
-3.806
-3.689
-3.678
-3.743
-3.847
-3.946
-3.99
-3.938
-3.759
-3.423
-2.906
-2.188
-1.251
-0.088
1.302
2.928
4.8
6.931
9.336
12.025
15.005
18.281
21.855
25.726
29.894
34.361
39.127
44.2
49.58
55.264
61.244
67.506
74.025
80.767
87.696
94.771
101.957
109.226
116.559
123.949
131.39
138.877
146.398
153.923
161.427
168.888
176.286
183.609
190.86
198.05
205.201
212.344
219.491
226.631
233.731
240.726
247.537
254.07
260.25
266.017
271.319
276.111
280.346
283.977
286.945
289.182
290.607
291.124
290.664
289.184
286.68
283.192
278.785
273.556
267.592
260.964
253.737
245.966
237.701
228.996
219.91
210.507
200.873
191.11
181.31
171.551
161.88
152.317
142.86
133.479
124.156
114.879
105.645
96.465
87.357
78.342
69.443
60.687
52.083
43.632
35.331
27.181
19.193
11.388
3.799
-3.535
-10.578
-17.299
-23.672
-29.683
-35.323
-40.593
-45.497
-50.046
-54.25
-58.114
-61.645
-64.848
-67.732
-70.311
-72.599
-74.615
-76.379
-77.91
-79.229
-80.355
-81.304
-82.093
-82.735
-83.242
-83.627
-83.9
-84.076
-84.167
-84.187
-84.146
-84.058
-83.932
-83.78
-83.61
-83.428
-83.242
-83.054
-82.871
-82.694
-82.527
-82.37
-82.226
-82.094
-81.973
-81.864
-81.764
-81.672
-81.585
-81.502
-81.418
-81.332
-81.242
-81.144
-81.038
-80.921
-80.791
-80.647
-80.488
-80.312
-80.118
-79.906
-79.674
-79.422
-79.152
-78.862
-78.556
-78.236
-77.903
-77.562
-77.215
-76.867
-76.521
-76.18
-75.85
-75.533
-75.235
-74.96
-74.712
-74.496
-74.318
-74.181
-74.09
-74.049
-74.062
-74.13
-74.258
-74.446
-74.697
-75.014
-75.397
-75.848
-76.368
-76.959
-77.619
-78.347
-79.143
-80.001
-80.92
-81.892
-82.911
-83.971
-85.063
-86.18
-87.315
-88.46
-89.608
-90.752
-91.886
-93.002
-94.093
-95.148
-96.157
-97.108
-97.988
-98.784
-99.484
-100.077
-100.552
-100.9
-101.114
-101.188
-101.115
-100.886
-100.491
-99.914
-99.145
-98.178
-97.014
-95.657
-94.123
-92.432
-90.607
-88.677
-86.661
-84.575
-82.42
-80.19
-77.874
-75.46
-72.95
-70.356
-67.69
-64.964
-62.18
-59.338
-56.425
-53.417
-50.282
-46.978
-43.485
-39.8
-35.951
-31.996
-28.006
-24.067
-20.25
-16.607
-13.186
-10.03
-7.182
-4.685
-2.596
-0.981
0.079
0.489
0.184
-0.875
-2.684
-5.204
-8.374
-12.106
-16.319
-20.945
-25.92
-31.193
-36.714
-42.43
-48.271
-54.153
-59.97
-65.605
-70.961
-75.961
-80.547
-84.69
-88.368
-91.587
-94.357
-96.689
-98.593
-100.072
-101.134
-101.795
-102.098
-102.109
-101.918
-101.637
-101.368
-101.223
-101.289
-101.671
-102.518
-103.903
-105.831
-108.225
-110.851
-113.454
-115.824
-117.659
-118.568
-118.298
-116.669
-113.762
-110.177
-106.508
-103.317
-101.277
-100.863
-102.353
-105.946
-111.22
-116.835
-121.256
-122.567
-118.614
-107.776
-88.314
-58.445
-17.28
35.255
97.903
167.273
239.39
310.278
376.689
437.597
492.293
539.012
573.145
586.511
569.085
512.276
413.551
276.872
114.092
-57.752
-221.159
-359.907
-464.274
-530.409
-560.665
-561.007
-535.737
-491.823
-435.391
-373.78
-318.855
-276.387
-248.217
-232.104
-219.398
-206.003
-191.523
-177.221
-167.634
-164.076
-164.834
-167.672
-169.179
-167.262
-161.744
-153.005
-141.924
-129.482
-116.396
-103.44
-91.531
-81.539
-73.94
-68.826
-66.03
-65.17
-65.844
-67.695
-70.319
-73.277
-76.262
-79.041
-81.398
-83.249
-84.543
-85.231
-85.322
-84.841
-83.79
-82.197
-80.122
-77.62
-74.771
-71.655
-68.317
-64.823
-61.255
-57.707
-54.31
-51.156
-48.294
-45.76
-43.569
-41.734
-40.263
-39.139
-38.314
-37.741
-37.377
-37.186
-37.143
-37.213
-37.348
-37.497
-37.6
-37.611
-37.497
-37.227
-36.771
-36.105
-35.206
-34.062
-32.669
-31.021
-29.105
-26.91
-24.42
-21.625
-18.52
-15.098
-11.354
-7.284
-2.886
1.838
6.892
12.275
17.988
24.031
30.396
37.067
44.032
51.277
58.781
66.525
74.483
82.623
90.93
99.384
107.967
116.662
125.435
134.251
143.078
151.878
160.63
169.316
177.9
186.35
194.645
202.756
210.67
218.377
225.822
232.954
239.73
246.097
252.034
257.52
262.524
267.02
270.978
274.363
277.165
279.372
280.953
281.886
282.14
281.681
280.536
278.735
276.297
273.253
269.613
265.385
260.601
255.291
249.478
243.195
236.463
229.3
221.758
213.882
205.723
197.342
188.752
179.967
171.017
161.923
152.72
143.447
134.124
124.775
115.437
106.144
96.933
87.842
78.889
70.093
61.473
53.041
44.83
36.868
29.176
21.773
14.677
7.9
1.457
-4.635
-10.375
-15.764
-20.802
-25.493
-29.836
-33.833
-37.489
-40.811
-43.807
-46.49
-48.87
-50.958
-52.77
-54.319
-55.621
-56.693
-57.549
-58.201
-58.666
-58.957
-59.09
-59.079
-58.94
-58.684
-58.328
-57.884
-57.364
-56.781
-56.146
-55.469
-54.758
-54.023
-53.27
-52.506
-51.737
-50.969
-50.205
-49.449
-48.704
-47.973
-47.256
-46.556
-45.872
-45.205
-44.555
-43.921
-43.303
-42.699
-42.109
-41.53
-40.962
-40.404
-39.853
-39.307
-38.767
-38.229
-37.693
-37.157
-36.62
-36.081
-35.54
-34.996
-34.451
-33.903
-33.355
-32.808
-32.263
-31.721
-31.186
-30.66
-30.145
-29.645
-29.161
-28.698
-28.259
-27.846
-27.463
-27.114
-26.802
-26.529
-26.299
-26.116
-25.981
-25.898
-25.87
-25.899
-25.987
-26.137
-26.349
-26.627
-26.97
-27.38
-27.856
-28.399
-29.007
-29.679
-30.413
-31.205
-32.053
-32.951
-33.896
-34.883
-35.904
-36.954
-38.025
-39.112
-40.205
-41.298
-42.381
-43.446
-44.484
-45.486
-46.443
-47.345
-48.183
-48.947
-49.627
-50.215
-50.701
-51.077
-51.335
-51.466
-51.462
-51.317
-51.025
-50.579
-49.975
-49.209
-48.279
-47.183
-45.922
-44.496
-42.908
-41.161
-39.26
-37.213
-35.025
-32.706
-30.264
-27.713
-25.063
-22.328
-19.523
-16.664
-13.767
-10.853
-7.939
-5.047
-2.197
0.59
3.293
5.891
8.362
10.69
12.854
14.838
16.624
18.192
19.527
20.612
21.435
21.982
22.246
22.215
21.887
21.264
20.347
19.141
17.646
15.86
13.782
11.421
8.785
5.888
2.752
-0.601
-4.137
-7.805
-11.56
-15.356
-19.148
-22.907
-26.597
-30.173
-33.591
-36.795
-39.732
-42.371
-44.675
-46.614
-48.187
-49.41
-50.324
-51.018
-51.565
-52.037
-52.52
-53.082
-53.81
-54.808
-56.146
-57.904
-60.193
-63.04
-66.44
-70.334
-74.454
-78.469
-82.07
-84.831
-86.32
-86.286
-84.513
-81.015
-76.293
-70.97
-65.624
-60.869
-57.285
-55.234
-54.983
-56.517
-58.056
-56.525
-49.459
-34.523
-12.312
13.108
40.745
71.563
109.846
164.892
239.806
332.17
435.041
534.605
621.043
686.674
724.281
729.697
695.858
618.905
500.719
348.017
175.919
1.882
-157.198
-286.912
-379.694
-435.52
-461.004
-464.83
-454.925
-434.298
-400.598
-354.204
-298.583
-240.4
-190.213
-153.018
-127.854
-112.591
-102.456
-95.454
-93.49
-96.67
-104.28
-114.378
-123.083
-127.842
-127.88
-123.221
-114.693
-103.388
-90.329
-76.639
-63.611
-52.379
-43.476
-37.03
-32.912
-30.75
-30.172
-30.795
-32.139
-33.772
-35.462
-37.08
-38.553
-39.829
-40.805
-41.406
-41.615
-41.445
-40.912
-40.014
-38.753
-37.158
-35.281
-33.189
-30.936
-28.548
-26.04
-23.449
-20.83
-18.268
-15.857
-13.657
-11.705
-10.032
-8.647
-7.553
-6.744
-6.184
-5.827
-5.634
-5.568
-5.606
-5.729
-5.909
-6.108
-6.283
-6.381
-6.36
-6.187
-5.828
-5.255
-4.445
-3.377
-2.042
-0.437
1.443
3.608
6.067
8.833
11.914
15.314
19.038
23.087
27.46
32.157
37.173
42.504
48.144
54.083
60.315
66.83
73.616
80.659
87.942
95.445
103.146
111.024
119.053
127.208
135.461
143.784
152.149
160.527
168.888
177.201
185.436
193.561
201.545
209.355
216.96
224.329
231.431
238.235
244.712
250.832
256.567
261.891
266.779
271.207
275.153
278.598
281.525
283.917
285.762
287.049
287.769
287.918
287.493
286.492
284.918
282.775
280.072
276.816
273.02
268.698
263.867
258.545
252.752
246.512
239.849
232.79
225.361
217.594
209.519
201.167
192.572
183.766
174.784
165.661
156.432
147.129
137.789
128.444
119.128
109.872
100.706
91.661
82.765
74.043
65.52
57.22
49.163
41.369
33.855
26.637
19.727
13.137
6.875
0.95
-4.635
-9.875
-14.771
-19.323
-23.533
-27.405
-30.945
-34.161
-37.061
-39.656
-41.956
-43.973
-45.723
-47.217
-48.472
-49.503
-50.324
-50.951
-51.401
-51.689
-51.83
-51.839
-51.732
-51.522
-51.224
-50.852
-50.416
-49.931
-49.405
-48.85
-48.275
-47.688
-47.097
-46.509
-45.928
-45.361
-44.811
-44.283
-43.778
-43.3
-42.848
-42.425
-42.029
-41.661
-41.32
-41.003
-40.71
-40.438
-40.185
-39.949
-39.725
-39.513
-39.309
-39.11
-38.912
-38.714
-38.512
-38.304
-38.087
-37.86
-37.62
-37.367
-37.099
-36.816
-36.518
-36.204
-35.877
-35.536
-35.182
-34.818
-34.446
-34.068
-33.686
-33.303
-32.922
-32.547
-32.18
-31.826
-31.487
-31.167
-30.869
-30.598
-30.356
-30.147
-29.975
-29.843
-29.755
-29.714
-29.724
-29.786
-29.904
-30.079
-30.314
-30.61
-30.967
-31.385
-31.866
-32.406
-33.006
-33.662
-34.372
-35.132
-35.937
-36.783
-37.663
-38.573
-39.505
-40.452
-41.407
-42.363
-43.313
-44.247
-45.157
-46.035
-46.873
-47.66
-48.388
-49.047
-49.629
-50.122
-50.52
-50.814
-50.994
-51.053
-50.983
-50.778
-50.43
-49.935
-49.286
-48.481
-47.517
-46.391
-45.103
-43.655
-42.049
-40.288
-38.378
-36.323
-34.132
-31.814
-29.376
-26.829
-24.186
-21.458
-18.659
-15.804
-12.908
-9.989
-7.065
-4.158
-1.287
1.528
4.266
6.907
9.429
11.813
14.042
16.1
17.97
19.635
21.077
22.279
23.229
23.914
24.324
24.452
24.29
23.838
23.101
22.084
20.791
19.225
17.374
15.238
12.824
10.139
7.199
4.025
0.637
-2.93
-6.625
-10.399
-14.204
-18
-21.761
-25.452
-29.026
-32.433
-35.604
-38.481
-41.028
-43.211
-45.009
-46.424
-47.47
-48.189
-48.662
-48.976
-49.223
-49.504
-49.904
-50.523
-51.456
-52.829
-54.824
-57.524
-60.92
-64.897
-69.159
-73.397
-77.344
-80.587
-82.642
-83.246
-82.265
-79.916
-76.971
-74.086
-71.823
-70.907
-71.739
-74.306
-78.605
-83.977
-88.636
-90.955
-88.403
-77.301
-56.207
-24.678
16.555
63.718
116.134
175.835
244.113
323.432
411.496
500.797
584.663
655.952
708.316
737.307
736.015
696.618
615.735
493.999
338.804
165.028
-11.075
-171.879
-302.307
-394.654
-447.427
-466.391
-459.978
-434.267
-393.831
-341.441
-281.767
-223.987
-176.006
-142.723
-123.999
-113.24
-105.322
-97.978
-91.648
-90.144
-94.428
-102.718
-112.129
-118.563
-120.126
-116.956
-109.534
-98.985
-86.518
-73.029
-59.815
-48.266
-39.033
-32.353
-28.195
-26.195
-25.984
-27.216
-29.348
-31.837
-34.408
-36.896
-39.222
-41.367
-43.195
-44.587
-45.523
-45.999
-46.029
-45.618
-44.741
-43.403
-41.665
-39.6
-37.291
-34.794
-32.126
-29.323
-26.443
-23.564
-20.8
-18.227
-15.885
-13.809
-12.017
-10.517
-9.32
-8.403
-7.722
-7.234
-6.904
-6.702
-6.615
-6.62
-6.681
-6.758
-6.798
-6.759
-6.613
-6.327
-5.875
-5.231
-4.374
-3.291
-1.979
-0.434
1.357
3.403
5.719
8.318
11.205
14.385
17.865
21.647
25.734
30.127
34.823
39.819
45.113
50.699
56.574
62.729
69.155
75.838
82.763
89.914
97.272
104.816
112.525
120.374
128.339
136.394
144.512
152.665
160.824
168.959
177.039
185.033
192.908
200.632
208.171
215.494
222.569
229.362
235.843
241.981
247.747
253.113
258.052
262.539
266.55
270.066
273.065
275.532
277.451
278.809
279.597
279.807
279.433
278.473
276.927
274.798
272.091
268.813
264.975
260.59
255.673
250.242
244.316
237.92
231.076
223.813
216.158
208.143
199.798
191.157
182.253
173.123
163.801
154.322
144.723
135.039
125.304
115.554
105.822
96.141
86.543
77.057
67.715
58.544
49.571
40.82
32.312
24.068
16.105
8.442
1.095
-5.924
-12.603
-18.934
-24.911
-30.528
-35.782
-40.673
-45.207
-49.391
-53.236
-56.748
-59.935
-62.805
-65.369
-67.647
-69.657
-71.419
-72.949
-74.262
-75.379
-76.322
-77.112
-77.768
-78.299
-78.708
-79.002
-79.194
-79.305
-79.358
-79.366
-79.327
-79.227
-79.05
-78.797
-78.49
-78.156
-77.806
-77.436
-77.021
-76.58
-76.198
-75.911
-75.67
-75.304
-74.604
-73.509
-72.168
-70.781
-69.433
-68.181
-67.16
-66.83
-67.837
-70.504
-74.686
-79.813
-85.299
-90.804
-96.07
-100.411
-102.848
-102.713
-99.854
-94.99
-89.19
-83.06
-76.945
-71.458
-67.425
-65.589
-66.448
-69.507
-73.695
-78.391
-83.26
-87.965
-92.186
-95.456
-97.253
-97.73
-97.525
-97.026
-96.478
-95.986
-95.507
-95.174
-95.266
-95.799
-96.59
-97.51
-98.443
-99.38
-100.425
-101.598
-102.85
-104.168
-105.555
-107.032
-108.63
-110.352
-112.162
-114.031
-115.932
-117.843
-119.75
-121.63
-123.461
-125.224
-126.914
-128.529
-130.064
-131.521
-132.897
-134.189
-135.412
-136.572
-137.648
-138.669
-139.699
-140.773
-141.926
-143.14
-144.316
-145.401
-146.393
-147.123
-147.295
-146.857
-145.997
-144.918
-144.036
-143.038
-140.519
-136.745
-133.031
-131.189
-134.9
-143.474
-151.873
-155.482
-147.894
-128.119
-102.556
