Name,Criss Capps
Date of Birth,"Feb 5, 1952"
Recorded Date,2025-01-06 14:24:27 -0400
Classification,Sinus Rhythm
Symptoms,
Software Version,1.90
Device,"Watch5,4"
Sample Rate,512.844 hertz


Lead,Lead I
Unit,µV

237.583
300.873
333.804
336.868
321.948
304.873
294.749
293.26
296.588
298.704
297.356
293.259
288.105
284.022
281.387
279.524
277.845
275.603
272.434
268.357
263.372
257.593
251.262
244.573
237.726
230.938
224.288
217.767
211.336
204.901
198.371
191.661
184.659
177.238
169.291
160.76
151.623
141.885
131.552
120.623
109.107
97.031
84.443
71.395
57.939
44.118
29.97
15.545
0.894
-13.92
-28.831
-43.784
-58.737
-73.645
-88.46
-103.133
-117.603
-131.83
-145.789
-159.458
-172.822
-185.864
-198.565
-210.909
-222.888
-234.494
-245.725
-256.573
-267.02
-277.067
-286.722
-296.008
-304.972
-313.636
-321.998
-330.049
-337.761
-345.102
-352.041
-358.529
-364.502
-369.906
-374.694
-378.829
-382.297
-385.064
-387.082
-388.293
-388.617
-388.001
-386.429
-383.896
-380.414
-376.019
-370.755
-364.695
-357.948
-350.609
-342.759
-334.466
-325.777
-316.755
-307.478
-298.039
-288.534
-279.033
-269.588
-260.246
-251.056
-242.067
-233.304
-224.741
-216.355
-208.17
-200.217
-192.538
-185.16
-178.041
-171.163
-164.587
-158.266
-151.996
-145.724
-139.522
-133.364
-127.463
-121.488
-114.15
-105.634
-97.22
-90.787
-90.045
-95.117
-102.188
-107.578
-106.039
-96.737
-84.705
-73.858
-68.28
-69.056
-72.417
-75.915
-78.015
-78.061
-77.537
-77.197
-76.941
-76.811
-76.562
-76.091
-75.584
-75.096
-74.572
-73.998
-73.367
-72.653
-71.831
-70.868
-69.717
-68.351
-66.776
-64.989
-62.981
-60.749
-58.287
-55.596
-52.68
-49.545
-46.19
-42.623
-38.849
-34.876
-30.715
-26.377
-21.873
-17.215
-12.418
-7.494
-2.459
2.672
7.883
13.16
18.485
23.844
29.22
34.599
39.965
45.305
50.603
55.848
61.027
66.129
71.142
76.057
80.865
85.559
90.132
94.58
98.898
103.085
107.143
111.074
114.883
118.575
122.153
125.622
128.987
132.254
135.428
138.515
141.519
144.449
147.317
150.141
152.939
155.725
158.518
161.331
164.179
167.081
170.052
173.103
176.252
179.517
182.91
186.451
190.156
194.029
198.08
202.313
206.711
211.255
215.952
220.801
225.79
230.915
236.142
241.404
246.676
251.955
257.129
262.095
266.947
271.689
276.328
281.18
285.767
289.609
293.555
297.703
303.343
312.22
322.325
332.205
339.835
342.523
342.949
344.07
347.804
355.696
365.012
373.326
382.264
396.05
419.357
453.305
490.025
515.932
521.02
501.459
465.581
429.615
403.793
392.122
388.597
382.473
372.788
366.53
377.738
417.2
478.859
543.23
582.281
575.468
523.043
442.762
363.578
310.515
293.349
306.916
338.035
374.223
408.267
439.645
466.122
481.696
480.987
460.163
425.932
391.783
368.643
362.626
368.351
376.271
380.765
379.45
376.136
374.902
376.018
379.169
382.963
386.338
389.432
391.694
392.053
390.31
387.381
384.084
379.958
372.27
357.229
333.045
302.146
270.667
244.308
226.662
216.962
210.269
203.492
192.754
174.225
147.261
108.701
58.389
0.93
-60.891
-122.041
-178.742
-233.076
-286.387
-340.906
-400.579
-463.182
-523.657
-575.853
-609.691
-622.793
-621.513
-615.995
-621.726
-646.514
-686.788
-733.791
-774.316
-800.537
-812.821
-814.714
-811.525
-805.996
-797.9
-786.707
-772.04
-754.327
-734.489
-713.255
-691.324
-669.361
-647.803
-626.792
-606.177
-585.873
-566.009
-546.852
-528.71
-511.684
-495.744
-480.892
-467.207
-454.829
-443.926
-434.574
-426.679
-420.196
-415.19
-411.846
-410.357
-410.61
-412.096
-414.156
-416.299
-418.111
-419.144
-418.79
-416.317
-411.355
-404.078
-394.981
-384.456
-372.751
-360.083
-346.794
-333.428
-320.368
-307.628
-294.959
-282.168
-269.247
-256.285
-243.367
-230.461
-217.536
-204.709
-192.231
-180.34
-169.172
-158.774
-149.13
-140.242
-132.126
-124.755
-118.061
-111.96
-106.361
-101.199
-96.426
-91.989
-87.84
-83.936
-80.232
-76.69
-73.288
-70.004
-66.828
-63.757
-60.788
-57.917
-55.15
-52.494
-49.963
-47.572
-45.335
-43.269
-41.384
-39.684
-38.175
-36.855
-35.72
-34.763
-33.974
-33.337
-32.84
-32.472
-32.221
-32.074
-32.017
-32.031
-32.1
-32.212
-32.35
-32.502
-32.653
-32.789
-32.9
-32.983
-33.029
-33.019
-32.936
-32.76
-32.482
-32.113
-31.646
-31.054
-30.342
-29.54
-28.673
-27.773
-26.843
-25.826
-24.7
-23.512
-22.206
-20.586
-18.611
-16.351
-13.79
-11.15
-8.069
-3.322
2.831
9.195
13.889
13.335
7.631
0.354
-4.969
-3.316
5.763
17.461
28.055
33.566
33.19
30.518
27.815
26.605
27.427
28.844
30.171
31.448
32.606
33.859
35.287
36.716
38.092
39.421
40.651
41.704
42.539
43.152
43.478
43.372
42.606
40.927
38.225
34.574
30.048
24.569
18.112
10.817
3.078
-4.51
-11.634
-18.436
-25.209
-32.121
-39.395
-47.443
-57.071
-69.389
-85.045
-103.983
-125.751
-149.734
-175.07
-200.551
-224.484
-245.003
-260.795
-271.195
-275.969
-275.217
-269.48
-259.939
-248.332
-236.285
-224.965
-215.186
-207.542
-202.531
-200.257
-200.023
-200.707
-201.582
-202.115
-201.847
-200.519
-197.531
-193.044
-188.699
-184.984
-181.189
-175.7
-164.906
-148.87
-131.662
-117.245
-110.975
-113.403
-119.323
-124.76
-125.641
-121.147
-115.177
-110.191
-107.783
-108.574
-111.061
-114.532
-119.073
-124.459
-130.699
-137.808
-145.438
-153.379
-161.766
-169.86
-176.921
-183.614
-190.047
-197.63
-208.124
-219.46
-230.224
-238.402
-241.24
-241.176
-240.394
-240.356
-243.427
-248.169
-253.03
-257.613
-261.079
-264.064
-266.984
-270.373
-275.02
-280.045
-285.462
-289.744
-289.809
-287.536
-285.129
-285.894
-296.459
-315.42
-336.179
-352.039
-353.207
-337.114
-311.465
-285.154
-267.704
-265.407
-274.578
-287.985
-299.862
-304.636
-301.649
-293.93
-282.222
-266.222
-244.013
-212.006
-169.158
-118.098
-63.106
-8.296
44.435
97.673
154.836
217.571
285.156
351.355
407.997
445.863
454.74
427.682
360.797
255.181
117.801
-39.973
-204.352
-361.02
-496.731
-603.304
-676.409
-716.979
-729.985
-719.148
-690.279
-648.468
-599.542
-552.942
-513.656
-483.884
-461.89
-440.688
-417.326
-392.028
-367.22
-348.523
-338.461
-336.668
-342.211
-352.759
-366.993
-384.959
-406.237
-430.269
-456.497
-484.156
-512.819
-542.571
-573.267
-604.331
-635.531
-666.894
-698.411
-730.226
-761.434
-789.828
-814.06
-834.266
-852.753
-873.75
-899.67
-929.213
-957.332
-977.087
-984.591
-982.253
-978.833
-987.605
-1020.814
-1085.551
-1184.376
-1313.921
-1469.305
-1647.352
-1841.989
-2047.675
-2256.377
-2456.233
-2639.717
-2801.328
-2941.335
-3066.484
-3184.43
-3305.045
-3434.292
-3572.328
-3712.155
-3838.558
-3935.828
-3990.525
-3998.28
-3964.764
-3898.965
-3812.67
-3714.155
-3607.254
-3495.932
-3382.791
-3270.229
-3160.218
-3052.081
-2941.868
-2824.585
-2697.493
-2559.593
-2414.625
-2269.85
-2129.945
-1998.653
-1876.78
-1761.242
-1650.469
-1543.41
-1439.317
-1339.062
-1242.717
-1149.794
-1060.18
-973.525
-889.661
-808.846
-731.313
-657.349
-587.362
-521.482
-459.576
-401.423
-346.672
-294.935
-245.856
-199.024
-153.991
-110.449
-68.186
-27.059
12.994
52.054
90.182
127.396
163.711
199.137
233.681
267.363
300.196
332.163
363.243
393.411
422.638
450.911
478.215
504.518
529.783
553.962
577.022
598.944
619.701
639.27
657.637
674.785
690.707
705.415
718.919
731.226
742.352
752.303
761.084
768.732
775.301
780.862
785.492
789.264
792.258
794.56
796.257
797.437
798.182
798.562
798.647
798.512
798.228
797.874
797.53
797.248
797.064
797.002
797.073
797.283
797.635
798.121
798.724
799.432
800.232
801.115
802.074
803.096
804.162
805.253
806.343
807.418
808.469
809.491
810.482
811.443
812.374
813.279
814.169
815.048
815.917
816.778
817.627
818.465
819.291
820.106
820.91
821.704
822.484
823.25
823.998
824.726
825.429
826.103
826.742
827.342
827.897
828.406
828.864
829.268
829.615
829.902
830.126
830.284
830.374
830.39
830.331
830.193
829.974
829.67
829.281
828.804
828.238
827.582
826.835
825.997
825.067
824.046
822.932
821.727
820.431
819.043
817.564
815.993
814.331
812.578
810.734
808.798
806.771
804.653
802.444
800.144
797.753
795.272
792.7
790.037
787.285
784.443
781.513
778.494
775.387
772.193
768.912
765.545
762.09
758.55
754.924
751.213
747.416
743.534
739.567
735.517
731.384
727.17
722.876
718.503
714.055
709.532
704.938
700.274
695.544
690.75
685.895
680.983
676.016
670.998
665.931
660.819
655.666
650.474
645.248
639.989
634.703
629.392
624.06
618.711
613.349
607.979
602.605
597.232
591.863
586.505
581.162
575.838
570.539
565.268
560.031
554.833
549.678
544.571
539.518
534.524
529.593
524.731
519.943
515.234
510.607
506.069
501.624
497.277
493.033
488.897
484.874
480.969
477.187
473.533
470.011
466.624
463.377
460.273
457.314
454.501
451.837
449.322
446.958
444.744
442.681
440.766
438.999
437.377
435.895
434.549
433.334
432.244
431.271
430.409
429.651
428.99
428.418
427.928
427.513
427.165
426.874
426.631
426.422
426.235
426.056
425.872
425.667
425.428
425.139
424.787
424.361
423.852
423.247
422.535
421.7
420.73
419.619
418.362
416.959
415.409
413.714
411.882
409.932
407.882
405.748
403.538
401.247
398.872
396.415
393.877
391.263
388.568
385.771
382.858
379.819
376.645
373.331
369.856
366.17
362.236
358.024
353.523
348.748
343.708
338.407
332.855
327.074
321.115
315.054
308.956
302.865
296.821
290.866
285.064
279.516
274.312
269.522
265.198
261.374
258.095
255.414
253.37
251.96
251.14
250.828
250.953
251.471
252.332
253.477
254.813
256.215
257.565
258.762
259.711
260.304
260.41
259.889
258.619
256.529
253.6
249.835
245.24
239.81
233.551
226.499
218.73
210.331
201.386
191.978
182.189
172.141
161.991
151.89
141.985
132.381
123.141
114.326
105.993
98.179
90.909
84.166
77.876
71.976
66.407
61.104
56.027
51.092
46.171
41.154
35.917
30.36
24.44
18.069
11.126
3.577
-4.527
-12.977
-21.346
-29.214
-36.249
-42.069
-46.294
-48.658
-49.059
-47.824
-45.732
-43.647
-42.295
-42.257
-44.018
-47.855
-53.663
-60.595
-67.037
-70.91
-70.168
-63.14
-48.071
-23.38
11.913
58.114
113.732
175.246
238.88
300.813
358.236
410.738
457.616
496.894
524.079
531.145
509.036
450.686
354.364
224.314
71.743
-87.972
-238.982
-366.554
-462.583
-524.432
-554.765
-559.324
-541.252
-505.485
-456.787
-401.694
-351.274
-311.377
-283.64
-265.267
-248.03
-228.188
-206.181
-184.508
-168.26
-159.302
-156.409
-157.572
-159.712
-160.845
-160.263
-157.714
-153.504
-148.028
-141.631
-134.821
-128.251
-122.647
-118.731
-116.843
-116.916
-118.709
-121.842
-125.957
-130.717
-135.696
-140.418
-144.538
-147.888
-150.416
-152.172
-153.198
-153.505
-153.141
-152.191
-150.75
-148.92
-146.789
-144.424
-141.889
-139.268
-136.655
-134.153
-131.862
-129.848
-128.146
-126.773
-125.738
-125.045
-124.688
-124.643
-124.874
-125.339
-126.004
-126.837
-127.813
-128.898
-130.054
-131.24
-132.416
-133.549
-134.621
-135.616
-136.518
-137.314
-137.995
-138.556
-138.999
-139.323
-139.521
-139.586
-139.51
-139.287
-138.913
-138.382
-137.691
-136.833
-135.805
-134.603
-133.225
-131.667
-129.927
-128.003
-125.893
-123.594
-121.107
-118.43
-115.564
-112.51
-109.272
-105.854
-102.26
-98.496
-94.568
-90.484
-86.256
-81.893
-77.403
-72.793
-68.068
-63.242
-58.338
-53.373
-48.365
-43.33
-38.288
-33.261
-28.282
-23.371
-18.539
-13.798
-9.156
-4.634
-0.263
3.932
7.925
11.702
15.263
18.595
21.674
24.486
27.023
29.289
31.299
33.04
34.479
35.588
36.349
36.768
36.862
36.632
36.068
35.15
33.852
32.162
30.079
27.586
24.656
21.252
17.334
12.909
8.011
2.659
-3.148
-9.438
-16.235
-23.525
-31.272
-39.429
-47.944
-56.767
-65.84
-75.072
-84.363
-93.617
-102.741
-111.691
-120.434
-128.915
-137.059
-144.766
-151.956
-158.586
-164.636
-170.093
-174.952
-179.219
-182.927
-186.151
-188.961
-191.414
-193.557
-195.405
-196.978
-198.316
-199.468
-200.497
-201.455
-202.369
-203.263
-204.159
-205.072
-206.004
-206.934
-207.81
-208.596
-209.27
-209.823
-210.261
-210.586
-210.794
-210.884
-210.854
-210.708
-210.453
-210.097
-209.644
-209.104
-208.494
-207.838
-207.176
-206.538
-205.945
-205.418
-204.966
-204.594
-204.308
-204.103
-203.966
-203.884
-203.833
-203.785
-203.717
-203.599
-203.402
-203.1
-202.66
-202.049
-201.232
-200.168
-198.824
-197.175
-195.2
-192.88
-190.211
-187.191
-183.835
-180.176
-176.241
-172.06
-167.659
-163.056
-158.266
-153.312
-148.211
-142.985
-137.653
-132.208
-126.638
-120.927
-115.04
-108.947
-102.596
-95.902
-88.785
-81.157
-72.924
-64.009
-54.338
-43.828
-32.406
-19.995
-6.521
8.052
23.744
40.566
58.517
77.62
97.872
119.233
141.648
165.014
189.214
214.15
239.718
265.81
292.33
319.117
346.005
372.928
399.765
426.328
452.332
477.273
500.647
522.099
541.311
557.96
571.846
583.048
592.009
599.429
606.025
611.795
615.961
618.606
620.046
620.927
622.899
623.96
619.508
605.157
575.265
529.333
472.39
409.158
345.449
284.559
225.649
169.204
116.491
68.744
27.992
-5.105
-31.421
-52.071
-68.298
-81.571
-93.471
-105.112
-117.183
-129.967
-143.172
-156.449
-169.552
-181.973
-193.064
-202.489
-210.131
-216.078
-220.699
-224.331
-227.246
-229.817
-232.404
-235.216
-238.362
-241.836
-245.54
-249.393
-253.328
-257.249
-261.059
-264.67
-268.008
-271.026
-273.68
-275.92
-277.685
-278.915
-279.584
-279.696
-279.276
-278.369
-277.026
-275.302
-273.268
-271.003
-268.583
-266.08
-263.561
-261.084
-258.714
-256.516
-254.55
-252.877
-251.542
-250.575
-250.001
-249.841
-250.103
-250.791
-251.897
-253.4
-255.281
-257.513
-260.069
-262.92
-266.036
-269.391
-272.963
-276.736
-280.697
-284.83
-289.115
-293.519
-298.014
-302.57
-307.167
-311.784
-316.413
-321.051
-325.703
-330.377
-335.069
-339.76
-344.411
-348.964
-353.351
-357.494
-361.328
-364.798
-367.859
-370.469
-372.587
-374.171
-375.169
-375.521
-375.16
-374.014
-372.032
-369.185
-365.476
-360.937
-355.624
-349.625
-343.018
-335.87
-328.242
-320.172
-311.7
-302.865
-293.714
-284.297
-274.672
-264.897
-255.012
-245.059
-235.049
-224.979
-214.82
-204.506
-193.986
-183.226
-172.206
-160.945
-149.47
-137.813
-126.014
-114.127
-102.209
-90.333
-78.586
-67.035
-55.759
-44.841
-34.377
-24.495
-15.31
-6.907
0.646
7.315
13.085
17.945
21.902
24.994
27.273
28.815
29.714
30.039
29.857
29.239
28.257
27.01
25.585
24.048
22.452
20.838
19.233
17.671
16.175
14.738
13.347
11.975
10.582
9.147
7.663
6.117
4.503
2.807
1.018
-0.859
-2.812
-4.827
-6.893
-9
-11.138
-13.283
-15.408
-17.484
-19.479
-21.369
-23.139
-24.774
-26.264
-27.599
-28.774
-29.79
-30.652
-31.365
-31.932
-32.355
-32.636
-32.781
-32.799
-32.697
-32.485
-32.17
-31.759
-31.261
-30.683
-30.031
-29.312
-28.53
-27.689
-26.794
-25.852
-24.866
-23.845
-22.792
-21.713
-20.614
-19.499
-18.373
-17.239
-16.099
-14.956
-13.813
-12.67
-11.529
-10.391
-9.257
-8.128
-7.006
-5.89
-4.782
-3.681
-2.588
-1.503
-0.427
0.64
1.698
2.748
3.788
4.819
5.84
6.851
7.851
8.842
9.821
10.789
11.745
12.69
13.621
14.54
15.444
16.332
17.204
18.057
18.891
19.703
20.492
21.257
21.995
22.707
23.391
24.047
24.673
25.269
25.835
26.37
26.875
27.35
27.795
28.211
28.6
28.961
29.296
29.607
29.894
30.16
30.406
30.635
30.847
31.044
31.23
31.406
31.575
31.739
31.9
32.062
32.227
32.397
32.575
32.764
32.966
33.183
33.416
33.669
33.943
34.239
34.558
34.902
35.271
35.666
36.087
36.535
37.008
37.507
38.031
38.58
39.152
39.746
40.361
40.995
41.648
42.318
43.003
43.701
44.411
45.13
45.856
46.588
47.324
48.061
48.797
49.53
50.258
50.978
51.688
52.387
53.071
53.738
54.388
55.018
55.626
56.211
56.771
57.306
57.814
58.294
58.745
59.168
59.56
59.922
60.254
60.555
60.824
61.063
61.269
61.445
61.589
61.701
61.782
61.831
61.849
61.836
61.792
61.718
61.614
61.481
61.32
61.132
60.917
60.677
60.413
60.124
59.813
59.48
59.126
58.751
58.358
57.946
57.517
57.07
56.608
56.131
55.64
55.135
54.618
54.09
53.551
53.003
52.447
51.884
51.316
50.743
50.168
49.592
49.016
48.441
47.868
47.299
46.734
46.175
45.622
45.077
44.54
44.014
43.498
42.995
42.505
42.029
41.569
41.126
40.699
40.292
39.904
39.535
39.188
38.863
38.559
38.278
38.019
37.782
37.568
37.375
37.203
37.051
36.92
36.807
36.712
36.635
36.574
36.53
36.5
36.484
36.482
36.49
36.51
36.538
36.574
36.615
36.661
36.71
36.759
36.808
36.854
36.896
36.933
36.963
36.984
36.996
36.997
36.987
36.966
36.932
36.886
36.829
36.76
36.681
36.59
36.49
36.379
36.26
36.132
35.995
35.851
35.7
35.543
35.38
35.213
35.043
34.87
34.697
34.524
34.353
34.186
34.023
33.866
33.717
33.577
33.446
33.327
33.219
33.123
33.039
32.967
32.906
32.857
32.817
32.786
32.762
32.744
32.731
32.722
32.714
32.707
32.699
32.689
32.676
32.656
32.63
32.594
32.547
32.485
32.408
32.311
32.192
32.048
31.876
31.672
31.435
31.16
30.845
30.488
30.086
29.637
29.138
28.589
27.988
27.333
26.624
25.86
25.04
24.165
23.233
22.245
21.201
20.1
18.943
17.73
16.463
15.141
13.766
12.341
10.867
9.35
7.793
6.201
4.58
2.935
1.273
-0.4
-2.079
-3.757
-5.429
-7.088
-8.728
-10.343
-11.923
-13.461
-14.947
-16.372
-17.728
-19.003
-20.187
-21.27
-22.245
-23.104
-23.837
-24.435
-24.884
-25.174
-25.299
-25.257
-25.046
-24.67
-24.133
-23.443
-22.62
-21.682
-20.644
-19.524
-18.323
-17.045
-15.695
-14.28
-12.809
-11.286
-9.698
-8.026
-6.263
-4.392
-2.401
-0.271
2.044
4.577
7.35
10.378
13.647
17.133
20.817
24.669
28.649
32.703
36.75
40.698
44.478
48.022
51.263
54.128
56.508
58.314
59.48
59.958
59.732
58.802
57.174
54.871
51.957
48.511
44.641
40.469
36.086
31.578
27.034
22.552
18.25
14.24
10.6
7.387
4.643
2.388
0.621
-0.685
-1.614
-2.265
-2.741
-3.162
-3.631
-4.244
-5.11
-6.348
-8.045
-10.299
-13.216
-16.81
-21.061
-25.871
-30.964
-36.021
-40.744
-44.763
-47.697
-49.317
-49.433
-48.08
-45.744
-42.94
-40.113
-37.718
-36.14
-35.679
-36.601
-38.866
-40.938
-40.298
-34.931
-23.063
-5.478
14.531
36.342
61.331
93.649
140.495
203.789
279.692
361.272
439.375
508.139
565.521
608.366
629.11
617.441
563.464
463.095
324.207
162.983
-1.308
-149.899
-271.391
-361.815
-421.646
-455.408
-467.03
-458.226
-430.948
-387.324
-332.278
-274.519
-222.158
-180.517
-150.846
-129.221
-110.869
-94.459
-81.341
-75.364
-80.586
-95.155
-113.048
-127.725
-132.319
-125.984
-113.351
-98.466
-85.801
-76.918
-69.633
-63.091
-56.915
-51.133
-47.069
-45.102
-44.795
-45.778
-47.453
-49.313
-51.097
-52.571
-53.549
-53.981
-53.904
-53.344
-52.314
-50.842
-48.948
-46.68
-44.109
-41.302
-38.312
-35.194
-32.017
-28.849
-25.772
-22.873
-20.225
-17.876
-15.858
-14.187
-12.869
-11.912
-11.31
-11.04
-11.07
-11.365
-11.892
-12.626
-13.537
-14.588
-15.74
-16.949
-18.175
-19.393
-20.577
-21.706
-22.76
-23.72
-24.57
-25.304
-25.912
-26.386
-26.713
-26.88
-26.876
-26.691
-26.319
-25.753
-24.985
-24.008
-22.815
-21.401
-19.761
-17.891
-15.788
-13.448
-10.867
-8.048
-4.992
-1.701
1.819
5.564
9.528
13.701
18.075
22.642
27.39
32.311
37.391
42.619
47.981
53.465
59.055
64.737
70.495
76.313
82.174
88.062
93.959
99.848
105.711
111.53
117.287
122.962
128.539
133.998
139.322
144.492
149.491
154.302
158.909
163.295
167.444
171.343
174.978
178.335
181.403
184.17
186.626
188.763
190.571
192.045
193.179
193.969
194.412
194.506
194.251
193.649
192.702
191.413
189.788
187.834
185.558
182.97
180.079
176.898
173.44
169.717
165.747
161.543
157.123
152.504
147.705
142.743
137.637
132.408
127.073
121.654
116.169
110.638
105.081
99.518
93.966
88.445
82.973
77.566
72.242
67.016
61.904
56.92
52.078
47.39
42.868
38.522
34.364
30.401
26.641
23.091
19.756
16.64
13.746
11.076
8.633
6.415
4.422
2.653
1.105
-0.226
-1.344
-2.254
-2.962
-3.474
-3.797
-3.939
-3.908
-3.712
-3.361
-2.862
-2.227
-1.463
-0.581
0.408
1.495
2.67
3.922
5.241
6.617
8.039
9.498
10.983
12.487
13.999
15.512
17.016
18.504
19.969
21.402
22.798
24.151
25.454
26.702
27.891
29.018
30.078
31.068
31.987
32.832
33.601
34.294
34.911
35.45
35.913
36.3
36.612
36.852
37.021
37.121
37.157
37.13
37.045
36.904
36.711
36.471
36.187
35.864
35.504
35.112
34.692
34.248
33.783
33.301
32.805
32.298
31.783
31.262
30.736
30.209
29.68
29.15
28.621
28.093
27.565
27.037
26.508
25.978
25.444
24.906
24.36
23.805
23.239
22.657
22.059
21.44
20.798
20.129
19.431
18.701
17.935
17.13
16.285
15.395
14.458
13.472
12.435
11.344
10.199
8.997
7.739
6.424
5.052
3.624
2.14
0.602
-0.99
-2.632
-4.323
-6.06
-7.84
-9.66
-11.516
-13.406
-15.324
-17.267
-19.232
-21.215
-23.212
-25.219
-27.234
-29.252
-31.271
-33.287
-35.297
-37.296
-39.283
-41.254
-43.206
-45.137
-47.043
-48.923
-50.775
-52.598
-54.391
-56.152
-57.881
-59.578
-61.244
-62.878
-64.481
-66.055
-67.6
-69.117
-70.608
-72.074
-73.516
-74.936
-76.332
-77.706
-79.055
-80.379
-81.675
-82.941
-84.174
-85.372
-86.533
-87.654
-88.732
-89.767
-90.756
-91.697
-92.587
-93.419
-94.19
-94.893
-95.522
-96.068
-96.526
-96.884
-97.136
-97.275
-97.296
-97.19
-96.947
-96.556
-96.006
-95.293
-94.415
-93.372
-92.167
-90.805
-89.297
-87.664
-85.924
-84.095
-82.192
-80.219
-78.178
-76.074
-73.913
-71.704
-69.449
-67.133
-64.739
-62.257
-59.67
-56.965
-54.119
-51.085
-47.828
-44.326
-40.565
-36.56
-32.336
-27.917
-23.333
-18.629
-13.863
-9.118
-4.487
-0.041
4.148
8.01
11.469
14.414
16.752
18.419
19.367
19.578
19.056
17.806
15.855
13.271
10.133
6.548
2.637
-1.513
-5.818
-10.191
-14.541
-18.744
-22.696
-26.321
-29.559
-32.37
-34.729
-36.624
-38.087
-39.202
-40.068
-40.789
-41.46
-42.148
-42.931
-43.894
-45.138
-46.768
-48.863
-51.5
-54.779
-58.745
-63.368
-68.493
-73.756
-78.728
-83.024
-86.212
-87.875
-87.767
-85.798
-82.235
-77.804
-73.315
-69.525
-67.231
-67.026
-69.165
-73.722
-80
-86.362
-91.083
-91.613
-85.198
-70.414
-45.599
-10.595
32.987
85.054
144.127
208.579
278.116
349.39
418.793
482.583
534.044
566.293
571.727
542.087
472.445
363.168
220.885
58.571
-107.018
-259.035
-384.918
-477.631
-535.19
-561.293
-560.138
-536.006
-496.064
-446.505
-395.34
-350.804
-315.207
-287.728
-264.473
-240.917
-216.738
-194.311
-177.078
-167.131
-163.785
-164.746
-167.033
-168.605
-168.448
-165.868
-160.881
-153.828
-145.106
-135.403
-125.491
-115.993
-107.575
-100.908
-96.261
-93.574
-92.646
-93.1
-94.545
-96.693
-99.19
-101.603
-103.653
-105.169
-106.034
-106.258
-105.856
-104.81
-103.163
-100.986
-98.336
-95.291
-91.923
-88.279
-84.426
-80.433
-76.361
-72.296
-68.318
-64.5
-60.923
-57.641
-54.68
-52.066
-49.801
-47.873
-46.27
-44.964
-43.916
-43.097
-42.477
-42.027
-41.723
-41.534
-41.425
-41.36
-41.3
-41.213
-41.076
-40.867
-40.567
-40.164
-39.646
-39.005
-38.239
-37.343
-36.307
-35.123
-33.78
-32.268
-30.58
-28.709
-26.65
-24.396
-21.942
-19.284
-16.417
-13.338
-10.044
-6.532
-2.799
1.156
5.332
9.726
14.333
19.147
24.161
29.368
34.758
40.319
46.04
51.91
57.915
64.042
70.275
76.6
82.999
89.455
95.949
102.461
108.973
115.463
121.91
128.292
134.587
140.772
146.825
152.723
158.443
163.962
169.258
174.31
179.095
183.594
187.786
191.654
195.178
198.344
201.137
203.542
205.547
207.143
208.32
209.07
209.389
209.271
208.715
207.719
206.287
204.419
202.123
199.404
196.272
192.737
188.812
184.51
179.848
174.843
169.513
163.879
157.963
151.787
145.374
138.749
131.936
124.962
117.851
110.63
103.325
95.96
88.562
81.155
73.764
66.413
59.124
51.919
44.82
37.847
31.019
24.353
17.866
11.574
5.489
-0.374
-6.005
-11.395
-16.535
-21.418
-26.04
-30.397
-34.487
-38.309
-41.863
-45.152
-48.178
-50.946
-53.462
-55.731
-57.761
-59.56
-61.136
-62.5
-63.659
-64.626
-65.41
-66.022
-66.472
-66.773
-66.934
-66.966
-66.882
-66.69
-66.403
-66.03
-65.581
-65.067
-64.497
-63.88
-63.224
-62.537
-61.828
-61.102
-60.366
-59.625
-58.886
-58.152
-57.427
-56.714
-56.018
-55.338
-54.678
-54.039
-53.422
-52.826
-52.253
-51.702
-51.173
-50.665
-50.177
-49.709
-49.259
-48.825
-48.406
-48
-47.606
-47.22
-46.842
-46.469
-46.098
-45.728
-45.356
-44.982
-44.602
-44.215
-43.82
-43.414
-42.998
-42.571
-42.131
-41.679
-41.214
-40.738
-40.249
-39.75
-39.239
-38.719
-38.19
-37.653
-37.109
-36.559
-36.004
-35.446
-34.887
-34.328
-33.771
-33.217
-32.669
-32.129
-31.597
-31.076
-30.568
-30.074
-29.596
-29.136
-28.695
-28.275
-27.877
-27.502
-27.152
-26.826
-26.524
-26.245
-25.989
-25.755
-25.541
-25.347
-25.171
-25.012
-24.869
-24.741
-24.628
-24.526
-24.436
-24.355
-24.282
-24.213
-24.148
-24.084
-24.019
-23.952
-23.882
-23.807
-23.726
-23.638
-23.542
-23.438
-23.323
-23.195
-23.053
-22.893
-22.716
-22.52
-22.304
-22.071
-21.821
-21.558
-21.288
-21.012
-20.733
-20.453
-20.171
-19.888
-19.603
-19.312
-19.015
-18.712
-18.405
-18.103
-17.812
-17.531
-17.258
-16.984
-16.697
-16.385
-16.036
-15.63
-15.156
-14.608
-13.985
-13.301
-12.57
-11.802
-10.994
-10.135
-9.213
-8.223
-7.17
-6.065
-4.93
-3.79
-2.675
-1.636
-0.716
0.061
0.687
1.187
1.601
1.959
2.279
2.576
2.853
3.128
3.43
3.793
4.268
4.911
5.791
7.003
8.634
10.749
13.385
16.53
20.135
24.16
28.565
33.299
38.318
43.563
48.954
54.41
59.832
65.102
70.096
74.672
78.684
82.01
84.56
86.287
87.185
87.253
86.493
84.932
82.6
79.543
75.83
71.537
66.759
61.622
56.259
50.808
45.407
40.187
35.248
30.668
26.505
22.799
19.595
16.92
14.786
13.196
12.142
11.587
11.467
11.684
12.113
12.638
13.163
13.581
13.8
13.73
13.271
12.345
10.901
8.865
6.156
2.747
-1.333
-5.913
-10.633
-15.089
-18.905
-21.692
-23.079
-22.804
-20.765
-17.231
-12.905
-8.641
-5.164
-2.981
-2.557
-4.249
-8.062
-13.373
-18.19
-19.487
-14.763
-2.596
16.504
40.702
69.77
105.214
150.287
208.085
277.531
354.287
431.585
502.3
561.857
605.388
626.809
618.819
573.719
489.128
368.631
222.016
63.102
-95.856
-242.548
-367.699
-464.123
-524.424
-547.116
-532.887
-487.105
-422.429
-350.677
-284.992
-235.25
-201.726
-181.232
-166.738
-150.577
-131.414
-110.78
-91.964
-78.884
-71.826
-69.149
-68.495
-67.165
-63.963
-58.597
-51.24
-42.593
-33.2
-23.487
-14.103
-5.595
1.513
6.647
9.683
10.789
10.191
8.259
5.346
1.731
-2.214
-6.08
-9.617
-12.663
-15.118
-16.992
-18.278
-18.96
-19.091
-18.737
-17.965
-16.858
-15.48
-13.886
-12.145
-10.322
-8.489
-6.729
-5.111
-3.703
-2.576
-1.768
-1.304
-1.194
-1.423
-1.969
-2.808
-3.897
-5.195
-6.66
-8.253
-9.937
-11.681
-13.446
-15.194
-16.885
-18.476
-19.934
-21.235
-22.355
-23.279
-23.996
-24.493
-24.767
-24.816
-24.638
-24.227
-23.58
-22.688
-21.547
-20.156
-18.513
-16.619
-14.476
-12.083
-9.443
-6.561
-3.44
-0.084
3.502
7.312
11.342
15.581
20.02
24.648
29.453
34.422
39.543
44.8
50.178
55.663
61.239
66.891
72.601
78.355
84.134
89.921
95.699
101.45
107.155
112.796
118.355
123.811
129.147
134.344
139.383
144.247
148.916
153.374
157.603
161.588
165.312
168.76
171.919
174.773
177.311
179.522
181.395
182.92
184.09
184.899
185.34
185.41
185.106
184.426
183.371
181.941
180.14
177.972
175.443
172.561
169.334
165.774
161.892
157.701
153.218
148.458
143.438
138.177
132.694
127.011
121.147
115.126
108.969
102.699
96.34
89.914
83.445
76.956
70.469
64.007
57.593
51.246
44.988
38.839
32.817
26.941
21.227
15.691
10.348
5.211
0.292
-4.398
-8.85
-13.057
-17.011
-20.707
-24.143
-27.317
-30.227
-32.874
-35.261
-37.391
-39.268
-40.898
-42.287
-43.444
-44.375
-45.092
-45.602
-45.918
-46.049
-46.007
-45.803
-45.45
-44.959
-44.341
-43.61
-42.776
-41.853
-40.851
-39.782
-38.656
-37.486
-36.281
-35.051
-33.806
-32.554
-31.305
-30.065
-28.842
-27.643
-26.474
-25.34
-24.246
-23.197
-22.195
-21.245
-20.348
-19.508
-18.726
-18.003
-17.341
-16.74
-16.201
-15.723
-15.307
-14.951
-14.655
-14.418
-14.239
-14.116
-14.048
-14.032
-14.066
-14.148
-14.276
-14.447
-14.658
-14.907
-15.191
-15.507
-15.852
-16.223
-16.618
-17.033
-17.466
-17.914
-18.374
-18.842
-19.317
-19.795
-20.274
-20.75
-21.221
-21.684
-22.136
-22.575
-22.998
-23.403
-23.788
-24.15
-24.489
-24.801
-25.086
-25.343
-25.571
-25.769
-25.936
-26.074
-26.181
-26.258
-26.306
-26.325
-26.316
-26.281
-26.221
-26.138
-26.033
-25.909
-25.767
-25.611
-25.442
-25.263
-25.077
-24.887
-24.695
-24.505
-24.319
-24.14
-23.971
-23.815
-23.674
-23.551
-23.447
-23.366
-23.308
-23.275
-23.268
-23.288
-23.337
-23.415
-23.523
-23.661
-23.829
-24.028
-24.257
-24.517
-24.806
-25.124
-25.469
-25.84
-26.236
-26.654
-27.093
-27.551
-28.026
-28.517
-29.021
-29.537
-30.061
-30.594
-31.132
-31.673
-32.217
-32.762
-33.306
-33.848
-34.388
-34.926
-35.46
-35.99
-36.514
-37.031
-37.541
-38.04
-38.526
-38.996
-39.448
-39.881
-40.291
-40.678
-41.04
-41.376
-41.686
-41.97
-42.228
-42.456
-42.652
-42.811
-42.93
-43.005
-43.03
-43
-42.908
-42.749
-42.522
-42.222
-41.845
-41.383
-40.826
-40.165
-39.4
-38.529
-37.555
-36.483
-35.316
-34.069
-32.764
-31.422
-30.063
-28.697
-27.318
-25.927
-24.525
-23.113
-21.696
-20.268
-18.81
-17.307
-15.752
-14.132
-12.438
-10.64
-8.688
-6.542
-4.175
-1.579
1.22
4.199
7.335
10.587
13.908
17.231
20.461
23.524
26.365
28.923
31.146
32.958
34.254
34.946
34.967
34.274
32.859
30.724
27.871
24.342
20.2
15.538
10.49
5.162
-0.362
-6
-11.679
-17.309
-22.77
-27.955
-32.775
-37.152
-41.036
-44.389
-47.181
-49.427
-51.175
-52.513
-53.566
-54.442
-55.235
-56.046
-56.966
-58.102
-59.57
-61.466
-63.899
-67.001
-70.833
-75.368
-80.498
-85.984
-91.576
-97.057
-102.1
-106.317
-109.462
-111.44
-112.347
-112.548
-112.329
-111.789
-111.167
-110.692
-110.285
-109.833
-108.976
-106.948
-103.252
-96.825
-85.607
-68.164
-43.388
-12.309
21.098
55.009
88.94
125.393
171.306
229.036
298.287
376.283
454.026
524.502
579.934
609.922
606.997
564.616
481.283
362.743
219.091
63.766
-89.827
-228.795
-342.147
-423.032
-469.7
-486.942
-483.819
-469.434
-449.04
-423.741
-392.218
-352.942
-307.744
-260.407
-214.802
-174.928
-142.707
-118.425
-102.051
-92.676
-88.909
-89.526
-93.167
-98.118
-102.998
-106.679
-108.152
-107.179
-104.061
-99.163
-93.039
-86.442
-80.012
-74.416
-70.315
-67.878
-66.965
-67.356
-68.698
-70.637
-72.857
-74.957
-76.547
-77.434
-77.568
-76.981
-75.772
-74.003
-71.723
-69.02
-66.004
-62.771
-59.401
-55.95
-52.459
-48.984
-45.609
-42.422
-39.493
-36.861
-34.544
-32.542
-30.855
-29.483
-28.407
-27.596
-27.016
-26.632
-26.412
-26.333
-26.365
-26.475
-26.623
-26.764
-26.862
-26.891
-26.83
-26.661
-26.368
-25.936
-25.355
-24.624
-23.735
-22.683
-21.46
-20.055
-18.459
-16.669
-14.68
-12.49
-10.096
-7.493
-4.68
-1.656
1.579
5.027
8.688
12.563
16.651
20.947
25.449
30.151
35.045
40.125
45.383
50.807
56.388
62.115
67.975
73.956
80.046
86.228
92.49
98.815
105.188
111.592
118.008
124.421
130.811
137.159
143.448
149.659
155.771
161.765
167.622
173.323
178.849
184.18
189.297
194.182
198.815
203.181
207.26
211.037
214.496
217.623
220.403
222.825
224.878
226.552
227.838
228.731
229.225
229.317
229.004
228.286
227.165
225.644
223.728
221.424
218.741
215.688
212.278
208.524
204.44
200.044
195.351
190.382
185.155
179.692
174.015
168.147
162.111
155.931
149.632
143.239
136.776
130.268
123.74
117.216
110.719
104.272
97.898
91.617
85.449
79.415
73.531
67.815
62.283
56.947
51.821
46.916
42.242
37.806
33.614
29.674
25.987
22.557
19.384
16.469
13.81
11.404
9.246
7.332
5.655
4.208
2.983
1.97
1.16
0.542
0.107
-0.157
-0.261
-0.218
-0.037
0.268
0.686
1.206
1.815
2.502
3.257
4.069
4.927
5.821
6.742
7.681
8.63
9.579
10.521
11.45
12.357
13.238
14.085
14.894
15.66
16.378
17.045
17.658
18.213
18.708
19.141
19.51
19.813
20.048
20.216
20.315
20.345
20.305
20.196
20.018
19.771
19.457
19.077
18.63
18.119
17.544
16.909
16.213
15.458
14.648
13.783
12.867
11.901
10.889
9.832
8.734
7.596
6.423
5.216
3.979
2.715
1.427
0.118
-1.209
-2.551
-3.903
-5.264
-6.629
-7.995
-9.36
-10.72
-12.073
-13.414
-14.743
-16.056
-17.351
-18.626
-19.879
-21.107
-22.309
-23.484
-24.63
-25.746
-26.831
-27.885
-28.906
-29.895
-30.851
-31.773
-32.664
-33.522
-34.348
-35.144
-35.91
-36.647
-37.357
-38.041
-38.7
-39.337
-39.953
-40.549
-41.129
-41.693
-42.245
-42.784
-43.314
-43.835
-44.351
-44.861
-45.367
-45.871
-46.373
-46.876
-47.381
-47.888
-48.4
-48.916
-49.44
-49.973
-50.514
-51.066
-51.628
-52.201
-52.786
-53.383
-53.992
-54.613
-55.245
-55.889
-56.544
-57.21
-57.886
-58.571
-59.264
-59.964
-60.671
-61.383
-62.099
-62.82
-63.543
-64.268
-64.996
-65.724
-66.452
-67.178
-67.901
-68.618
-69.327
-70.024
-70.704
-71.364
-72.001
-72.609
-73.186
-73.728
-74.231
-74.693
-75.111
-75.484
-75.808
-76.077
-76.287
-76.433
-76.509
-76.509
-76.427
-76.257
-75.993
-75.631
-75.171
-74.608
-73.939
-73.156
-72.251
-71.218
-70.056
-68.765
-67.347
-65.808
-64.157
-62.412
-60.601
-58.747
-56.859
-54.946
-53.004
-51.034
-49.039
-47.021
-44.979
-42.913
-40.818
-38.694
-36.551
-34.382
-32.176
-29.902
-27.511
-24.976
-22.296
-19.48
-16.555
-13.555
-10.515
-7.491
-4.553
-1.763
0.823
3.164
5.236
6.997
8.389
9.341
9.76
9.589
8.801
7.378
5.327
2.674
-0.54
-4.23
-8.283
-12.605
-17.119
-21.767
-26.506
-31.276
-35.998
-40.588
-44.951
-49.019
-52.743
-56.072
-58.974
-61.443
-63.506
-65.251
-66.792
-68.224
-69.621
-71.035
-72.508
-74.105
-75.904
-77.987
-80.427
-83.261
-86.531
-90.318
-94.655
-99.508
-104.718
-109.916
-114.691
-118.706
-121.6
-123.006
-122.656
-120.36
-116.231
-110.901
-105.099
-99.442
-94.656
-91.422
-90.225
-91.592
-94.821
-97.34
-96.593
-90.1
-77.285
-61.218
-43.957
-25.375
-2.133
35.124
93.91
176.311
279.402
390.12
493.77
579
634.702
657.399
645.477
595.458
508.969
387.338
236.071
68.592
-100.462
-253.632
-376.37
-462.601
-512.571
-533.333
-533.022
-516.173
-485.481
-442.076
-389.817
-337.266
-291.653
-257.264
-233.342
-213.549
-193.684
-172.819
-152.566
-137.08
-127.781
-123.435
-122.146
-121.223
-119.26
-115.998
-111.129
-104.828
-97.521
-89.573
-81.537
-74.002
-67.351
-61.977
-58.313
-56.452
-56.23
-57.386
-59.522
-62.259
-65.297
-68.275
-70.794
-72.618
-73.634
-73.813
-73.225
-71.923
-69.938
-67.351
-64.264
-60.78
-57.003
-53.017
-48.889
-44.702
-40.552
-36.542
-32.781
-29.343
-26.27
-23.586
-21.297
-19.403
-17.893
-16.742
-15.911
-15.359
-15.048
-14.942
-15.01
-15.216
-15.517
-15.869
-16.223
-16.542
-16.798
-16.968
-17.035
-16.982
-16.795
-16.467
-15.994
-15.371
-14.59
-13.643
-12.517
-11.205
-9.699
-7.996
-6.089
-3.976
-1.651
0.889
3.646
6.623
9.821
13.241
16.884
20.75
24.834
29.131
33.636
38.341
43.238
48.317
53.567
58.976
64.532
70.224
76.036
81.956
87.968
94.056
100.205
106.396
112.613
118.836
125.048
131.227
137.355
143.411
149.376
155.227
160.946
166.511
171.902
177.1
182.083
186.833
191.331
195.559
199.499
203.135
206.451
209.432
212.065
214.339
216.241
217.763
218.896
219.633
219.969
219.899
219.422
218.536
217.243
215.546
213.448
210.956
208.078
204.824
201.205
197.234
192.926
188.297
183.364
178.148
172.667
166.943
160.998
154.857
148.541
142.076
135.488
128.799
122.037
115.226
108.39
101.555
94.744
87.982
81.29
74.691
68.206
61.856
55.659
49.633
43.796
38.162
32.746
27.56
22.616
17.921
13.485
9.314
5.413
1.784
-1.571
-4.652
-7.46
-9.998
-12.27
-14.282
-16.04
-17.552
-18.827
-19.875
-20.705
-21.328
-21.757
-22.004
-22.08
-21.998
-21.772
-21.414
-20.938
-20.356
-19.682
-18.927
-18.106
-17.229
-16.309
-15.358
-14.385
-13.402
-12.418
-11.441
-10.482
-9.546
-8.641
-7.773
-6.948
-6.17
-5.444
-4.773
-4.159
-3.605
-3.111
-2.679
-2.309
-2.001
-1.753
-1.566
-1.437
-1.366
-1.349
-1.385
-1.472
-1.606
-1.785
-2.005
-2.264
-2.558
-2.885
-3.24
-3.621
-4.025
-4.449
-4.89
-5.345
-5.813
-6.29
-6.775
-7.266
-7.761
-8.258
-8.757
-9.256
-9.755
-10.254
-10.751
-11.248
-11.743
-12.238
-12.732
-13.226
-13.72
-14.215
-14.712
-15.21
-15.711
-16.216
-16.724
-17.237
-17.756
-18.28
-18.81
-19.345
-19.886
-20.432
-20.984
-21.54
-22.1
-22.663
-23.23
-23.798
-24.367
-24.936
-25.502
-26.065
-26.622
-27.171
-27.711
-28.239
-28.753
-29.251
-29.731
-30.19
-30.627
-31.039
-31.425
-31.781
-32.106
-32.399
-32.658
-32.882
-33.071
-33.224
-33.343
-33.427
-33.479
-33.499
-33.489
-33.451
-33.385
-33.295
-33.181
-33.047
-32.895
-32.727
-32.546
-32.356
-32.16
-31.961
-31.763
-31.568
-31.38
-31.202
-31.037
-30.889
-30.759
-30.652
-30.569
-30.514
-30.489
-30.496
-30.534
-30.604
-30.704
-30.833
-30.988
-31.163
-31.354
-31.556
-31.764
-31.973
-32.178
-32.374
-32.555
-32.718
-32.858
-32.97
-33.045
-33.076
-33.054
-32.972
-32.82
-32.589
-32.27
-31.854
-31.333
-30.704
-29.963
-29.102
-28.114
-26.986
-25.713
-24.295
-22.733
-21.03
-19.193
-17.234
-15.173
-13.039
-10.864
-8.667
-6.46
-4.245
-2.027
0.188
2.393
4.579
6.751
8.915
11.073
13.221
15.359
17.494
19.655
21.891
24.244
26.729
29.34
32.053
34.843
37.679
40.518
43.306
45.964
48.421
50.626
52.543
54.142
55.377
56.178
56.448
56.109
55.115
53.449
51.116
48.125
44.508
40.322
35.66
30.656
25.422
20.051
14.61
9.157
3.771
-1.447
-6.382
-10.923
-14.994
-18.541
-21.523
-23.912
-25.712
-26.957
-27.736
-28.176
-28.384
-28.467
-28.52
-28.624
-28.891
-29.419
-30.328
-31.782
-33.861
-36.581
-39.878
-43.521
-47.238
-50.808
-53.883
-56.028
-56.969
-56.51
-54.754
-52.301
-49.737
-47.581
-46.438
-46.772
-48.904
-53.037
-58.725
-64.667
-69.338
-70.981
-67.781
-58.113
-40.174
-12.348
26.293
75.055
131.581
192.92
255.631
317.704
378.699
437.061
490.084
531.837
553.123
545.279
501.76
421.173
307.414
168.9
17.986
-132.296
-267.946
-377.491
-455.711
-501.814
-520.525
-519.409
-503.49
-477.181
-444.487
-407.524
-369.781
-333.377
-297.067
-260.439
-222.976
-185.607
-152.16
-125.093
-105.454
-92.844
-85.136
-80.865
-78.914
-78.183
-77.853
-76.857
-74.517
-70.835
-65.987
-60.3
-54.296
-48.471
-43.447
-39.96
-38.296
-38.37
-39.964
-42.696
-46.166
-50.012
-53.769
-56.951
-59.29
-60.678
-61.109
-60.675
-59.444
-57.467
-54.85
-51.724
-48.208
-44.413
-40.426
-36.323
-32.205
-28.193
-24.406
-20.938
-17.845
-15.154
-12.877
-11.013
-9.559
-8.49
-7.77
-7.359
-7.219
-7.312
-7.604
-8.054
-8.615
-9.238
-9.869
-10.466
-11
-11.448
-11.792
-12.019
-12.117
-12.081
-11.909
-11.599
-11.144
-10.536
-9.765
-8.824
-7.707
-6.41
-4.93
-3.261
-1.399
0.661
2.922
5.39
8.066
10.955
14.06
17.381
20.917
24.665
28.621
32.778
37.131
41.671
46.389
51.277
56.323
61.517
66.848
72.303
77.87
83.533
89.279
95.091
100.954
106.849
112.76
118.667
124.551
130.394
136.175
141.874
147.47
152.944
158.273
163.439
168.421
173.199
177.753
182.066
186.118
189.894
193.377
196.551
199.403
201.918
204.087
205.897
207.339
208.406
209.091
209.388
209.295
208.809
207.931
206.661
205.004
202.964
200.549
197.766
194.627
191.142
187.325
183.191
178.757
174.039
169.057
163.831
158.382
152.73
146.899
140.911
134.789
128.557
122.238
115.856
109.434
102.996
96.564
90.162
83.809
77.528
71.339
65.261
59.312
53.508
47.866
42.4
37.124
32.048
27.184
22.541
18.125
13.944
10.002
6.303
2.848
-0.361
-3.326
-6.047
-8.528
-10.772
-12.784
-14.57
-16.137
-17.492
-18.643
-19.598
-20.368
-20.962
-21.39
-21.662
-21.791
-21.785
-21.657
-21.417
-21.077
-20.645
-20.134
-19.553
-18.911
-18.219
-17.486
-16.719
-15.928
-15.119
-14.301
-13.481
-12.664
-11.857
-11.066
-10.295
-9.55
-8.836
-8.155
-7.512
-6.911
-6.353
-5.842
-5.38
-4.967
-4.606
-4.298
-4.043
-3.841
-3.692
-3.596
-3.552
-3.561
-3.62
-3.728
-3.886
-4.09
-4.339
-4.633
-4.969
-5.345
-5.759
-6.209
-6.694
-7.21
-7.755
-8.326
-8.921
-9.536
-10.169
-10.817
-11.476
-12.143
-12.815
-13.489
-14.162
-14.831
-15.492
-16.144
-16.782
-17.406
-18.012
-18.6
-19.165
-19.709
-20.228
-20.721
-21.188
-21.628
-22.04
-22.424
-22.778
-23.104
-23.402
-23.671
-23.912
-24.127
-24.317
-24.483
-24.626
-24.749
-24.853
-24.942
-25.016
-25.079
-25.133
-25.18
-25.224
-25.266
-25.31
-25.359
-25.414
-25.478
-25.553
-25.642
-25.745
-25.865
-26.003
-26.16
-26.337
-26.536
-26.757
-27.001
-27.27
-27.563
-27.882
-28.226
-28.596
-28.991
-29.412
-29.856
-30.325
-30.816
-31.328
-31.861
-32.413
-32.983
-33.571
-34.174
-34.792
-35.422
-36.064
-36.716
-37.375
-38.042
-38.715
-39.392
-40.073
-40.756
-41.442
-42.128
-42.814
-43.499
-44.179
-44.854
-45.52
-46.175
-46.815
-47.436
-48.036
-48.612
-49.161
-49.679
-50.166
-50.618
-51.036
-51.416
-51.755
-52.049
-52.293
-52.482
-52.609
-52.67
-52.658
-52.567
-52.393
-52.133
-51.785
-51.347
-50.813
-50.178
-49.433
-48.572
-47.595
-46.502
-45.294
-43.982
-42.577
-41.099
-39.574
-38.018
-36.44
-34.848
-33.233
-31.597
-29.939
-28.252
-26.542
-24.815
-23.068
-21.31
-19.545
-17.762
-15.946
-14.063
-12.07
-9.95
-7.701
-5.329
-2.871
-0.362
2.151
4.604
6.945
9.134
11.132
12.917
14.467
15.74
16.685
17.236
17.316
16.88
15.902
14.367
12.302
9.751
6.786
3.509
0.01
-3.646
-7.399
-11.207
-15.03
-18.807
-22.472
-25.958
-29.184
-32.09
-34.625
-36.75
-38.469
-39.831
-40.921
-41.848
-42.707
-43.554
-44.446
-45.441
-46.598
-47.996
-49.702
-51.748
-54.206
-57.179
-60.71
-64.764
-69.164
-73.538
-77.493
-80.701
-82.812
-83.465
-82.449
-79.74
-75.671
-70.979
-66.46
-62.75
-60.391
-59.875
-61.395
-64.737
-69.073
-72.868
-74.249
-71.455
-62.94
-47.044
-22.421
11.608
55.202
106.814
162.932
220.079
274.613
323.948
368.942
409.593
443.609
466.481
467.881
437.811
371.692
269.267
139.408
-3.316
-144.639
-269.287
-366.799
-433.657
-470.609
-483.3
-477.777
-457.831
-425.895
-384.73
-339.707
-296.997
-261.741
-235.148
-213.56
-193.344
-172.569
-151.868
-134.709
-122.957
-116.284
-113.461
-111.902
-109.858
-106.781
-102.131
-96.005
-88.853
-80.968
-72.765
-64.797
-57.471
-51.226
-46.626
-43.846
-42.77
-43.199
-44.787
-47.214
-50.232
-53.493
-56.578
-59.194
-61.173
-62.447
-63.052
-63.009
-62.317
-61.017
-59.181
-56.893
-54.241
-51.298
-48.121
-44.766
-41.307
-37.837
-34.459
-31.271
-28.341
-25.709
-23.397
-21.417
-19.773
-18.457
-17.448
-16.707
-16.197
-15.886
-15.744
-15.746
-15.86
-16.045
-16.26
-16.458
-16.607
-16.684
-16.669
-16.545
-16.299
-15.921
-15.407
-14.759
-13.974
-13.05
-11.978
-10.753
-9.369
-7.825
-6.117
-4.244
-2.205
0.003
2.381
4.929
7.648
10.539
13.601
16.834
20.238
23.808
27.54
31.427
35.463
39.639
43.947
48.378
52.921
57.566
62.303
67.121
72.009
76.953
81.942
86.963
92.003
97.046
102.08
107.088
112.057
116.97
121.812
126.566
131.218
135.75
140.147
144.394
148.474
152.372
156.074
159.565
162.832
165.862
168.642
171.161
173.41
175.377
177.055
178.436
179.513
180.28
180.734
180.869
180.684
180.177
179.348
178.197
176.727
174.941
172.845
170.444
167.746
164.76
161.495
157.964
154.179
150.154
145.903
141.441
136.786
131.954
126.964
121.834
116.582
111.227
105.789
100.287
94.739
89.165
83.582
78.01
72.466
66.968
61.533
56.177
50.917
45.768
40.745
35.861
31.129
26.562
22.17
17.963
13.95
10.138
6.534
3.144
-0.03
-2.984
-5.718
-8.229
-10.521
-12.593
-14.45
-16.095
-17.533
-18.77
-19.811
-20.664
-21.335
-21.832
-22.164
-22.339
-22.365
-22.253
-22.011
-21.649
-21.177
-20.606
-19.945
-19.205
-18.395
-17.526
-16.608
-15.65
-14.662
-13.653
-12.631
-11.604
-10.581
-9.568
-8.572
-7.598
-6.652
-5.739
-4.863
-4.027
-3.234
-2.487
-1.789
-1.14
-0.544
-0
0.489
0.924
1.304
1.63
1.9
2.117
2.28
2.391
2.451
2.462
2.425
2.342
2.215
2.047
1.84
1.595
1.314
1.001
0.657
0.284
-0.116
-0.543
-0.993
-1.467
-1.963
-2.481
-3.019
-3.576
-4.153
-4.749
-5.363
-5.994
-6.643
-7.308
-7.99
-8.687
-9.399
-10.126
-10.867
-11.621
-12.388
-13.168
-13.959
-14.761
-15.573
-16.394
-17.224
-18.062
-18.905
-19.754
-20.606
-21.459
-22.313
-23.166
-24.015
-24.858
-25.693
-26.518
-27.331
-28.129
-28.91
-29.672
-30.411
-31.125
-31.813
-32.471
-33.098
-33.691
-34.248
-34.769
-35.25
-35.691
-36.09
-36.447
-36.759
-37.027
-37.25
-37.429
-37.563
-37.654
-37.702
-37.709
-37.677
-37.608
-37.505
-37.37
-37.205
-37.013
-36.797
-36.56
-36.304
-36.033
-35.751
-35.461
-35.167
-34.871
-34.579
-34.294
-34.018
-33.756
-33.511
-33.286
-33.083
-32.906
-32.758
-32.641
-32.557
-32.508
-32.496
-32.52
-32.581
-32.677
-32.807
-32.969
-33.157
-33.368
-33.598
-33.844
-34.101
-34.365
-34.631
-34.897
-35.16
-35.414
-35.655
-35.875
-36.069
-36.227
-36.343
-36.406
-36.409
-36.344
-36.203
-35.981
-35.675
-35.279
-34.787
-34.192
-33.481
-32.649
-31.694
-30.612
-29.408
-28.087
-26.663
-25.156
-23.591
-21.984
-20.348
-18.687
-16.998
-15.282
-13.536
-11.757
-9.952
-8.125
-6.277
-4.418
-2.551
-0.668
1.244
3.219
5.297
7.494
9.812
12.244
14.753
17.302
19.844
22.312
24.654
26.828
28.794
30.53
32.012
33.196
34.033
34.46
34.399
33.807
32.656
30.935
28.666
25.897
22.697
19.17
15.405
11.472
7.43
3.327
-0.794
-4.87
-8.83
-12.605
-16.114
-19.291
-22.086
-24.456
-26.396
-27.949
-29.195
-30.238
-31.174
-32.063
-32.955
-33.919
-35.021
-36.345
-37.972
-39.946
-42.337
-45.258
-48.764
-52.845
-57.373
-62.024
-66.412
-70.208
-73.038
-74.502
-74.359
-72.496
-69.088
-64.75
-60.191
-56.062
-53.052
-51.754
-52.45
-55.099
-59.091
-63.072
-65.389
-64.2
-57.518
-43.525
-20.684
12.096
55.061
107.65
167.843
231.841
295.551
354.491
405.873
450.44
487.86
516.256
531.328
522.571
480.904
402.652
287.623
145.822
-6.437
-153.776
-278.946
-370.699
-428.726
-457.421
-465.747
-462.978
-451.028
-427.711
-392.722
-347.8
-298.723
-254.71
-219.716
-192.746
-172.025
-153.593
-136.37
-122.994
-114.17
-110.041
-109.909
-110.857
-111.03
-109.695
-106.127
-100.537
-93.54
-85.496
-76.918
-68.527
-60.84
-54.36
-49.659
-46.875
-45.852
-46.385
-48.107
-50.655
-53.763
-57.073
-60.19
-62.866
-64.929
-66.297
-67.005
-67.06
-66.469
-65.282
-63.556
-61.36
-58.777
-55.872
-52.705
-49.339
-45.831
-42.264
-38.727
-35.304
-32.083
-29.123
-26.452
-24.097
-22.066
-20.353
-18.949
-17.83
-16.958
-16.3
-15.827
-15.511
-15.33
-15.252
-15.24
-15.256
-15.261
-15.221
-15.116
-14.923
-14.625
-14.208
-13.662
-12.98
-12.16
-11.199
-10.087
-8.817
-7.378
-5.764
-3.967
-1.982
0.193
2.565
5.136
7.911
10.893
14.082
17.481
21.092
24.917
28.954
33.202
37.656
42.311
47.159
52.194
57.405
62.782
68.313
73.985
79.787
85.702
91.716
97.813
103.975
110.184
116.421
122.667
128.901
135.103
141.251
147.324
153.3
159.158
164.875
170.43
175.802
180.969
185.911
190.608
195.039
199.186
203.031
206.557
209.749
212.591
215.07
217.174
218.893
220.219
221.143
221.66
221.768
221.463
220.746
219.618
218.085
216.149
213.82
211.107
208.019
204.57
200.773
196.643
192.199
187.456
182.436
177.159
171.645
165.917
159.998
153.913
147.684
141.338
134.897
128.389
121.836
115.265
108.699
102.161
95.676
89.265
82.95
76.751
70.687
64.777
59.036
53.481
48.124
42.979
38.057
33.367
28.918
24.716
20.766
17.074
13.64
10.468
7.556
4.903
2.507
0.364
-1.531
-3.185
-4.604
-5.797
-6.771
-7.538
-8.107
-8.489
-8.696
-8.74
-8.634
-8.388
-8.016
-7.53
-6.942
-6.264
-5.508
-4.685
-3.806
-2.882
-1.924
-0.941
0.058
1.062
2.064
3.055
4.027
4.974
5.889
6.766
7.6
8.386
9.12
9.798
10.417
10.975
11.471
11.902
12.269
12.571
12.809
12.984
13.097
13.149
13.141
13.077
12.958
12.785
12.562
12.29
11.973
11.612
11.211
10.772
10.299
9.794
9.261
8.702
8.121
7.52
6.903
6.271
5.629
4.978
4.322
3.661
2.999
2.338
1.678
1.022
0.369
-0.279
-0.921
-1.558
-2.189
-2.814
-3.433
-4.046
-4.653
-5.255
-5.852
-6.443
-7.031
-7.615
-8.196
-8.776
-9.354
-9.933
-10.512
-11.094
-11.679
-12.268
-12.862
-13.462
-14.068
-14.682
-15.303
-15.932
-16.57
-17.215
-17.869
-18.529
-19.196
-19.868
-20.545
-21.224
-21.904
-22.585
-23.263
-23.938
-24.608
-25.271
-25.925
-26.569
-27.199
-27.815
-28.414
-28.994
-29.553
-30.088
-30.598
-31.081
-31.536
-31.96
-32.353
-32.715
-33.046
-33.344
-33.612
-33.848
-34.056
-34.235
-34.389
-34.517
-34.624
-34.712
-34.783
-34.841
-34.888
-34.929
-34.968
-35.007
-35.052
-35.104
-35.17
-35.252
-35.355
-35.482
-35.64
-35.83
-36.059
-36.329
-36.645
-37.01
-37.426
-37.896
-38.421
-39.001
-39.635
-40.321
-41.057
-41.841
-42.67
-43.541
-44.45
-45.393
-46.367
-47.369
-48.392
-49.432
-50.48
-51.529
-52.57
-53.595
-54.592
-55.554
-56.467
-57.322
-58.111
-58.825
-59.454
-59.986
-60.406
-60.702
-60.868
-60.899
-60.793
-60.552
-60.178
-59.68
-59.075
-58.383
-57.617
-56.793
-55.911
-54.973
-53.983
-52.944
-51.865
-50.744
-49.566
-48.314
-46.977
-45.54
-43.987
-42.298
-40.428
-38.342
-36.018
-33.44
-30.62
-27.581
-24.343
-20.938
-17.408
-13.81
-10.227
-6.754
-3.463
-0.428
2.28
4.591
6.402
7.628
8.203
8.075
7.22
5.634
3.313
0.271
-3.444
-7.765
-12.589
-17.787
-23.256
-28.899
-34.621
-40.332
-45.919
-51.275
-56.317
-60.966
-65.16
-68.851
-71.995
-74.558
-76.55
-78.016
-79.036
-79.732
-80.205
-80.536
-80.81
-81.119
-81.565
-82.264
-83.318
-84.801
-86.812
-89.48
-92.866
-96.966
-101.641
-106.563
-111.356
-115.649
-119.01
-121.007
-121.381
-120.034
-117.195
-113.539
-109.796
-106.675
-104.927
-105.066
-107.253
-111.435
-116.846
-121.879
-124.842
-123.109
-113.965
-96.286
-68.669
-31.404
13.964
68.682
131.826
201.233
275.196
346.686
410.507
465.651
509.443
541.386
558.666
551.184
510.46
431.889
314.933
169.657
11.346
-144.854
-282.422
-389.875
-463.041
-503.433
-518.037
-515.649
-501.43
-474.617
-434.323
-380.983
-319.724
-262.981
-219.384
-192.481
-180.45
-174.12
-167.487
-158.947
-149.091
-141.912
-139.159
-139.374
-140.678
-140.678
-138.027
-133.068
-126.499
-118.983
-111.095
-103.371
-96.309
-90.447
-86.332
-84.064
-83.453
-84.268
-86.147
-88.758
-91.83
-94.991
-97.839
-100.123
-101.709
-102.555
-102.715
-102.224
-101.096
-99.39
-97.181
-94.557
-91.609
-88.414
-85.032
-81.519
-77.946
-74.4
-70.974
-67.761
-64.827
-62.206
-59.916
-57.967
-56.363
-55.097
-54.147
-53.477
-53.05
-52.833
-52.797
-52.92
-53.17
-53.51
-53.9
-54.297
-54.667
-54.986
-55.234
-55.392
-55.443
-55.373
-55.173
-54.841
-54.37
-53.752
-52.975
-52.027
-50.898
-49.582
-48.07
-46.357
-44.435
-42.299
-39.943
-37.362
-34.551
-31.508
-28.228
-24.708
-20.946
-16.944
-12.703
-8.229
-3.527
1.398
6.536
11.879
17.416
23.136
29.027
35.076
41.268
47.59
54.023
60.552
67.158
73.821
80.522
87.239
93.952
100.638
107.275
113.839
120.308
126.656
132.862
138.901
144.75
150.384
155.782
160.921
165.779
170.335
174.571
178.466
182.004
185.169
187.945
190.32
192.283
193.821
194.929
195.598
195.824
195.605
194.94
193.829
192.276
190.286
187.866
185.025
181.774
178.126
174.094
169.696
164.95
159.874
154.49
148.82
142.887
136.715
130.329
123.756
117.022
110.153
103.177
96.12
89.009
81.871
74.732
67.618
60.553
53.562
46.667
39.891
33.254
26.776
20.474
14.366
8.466
2.789
-2.653
-7.85
-12.793
-17.473
-21.886
-26.027
-29.893
-33.482
-36.794
-39.831
-42.594
-45.087
-47.316
-49.286
-51.005
-52.479
-53.719
-54.734
-55.535
-56.131
-56.536
-56.76
-56.815
-56.714
-56.468
-56.089
-55.592
-54.986
-54.284
-53.498
-52.64
-51.721
-50.752
-49.743
-48.703
-47.644
-46.574
-45.502
-44.438
-43.39
-42.367
-41.38
-40.436
-39.543
-38.711
-37.945
-37.253
-36.641
-36.114
-35.674
-35.327
-35.074
-34.921
-34.872
-34.93
-35.098
-35.38
-35.778
-36.294
-36.93
-37.687
-38.56
-39.548
-40.649
-41.865
-43.197
-44.646
-46.203
-47.86
-49.606
-51.425
-53.296
-55.19
-57.068
-58.891
-60.622
-62.225
-63.671
-64.924
-65.942
-66.685
-67.105
-67.159
-66.817
-66.047
-64.817
-63.113
-60.926
-58.268
-55.171
-51.662
-47.762
-43.497
-38.883
-33.941
-28.695
-23.165
-17.373
-11.34
-5.074
1.422
8.152
15.139
22.419
30.046
38.101
46.663
55.806
65.615
76.173
87.559
99.852
113.126
127.458
142.928
159.617
177.592
196.898
217.564
239.608
263.025
287.787
313.867
341.212
369.754
399.417
430.105
461.749
494.294
527.61
561.463
595.542
629.453
662.76
695.046
725.806
754.446
780.58
804.089
825.061
843.794
860.86
876.864
892.276
907.715
922.73
935.542
945.279
951.113
952.451
950.3
942.105
923.154
890.366
839.5
770.841
688.139
593.406
492.42
392.056
299.726
224.724
170.694
134.967
110.661
89.362
66.316
41.396
17.052
-4.938
-24.551
-43.006
-62.066
-82.138
-102.467
-122.177
-140.104
-155.364
-167.752
-177.263
-184.104
-188.776
-191.778
-193.584
-194.762
-195.84
-197.154
-198.909
-201.167
-203.858
-206.923
-210.32
-214
-217.936
-222.095
-226.429
-230.887
-235.405
-239.892
-244.227
-248.274
-251.879
-254.906
-257.263
-258.897
-259.813
-260.052
-259.673
-258.735
-257.275
-255.34
-252.98
-250.26
-247.256
-244.061
-240.778
-237.521
-234.426
-231.637
-229.279
-227.459
-226.231
-225.602
-225.548
-226.045
-227.08
-228.643
-230.723
-233.3
-236.347
-239.838
-243.742
-248.025
-252.627
-257.471
-262.47
-267.54
-272.625
-277.7
-282.764
-287.81
-292.821
-297.779
-302.662
-307.454
-312.134
-316.668
-321.013
-325.128
-328.982
-332.555
-335.837
-338.818
-341.476
-343.779
-345.692
-347.179
-348.212
-348.76
-348.793
-348.283
-347.21
-345.572
-343.371
-340.619
-337.326
-333.503
-329.172
-324.355
-319.074
-313.356
-307.215
-300.667
-293.731
-286.43
-278.791
-270.835
-262.569
-253.991
-245.109
-235.923
-226.44
-216.658
-206.553
-196.114
-185.341
-174.242
-162.853
-151.214
-139.365
-127.349
-115.223
-103.052
-90.928
-78.956
-67.218
-55.796
-44.77
-34.226
-24.272
-15.003
-6.486
1.224
8.102
14.14
19.325
23.661
27.177
29.921
31.968
33.411
34.322
34.766
34.815
34.537
34.028
33.369
32.62
31.829
31.03
30.25
29.519
28.861
28.273
27.742
27.243
26.735
26.198
25.619
24.984
24.284
23.5
22.617
21.638
20.572
19.431
18.224
16.959
15.641
14.292
12.935
11.595
10.303
9.076
7.929
6.873
5.918
5.069
4.331
3.701
3.171
2.735
2.389
2.127
1.947
1.842
1.802
1.819
1.883
1.987
2.125
2.29
2.474
2.674
2.885
3.104
3.328
3.554
3.778
3.996
4.205
4.4
4.579
4.738
4.875
4.987
5.074
5.134
5.167
5.174
5.154
5.109
5.041
4.95
4.838
4.707
4.559
4.396
4.221
4.036
3.843
3.644
3.442
3.238
3.036
2.836
2.641
2.453
2.275
2.109
1.958
1.823
1.707
1.612
1.541
1.494
1.474
1.483
1.52
1.587
1.686
1.815
1.976
2.17
2.395
2.652
2.94
3.26
3.611
3.991
4.402
4.841
5.31
5.807
6.331
6.882
7.46
8.062
8.689
9.337
10.006
10.695
11.4
12.12
12.853
13.598
14.351
15.112
15.879
16.65
17.423
18.196
18.969
19.74
20.507
21.269
22.025
22.772
23.511
24.24
24.957
25.662
26.352
27.027
27.685
28.324
28.945
29.544
30.122
30.678
31.211
31.722
32.21
32.677
33.122
33.548
33.953
34.34
34.709
35.062
35.398
35.719
36.027
36.32
36.602
36.871
37.13
37.379
37.618
37.849
38.071
38.287
38.496
38.699
38.899
39.095
39.289
39.481
39.674
39.868
40.062
40.259
40.456
40.656
40.856
41.055
41.254
41.451
41.644
41.832
42.014
42.188
42.354
42.508
42.651
42.78
42.895
42.994
43.076
43.14
43.186
43.211
43.216
43.199
43.159
43.095
43.006
42.891
42.748
42.576
42.375
42.144
41.882
41.589
41.264
40.908
40.522
40.105
39.66
39.187
38.687
38.163
37.615
37.045
36.455
35.846
35.221
34.58
33.926
33.259
32.582
31.896
31.202
30.503
29.799
29.092
28.384
27.677
26.972
26.273
25.579
24.895
24.221
23.559
22.911
22.279
21.664
21.067
20.49
19.933
19.397
18.883
18.39
17.919
17.471
17.046
16.644
16.264
15.908
15.575
15.266
14.98
14.718
14.48
14.265
14.074
13.906
13.76
13.637
13.534
13.452
13.39
13.345
13.318
13.306
13.308
13.322
13.348
13.384
13.429
13.482
13.541
13.606
13.677
13.751
13.83
13.911
13.993
14.077
14.161
14.243
14.324
14.401
14.474
14.542
14.604
14.66
14.708
14.748
14.78
14.803
14.817
14.822
14.819
14.807
14.788
14.762
14.729
14.691
14.647
14.599
14.546
14.488
14.425
14.357
14.282
14.2
14.111
14.013
13.907
13.791
13.666
13.53
13.384
13.228
13.061
12.882
12.693
12.491
12.278
12.051
11.811
11.558
11.289
11.004
10.702
10.382
10.042
9.681
9.298
8.891
8.46
8.005
7.526
7.024
6.5
5.959
5.402
4.834
4.259
3.679
3.098
2.52
1.949
1.385
0.833
0.295
-0.226
-0.725
-1.197
-1.636
-2.036
-2.391
-2.694
-2.936
-3.111
-3.213
-3.237
-3.177
-3.024
-2.767
-2.397
-1.911
-1.307
-0.586
0.245
1.183
2.215
3.319
4.475
5.664
6.866
8.078
9.295
10.51
11.717
12.906
14.076
15.241
16.42
17.624
18.873
20.183
21.578
23.107
24.809
26.71
28.83
31.159
33.678
36.37
39.209
42.157
45.163
48.155
51.043
53.761
56.241
58.412
60.201
61.507
62.246
62.358
61.802
60.57
58.676
56.143
53.004
49.324
45.18
40.671
35.915
31.007
26.042
21.122
16.343
11.823
7.659
3.924
0.664
-2.106
-4.402
-6.261
-7.734
-8.89
-9.804
-10.566
-11.291
-12.076
-13.033
-14.26
-15.863
-17.97
-20.652
-23.914
-27.675
-31.718
-35.757
-39.489
-42.562
-44.594
-45.344
-44.671
-42.649
-39.71
-36.374
-33.221
-30.844
-29.668
-30.039
-32.198
-35.909
-40.352
-43.669
-43.067
-36.378
-22.352
-1.855
22.649
50.853
84.467
127.655
185.349
257.133
337.774
418.592
489.144
543.622
580.012
596.856
593.266
564.512
503.267
406.032
273.973
116.777
-46.623
-196.291
-315.782
-396.917
-443.137
-463.475
-466.401
-456.532
-434.077
-398.504
-353.57
-307.69
-268.608
-240.667
-222.448
-207.419
-191.259
-172.998
-154.345
-139.55
-130.313
-125.779
-124.258
-122.952
-120.153
-115.38
-108.541
-100.107
-90.637
-80.551
-70.387
-60.811
-52.457
-45.943
-41.573
-39.259
-38.775
-39.806
-42.014
-45.116
-48.783
-52.606
-56.304
-59.728
-62.778
-65.435
-67.664
-69.369
-70.517
-71.129
-71.229
-70.877
-70.126
-69.005
-67.57
-65.888
-64.016
-62.031
-59.995
-57.948
-55.939
-54.015
-52.222
-50.627
-49.271
-48.165
-47.31
-46.691
-46.286
-46.078
-46.041
-46.137
-46.336
-46.605
-46.919
-47.264
-47.615
-47.948
-48.234
-48.438
-48.531
-48.499
-48.328
-48.006
-47.528
-46.886
-46.078
-45.11
-43.982
-42.694
-41.243
-39.625
-37.836
-35.878
-33.75
-31.456
-28.997
-26.373
-23.587
-20.642
-17.54
-14.282
-10.872
-7.309
-3.596
0.263
4.263
8.399
12.664
17.053
21.558
26.17
30.881
35.683
40.566
45.522
50.539
55.608
60.717
65.854
71.009
76.168
81.318
86.445
91.536
96.577
101.551
106.446
111.245
115.934
120.497
124.918
129.184
133.277
137.184
140.89
144.379
147.639
150.654
153.412
155.902
158.111
160.029
161.646
162.955
163.947
164.617
164.96
164.971
164.649
163.991
162.999
161.673
160.016
158.034
155.73
153.114
150.192
146.974
143.472
139.698
135.664
131.386
126.878
122.156
117.239
112.143
106.888
101.491
95.973
90.354
84.653
78.89
73.085
67.258
61.427
55.612
49.832
44.103
38.443
32.869
27.396
22.039
16.812
11.728
6.799
2.037
-2.548
-6.948
-11.155
-15.161
-18.961
-22.55
-25.926
-29.085
-32.027
-34.751
-37.259
-39.551
-41.632
-43.505
-45.174
-46.644
-47.922
-49.014
-49.927
-50.668
-51.245
-51.666
-51.94
-52.075
-52.08
-51.963
-51.733
-51.399
-50.971
-50.456
-49.865
-49.205
-48.486
-47.715
-46.902
-46.054
-45.179
-44.285
-43.378
-42.465
-41.553
-40.646
-39.752
-38.874
-38.017
-37.185
-36.382
-35.612
-34.877
-34.18
-33.523
-32.908
-32.338
-31.813
-31.335
-30.906
-30.525
-30.194
-29.912
-29.681
-29.499
-29.367
-29.283
-29.247
-29.257
-29.313
-29.413
-29.555
-29.738
-29.959
-30.216
-30.508
-30.832
-31.186
-31.568
-31.975
-32.406
-32.858
-33.329
-33.818
-34.321
-34.838
-35.366
-35.904
-36.448
-36.997
-37.549
-38.103
-38.655
-39.205
-39.751
-40.29
-40.821
-41.342
-41.852
-42.349
-42.832
-43.299
-43.75
-44.183
-44.597
-44.993
-45.368
-45.724
-46.06
-46.375
-46.67
-46.945
-47.199
-47.433
-47.646
-47.839
-48.012
-48.166
-48.301
-48.416
-48.513
-48.593
-48.655
-48.7
-48.73
-48.743
-48.742
-48.728
-48.702
-48.666
-48.621
-48.569
-48.513
-48.455
-48.396
-48.339
-48.286
-48.238
-48.197
-48.164
-48.14
-48.128
-48.128
-48.141
-48.17
-48.214
-48.276
-48.356
-48.455
-48.573
-48.713
-48.873
-49.056
-49.261
-49.489
-49.74
-50.015
-50.314
-50.636
-50.98
-51.343
-51.724
-52.119
-52.523
-52.931
-53.338
-53.74
-54.13
-54.505
-54.86
-55.189
-55.491
-55.76
-55.993
-56.185
-56.329
-56.419
-56.449
-56.411
-56.299
-56.104
-55.82
-55.438
-54.957
-54.372
-53.678
-52.868
-51.93
-50.859
-49.654
-48.316
-46.849
-45.259
-43.554
-41.749
-39.873
-37.949
-36.003
-34.049
-32.09
-30.131
-28.179
-26.244
-24.336
-22.455
-20.584
-18.716
-16.847
-14.968
-13.073
-11.137
-9.109
-6.954
-4.647
-2.184
0.413
3.12
5.916
8.763
11.618
14.417
17.069
19.507
21.682
23.54
25.034
26.088
26.599
26.493
25.718
24.245
22.082
19.24
15.74
11.641
7.022
1.988
-3.333
-8.841
-14.462
-20.113
-25.713
-31.158
-36.323
-41.112
-45.457
-49.299
-52.606
-55.362
-57.579
-59.318
-60.673
-61.749
-62.647
-63.449
-64.231
-65.078
-66.094
-67.389
-69.051
-71.164
-73.82
-77.059
-80.862
-85.1
-89.446
-93.49
-96.875
-99.211
-100.108
-99.327
-96.753
-92.557
-87.383
-82.02
-77.133
-73.312
-71.126
-70.957
-72.939
-76.672
-80.245
-80.758
-75.848
-63.879
-45.27
-21.883
6.415
41.548
87.202
147.279
221.063
303.818
388.278
466.018
531.459
580.469
607.842
608.271
575.294
503.6
393.556
250.873
86.859
-82.179
-238.809
-368.688
-462.763
-518.302
-540.311
-535.006
-506.872
-462.444
-405.982
-344.051
-288.072
-243.77
-213.432
-195.124
-180.393
-165.013
-148.632
-132.694
-121.692
-117.079
-117.407
-120.448
-123.046
-123.395
-121.036
-116.044
-109.077
-100.779
-91.654
-82.408
-73.725
-66.237
-60.568
-56.91
-55.121
-54.938
-55.972
-57.855
-60.276
-62.863
-65.195
-66.987
-68.096
-68.471
-68.163
-67.215
-65.636
-63.472
-60.798
-57.701
-54.274
-50.601
-46.743
-42.754
-38.704
-34.672
-30.76
-27.065
-23.653
-20.564
-17.814
-15.416
-13.376
-11.694
-10.346
-9.296
-8.502
-7.927
-7.543
-7.325
-7.242
-7.256
-7.326
-7.408
-7.472
-7.494
-7.456
-7.34
-7.129
-6.808
-6.373
-5.823
-5.153
-4.358
-3.428
-2.355
-1.132
0.246
1.783
3.484
5.352
7.393
9.611
12.006
14.583
17.342
20.286
23.417
26.736
30.239
33.926
37.791
41.831
46.041
50.415
54.944
59.622
64.441
69.392
74.465
79.651
84.938
90.315
95.77
101.289
106.859
112.465
118.093
123.726
129.349
134.944
140.494
145.98
151.385
156.689
161.875
166.923
171.815
176.532
181.056
185.368
189.451
193.286
196.857
200.146
203.137
205.815
208.165
210.173
211.829
213.119
214.037
214.572
214.719
214.473
213.83
212.787
211.344
209.503
207.267
204.641
201.631
198.248
194.502
190.406
185.973
181.22
176.164
170.823
165.217
159.366
153.292
147.018
140.568
133.967
127.239
120.413
113.514
106.569
99.607
92.651
85.728
78.862
72.076
65.39
58.826
52.402
46.137
40.049
34.156
28.475
23.022
17.811
12.855
8.164
3.743
-0.401
-4.267
-7.858
-11.176
-14.223
-17.001
-19.51
-21.753
-23.739
-25.481
-26.994
-28.301
-29.428
-30.406
-31.268
-32.043
-32.752
-33.41
-34.023
-34.595
-35.128
-35.632
-36.125
-36.619
-37.124
-37.648
-38.197
-38.766
-39.34
-39.888
-40.373
-40.767
-41.051
-41.225
-41.303
-41.299
-41.244
-41.156
-41.044
-40.921
-40.791
-40.653
-40.504
-40.342
-40.178
-40.045
-39.984
-40.021
-40.168
-40.416
-40.741
-41.12
-41.496
-41.814
-42.017
-42.04
-41.831
-41.349
-40.56
-39.433
-37.931
-35.988
-33.537
-30.526
-26.907
-22.649
-17.715
-12.056
-5.659
1.472
9.328
17.887
27.138
37.088
47.755
59.165
71.356
84.352
98.17
112.843
128.437
145.02
162.63
181.282
200.989
221.764
243.684
266.838
291.149
316.492
342.901
370.326
398.689
428.151
457.973
487.407
517.176
547.347
579.257
614.483
650.477
685.332
716.501
740.652
759.81
775.782
789.929
804.813
819.172
831.823
842.771
851.276
858.27
864.464
869.034
870.944
868.48
859.578
842.846
817.071
780.964
734.126
677.253
611.78
540.081
465.189
389.866
316.972
249.659
190.084
139.315
97.752
64.747
38.935
18.992
3.153
-10.836
-24.497
-38.723
-54.064
-70.388
-87.257
-104.308
-120.809
-135.765
-148.645
-159.226
-167.497
-173.807
-178.538
-182.014
-184.719
-187.19
-189.757
-192.614
-195.828
-199.319
-203.031
-206.918
-210.91
-214.936
-218.955
-222.956
-226.935
-230.88
-234.751
-238.479
-241.978
-245.165
-247.967
-250.321
-252.196
-253.592
-254.529
-255.053
-255.209
-255.031
-254.548
-253.773
-252.73
-251.459
-250.01
-248.438
-246.816
-245.223
-243.742
-242.471
-241.48
-240.812
-240.499
-240.551
-240.975
-241.783
-242.983
-244.583
-246.585
-248.988
-251.784
-254.964
-258.505
-262.376
-266.532
-270.919
-275.487
-280.199
-285.016
-289.909
-294.846
-299.797
-304.731
-309.623
-314.441
-319.15
-323.714
-328.094
-332.255
-336.163
-339.787
-343.098
-346.07
-348.677
-350.894
-352.696
-354.057
-354.948
-355.343
-355.224
-354.576
-353.39
-351.661
-349.386
-346.576
-343.25
-339.425
-335.125
-330.362
-325.138
-319.461
-313.342
-306.795
-299.837
-292.476
-284.707
-276.531
-267.956
-258.988
-249.638
-239.899
-229.744
-219.16
-208.146
-196.722
-184.934
-172.825
-160.438
-147.829
-135.06
-122.215
-109.406
-96.725
-84.244
-72.043
-60.193
-48.788
-37.948
-27.767
-18.317
-9.648
-1.777
5.278
11.499
16.897
21.505
25.38
28.609
31.259
33.372
35
36.189
37.007
37.545
37.87
38.031
38.067
38.002
37.864
37.684
37.471
37.21
36.879
36.435
35.856
35.141
34.287
33.293
32.155
30.857
29.399
27.797
26.065
24.216
22.266
20.222
18.105
15.949
13.786
11.657
9.59
7.603
5.713
3.934
2.28
0.76
-0.62
-1.864
-2.975
-3.95
-4.792
-5.498
-6.073
-6.524
-6.86
-7.089
-7.22
-7.259
-7.214
-7.093
-6.904
-6.652
-6.344
-5.984
-5.577
-5.132
-4.657
-4.158
-3.645
-3.125
-2.606
-2.095
-1.601
-1.13
-0.688
-0.28
0.089
0.414
0.692
0.918
1.091
1.208
1.268
1.268
1.209
1.089
0.91
0.672
0.376
0.023
-0.385
-0.847
-1.36
-1.922
-2.532
-3.185
-3.879
-4.61
-5.375
-6.17
-6.99
-7.832
-8.691
-9.563
-10.443
-11.327
-12.211
-13.09
-13.962
-14.822
-15.667
-16.494
-17.299
-18.081
-18.835
-19.562
-20.257
-20.92
-21.549
-22.142
-22.699
-23.218
-23.7
-24.142
-24.545
-24.909
-25.233
-25.518
-25.764
-25.972
-26.143
-26.278
-26.378
-26.445
-26.479
-26.483
-26.459
-26.407
-26.33
-26.23
-26.108
-25.966
-25.805
-25.628
-25.436
-25.23
-25.012
-24.783
-24.544
-24.297
-24.042
-23.782
-23.516
-23.246
-22.973
-22.698
-22.422
-22.146
-21.87
-21.595
-21.322
-21.05
-20.782
-20.515
-20.252
-19.992
-19.735
-19.481
-19.23
-18.982
-18.737
-18.495
-18.257
-18.022
-17.79
-17.563
-17.339
-17.12
-16.905
-16.696
-16.492
-16.295
-16.104
-15.92
-15.744
-15.575
-15.416
-15.264
-15.122
-14.989
-14.865
-14.751
-14.647
-14.553
-14.469
-14.396
-14.333
-14.281
-14.241
-14.211
-14.194
-14.187
-14.192
-14.208
-14.235
-14.273
-14.321
-14.378
-14.443
-14.516
-14.595
-14.68
-14.768
-14.859
-14.95
-15.041
-15.129
-15.214
-15.292
-15.364
-15.427
-15.48
-15.521
-15.55
-15.564
-15.563
-15.545
-15.509
-15.454
-15.379
-15.282
-15.162
-15.019
-14.852
-14.66
-14.442
-14.198
-13.928
-13.632
-13.309
-12.96
-12.586
-12.187
-11.764
-11.319
-10.852
-10.366
-9.861
-9.34
-8.805
-8.258
-7.701
-7.135
-6.563
-5.986
-5.407
-4.828
-4.25
-3.676
-3.107
-2.546
-1.993
-1.452
-0.923
-0.408
0.091
0.572
1.035
1.478
1.9
2.3
2.677
3.03
3.358
3.661
3.94
4.193
4.421
4.625
4.805
4.961
5.096
5.21
5.304
5.379
5.437
5.479
5.507
5.521
5.524
5.517
5.501
5.478
5.448
5.414
5.376
5.336
5.296
5.255
5.216
5.18
5.147
5.12
5.098
5.083
5.077
5.079
5.092
5.114
5.148
5.193
5.25
5.318
5.398
5.488
5.589
5.698
5.815
5.937
6.065
6.195
6.327
6.459
6.589
6.717
6.84
6.957
7.066
7.166
7.255
7.33
7.391
7.434
7.459
7.464
7.446
7.404
7.335
7.238
7.111
6.95
6.756
6.524
6.255
5.948
5.601
5.217
4.795
4.34
3.853
3.337
2.797
2.234
1.653
1.057
0.448
-0.171
-0.797
-1.428
-2.059
-2.683
-3.294
-3.887
-4.453
-4.986
-5.477
-5.917
-6.299
-6.618
-6.869
-7.044
-7.134
-7.125
-7.009
-6.782
-6.44
-5.986
-5.421
-4.748
-3.979
-3.137
-2.241
-1.312
-0.362
0.612
1.607
2.619
3.641
4.666
5.698
6.755
7.85
8.988
10.179
11.43
12.764
14.231
15.861
17.679
19.685
21.857
24.172
26.616
29.156
31.752
34.342
36.834
39.162
41.28
43.136
44.687
45.869
46.593
46.801
46.466
45.582
44.171
42.254
39.839
36.971
33.719
30.172
26.453
22.657
18.84
15.066
11.395
7.892
4.635
1.664
-1.039
-3.507
-5.783
-7.912
-9.921
-11.848
-13.774
-15.797
-18.032
-20.581
-23.506
-26.848
-30.67
-35.05
-40.01
-45.468
-51.19
-56.785
-61.855
-66.058
-69.018
-70.322
-69.683
-66.98
-62.396
-56.548
-50.167
-43.886
-38.368
-34.258
-31.894
-31.303
-31.994
-32.677
-31.651
-27.176
-17.422
-0.454
25.354
61.183
107.718
163.886
226.538
291.904
355.685
414.862
469.593
520.381
565.866
600.965
615.908
598.61
540.048
438.303
297.758
131.202
-43.404
-208.683
-346.939
-445.777
-501.585
-516.094
-496.649
-454.881
-401.142
-345.017
-295.999
-257.458
-229.123
-208.057
-187.359
-164.479
-140.634
-118.312
-102.313
-94.041
-91.809
-93.692
-96.614
-98.559
-98.864
-96.788
-92.247
-85.686
-77.508
-68.272
-58.728
-49.506
-41.24
-34.63
-29.942
-27.068
-25.79
-25.754
-26.625
-28.171
-30.083
-31.971
-33.608
-34.89
-35.77
-36.3
-36.476
-36.237
-35.578
-34.541
-33.173
-31.546
-29.714
-27.703
-25.551
-23.303
-21.008
-18.727
-16.503
-14.358
-12.317
-10.403
-8.653
-7.125
-5.849
-4.832
-4.067
-3.533
-3.209
-3.082
-3.129
-3.316
-3.615
-3.996
-4.44
-4.937
-5.468
-6.012
-6.542
-7.021
-7.422
-7.726
-7.918
-7.985
-7.914
-7.695
-7.322
-6.795
-6.114
-5.272
-4.263
-3.078
-1.712
-0.161
1.577
3.501
5.612
7.911
10.397
13.068
15.922
18.958
22.174
25.571
29.145
32.894
36.811
40.892
45.13
49.517
54.047
58.709
63.494
68.393
73.396
78.491
83.667
88.913
94.214
99.558
104.93
110.316
115.7
121.066
126.398
131.679
136.894
142.024
147.054
151.965
156.742
161.367
165.824
170.096
174.168
178.023
181.647
185.025
188.142
190.987
193.546
195.809
197.764
199.402
200.716
201.699
202.344
202.648
202.608
202.223
201.493
200.42
199.009
197.264
195.191
192.8
190.1
187.102
183.819
180.263
176.45
172.396
168.116
163.629
158.952
154.104
149.106
143.975
138.733
133.4
127.996
122.542
117.057
111.563
106.078
100.623
95.216
89.875
84.618
79.46
74.418
69.506
64.737
60.122
55.674
51.4
47.31
43.411
39.708
36.205
32.907
29.815
26.93
24.252
21.781
19.514
17.449
15.581
13.907
12.422
11.119
9.992
9.034
8.237
7.594
7.097
6.735
6.501
6.386
6.379
6.473
6.657
6.924
7.263
7.667
8.128
8.637
9.187
9.771
10.382
11.014
11.66
12.315
12.974
13.632
14.283
14.924
15.55
16.158
16.744
17.304
17.836
18.336
18.801
19.231
19.621
19.971
20.279
20.543
20.763
20.936
21.063
21.141
21.172
21.154
21.087
20.971
20.804
20.588
20.321
20.003
19.635
19.217
18.747
18.228
17.658
17.039
16.371
15.655
14.892
14.084
13.233
12.339
11.406
10.435
9.43
8.391
7.323
6.227
5.107
3.966
2.805
1.628
0.438
-0.763
-1.972
-3.186
-4.402
-5.618
-6.831
-8.037
-9.236
-10.423
-11.597
-12.755
-13.894
-15.013
-16.109
-17.182
-18.229
-19.25
-20.245
-21.212
-22.153
-23.067
-23.958
-24.824
-25.669
-26.495
-27.302
-28.094
-28.872
-29.64
-30.399
-31.152
-31.901
-32.649
-33.397
-34.149
-34.907
-35.673
-36.449
-37.238
-38.043
-38.866
-39.709
-40.574
-41.464
-42.381
-43.325
-44.298
-45.302
-46.335
-47.399
-48.492
-49.61
-50.753
-51.914
-53.092
-54.28
-55.475
-56.671
-57.863
-59.048
-60.219
-61.374
-62.507
-63.612
-64.682
-65.713
-66.695
-67.623
-68.487
-69.28
-69.993
-70.617
-71.146
-71.573
-71.89
-72.087
-72.152
-72.076
-71.856
-71.489
-70.978
-70.327
-69.543
-68.639
-67.636
-66.551
-65.401
-64.201
-62.958
-61.681
-60.377
-59.056
-57.733
-56.409
-55.079
-53.73
-52.346
-50.906
-49.391
-47.77
-46
-44.047
-41.891
-39.522
-36.945
-34.176
-31.235
-28.149
-24.948
-21.681
-18.412
-15.21
-12.157
-9.334
-6.819
-4.704
-3.087
-2.052
-1.663
-1.961
-2.964
-4.67
-7.061
-10.096
-13.725
-17.876
-22.465
-27.398
-32.563
-37.853
-43.164
-48.378
-53.375
-58.052
-62.322
-66.115
-69.396
-72.158
-74.418
-76.234
-77.665
-78.774
-79.642
-80.36
-81.038
-81.793
-82.735
-83.961
-85.595
-87.769
-90.559
-93.98
-97.93
-102.159
-106.377
-110.278
-113.476
-115.573
-116.302
-115.505
-113.287
-110.125
-106.535
-103.052
-100.35
-98.982
-99.192
-101.141
-104.58
-108.445
-111.536
-111.873
-106.442
-93.541
-72.276
-42.707
-7.054
34.675
84.085
141.926
209.704
285.27
363.117
438.815
506.646
560.121
593.025
596.035
560.188
482.595
364.98
216.739
53.602
-110.091
-259.158
-382.131
-474.092
-531.669
-557.69
-557.052
-533.7
-495.057
-447.356
-397.602
-353.446
-317.408
-289.072
-265.091
-241.426
-217.616
-195.65
-178.779
-168.957
-165.478
-166.136
-167.943
-168.802
-167.728
-164.117
-158.076
-150.032
-140.436
-130.013
-119.58
-109.808
-101.373
-94.896
-90.587
-88.345
-87.915
-88.883
-90.829
-93.425
-96.287
-98.988
-101.238
-102.85
-103.725
-103.881
-103.337
-102.093
-100.189
-97.687
-94.656
-91.183
-87.35
-83.225
-78.883
-74.399
-69.854
-65.349
-60.979
-56.84
-52.998
-49.491
-46.341
-43.56
-41.151
-39.101
-37.385
-35.963
-34.796
-33.85
-33.091
-32.491
-32.016
-31.624
-31.271
-30.914
-30.518
-30.058
-29.51
-28.854
-28.074
-27.155
-26.09
-24.875
-23.505
-21.969
-20.258
-18.36
-16.265
-13.966
-11.457
-8.731
-5.783
-2.608
0.798
4.438
8.316
12.431
16.786
21.381
26.216
31.285
36.584
42.105
47.84
53.779
59.91
66.221
72.698
79.328
86.094
92.983
99.977
107.057
114.207
121.406
128.634
135.87
143.092
150.278
157.404
164.449
171.388
178.197
184.854
191.336
197.618
203.679
209.497
215.049
220.315
225.276
229.912
234.205
238.139
241.699
244.871
247.643
250.003
251.943
253.455
254.533
255.171
255.366
255.118
254.427
253.295
251.726
249.727
247.305
244.47
241.235
237.611
233.614
229.26
224.568
219.555
214.242
208.65
202.803
196.723
190.434
183.961
177.328
170.562
163.687
156.728
149.711
142.66
135.599
128.553
121.544
114.596
107.731
100.969
94.331
87.836
81.502
75.345
69.381
63.624
58.085
52.777
47.709
42.889
38.324
34.019
29.98
26.207
22.704
19.469
16.501
13.799
11.357
9.172
7.238
5.548
4.094
2.869
1.864
1.07
0.476
0.071
-0.155
-0.214
-0.118
0.121
0.49
0.978
1.571
2.259
3.028
3.866
4.762
5.705
6.683
7.686
8.702
9.723
10.737
11.737
12.712
13.656
14.56
15.417
16.22
16.964
17.643
18.252
18.785
19.24
19.612
19.898
20.096
20.205
20.222
20.147
19.981
19.723
19.374
18.936
18.411
17.8
17.106
16.332
15.481
14.556
13.562
12.501
11.379
10.199
8.967
7.686
6.363
5.002
3.607
2.185
0.741
-0.721
-2.196
-3.678
-5.162
-6.643
-8.117
-9.579
-11.024
-12.449
-13.849
-15.221
-16.562
-17.87
-19.141
-20.374
-21.567
-22.718
-23.827
-24.892
-25.912
-26.888
-27.819
-28.705
-29.547
-30.346
-31.104
-31.822
-32.502
-33.147
-33.76
-34.343
-34.899
-35.432
-35.944
-36.439
-36.92
-37.39
-37.853
-38.311
-38.769
-39.229
-39.695
-40.169
-40.655
-41.154
-41.669
-42.202
-42.753
-43.324
-43.917
-44.533
-45.172
-45.835
-46.523
-47.235
-47.971
-48.729
-49.507
-50.303
-51.113
-51.934
-52.759
-53.584
-54.404
-55.214
-56.008
-56.781
-57.528
-58.244
-58.925
-59.567
-60.162
-60.704
-61.185
-61.598
-61.934
-62.185
-62.343
-62.402
-62.354
-62.196
-61.925
-61.537
-61.027
-60.388
-59.611
-58.691
-57.627
-56.418
-55.068
-53.586
-51.985
-50.288
-48.521
-46.702
-44.843
-42.952
-41.027
-39.068
-37.077
-35.05
-32.996
-30.922
-28.829
-26.728
-24.626
-22.515
-20.38
-18.191
-15.906
-13.51
-11.001
-8.386
-5.703
-2.988
-0.291
2.32
4.793
7.088
9.162
10.994
12.559
13.814
14.709
15.18
15.15
14.573
13.424
11.69
9.396
6.591
3.348
-0.23
-4.05
-8.042
-12.143
-16.308
-20.489
-24.626
-28.645
-32.478
-36.044
-39.273
-42.115
-44.528
-46.509
-48.1
-49.38
-50.449
-51.402
-52.305
-53.213
-54.193
-55.311
-56.639
-58.261
-60.226
-62.603
-65.503
-68.959
-72.955
-77.379
-81.939
-86.286
-90.111
-93.046
-94.729
-94.969
-93.623
-90.797
-87.022
-82.863
-78.936
-75.896
-74.092
-73.755
-75.131
-77.959
-81.331
-83.435
-81.384
-72.769
-56.54
-33.895
-7.558
21.559
54.916
96.857
152.077
220.452
297.654
375.943
446.631
504.15
543.738
560.22
547.795
500.024
414.506
293.852
146.389
-14.373
-174.041
-317.525
-432.779
-513.809
-559.959
-576.329
-569.648
-545.436
-507.756
-460.464
-409.396
-360.746
-319.474
-286.709
-259.127
-233.522
-208.489
-185.114
-166.899
-155.531
-150.317
-149.573
-150.331
-150.462
-149.084
-145.384
-139.274
-131.177
-121.479
-110.759
-99.813
-89.278
-79.807
-72.148
-66.576
-63.011
-61.265
-60.962
-61.742
-63.333
-65.352
-67.372
-69.143
-70.515
-71.42
-71.875
-71.84
-71.269
-70.185
-68.635
-66.683
-64.398
-61.82
-58.991
-55.964
-52.8
-49.572
-46.35
-43.178
-40.104
-37.176
-34.441
-31.963
-29.785
-27.918
-26.365
-25.111
-24.134
-23.417
-22.933
-22.642
-22.512
-22.508
-22.6
-22.768
-22.987
-23.225
-23.452
-23.628
-23.721
-23.711
-23.579
-23.31
-22.892
-22.313
-21.567
-20.652
-19.566
-18.302
-16.854
-15.212
-13.368
-11.32
-9.064
-6.598
-3.922
-1.033
2.068
5.381
8.904
12.637
16.577
20.723
25.073
29.619
34.357
39.277
44.371
49.628
55.038
60.587
66.264
72.054
77.944
83.917
89.96
96.054
102.182
108.326
114.468
120.588
126.666
132.682
138.613
144.44
150.14
155.694
161.078
166.273
171.257
176.011
180.515
184.749
188.696
192.338
195.658
198.641
201.274
203.542
205.434
206.94
208.051
208.761
209.063
208.954
208.431
207.495
206.146
204.388
202.226
199.667
196.718
193.392
189.7
185.657
181.278
176.582
171.586
166.311
160.78
155.013
149.036
142.871
136.545
130.082
123.508
116.849
110.131
103.38
96.622
89.882
83.184
76.554
70.013
63.586
57.292
51.152
45.186
39.41
33.842
28.497
23.388
18.527
13.925
9.59
5.529
1.748
-1.749
-4.961
-7.888
-10.53
-12.891
-14.974
-16.785
-18.331
-19.62
-20.661
-21.465
-22.041
-22.403
-22.562
-22.532
-22.325
-21.956
-21.439
-20.788
-20.016
-19.138
-18.168
-17.12
-16.006
-14.84
-13.635
-12.403
-11.155
-9.903
-8.657
-7.428
-6.223
-5.052
-3.923
-2.841
-1.812
-0.843
0.063
0.903
1.673
2.371
2.997
3.55
4.029
4.436
4.772
5.038
5.236
5.368
5.438
5.448
5.401
5.3
5.149
4.951
4.708
4.426
4.106
3.753
3.369
2.958
2.524
2.069
1.596
1.109
0.611
0.103
-0.411
-0.93
-1.45
-1.972
-2.492
-3.011
-3.526
-4.038
-4.547
-5.051
-5.552
-6.05
-6.545
-7.037
-7.527
-8.017
-8.505
-8.995
-9.485
-9.976
-10.47
-10.966
-11.465
-11.966
-12.471
-12.979
-13.492
-14.008
-14.53
-15.057
-15.59
-16.131
-16.681
-17.24
-17.809
-18.39
-18.983
-19.587
-20.205
-20.835
-21.477
-22.132
-22.798
-23.476
-24.165
-24.864
-25.574
-26.292
-27.019
-27.753
-28.495
-29.243
-29.997
-30.757
-31.523
-32.294
-33.071
-33.853
-34.64
-35.431
-36.225
-37.02
-37.815
-38.606
-39.389
-40.16
-40.915
-41.651
-42.365
-43.052
-43.708
-44.331
-44.92
-45.472
-45.984
-46.452
-46.871
-47.236
-47.541
-47.781
-47.949
-48.038
-48.041
-47.954
-47.773
-47.496
-47.117
-46.628
-46.018
-45.28
-44.413
-43.416
-42.29
-41.038
-39.667
-38.191
-36.637
-35.028
-33.38
-31.7
-29.986
-28.238
-26.459
-24.654
-22.827
-20.969
-19.068
-17.119
-15.121
-13.071
-10.956
-8.745
-6.389
-3.851
-1.115
1.809
4.898
8.126
11.46
14.857
18.259
21.588
24.772
27.756
30.496
32.948
35.052
36.726
37.875
38.424
38.328
37.573
36.164
34.117
31.478
28.309
24.706
20.782
16.632
12.331
7.942
3.527
-0.831
-5.039
-9.001
-12.643
-15.911
-18.781
-21.24
-23.305
-25.047
-26.555
-27.945
-29.341
-30.823
-32.465
-34.347
-36.544
-39.148
-42.246
-45.887
-50.133
-55.063
-60.679
-66.92
-73.588
-80.286
-86.602
-92.153
-96.49
-99.196
-99.97
-98.643
-95.369
-90.721
-85.343
-79.87
-75.023
-71.358
-69.18
-68.702
-69.488
-70.261
-69.671
-65.489
-55.183
-37.543
-11.116
24.157
66.702
116.815
173.706
236.308
304.672
375.35
444.104
507.03
557.589
589.559
597.569
574.477
515.737
421.359
293.41
141.252
-20.915
-178.705
-316.195
-423.116
-495.616
-534.105
-543.326
-528.287
-494.836
-449.283
-399.022
-351.203
-309.055
-272.752
-238.868
-204.279
-169.537
-137.306
-111.883
-95.917
-88.833
-88.594
-92.443
-97.947
-103.616
-108.237
-110.733
-110.639
-108.042
-103.315
-97.042
-89.967
-82.777
-76.237
-71.181
-67.943
-66.462
-66.532
-67.789
-69.88
-72.497
-75.252
-77.716
-79.65
-80.963
-81.63
-81.697
-81.19
-80.127
-78.573
-76.629
-74.377
-71.882
-69.198
-66.357
-63.404
-60.403
-57.407
-54.458
-51.595
-48.849
-46.255
-43.865
-41.713
-39.808
-38.15
-36.724
-35.51
-34.493
-33.649
-32.945
-32.354
-31.849
-31.405
-31.009
-30.641
-30.278
-29.895
-29.46
-28.943
-28.328
-27.598
-26.738
-25.738
-24.585
-23.272
-21.799
-20.162
-18.355
-16.372
-14.203
-11.841
-9.282
-6.524
-3.565
-0.403
2.962
6.53
10.3
14.268
18.434
22.796
27.35
32.094
37.021
42.126
47.399
52.831
58.412
64.13
69.972
75.923
81.97
88.096
94.287
100.525
106.793
113.072
119.344
125.59
131.789
137.922
143.967
149.904
155.712
161.369
166.855
172.15
177.232
182.083
186.684
191.014
195.057
198.795
202.212
205.291
208.018
210.38
212.365
213.961
215.16
215.955
216.339
216.308
215.861
214.995
213.714
212.018
209.913
207.406
204.504
201.218
197.56
193.543
189.182
184.494
179.498
174.212
168.658
162.856
156.829
150.601
144.194
137.635
130.947
124.156
117.287
110.367
103.42
96.472
89.547
82.67
75.864
69.152
62.555
56.093
49.787
43.654
37.711
31.974
26.457
21.172
16.131
11.342
6.815
2.554
-1.436
-5.151
-8.59
-11.753
-14.642
-17.258
-19.605
-21.689
-23.515
-25.091
-26.425
-27.526
-28.404
-29.07
-29.536
-29.813
-29.913
-29.849
-29.633
-29.279
-28.799
-28.206
-27.513
-26.733
-25.877
-24.958
-23.987
-22.976
-21.935
-20.875
-19.803
-18.731
-17.664
-16.612
-15.58
-14.575
-13.604
-12.67
-11.779
-10.934
-10.139
-9.397
-8.709
-8.078
-7.503
-6.987
-6.529
-6.129
-5.787
-5.501
-5.272
-5.097
-4.976
-4.906
-4.886
-4.913
-4.985
-5.1
-5.255
-5.448
-5.676
-5.937
-6.228
-6.548
-6.893
-7.261
-7.651
-8.06
-8.486
-8.925
-9.378
-9.84
-10.31
-10.785
-11.265
-11.746
-12.228
-12.707
-13.182
-13.65
-14.111
-14.56
-14.998
-15.421
-15.827
-16.216
-16.584
-16.932
-17.257
-17.557
-17.832
-18.08
-18.299
-18.489
-18.649
-18.776
-18.871
-18.932
-18.959
-18.951
-18.907
-18.827
-18.711
-18.559
-18.372
-18.15
-17.894
-17.605
-17.285
-16.937
-16.561
-16.162
-15.741
-15.302
-14.846
-14.377
-13.899
-13.413
-12.924
-12.433
-11.945
-11.462
-10.989
-10.527
-10.081
-9.653
-9.246
-8.865
-8.511
-8.188
-7.899
-7.646
-7.432
-7.259
-7.129
-7.043
-7.003
-7.007
-7.056
-7.148
-7.28
-7.448
-7.649
-7.878
-8.133
-8.407
-8.698
-9
-9.309
-9.621
-9.933
-10.238
-10.529
-10.798
-11.038
-11.242
-11.4
-11.504
-11.543
-11.509
-11.396
-11.199
-10.909
-10.518
-10.012
-9.383
-8.627
-7.744
-6.735
-5.603
-4.351
-2.992
-1.549
-0.041
1.512
3.096
4.714
6.361
8.032
9.718
11.41
13.107
14.826
16.577
18.363
20.192
22.067
24.013
26.074
28.279
30.651
33.189
35.866
38.659
41.545
44.493
47.462
50.391
53.193
55.801
58.167
60.24
61.975
63.3
64.119
64.363
63.984
62.958
61.297
59.011
56.115
52.655
48.696
44.329
39.673
34.825
29.856
24.838
19.833
14.914
10.179
5.715
1.585
-2.147
-5.45
-8.328
-10.782
-12.819
-14.513
-15.993
-17.457
-19.191
-21.432
-24.251
-27.682
-31.757
-36.381
-41.414
-46.56
-51.191
-54.683
-56.743
-57.234
-56.161
-53.761
-50.237
-45.961
-41.843
-38.928
-37.959
-39.371
-43.279
-49.484
-57.708
-67.462
-77.787
-87.301
-94.366
-97.538
-94.903
-84.061
-63.952
-34.025
5.038
50.346
101.268
158.513
222.201
293.399
369.932
446.796
519.605
582.759
629.905
654.282
647.177
601.061
513.807
388.489
234.876
67.775
-97.55
-245.039
-362.391
-443.891
-489.294
-505.045
-498.679
-474.855
-437.179
-388.01
-332.351
-279.672
-237.227
-208.423
-191.559
-179.283
-166.774
-152.95
-139.269
-129.804
-125.965
-126.518
-129.297
-131.377
-131.212
-128.463
-123.257
-116.256
-108.083
-99.223
-90.36
-82.119
-75.037
-69.686
-66.244
-64.583
-64.491
-65.627
-67.628
-70.215
-73.066
-75.795
-78.167
-80.038
-81.304
-81.979
-82.076
-81.588
-80.56
-79.062
-77.151
-74.902
-72.384
-69.645
-66.75
-63.76
-60.727
-57.725
-54.821
-52.08
-49.575
-47.348
-45.422
-43.814
-42.521
-41.529
-40.82
-40.364
-40.12
-40.056
-40.139
-40.342
-40.642
-41.008
-41.407
-41.807
-42.168
-42.461
-42.663
-42.752
-42.711
-42.526
-42.185
-41.68
-41.01
-40.169
-39.15
-37.945
-36.545
-34.942
-33.13
-31.106
-28.867
-26.41
-23.734
-20.837
-17.721
-14.385
-10.833
-7.065
-3.083
1.109
5.505
10.099
14.883
19.847
24.983
30.279
35.722
41.301
47.001
52.809
58.71
64.688
70.728
76.812
82.922
89.04
95.148
101.225
107.252
113.209
119.075
124.829
130.452
135.923
141.22
146.326
151.219
155.881
160.293
164.437
168.297
171.856
175.098
178.009
180.576
182.785
184.627
186.091
187.169
187.854
188.141
188.026
187.506
186.582
185.255
183.528
181.405
178.893
176.001
172.738
169.116
165.148
160.848
156.234
151.322
146.13
140.68
134.99
129.084
122.983
116.709
110.287
103.74
97.091
90.364
83.584
76.774
69.957
63.157
56.396
49.695
43.077
36.561
30.165
23.91
17.81
11.883
6.142
0.601
-4.728
-9.835
-14.711
-19.348
-23.739
-27.881
-31.769
-35.401
-38.776
-41.895
-44.759
-47.371
-49.735
-51.854
-53.735
-55.383
-56.806
-58.011
-59.007
-59.801
-60.404
-60.825
-61.074
-61.161
-61.096
-60.889
-60.551
-60.092
-59.522
-58.851
-58.09
-57.248
-56.335
-55.36
-54.332
-53.26
-52.152
-51.016
-49.86
-48.69
-47.513
-46.336
-45.163
-44.001
-42.855
-41.729
-40.627
-39.554
-38.514
-37.509
-36.543
-35.619
-34.74
-33.907
-33.123
-32.39
-31.709
-31.083
-30.513
-29.999
-29.542
-29.144
-28.803
-28.521
-28.296
-28.129
-28.019
-27.964
-27.965
-28.019
-28.127
-28.286
-28.495
-28.752
-29.057
-29.407
-29.8
-30.235
-30.709
-31.22
-31.767
-32.346
-32.954
-33.591
-34.251
-34.933
-35.634
-36.349
-37.076
-37.811
-38.551
-39.292
-40.031
-40.766
-41.493
-42.209
-42.912
-43.598
-44.267
-44.914
-45.539
-46.139
-46.713
-47.258
-47.773
-48.257
-48.71
-49.129
-49.514
-49.865
-50.182
-50.463
-50.71
-50.922
-51.1
-51.245
-51.358
-51.441
-51.495
-51.523
-51.527
-51.51
-51.473
-51.421
-51.355
-51.278
-51.194
-51.104
-51.013
-50.922
-50.835
-50.753
-50.68
-50.616
-50.565
-50.528
-50.506
-50.499
-50.51
-50.538
-50.584
-50.647
-50.727
-50.823
-50.933
-51.056
-51.19
-51.332
-51.478
-51.625
-51.77
-51.909
-52.036
-52.147
-52.237
-52.302
-52.335
-52.332
-52.286
-52.193
-52.046
-51.84
-51.571
-51.233
-50.822
-50.333
-49.763
-49.109
-48.369
-47.541
-46.624
-45.618
-44.523
-43.342
-42.077
-40.733
-39.312
-37.823
-36.272
-34.668
-33.02
-31.338
-29.632
-27.913
-26.194
-24.485
-22.799
-21.146
-19.54
-17.994
-16.52
-15.133
-13.846
-12.672
-11.624
-10.713
-9.95
-9.341
-8.891
-8.607
-8.493
-8.558
-8.806
-9.238
-9.857
-10.659
-11.639
-12.787
-14.085
-15.506
-17.024
-18.613
-20.249
-21.914
-23.586
-25.241
-26.856
-28.395
-29.836
-31.157
-32.332
-33.346
-34.188
-34.858
-35.391
-35.842
-36.263
-36.707
-37.216
-37.824
-38.595
-39.597
-40.893
-42.567
-44.665
-47.242
-50.397
-54.159
-58.49
-63.262
-68.171
-72.861
-77.037
-80.359
-82.471
-83.162
-82.275
-79.921
-76.639
-72.994
-69.564
-66.902
-65.279
-64.994
-66.344
-68.922
-71.757
-73.072
-69.987
-61.029
-45.763
-24.287
1.47
32.687
72.416
121.967
183.283
253.049
324.233
392.975
454.926
507.746
549.513
572.183
565.546
520.724
433.426
307.807
156.142
-5.853
-162.764
-300.846
-411.784
-491.552
-539.512
-558.404
-552.101
-526.469
-488.032
-444.556
-403.017
-365.912
-333.062
-300.633
-264.928
-226.526
-188.219
-154.651
-129.332
-112.551
-102.736
-97.452
-94.827
-93.507
-92.468
-90.927
-87.973
-83.256
-77.035
-69.626
-61.499
-53.319
-45.643
-39.102
-34.356
-31.578
-30.629
-31.277
-33.154
-35.901
-39.189
-42.602
-45.705
-48.237
-50.052
-51.104
-51.438
-51.083
-50.077
-48.494
-46.43
-43.978
-41.221
-38.232
-35.065
-31.781
-28.457
-25.174
-22.011
-19.045
-16.348
-13.965
-11.924
-10.237
-8.895
-7.88
-7.169
-6.727
-6.514
-6.492
-6.625
-6.879
-7.227
-7.635
-8.065
-8.477
-8.832
-9.096
-9.248
-9.266
-9.136
-8.847
-8.389
-7.757
-6.95
-5.967
-4.8
-3.445
-1.892
-0.133
1.835
4.015
6.41
9.023
11.855
14.909
18.185
21.682
25.4
29.338
33.497
37.873
42.462
47.258
52.253
57.438
62.805
68.341
74.035
79.873
85.842
91.928
98.115
104.387
110.728
117.121
123.546
129.984
136.417
142.824
149.183
155.474
161.674
167.76
173.712
179.506
185.12
190.533
195.722
200.668
205.349
209.745
213.839
217.611
221.045
224.125
226.835
229.164
231.098
232.628
233.745
234.443
234.715
234.56
233.973
232.957
231.512
229.643
227.353
224.652
221.547
218.049
214.172
209.93
205.34
200.418
195.185
189.66
183.866
177.825
171.561
165.099
158.462
151.678
144.771
137.767
130.693
123.575
116.439
109.308
102.209
95.165
88.198
81.331
74.584
67.978
61.53
55.259
49.179
43.307
37.654
32.233
27.055
22.128
17.459
13.054
8.916
5.049
1.453
-1.872
-4.929
-7.719
-10.248
-12.521
-14.545
-16.327
-17.875
-19.199
-20.31
-21.217
-21.933
-22.468
-22.834
-23.043
-23.108
-23.039
-22.849
-22.55
-22.152
-21.668
-21.108
-20.484
-19.805
-19.083
-18.326
-17.544
-16.746
-15.94
-15.133
-14.332
-13.544
-12.775
-12.03
-11.315
-10.632
-9.986
-9.38
-8.817
-8.298
-7.826
-7.401
-7.023
-6.694
-6.414
-6.182
-5.998
-5.861
-5.772
-5.73
-5.734
-5.782
-5.875
-6.01
-6.187
-6.404
-6.659
-6.952
-7.279
-7.64
-8.033
-8.455
-8.906
-9.382
-9.882
-10.403
-10.944
-11.502
-12.075
-12.661
-13.258
-13.865
-14.478
-15.097
-15.72
-16.345
-16.97
-17.594
-18.214
-18.828
-19.434
-20.031
-20.616
-21.187
-21.743
-22.282
-22.801
-23.299
-23.775
-24.227
-24.653
-25.053
-25.425
-25.769
-26.085
-26.372
-26.63
-26.86
-27.063
-27.238
-27.387
-27.511
-27.61
-27.686
-27.741
-27.775
-27.789
-27.786
-27.768
-27.736
-27.692
-27.638
-27.577
-27.511
-27.441
-27.37
-27.301
-27.235
-27.175
-27.122
-27.079
-27.047
-27.029
-27.025
-27.037
-27.066
-27.111
-27.174
-27.252
-27.347
-27.456
-27.579
-27.713
-27.856
-28.007
-28.163
-28.32
-28.475
-28.625
-28.766
-28.892
-29
-29.085
-29.141
-29.164
-29.148
-29.089
-28.981
-28.818
-28.597
-28.311
-27.956
-27.526
-27.017
-26.424
-25.743
-24.971
-24.105
-23.141
-22.08
-20.92
-19.659
-18.299
-16.84
-15.284
-13.633
-11.891
-10.061
-8.15
-6.164
-4.109
-1.995
0.169
2.371
4.601
6.845
9.09
11.324
13.531
15.696
17.806
19.843
21.796
23.647
25.383
26.988
28.448
29.748
30.875
31.815
32.556
33.086
33.394
33.472
33.314
32.918
32.279
31.393
30.254
28.863
27.222
25.337
23.217
20.872
18.317
15.577
12.687
9.682
6.597
3.463
0.305
-2.852
-5.975
-9.029
-11.978
-14.787
-17.436
-19.906
-22.176
-24.235
-26.084
-27.752
-29.305
-30.811
-32.337
-33.935
-35.633
-37.473
-39.51
-41.807
-44.431
-47.442
-50.853
-54.686
-59.017
-63.845
-69.097
-74.564
-79.816
-84.39
-87.933
-90.088
-90.465
-88.82
-85.052
-79.384
-72.59
-65.578
-59.08
-53.705
-50.079
-48.656
-49.443
-51.866
-53.919
-52.49
-45.623
-32.069
-11.433
14.92
47.95
89.94
141.939
205.392
278.138
354.593
429.241
495.919
548.696
581.99
590.318
566.957
506.957
410.231
279.126
123.435
-41.416
-199.282
-332.347
-429.042
-485.835
-506.206
-498.883
-471.046
-429.768
-379.733
-325.713
-276.7
-237.439
-209.846
-192.515
-178.107
-163.025
-147.077
-131.474
-120.244
-114.602
-113.206
-114.236
-114.954
-113.748
-110.142
-104.074
-96.091
-86.797
-76.667
-66.353
-56.481
-47.655
-40.545
-35.436
-32.262
-30.842
-30.856
-31.97
-33.92
-36.372
-38.924
-41.324
-43.422
-45.127
-46.432
-47.295
-47.658
-47.522
-46.922
-45.902
-44.513
-42.797
-40.784
-38.528
-36.084
-33.511
-30.873
-28.219
-25.593
-23.046
-20.626
-18.392
-16.385
-14.625
-13.114
-11.84
-10.785
-9.93
-9.25
-8.709
-8.276
-7.921
-7.617
-7.344
-7.081
-6.801
-6.474
-6.067
-5.551
-4.906
-4.117
-3.172
-2.062
-0.78
0.681
2.316
4.125
6.11
8.272
10.615
13.142
15.852
18.742
21.809
25.049
28.463
32.048
35.803
39.722
43.803
48.04
52.431
56.97
61.649
66.459
71.39
76.432
81.58
86.833
92.183
97.615
103.112
108.652
114.215
119.782
125.332
130.835
136.273
141.628
146.896
152.085
157.191
162.207
167.114
171.885
176.503
180.964
185.265
189.406
193.393
197.227
200.919
204.503
207.984
211.351
214.571
217.581
220.334
222.803
224.965
226.811
228.326
229.48
230.252
230.629
230.579
230.075
229.07
227.488
225.308
222.54
219.211
215.396
211.145
206.475
201.45
196.133
190.504
184.571
178.322
171.709
164.838
157.851
150.768
143.647
136.659
129.891
123.499
117.653
112.157
106.799
101.583
96.454
91.282
86.021
80.448
74.315
67.881
61.406
54.939
48.595
42.45
36.515
31.023
26.234
21.989
18.134
14.626
11.35
8.32
5.58
3.016
0.513
-1.865
-4.069
-6.065
-7.786
-9.264
-10.544
-11.61
-12.461
-13.118
-13.592
-13.911
-14.105
-14.177
-14.13
-13.972
-13.708
-13.351
-12.918
-12.419
-11.865
-11.269
-10.639
-9.988
-9.328
-8.668
-8.02
-7.39
-6.786
-6.217
-5.688
-5.207
-4.779
-4.408
-4.094
-3.841
-3.65
-3.523
-3.46
-3.462
-3.528
-3.658
-3.851
-4.105
-4.418
-4.787
-5.211
-5.685
-6.207
-6.773
-7.379
-8.023
-8.699
-9.406
-10.139
-10.894
-11.668
-12.457
-13.258
-14.07
-14.888
-15.712
-16.539
-17.368
-18.198
-19.029
-19.859
-20.689
-21.518
-22.346
-23.174
-24.003
-24.832
-25.662
-26.495
-27.331
-28.171
-29.017
-29.87
-30.73
-31.599
-32.479
-33.37
-34.274
-35.191
-36.123
-37.071
-38.035
-39.016
-40.013
-41.028
-42.058
-43.105
-44.165
-45.239
-46.324
-47.42
-48.523
-49.631
-50.743
-51.856
-52.966
-54.072
-55.171
-56.259
-57.334
-58.392
-59.432
-60.45
-61.444
-62.412
-63.351
-64.261
-65.139
-65.983
-66.794
-67.568
-68.305
-69.004
-69.665
-70.286
-70.868
-71.411
-71.916
-72.384
-72.817
-73.216
-73.584
-73.921
-74.232
-74.517
-74.781
-75.025
-75.252
-75.467
-75.671
-75.868
-76.062
-76.255
-76.45
-76.647
-76.85
-77.059
-77.273
-77.493
-77.716
-77.941
-78.168
-78.395
-78.621
-78.843
-79.06
-79.272
-79.476
-79.672
-79.854
-80.017
-80.157
-80.266
-80.338
-80.364
-80.338
-80.253
-80.101
-79.878
-79.581
-79.204
-78.74
-78.183
-77.52
-76.746
-75.858
-74.852
-73.732
-72.504
-71.179
-69.778
-68.322
-66.826
-65.302
-63.752
-62.172
-60.561
-58.915
-57.229
-55.511
-53.765
-51.991
-50.199
-48.394
-46.569
-44.711
-42.791
-40.769
-38.632
-36.376
-34.011
-31.572
-29.099
-26.637
-24.253
-21.999
-19.916
-18.049
-16.422
-15.057
-13.994
-13.277
-12.966
-13.142
-13.854
-15.129
-16.987
-19.408
-22.361
-25.79
-29.602
-33.709
-38.036
-42.512
-47.085
-51.714
-56.34
-60.899
-65.316
-69.497
-73.362
-76.848
-79.901
-82.488
-84.606
-86.284
-87.601
-88.657
-89.54
-90.325
-91.067
-91.828
-92.681
-93.714
-95.032
-96.716
-98.858
-101.583
-104.97
-109.033
-113.69
-118.64
-123.462
-127.784
-131.205
-133.278
-133.737
-132.44
-129.507
-125.62
-121.706
-118.556
-116.868
-117.374
-120.549
-126.411
-134.525
-142.88
-148.071
-147.935
-141.077
-126.883
-106.751
-79.011
-39.341
14.639
84.713
167.232
252.473
332.91
403.25
461.52
509.296
543.835
557.805
541.608
485.957
388.558
254.214
94.883
-73.327
-235.103
-375.892
-486.795
-562.948
-602.325
-607.501
-580.545
-528.381
-462.285
-394.215
-339.262
-304.377
-287.708
-283.072
-278.893
-269.371
-255.259
-239.471
-227.59
-221.63
-220.103
-220.85
-220.914
-218.769
-214.213
-207.454
-199.237
-190.203
-180.747
-171.403
-162.65
-154.965
-148.948
-144.828
-142.503
-141.76
-142.243
-143.608
-145.604
-147.917
-150.15
-152.006
-153.277
-153.846
-153.723
-152.924
-151.443
-149.308
-146.564
-143.274
-139.523
-135.39
-130.946
-126.257
-121.384
-116.397
-111.384
-106.44
-101.663
-97.12
-92.846
-88.862
-85.178
-81.801
-78.73
-75.94
-73.394
-71.055
-68.89
-66.873
-64.983
-63.19
-61.458
-59.749
-58.021
-56.244
-54.397
-52.463
-50.424
-48.266
-45.978
-43.556
-41.002
-38.314
-35.487
-32.516
-29.392
-26.112
-22.672
-19.072
-15.309
-11.38
-7.286
-3.024
1.404
5.998
10.757
15.68
20.768
26.017
31.423
36.982
42.686
48.529
54.504
60.601
66.811
73.123
79.529
86.018
92.578
99.198
105.867
112.571
119.297
126.032
132.761
139.47
146.142
152.763
159.317
165.786
172.154
178.403
184.518
190.482
196.276
201.885
207.293
212.482
217.437
222.144
226.586
230.751
234.623
238.19
241.441
244.363
246.946
249.182
251.061
252.577
253.723
254.494
254.887
254.9
254.531
253.783
252.657
251.157
249.289
247.062
244.483
241.563
238.315
234.751
230.886
226.737
222.32
217.654
212.757
207.648
202.35
196.882
191.266
185.524
179.678
173.75
167.764
161.74
155.702
149.671
143.668
137.714
131.83
126.035
120.348
114.786
109.366
104.104
99.013
94.107
89.396
84.892
80.601
76.533
72.691
69.081
65.704
62.564
59.659
56.99
54.553
52.347
50.367
48.607
47.063
45.727
44.591
43.648
42.889
42.303
41.883
41.616
41.494
41.504
41.637
41.881
42.225
42.658
43.17
43.75
44.387
45.073
45.798
46.552
47.329
48.12
48.918
49.717
50.511
51.294
52.062
52.81
53.534
54.23
54.895
55.527
56.122
56.68
57.198
57.674
58.108
58.5
58.847
59.15
59.408
59.622
59.792
59.917
59.999
60.039
60.036
59.991
59.905
59.778
59.61
59.403
59.155
58.866
58.538
58.168
57.758
57.306
56.812
56.276
55.698
55.077
54.413
53.706
52.956
52.162
51.325
50.445
49.522
48.558
47.552
46.506
45.42
44.297
43.136
41.94
40.709
39.447
38.153
36.831
35.483
34.112
32.719
31.308
29.883
28.447
27.002
25.554
24.104
22.658
21.217
19.787
18.37
16.97
15.591
14.235
12.906
11.606
10.339
9.106
7.91
6.753
5.636
4.56
3.528
2.539
1.595
0.696
-0.158
-0.967
-1.732
-2.453
-3.133
-3.773
-4.375
-4.943
-5.478
-5.985
-6.466
-6.925
-7.365
-7.789
-8.203
-8.608
-9.008
-9.408
-9.809
-10.217
-10.633
-11.061
-11.503
-11.963
-12.443
-12.944
-13.469
-14.02
-14.598
-15.205
-15.841
-16.507
-17.204
-17.931
-18.687
-19.47
-20.277
-21.105
-21.949
-22.804
-23.665
-24.528
-25.386
-26.233
-27.064
-27.876
-28.662
-29.418
-30.136
-30.81
-31.434
-32.002
-32.505
-32.936
-33.287
-33.549
-33.715
-33.78
-33.735
-33.574
-33.287
-32.862
-32.292
-31.575
-30.709
-29.696
-28.542
-27.255
-25.853
-24.358
-22.789
-21.166
-19.506
-17.818
-16.119
-14.425
-12.744
-11.093
-9.477
-7.891
-6.328
-4.773
-3.199
-1.58
0.122
1.957
3.959
6.156
8.567
11.193
14.037
17.091
20.33
23.723
27.231
30.787
34.323
37.758
40.986
43.91
46.429
48.423
49.799
50.478
50.395
49.512
47.805
45.264
41.913
37.792
32.962
27.514
21.547
15.174
8.537
1.766
-5.009
-11.641
-18.003
-23.983
-29.481
-34.425
-38.765
-42.471
-45.547
-48.025
-49.968
-51.452
-52.569
-53.433
-54.17
-54.908
-55.776
-56.898
-58.403
-60.433
-63.061
-66.299
-70.076
-74.189
-78.391
-82.419
-85.924
-88.53
-89.986
-90.131
-89.01
-87.001
-84.558
-82.182
-80.42
-79.672
-80.235
-82.344
-85.859
-90.083
-93.231
-92.528
-85.712
-71.507
-51.075
-27.12
0.019
32.412
74.985
133.167
206.887
291.162
377.761
457.281
523.921
574.015
602.869
604.999
573.275
501.681
390.373
246.155
81.634
-86.251
-240.916
-370.293
-466.035
-524.947
-549.006
-540.428
-505.513
-454.037
-395.882
-343.538
-304.221
-277.932
-260.67
-244.044
-223.531
-199.923
-176.325
-157.946
-146.668
-141.036
-139.048
-137.759
-135.441
-131.707
-126.086
-118.715
-110.163
-100.882
-91.407
-82.356
-74.173
-67.317
-62.371
-59.548
-58.701
-59.574
-61.775
-64.911
-68.71
-72.827
-76.808
-80.333
-83.192
-85.265
-86.567
-87.119
-86.909
-85.978
-84.397
-82.243
-79.615
-76.605
-73.279
-69.716
-65.991
-62.191
-58.424
-54.791
-51.387
-48.278
-45.5
-43.071
-41.003
-39.292
-37.922
-36.863
-36.071
-35.506
-35.134
-34.924
-34.847
-34.869
-34.949
-35.045
-35.117
-35.133
-35.07
-34.908
-34.632
-34.228
-33.687
-33.004
-32.181
-31.213
-30.096
-28.822
-27.382
-25.771
-23.982
-22.012
-19.857
-17.512
-14.973
-12.237
-9.302
-6.166
-2.825
0.721
4.475
8.437
12.604
16.974
21.543
26.305
31.254
36.384
41.686
47.151
52.77
58.532
64.427
70.443
76.567
82.787
89.087
95.453
101.869
108.317
114.78
121.241
127.679
134.076
140.412
146.666
152.817
158.845
164.729
170.448
175.981
181.308
186.409
191.262
195.85
200.153
204.153
207.833
211.177
214.169
216.796
219.045
220.904
222.363
223.413
224.048
224.262
224.052
223.415
222.351
220.862
218.952
216.627
213.893
210.761
207.241
203.346
199.092
194.493
189.567
184.335
178.815
173.03
167.001
160.753
154.309
147.695
140.935
134.055
127.081
120.039
112.955
105.854
98.761
91.701
84.697
77.772
70.949
64.248
57.689
51.29
45.069
39.042
33.222
27.624
22.258
17.134
12.26
7.643
3.288
-0.802
-4.624
-8.179
-11.466
-14.488
-17.248
-19.751
-22.003
-24.01
-25.781
-27.323
-28.648
-29.765
-30.685
-31.42
-31.982
-32.381
-32.631
-32.744
-32.732
-32.607
-32.381
-32.066
-31.673
-31.215
-30.701
-30.142
-29.548
-28.929
-28.293
-27.648
-27.002
-26.363
-25.737
-25.13
-24.549
-23.997
-23.479
-23.001
-22.564
-22.172
-21.827
-21.531
-21.285
-21.09
-20.946
-20.854
-20.813
-20.824
-20.885
-20.996
-21.156
-21.364
-21.619
-21.918
-22.261
-22.646
-23.071
-23.535
-24.036
-24.572
-25.142
-25.744
-26.377
-27.038
-27.726
-28.439
-29.174
-29.93
-30.705
-31.497
-32.303
-33.122
-33.953
-34.792
-35.639
-36.492
-37.35
-38.21
-39.07
-39.929
-40.785
-41.637
-42.482
-43.319
-44.146
-44.962
-45.765
-46.554
-47.327
-48.084
-48.821
-49.538
-50.233
-50.905
-51.552
-52.174
-52.77
-53.339
-53.88
-54.393
-54.878
-55.333
-55.76
-56.158
-56.526
-56.865
-57.174
-57.456
-57.709
-57.937
-58.138
-58.316
-58.471
-58.605
-58.72
-58.817
-58.897
-58.963
-59.015
-59.055
-59.086
-59.11
-59.128
-59.144
-59.159
-59.176
-59.197
-59.225
-59.261
-59.306
-59.364
-59.435
-59.523
-59.628
-59.753
-59.9
-60.07
-60.264
-60.483
-60.728
-60.997
-61.29
-61.605
-61.94
-62.293
-62.661
-63.041
-63.432
-63.83
-64.234
-64.642
-65.05
-65.456
-65.856
-66.246
-66.619
-66.97
-67.289
-67.571
-67.809
-67.997
-68.129
-68.198
-68.201
-68.132
-67.989
-67.763
-67.448
-67.032
-66.505
-65.866
-65.115
-64.257
-63.305
-62.266
-61.153
-59.981
-58.763
-57.502
-56.2
-54.844
-53.422
-51.931
-50.375
-48.769
-47.129
-45.458
-43.756
-42.022
-40.242
-38.408
-36.507
-34.508
-32.397
-30.181
-27.883
-25.556
-23.265
-21.053
-18.957
-17.003
-15.209
-13.607
-12.23
-11.096
-10.24
-9.696
-9.507
-9.741
-10.449
-11.641
-13.306
-15.399
-17.845
-20.592
-23.587
-26.767
-30.086
-33.493
-36.936
-40.387
-43.807
-47.145
-50.339
-53.3
-55.955
-58.265
-60.208
-61.787
-63.034
-63.981
-64.683
-65.222
-65.668
-66.085
-66.519
-67.01
-67.613
-68.395
-69.445
-70.857
-72.689
-74.999
-77.863
-81.283
-85.194
-89.442
-93.688
-97.568
-100.796
-103.047
-103.988
-103.447
-101.328
-97.766
-93.336
-88.674
-84.268
-80.607
-78.188
-77.276
-78.007
-80.278
-82.413
-81.741
-76.341
-64.189
-45.626
-23.944
0.421
27.875
60.855
106.267
165.837
238.196
320.126
401.661
474.49
529.879
556.616
547.8
498.466
408.734
285.672
139.139
-18.594
-174.435
-315.78
-431.615
-513.63
-559.651
-572.92
-558.997
-526.86
-483.206
-434.066
-387.342
-346.09
-312.374
-285.489
-259.632
-232.885
-205.412
-178.629
-157.232
-142.758
-133.939
-129.453
-126.702
-123.918
-120.775
-116.72
-111.296
-104.612
-96.899
-88.436
-79.754
-71.321
-63.455
-56.645
-51.384
-47.781
-45.723
-44.978
-45.196
-46.084
-47.383
-48.74
-49.776
-50.235
-49.997
-49.042
-47.425
-45.196
-42.392
-39.077
-35.352
-31.316
-27.055
-22.647
-18.144
-13.597
-9.086
-4.696
-0.508
3.39
6.948
10.144
12.959
15.393
17.459
19.173
20.566
21.682
22.557
23.228
23.726
24.077
24.315
24.478
24.607
24.744
24.921
25.162
25.488
25.917
26.461
27.133
27.939
28.881
29.964
31.194
32.579
34.129
35.853
37.754
39.838
42.109
44.568
47.221
50.069
53.115
56.359
59.802
63.445
67.287
71.329
75.566
79.994
84.607
89.398
94.359
99.483
104.759
110.177
115.726
121.395
127.171
133.04
138.989
145.003
151.066
157.161
163.271
169.378
175.464
181.509
187.493
193.396
199.198
204.879
210.416
215.791
220.981
225.967
230.73
235.248
239.504
243.478
247.154
250.514
253.542
256.223
258.543
260.488
262.048
263.211
263.97
264.316
264.243
263.749
262.83
261.485
259.717
257.528
254.924
251.912
248.5
244.699
240.523
235.985
231.102
225.891
220.371
214.564
208.489
202.17
195.631
188.895
181.988
174.934
167.76
160.492
153.157
145.779
138.386
131.002
123.655
116.367
109.162
102.065
95.096
88.276
81.625
75.162
68.902
62.861
57.053
51.49
46.182
41.138
36.366
31.869
27.652
23.717
20.064
16.692
13.598
10.78
8.231
5.945
3.915
2.132
0.587
-0.731
-1.833
-2.73
-3.436
-3.963
-4.323
-4.532
-4.601
-4.544
-4.376
-4.108
-3.755
-3.328
-2.841
-2.305
-1.731
-1.129
-0.511
0.114
0.739
1.356
1.956
2.534
3.084
3.602
4.083
4.523
4.921
5.273
5.579
5.838
6.05
6.214
6.333
6.406
6.437
6.427
6.378
6.292
6.174
6.025
5.849
5.648
5.427
5.188
4.934
4.67
4.396
4.118
3.837
3.557
3.279
3.006
2.739
2.481
2.233
1.997
1.774
1.563
1.367
1.185
1.017
0.863
0.723
0.595
0.479
0.374
0.279
0.192
0.113
0.039
-0.03
-0.097
-0.163
-0.229
-0.297
-0.369
-0.447
-0.532
-0.625
-0.729
-0.845
-0.975
-1.119
-1.28
-1.458
-1.655
-1.872
-2.109
-2.368
-2.65
-2.954
-3.282
-3.632
-4.006
-4.404
-4.824
-5.266
-5.731
-6.217
-6.723
-7.25
-7.797
-8.362
-8.946
-9.547
-10.165
-10.8
-11.449
-12.114
-12.792
-13.483
-14.187
-14.902
-15.629
-16.367
-17.115
-17.872
-18.639
-19.415
-20.199
-20.991
-21.791
-22.6
-23.416
-24.242
-25.076
-25.92
-26.774
-27.638
-28.513
-29.401
-30.3
-31.211
-32.135
-33.072
-34.021
-34.983
-35.958
-36.944
-37.942
-38.949
-39.966
-40.99
-42.02
-43.054
-44.089
-45.123
-46.154
-47.177
-48.191
-49.191
-50.173
-51.133
-52.066
-52.968
-53.833
-54.655
-55.428
-56.147
-56.806
-57.399
-57.92
-58.361
-58.719
-58.986
-59.156
-59.226
-59.189
-59.04
-58.775
-58.39
-57.883
-57.25
-56.49
-55.602
-54.584
-53.438
-52.165
-50.767
-49.248
-47.61
-45.861
-44.005
-42.05
-40.005
-37.88
-35.687
-33.437
-31.144
-28.824
-26.49
-24.16
-21.849
-19.574
-17.351
-15.196
-13.127
-11.158
-9.309
-7.595
-6.033
-4.641
-3.433
-2.424
-1.626
-1.05
-0.703
-0.591
-0.718
-1.091
-1.718
-2.605
-3.753
-5.163
-6.831
-8.748
-10.902
-13.273
-15.831
-18.547
-21.387
-24.323
-27.331
-30.382
-33.448
-36.492
-39.469
-42.34
-45.072
-47.634
-50
-52.155
-54.1
-55.86
-57.488
-59.037
-60.556
-62.099
-63.717
-65.484
-67.479
-69.788
-72.493
-75.67
-79.417
-83.772
-88.711
-94.135
-99.827
-105.504
-110.868
-115.582
-119.265
-121.67
-122.696
-122.381
-121.05
-119.105
-116.956
-115.059
-113.796
-113.442
-114.089
-115.506
-117.178
-117.503
-113.88
-104.393
-87.314
-63.431
-36.502
-7.35
24.74
63.31
115.931
184.119
265.143
353.676
439.421
515.682
576.315
612.854
617.771
582.34
502.823
382.635
231.688
65.678
-100.587
-252.048
-377.4
-471.076
-528.793
-553.706
-551.041
-524.155
-480.998
-427.294
-369.589
-318.743
-279.204
-252.014
-235.134
-220.885
-205.878
-190.427
-176.013
-166.51
-162.886
-163.485
-166.164
-168.124
-167.779
-164.687
-158.887
-150.989
-141.625
-131.337
-120.853
-110.847
-101.946
-94.806
-89.672
-86.446
-84.924
-84.768
-85.623
-87.213
-89.205
-91.206
-92.982
-94.402
-95.385
-95.932
-96.012
-95.571
-94.619
-93.196
-91.349
-89.134
-86.597
-83.769
-80.707
-77.469
-74.113
-70.703
-67.287
-63.911
-60.623
-57.473
-54.519
-51.805
-49.35
-47.157
-45.216
-43.51
-42.019
-40.721
-39.581
-38.57
-37.659
-36.821
-36.04
-35.294
-34.555
-33.796
-32.981
-32.079
-31.072
-29.941
-28.674
-27.259
-25.688
-23.954
-22.058
-19.999
-17.774
-15.378
-12.804
-10.045
-7.102
-3.972
-0.657
2.844
6.531
10.403
14.457
18.69
23.098
27.678
32.43
37.347
42.425
47.652
53.025
58.535
64.175
69.938
75.809
81.77
87.809
93.912
100.063
106.248
112.447
118.639
124.814
130.961
137.067
143.124
149.11
155.002
160.782
166.427
171.927
177.274
182.448
187.433
192.22
196.796
201.158
205.308
209.213
212.845
216.182
219.194
221.874
224.213
226.197
227.816
229.055
229.896
230.336
230.374
229.992
229.181
227.922
226.196
224.024
221.433
218.438
215.063
211.319
207.215
202.774
198.019
192.968
187.645
182.064
176.239
170.205
163.993
157.638
151.18
144.626
137.985
131.274
124.507
117.703
110.887
104.071
97.266
90.496
83.783
77.147
70.614
64.193
57.894
51.729
45.703
39.837
34.15
28.653
23.359
18.278
13.416
8.786
4.395
0.246
-3.663
-7.331
-10.762
-13.955
-16.91
-19.629
-22.116
-24.375
-26.415
-28.24
-29.857
-31.274
-32.499
-33.54
-34.408
-35.11
-35.653
-36.046
-36.297
-36.417
-36.413
-36.295
-36.072
-35.752
-35.345
-34.859
-34.303
-33.684
-33.01
-32.288
-31.525
-30.727
-29.902
-29.055
-28.191
-27.315
-26.434
-25.551
-24.67
-23.796
-22.932
-22.081
-21.247
-20.433
-19.641
-18.875
-18.137
-17.429
-16.754
-16.114
-15.509
-14.943
-14.415
-13.928
-13.481
-13.076
-12.713
-12.392
-12.114
-11.878
-11.684
-11.533
-11.422
-11.352
-11.322
-11.33
-11.375
-11.457
-11.573
-11.723
-11.904
-12.116
-12.357
-12.625
-12.918
-13.234
-13.571
-13.926
-14.297
-14.681
-15.075
-15.478
-15.886
-16.296
-16.706
-17.113
-17.515
-17.909
-18.293
-18.663
-19.018
-19.355
-19.672
-19.968
-20.241
-20.489
-20.711
-20.906
-21.073
-21.211
-21.32
-21.397
-21.443
-21.457
-21.44
-21.39
-21.307
-21.193
-21.047
-20.871
-20.665
-20.43
-20.167
-19.878
-19.565
-19.228
-18.869
-18.492
-18.098
-17.69
-17.27
-16.842
-16.408
-15.97
-15.532
-15.096
-14.665
-14.242
-13.831
-13.434
-13.054
-12.695
-12.36
-12.053
-11.777
-11.536
-11.332
-11.168
-11.048
-10.972
-10.944
-10.965
-11.038
-11.163
-11.343
-11.58
-11.873
-12.223
-12.631
-13.095
-13.616
-14.193
-14.822
-15.503
-16.234
-17.011
-17.833
-18.696
-19.596
-20.529
-21.491
-22.474
-23.473
-24.481
-25.487
-26.485
-27.466
-28.421
-29.342
-30.221
-31.051
-31.824
-32.535
-33.178
-33.744
-34.227
-34.616
-34.904
-35.082
-35.141
-35.074
-34.871
-34.526
-34.036
-33.398
-32.612
-31.672
-30.574
-29.311
-27.879
-26.282
-24.524
-22.609
-20.548
-18.357
-16.06
-13.691
-11.278
-8.839
-6.388
-3.931
-1.474
0.972
3.401
5.807
8.185
10.533
12.847
15.113
17.333
19.516
21.687
23.892
26.154
28.475
30.844
33.235
35.613
37.945
40.18
42.254
44.113
45.706
46.996
47.959
48.559
48.75
48.473
47.649
46.23
44.199
41.558
38.337
34.585
30.354
25.729
20.814
15.701
10.474
5.206
-0.05
-5.224
-10.249
-15.048
-19.53
-23.631
-27.313
-30.561
-33.408
-35.901
-38.093
-40.063
-41.89
-43.651
-45.435
-47.321
-49.381
-51.698
-54.315
-57.293
-60.734
-64.655
-69.016
-73.678
-78.291
-82.472
-85.92
-88.272
-89.161
-88.399
-85.863
-81.688
-76.509
-71.053
-65.948
-61.811
-59.159
-58.233
-59.146
-61.705
-64.197
-63.875
-58.435
-45.518
-25.139
-0.234
28.484
61.198
100.224
151.917
217.946
296.574
383.745
470.096
548.436
611.594
650.402
656.848
622.443
543.469
423.252
272.314
107.41
-54.094
-195.574
-306.183
-382.568
-426.461
-445.506
-446.807
-433.673
-408.378
-371.648
-327.098
-283.325
-247.152
-222.246
-207.694
-197.038
-185.945
-173.312
-160.139
-149.966
-144.055
-141.471
-140.627
-139.118
-135.638
-129.867
-121.875
-112.288
-101.729
-90.675
-79.743
-69.492
-60.452
-53.216
-48.024
-44.816
-43.421
-43.537
-44.855
-47.105
-49.961
-53.044
-56.081
-58.889
-61.339
-63.372
-64.908
-65.873
-66.242
-66.027
-65.264
-63.992
-62.249
-60.075
-57.527
-54.674
-51.588
-48.339
-44.994
-41.624
-38.302
-35.1
-32.097
-29.345
-26.876
-24.709
-22.839
-21.255
-19.945
-18.883
-18.037
-17.377
-16.873
-16.498
-16.23
-16.04
-15.896
-15.763
-15.602
-15.381
-15.079
-14.675
-14.156
-13.511
-12.731
-11.811
-10.75
-9.546
-8.194
-6.687
-5.017
-3.177
-1.163
1.027
3.395
5.942
8.671
11.582
14.674
17.949
21.404
25.041
28.858
32.854
37.025
41.365
45.868
50.527
55.333
60.277
65.349
70.538
75.831
81.218
86.687
92.222
97.812
103.439
109.09
114.746
120.392
126.009
131.579
137.082
142.5
147.813
153.001
158.044
162.923
167.619
172.113
176.385
180.418
184.193
187.695
190.905
193.81
196.393
198.642
200.543
202.085
203.258
204.052
204.462
204.479
204.101
203.322
202.143
200.563
198.583
196.208
193.444
190.297
186.776
182.893
178.661
174.095
169.209
164.022
158.553
152.821
146.847
140.654
134.265
127.702
120.99
114.153
107.216
100.205
93.145
86.06
78.976
71.917
64.908
57.971
51.13
44.407
37.822
31.397
25.149
19.097
13.257
7.644
2.272
-2.848
-7.706
-12.293
-16.602
-20.629
-24.37
-27.824
-30.99
-33.87
-36.466
-38.783
-40.825
-42.599
-44.112
-45.374
-46.393
-47.18
-47.746
-48.103
-48.264
-48.24
-48.046
-47.694
-47.198
-46.572
-45.83
-44.985
-44.052
-43.043
-41.972
-40.852
-39.695
-38.512
-37.315
-36.114
-34.917
-33.735
-32.574
-31.442
-30.345
-29.289
-28.279
-27.319
-26.413
-25.565
-24.775
-24.047
-23.381
-22.778
-22.239
-21.763
-21.35
-21
-20.711
-20.481
-20.311
-20.197
-20.137
-20.131
-20.174
-20.265
-20.401
-20.579
-20.797
-21.053
-21.344
-21.667
-22.022
-22.406
-22.817
-23.254
-23.715
-24.199
-24.704
-25.231
-25.776
-26.34
-26.921
-27.519
-28.134
-28.763
-29.407
-30.065
-30.736
-31.419
-32.113
-32.816
-33.529
-34.248
-34.974
-35.706
-36.44
-37.178
-37.916
-38.654
-39.39
-40.122
-40.849
-41.569
-42.28
-42.98
-43.668
-44.342
-45
-45.641
-46.264
-46.866
-47.446
-48.003
-48.536
-49.043
-49.523
-49.975
-50.399
-50.793
-51.158
-51.493
-51.798
-52.073
-52.32
-52.537
-52.727
-52.89
-53.028
-53.142
-53.234
-53.306
-53.36
-53.399
-53.426
-53.442
-53.451
-53.456
-53.458
-53.462
-53.469
-53.483
-53.505
-53.538
-53.585
-53.648
-53.73
-53.831
-53.954
-54.101
-54.273
-54.471
-54.696
-54.949
-55.23
-55.539
-55.877
-56.243
-56.635
-57.052
-57.492
-57.953
-58.431
-58.924
-59.425
-59.932
-60.439
-60.94
-61.43
-61.902
-62.351
-62.769
-63.149
-63.484
-63.768
-63.991
-64.147
-64.228
-64.227
-64.136
-63.949
-63.658
-63.257
-62.74
-62.101
-61.333
-60.431
-59.39
-58.206
-56.875
-55.394
-53.761
-51.975
-50.035
-47.944
-45.702
-43.314
-40.784
-38.118
-35.321
-32.402
-29.37
-26.236
-23.011
-19.708
-16.341
-12.926
-9.48
-6.02
-2.565
0.868
4.258
7.589
10.84
13.99
17.021
19.912
22.646
25.203
27.563
29.707
31.616
33.276
34.672
35.792
36.627
37.167
37.405
37.339
36.966
36.29
35.308
34.023
32.441
30.569
28.42
26.014
23.371
20.517
17.483
14.297
10.989
7.591
4.128
0.633
-2.869
-6.355
-9.798
-13.177
-16.461
-19.606
-22.576
-25.358
-27.954
-30.404
-32.736
-34.923
-37.008
-39.101
-41.309
-43.784
-46.57
-49.553
-52.708
-56.165
-59.925
-63.848
-67.708
-71.054
-73.63
-75.566
-76.828
-77.146
-76.375
-74.532
-71.866
-69.1
-66.797
-64.978
-63.811
-63.684
-64.853
-67.374
-70.949
-74.689
-77.592
-79.009
-77.444
-70.564
-56.6
-34.578
-5.848
26.447
61.075
99.051
143.462
197.6
260.463
327.565
393.073
451.4
499.146
532.561
545.83
530.766
479.232
388.014
259.287
103.114
-64.622
-227.097
-366.966
-472.709
-540.198
-571.719
-574.694
-555.888
-521.813
-476.835
-425.438
-375.127
-330.061
-292.854
-263.201
-236.001
-209.422
-183.788
-160.27
-142.534
-131.548
-125.87
-123.779
-122.382
-119.641
-114.822
-107.655
-98.532
-88.093
-76.907
-65.621
-54.997
-45.802
-38.74
-34.15
-31.959
-31.901
-33.567
-36.525
-40.38
-44.677
-48.926
-52.793
-56.064
-58.602
-60.385
-61.406
-61.644
-61.144
-59.975
-58.195
-55.888
-53.13
-49.994
-46.573
-42.959
-39.241
-35.521
-31.893
-28.446
-25.274
-22.435
-19.959
-17.868
-16.159
-14.819
-13.831
-13.16
-12.76
-12.592
-12.612
-12.784
-13.073
-13.441
-13.845
-14.243
-14.592
-14.859
-15.019
-15.052
-14.943
-14.679
-14.25
-13.651
-12.883
-11.942
-10.823
-9.52
-8.023
-6.328
-4.43
-2.326
-0.014
2.508
5.244
8.195
11.361
14.744
18.343
22.16
26.193
30.443
34.903
39.57
44.436
49.494
54.736
60.152
65.731
71.46
77.329
83.324
89.43
95.635
101.921
108.273
114.673
121.103
127.545
133.978
140.385
146.743
153.033
159.234
165.324
171.283
177.09
182.723
188.162
193.387
198.378
203.114
207.578
211.751
215.615
219.155
222.354
225.198
227.675
229.771
231.479
232.787
233.689
234.18
234.255
233.912
233.15
231.971
230.376
228.372
225.965
223.162
219.974
216.413
212.493
208.227
203.633
198.728
193.532
188.065
182.347
176.403
170.254
163.925
157.44
150.826
144.106
137.307
130.455
123.575
116.692
109.831
103.016
96.271
89.619
83.081
76.679
70.431
64.357
58.473
52.795
47.338
42.115
37.138
32.416
27.957
23.769
19.858
16.226
12.877
9.811
7.027
4.524
2.297
0.343
-1.346
-2.776
-3.957
-4.897
-5.608
-6.101
-6.388
-6.483
-6.399
-6.148
-5.747
-5.208
-4.546
-3.776
-2.911
-1.966
-0.955
0.109
1.213
2.344
3.489
4.639
5.78
6.903
7.999
9.057
10.07
11.03
11.929
12.762
13.524
14.21
14.816
15.339
15.779
16.133
16.402
16.585
16.685
16.702
16.639
16.498
16.283
15.997
15.643
15.226
14.75
14.219
13.636
13.006
12.334
11.623
10.876
10.098
9.292
8.461
7.61
6.74
5.856
4.961
4.056
3.146
2.231
1.314
0.397
-0.519
-1.433
-2.345
-3.254
-4.16
-5.064
-5.964
-6.864
-7.762
-8.66
-9.559
-10.459
-11.362
-12.269
-13.18
-14.095
-15.015
-15.938
-16.866
-17.796
-18.727
-19.659
-20.59
-21.518
-22.441
-23.359
-24.269
-25.17
-26.06
-26.937
-27.799
-28.645
-29.472
-30.278
-31.062
-31.821
-32.552
-33.255
-33.927
-34.565
-35.169
-35.736
-36.263
-36.751
-37.196
-37.598
-37.957
-38.271
-38.542
-38.77
-38.957
-39.105
-39.217
-39.297
-39.347
-39.371
-39.373
-39.356
-39.325
-39.283
-39.233
-39.179
-39.126
-39.076
-39.033
-39
-38.982
-38.981
-38.999
-39.041
-39.108
-39.202
-39.327
-39.484
-39.676
-39.904
-40.169
-40.474
-40.82
-41.205
-41.628
-42.089
-42.584
-43.11
-43.661
-44.232
-44.815
-45.406
-45.997
-46.582
-47.155
-47.709
-48.238
-48.739
-49.205
-49.631
-50.01
-50.333
-50.592
-50.781
-50.892
-50.915
-50.844
-50.67
-50.389
-49.999
-49.496
-48.874
-48.127
-47.244
-46.219
-45.055
-43.75
-42.309
-40.74
-39.053
-37.271
-35.424
-33.537
-31.624
-29.695
-27.749
-25.789
-23.822
-21.852
-19.883
-17.915
-15.947
-13.979
-12.022
-10.071
-8.111
-6.112
-4.022
-1.813
0.518
2.963
5.495
8.082
10.692
13.276
15.766
18.107
20.254
22.17
23.838
25.22
26.256
26.878
27
26.563
25.546
23.94
21.759
19.04
15.84
12.244
8.367
4.304
0.125
-4.108
-8.348
-12.526
-16.554
-20.34
-23.793
-26.84
-29.431
-31.538
-33.154
-34.314
-35.088
-35.565
-35.863
-36.089
-36.334
-36.692
-37.249
-38.091
-39.328
-41.094
-43.458
-46.431
-49.948
-53.809
-57.784
-61.634
-64.999
-67.473
-68.777
-68.763
-67.503
-65.406
-62.915
-60.441
-58.566
-57.82
-58.428
-60.479
-63.715
-67.258
-70.066
-70.32
-65.302
-52.857
-31.775
-3.064
30.73
68.263
109.883
159.068
219.254
290.286
369.197
448.252
519.084
575.284
609.698
616.944
591.27
526.671
422.39
282.867
119.812
-47.832
-201.004
-323.909
-408.475
-458.119
-480.751
-485.253
-478.593
-460.055
-429.236
-388.776
-341.514
-295.186
-254.78
-219.657
-190.089
-164.254
-141.606
-125.034
-115.293
-112.096
-114.39
-119.228
-124.197
-127.798
-128.797
-126.927
-122.535
-116.052
-108.106
-99.437
-90.812
-83.036
-76.903
-72.813
-70.708
-70.353
-71.375
-73.377
-76.047
-79
-81.779
-84.072
-85.712
-86.627
-86.867
-86.48
-85.478
-83.909
-81.853
-79.38
-76.574
-73.509
-70.233
-66.805
-63.283
-59.732
-56.236
-52.876
-49.73
-46.852
-44.269
-41.997
-40.043
-38.405
-37.071
-36.013
-35.195
-34.58
-34.137
-33.838
-33.661
-33.575
-33.544
-33.534
-33.504
-33.426
-33.277
-33.039
-32.694
-32.227
-31.627
-30.889
-30.012
-28.991
-27.821
-26.494
-25
-23.334
-21.491
-19.464
-17.253
-14.851
-12.257
-9.468
-6.482
-3.299
0.083
3.662
7.441
11.416
15.586
19.944
24.487
29.206
34.095
39.146
44.349
49.693
55.169
60.766
66.473
72.276
78.165
84.125
90.143
96.204
102.292
108.393
114.489
120.564
126.6
132.58
138.484
144.295
149.994
155.562
160.98
166.231
171.295
176.155
180.794
185.195
189.342
193.219
196.812
200.106
203.089
205.748
208.072
210.051
211.676
212.939
213.833
214.354
214.497
214.259
213.64
212.64
211.261
209.506
207.381
204.892
202.049
198.862
195.343
191.506
187.365
182.937
178.239
173.29
168.109
162.716
157.133
151.38
145.48
139.454
133.326
127.118
120.852
114.552
108.239
101.937
95.666
89.447
83.302
77.25
71.311
65.502
59.841
54.345
49.028
43.905
38.988
34.289
29.816
25.579
21.584
17.836
14.339
11.094
8.102
5.363
2.875
0.634
-1.362
-3.12
-4.645
-5.945
-7.027
-7.899
-8.572
-9.055
-9.358
-9.492
-9.468
-9.298
-8.993
-8.565
-8.027
-7.389
-6.665
-5.867
-5.005
-4.093
-3.141
-2.161
-1.162
-0.155
0.852
1.85
2.831
3.789
4.717
5.609
6.46
7.267
8.024
8.73
9.381
9.975
10.512
10.989
11.406
11.764
12.063
12.302
12.483
12.607
12.675
12.689
12.651
12.563
12.426
12.245
12.02
11.756
11.456
11.121
10.755
10.361
9.94
9.496
9.03
8.544
8.04
7.519
6.983
6.433
5.869
5.293
4.704
4.103
3.489
2.864
2.226
1.575
0.911
0.233
-0.458
-1.164
-1.883
-2.618
-3.366
-4.129
-4.907
-5.699
-6.506
-7.327
-8.162
-9.011
-9.874
-10.748
-11.634
-12.531
-13.435
-14.347
-15.264
-16.184
-17.105
-18.024
-18.939
-19.847
-20.746
-21.632
-22.503
-23.354
-24.183
-24.986
-25.761
-26.503
-27.21
-27.879
-28.507
-29.092
-29.632
-30.124
-30.567
-30.96
-31.3
-31.588
-31.823
-32.003
-32.131
-32.206
-32.229
-32.203
-32.13
-32.012
-31.853
-31.656
-31.424
-31.162
-30.874
-30.563
-30.235
-29.894
-29.545
-29.192
-28.842
-28.498
-28.166
-27.852
-27.561
-27.297
-27.065
-26.869
-26.715
-26.605
-26.544
-26.535
-26.581
-26.685
-26.849
-27.075
-27.364
-27.714
-28.127
-28.599
-29.128
-29.71
-30.34
-31.012
-31.721
-32.461
-33.225
-34.008
-34.803
-35.604
-36.405
-37.201
-37.985
-38.749
-39.483
-40.178
-40.825
-41.413
-41.934
-42.376
-42.727
-42.979
-43.125
-43.159
-43.073
-42.856
-42.495
-41.983
-41.317
-40.496
-39.524
-38.405
-37.146
-35.762
-34.278
-32.717
-31.1
-29.441
-27.738
-25.997
-24.224
-22.423
-20.607
-18.773
-16.907
-15.002
-13.054
-11.056
-9.002
-6.871
-4.615
-2.204
0.384
3.152
6.073
9.123
12.277
15.497
18.738
21.936
25.001
27.863
30.472
32.772
34.717
36.239
37.24
37.645
37.4
36.468
34.852
32.558
29.592
25.993
21.827
17.185
12.199
6.975
1.594
-3.861
-9.318
-14.686
-19.845
-24.695
-29.156
-33.158
-36.659
-39.622
-42.003
-43.805
-45.078
-45.904
-46.414
-46.718
-46.892
-47.021
-47.198
-47.523
-48.125
-49.121
-50.573
-52.56
-55.178
-58.453
-62.372
-66.814
-71.466
-75.967
-79.999
-83.202
-85.211
-85.821
-84.897
-82.536
-79.238
-75.573
-71.996
-68.927
-66.775
-65.748
-65.919
-67.107
-67.726
-65.146
-57.171
-41.761
-19.569
5.688
32.078
58.977
90.282
134.889
197.736
279.894
374.898
467.892
546.338
599.352
620.512
611.015
570.626
499.763
400.855
274.406
126.567
-31.114
-185.238
-319.481
-421.625
-486.095
-514.205
-512.326
-486.759
-445.037
-392.616
-335.304
-282.469
-239.092
-207.857
-188.239
-173.906
-161.667
-150.721
-141.426
-137.025
-138.128
-142.905
-149.084
-153.435
-154.053
-150.807
-144.104
-134.835
-124.01
-112.434
-101.016
-90.74
-82.394
-76.355
-72.613
-70.922
-70.89
-72.137
-74.299
-76.968
-79.756
-82.394
-84.741
-86.724
-88.327
-89.515
-90.221
-90.417
-90.11
-89.32
-88.079
-86.426
-84.394
-82.032
-79.407
-76.58
-73.617
-70.578
-67.509
-64.463
-61.491
-58.649
-56.001
-53.591
-51.444
-49.568
-47.954
-46.588
-45.456
-44.532
-43.786
-43.188
-42.708
-42.323
-42.018
-41.769
-41.55
-41.332
-41.077
-40.757
-40.349
-39.837
-39.206
-38.443
-37.538
-36.483
-35.278
-33.918
-32.397
-30.708
-28.841
-26.787
-24.543
-22.105
-19.471
-16.638
-13.604
-10.368
-6.931
-3.292
0.548
4.588
8.828
13.265
17.894
22.707
27.699
32.858
38.177
43.643
49.243
54.965
60.795
66.719
72.721
78.786
84.898
91.038
97.19
103.334
109.451
115.522
121.527
127.446
133.258
138.943
144.481
149.852
155.034
160.008
164.754
169.254
173.487
177.438
181.088
184.421
187.423
190.08
192.379
194.31
195.862
197.027
197.799
198.171
198.14
197.705
196.863
195.617
193.968
191.921
189.483
186.659
183.461
179.897
175.981
171.726
167.147
162.26
157.083
151.634
145.934
140.003
133.863
127.536
121.044
114.413
107.664
100.822
93.911
86.955
79.977
73.001
66.05
59.147
52.315
45.574
38.945
32.448
26.102
19.922
13.927
8.132
2.55
-2.805
-7.923
-12.792
-17.404
-21.751
-25.829
-29.631
-33.155
-36.4
-39.364
-42.049
-44.457
-46.59
-48.453
-50.052
-51.393
-52.484
-53.333
-53.951
-54.348
-54.539
-54.536
-54.354
-54.007
-53.512
-52.884
-52.138
-51.289
-50.352
-49.34
-48.268
-47.151
-46.004
-44.844
-43.684
-42.541
-41.429
-40.36
-39.348
-38.402
-37.533
-36.749
-36.06
-35.475
-35.012
-34.686
-34.507
-34.483
-34.618
-34.906
-35.34
-35.907
-36.581
-37.338
-38.154
-39.001
-39.863
-40.72
-41.548
-42.323
-43.01
-43.57
-43.979
-44.217
-44.282
-44.192
-43.964
-43.631
-43.25
-42.869
-42.539
-42.313
-42.221
-42.292
-42.565
-43.076
-43.891
-45.103
-46.739
-48.78
-51.14
-53.634
-56.06
-58.201
-59.785
-60.559
-60.362
-59.07
-56.766
-53.814
-50.649
-47.863
-45.395
-42.003
-36.325
-27.355
-16.33
-7.904
