Name,Criss Capps
Date of Birth,"Feb 5, 1952"
Recorded Date,2022-05-27 08:32:34 -0400
Classification,Sinus Rhythm
Symptoms,
Software Version,1.90
Device,"Watch5,4"
Sample Rate,512.844 hertz


Lead,Lead I
Unit,µV

-295.944
-389.298
-445.827
-462.815
-451.825
-431.487
-415.412
-408.858
-409.635
-409.044
-400.834
-383.529
-357.722
-327.609
-296.677
-265.858
-235.976
-206.88
-178.418
-151.372
-126.446
-104.239
-85.251
-69.718
-57.759
-49.364
-44.206
-41.648
-40.876
-41.047
-41.445
-41.456
-40.407
-37.612
-32.691
-25.604
-16.554
-5.907
6.019
18.955
32.472
45.977
59.062
71.535
83.372
94.714
105.678
116.317
126.786
137.35
148.162
159.261
170.6
182.009
193.337
204.491
215.343
225.749
235.612
244.869
253.491
261.504
268.925
275.76
282.023
287.725
292.876
297.493
301.592
305.188
308.292
310.915
313.064
314.746
315.966
316.727
317.032
316.881
316.276
315.222
313.732
311.818
309.494
306.772
303.666
300.189
296.358
292.19
287.705
282.924
277.867
272.558
267.023
261.289
255.38
249.322
243.139
236.855
230.493
224.078
217.632
211.178
204.737
198.331
191.98
185.704
179.523
173.453
167.511
161.712
156.069
150.596
145.304
140.203
135.3
130.6
126.108
121.827
117.762
113.914
110.282
106.866
103.662
100.666
97.872
95.275
92.862
90.623
88.545
86.615
84.822
83.155
81.605
80.156
78.789
77.482
76.213
74.965
73.733
72.502
71.259
69.988
68.668
67.294
65.884
64.419
62.844
61.113
59.163
56.989
54.672
52.237
49.653
46.962
44.25
41.617
39.231
37.093
35.006
32.867
30.652
28.27
25.634
22.608
18.946
14.632
9.913
4.939
-0.196
-5.385
-10.583
-15.678
-20.441
-24.837
-29.025
-33.108
-37.168
-41.261
-45.358
-49.487
-53.745
-58.142
-62.61
-67.097
-71.546
-75.932
-80.281
-84.594
-88.851
-93.046
-97.185
-101.273
-105.325
-109.342
-113.315
-117.237
-121.105
-124.915
-128.671
-132.372
-136.02
-139.615
-143.157
-146.65
-150.097
-153.504
-156.875
-160.215
-163.524
-166.803
-170.052
-173.271
-176.462
-179.63
-182.778
-185.909
-189.025
-192.126
-195.21
-198.269
-201.29
-204.252
-207.128
-209.889
-212.52
-215.008
-217.347
-219.531
-221.549
-223.383
-225.026
-226.469
-227.708
-228.746
-229.576
-230.181
-230.574
-230.793
-230.865
-230.812
-230.595
-230.113
-229.318
-228.221
-226.84
-225.201
-223.333
-221.264
-219.131
-217.183
-215.529
-214.116
-212.781
-211.235
-209.211
-206.511
-202.837
-197.787
-191.156
-182.951
-173.361
-162.797
-151.61
-140.011
-128.28
-116.756
-105.638
-95.02
-84.85
-74.893
-65.017
-55.216
-45.446
-35.663
-25.852
-15.989
-6.123
3.622
13.201
22.61
31.845
40.922
49.835
58.558
67.092
75.452
83.641
91.665
99.52
107.189
114.668
121.953
129.032
135.894
142.515
148.874
154.956
160.754
166.264
171.492
176.441
181.119
185.539
189.713
193.653
197.369
200.872
204.171
207.28
210.212
212.98
215.604
218.096
220.472
222.745
224.928
227.032
229.068
231.043
232.965
234.843
236.683
238.492
240.279
242.049
243.806
245.556
247.302
249.046
250.789
252.532
254.273
256.011
257.742
259.463
261.17
262.857
264.52
266.152
267.746
269.297
270.795
272.236
273.61
274.911
276.132
277.266
278.304
279.24
280.066
280.776
281.363
281.82
282.142
282.322
282.356
282.239
281.967
281.535
280.942
280.184
279.259
278.163
276.896
275.457
273.844
272.058
270.1
267.97
265.671
263.205
260.574
257.78
254.824
251.71
248.438
245.009
241.424
237.683
233.789
229.742
225.544
221.199
216.708
212.075
207.303
202.396
197.356
192.184
186.881
181.447
175.884
170.192
164.373
158.428
152.357
146.164
139.851
133.422
126.876
120.21
113.418
106.495
99.442
92.258
84.944
77.504
69.943
62.275
54.524
46.715
38.865
30.982
23.071
15.133
7.176
-0.791
-8.764
-16.74
-24.722
-32.705
-40.673
-48.619
-56.554
-64.508
-72.545
-80.735
-89.116
-97.724
-106.599
-115.739
-125.131
-134.72
-144.388
-154.025
-163.561
-172.906
-182.015
-190.941
-199.768
-208.66
-217.862
-227.515
-237.739
-248.694
-260.39
-272.62
-285.022
-297.031
-307.971
-317.298
-324.465
-328.871
-330.167
-328.362
-323.801
-317.165
-309.341
-301.274
-294.044
-288.913
-286.998
-289.063
-295.547
-306.594
-322.083
-341.597
-364.374
-389.288
-415.092
-440.704
-465.158
-487.556
-507.173
-523.621
-536.888
-547.321
-555.496
-561.963
-567.277
-572.12
-577.149
-582.796
-589.265
-596.554
-604.513
-613.009
-621.914
-630.949
-639.792
-648.241
-656.187
-663.627
-670.638
-677.277
-683.593
-689.697
-695.725
-701.759
-707.841
-713.953
-720.034
-726.02
-731.849
-737.468
-742.834
-747.924
-752.727
-757.25
-761.507
-765.513
-769.283
-772.817
-776.106
-779.141
-781.916
-784.436
-786.713
-788.767
-790.623
-792.305
-793.832
-795.221
-796.484
-797.628
-798.659
-799.575
-800.376
-801.063
-801.643
-802.123
-802.511
-802.813
-803.03
-803.165
-803.219
-803.191
-803.08
-802.882
-802.598
-802.225
-801.764
-801.217
-800.584
-799.868
-799.069
-798.187
-797.223
-796.176
-795.045
-793.829
-792.526
-791.137
-789.66
-788.095
-786.444
-784.707
-782.885
-780.98
-778.993
-776.927
-774.784
-772.566
-770.277
-767.92
-765.499
-763.018
-760.482
-757.895
-755.264
-752.595
-749.893
-747.166
-744.419
-741.661
-738.897
-736.134
-733.38
-730.641
-727.924
-725.236
-722.585
-719.976
-717.417
-714.915
-712.476
-710.105
-707.809
-705.593
-703.461
-701.417
-699.467
-697.612
-695.855
-694.199
-692.646
-691.197
-689.851
-688.61
-687.473
-686.438
-685.503
-684.667
-683.926
-683.278
-682.717
-682.241
-681.843
-681.52
-681.266
-681.075
-680.942
-680.859
-680.822
-680.821
-680.852
-680.907
-680.979
-681.06
-681.145
-681.224
-681.293
-681.343
-681.367
-681.361
-681.316
-681.228
-681.089
-680.896
-680.642
-680.323
-679.934
-679.472
-678.932
-678.311
-677.607
-676.816
-675.937
-674.967
-673.906
-672.752
-671.505
-670.164
-668.73
-667.203
-665.584
-663.873
-662.073
-660.185
-658.211
-656.154
-654.015
-651.799
-649.507
-647.143
-644.711
-642.213
-639.654
-637.037
-634.365
-631.642
-628.872
-626.058
-623.205
-620.316
-617.395
-614.445
-611.47
-608.474
-605.459
-602.429
-599.388
-596.337
-593.281
-590.222
-587.162
-584.105
-581.051
-578.004
-574.965
-571.936
-568.918
-565.912
-562.919
-559.94
-556.976
-554.026
-551.093
-548.174
-545.272
-542.384
-539.513
-536.656
-533.815
-530.988
-528.176
-525.377
-522.592
-519.819
-517.059
-514.311
-511.573
-508.847
-506.131
-503.424
-500.727
-498.04
-495.361
-492.691
-490.031
-487.38
-484.739
-482.109
-479.491
-476.885
-474.294
-471.718
-469.16
-466.622
-464.105
-461.611
-459.143
-456.703
-454.294
-451.917
-449.574
-447.269
-445.004
-442.781
-440.601
-438.468
-436.382
-434.347
-432.364
-430.435
-428.561
-426.744
-424.985
-423.285
-421.645
-420.065
-418.546
-417.087
-415.688
-414.349
-413.067
-411.841
-410.669
-409.549
-408.478
-407.453
-406.47
-405.526
-404.616
-403.738
-402.887
-402.059
-401.249
-400.454
-399.669
-398.89
-398.113
-397.333
-396.546
-395.749
-394.936
-394.105
-393.252
-392.372
-391.464
-390.524
-389.548
-388.535
-387.482
-386.387
-385.248
-384.064
-382.834
-381.558
-380.236
-378.869
-377.458
-376.005
-374.512
-372.981
-371.414
-369.814
-368.182
-366.522
-364.837
-363.128
-361.399
-359.653
-357.894
-356.123
-354.344
-352.561
-350.775
-348.989
-347.207
-345.431
-343.662
-341.904
-340.159
-338.43
-336.718
-335.028
-333.36
-331.716
-330.098
-328.508
-326.945
-325.409
-323.901
-322.42
-320.966
-319.539
-318.138
-316.763
-315.414
-314.093
-312.802
-311.54
-310.309
-309.108
-307.938
-306.797
-305.685
-304.598
-303.532
-302.484
-301.451
-300.432
-299.429
-298.438
-297.457
-296.48
-295.505
-294.53
-293.552
-292.565
-291.563
-290.543
-289.51
-288.474
-287.449
-286.44
-285.451
-284.483
-283.531
-282.595
-281.665
-280.726
-279.766
-278.767
-277.714
-276.606
-275.432
-274.181
-272.85
-271.406
-269.806
-268.045
-266.128
-264.1
-262.067
-260.082
-258.145
-256.302
-254.594
-253.02
-251.56
-250.023
-248.051
-245.451
-242.201
-238.37
-234.135
-229.656
-225.09
-220.911
-217.867
-216.517
-217.18
-219.841
-224.191
-229.981
-236.94
-244.391
-251.291
-256.569
-259.208
-258.576
-254.389
-246.24
-233.824
-217.253
-197.02
-174.004
-149.412
-124.287
-99.599
-76.783
-57.333
-42.476
-33.356
-30.201
-32.289
-39.781
-52.959
-72.036
-98.12
-129.384
-161.631
-190.872
-212.131
-224.066
-229.434
-230.757
-231.163
-231.765
-230.85
-227.719
-222.329
-215.263
-208.088
-201.6
-195.886
-190.946
-186.628
-182.82
-179.41
-176.312
-173.55
-171.156
-169.211
-167.709
-166.46
-165.354
-164.375
-163.437
-162.417
-161.227
-159.776
-158.1
-156.384
-154.726
-153.155
-151.706
-150.39
-149.218
-148.201
-147.284
-146.351
-145.333
-144.2
-142.94
-141.572
-140.104
-138.542
-136.906
-135.228
-133.536
-131.852
-130.188
-128.554
-126.958
-125.411
-123.919
-122.488
-121.118
-119.809
-118.559
-117.36
-116.207
-115.093
-114.015
-112.968
-111.948
-110.949
-109.964
-108.988
-108.014
-107.037
-106.053
-105.054
-104.036
-102.994
-101.927
-100.831
-99.704
-98.544
-97.346
-96.107
-94.823
-93.493
-92.113
-90.68
-89.193
-87.65
-86.049
-84.392
-82.677
-80.906
-79.077
-77.192
-75.251
-73.257
-71.21
-69.112
-66.967
-64.775
-62.54
-60.267
-57.957
-55.615
-53.245
-50.851
-48.437
-46.007
-43.566
-41.118
-38.669
-36.223
-33.785
-31.361
-28.955
-26.572
-24.217
-21.896
-19.613
-17.372
-15.179
-13.037
-10.951
-8.925
-6.963
-5.068
-3.243
-1.492
0.183
1.779
3.293
4.725
6.071
7.331
8.503
9.587
10.582
11.487
12.304
13.03
13.669
14.219
14.683
15.062
15.357
15.571
15.704
15.761
15.744
15.655
15.497
15.275
14.991
14.649
14.253
13.806
13.312
12.776
12.2
11.59
10.949
10.281
9.59
8.879
8.154
7.416
6.671
5.922
5.173
4.426
3.686
2.956
2.239
1.538
0.856
0.195
-0.44
-1.049
-1.629
-2.177
-2.693
-3.173
-3.617
-4.023
-4.39
-4.718
-5.004
-5.248
-5.45
-5.61
-5.726
-5.798
-5.827
-5.812
-5.754
-5.652
-5.508
-5.32
-5.091
-4.821
-4.51
-4.159
-3.771
-3.345
-2.885
-2.39
-1.863
-1.305
-0.719
-0.106
0.531
1.192
1.873
2.572
3.289
4.019
4.761
5.513
6.272
7.037
7.804
8.572
9.337
10.099
10.853
11.598
12.332
13.053
13.757
14.443
15.109
15.753
16.373
16.968
17.535
18.075
18.586
19.067
19.517
19.937
20.326
20.684
21.011
21.308
21.575
21.814
22.024
22.209
22.368
22.504
22.619
22.714
22.792
22.855
22.906
22.948
22.982
23.014
23.045
23.08
23.121
23.172
23.237
23.32
23.423
23.551
23.706
23.893
24.114
24.372
24.671
25.012
25.398
25.832
26.315
26.85
27.437
28.079
28.775
29.528
30.337
31.204
32.127
33.106
34.142
35.234
36.381
37.58
38.832
40.133
41.482
42.877
44.314
45.791
47.306
48.854
50.432
52.039
53.669
55.321
56.99
58.673
60.368
62.071
63.78
65.491
67.203
68.912
70.618
72.318
74.01
75.693
77.366
79.027
80.675
82.309
83.93
85.536
87.128
88.706
90.27
91.822
93.363
94.894
96.416
97.931
99.441
100.948
102.453
103.96
105.468
106.981
108.501
110.029
111.566
113.114
114.674
116.247
117.833
119.433
121.044
122.668
124.302
125.946
127.599
129.259
130.923
132.59
134.257
135.92
137.576
139.22
140.845
142.446
144.017
145.551
147.042
148.483
149.868
151.191
152.448
153.634
154.744
155.771
156.711
157.558
158.308
158.958
159.503
159.941
160.269
160.487
160.595
160.592
160.477
160.244
159.886
159.401
158.791
158.054
157.194
156.216
155.128
153.946
152.693
151.391
150.058
148.711
147.366
146.046
144.777
143.583
142.486
141.5
140.638
139.909
139.321
138.874
138.555
138.331
138.157
137.982
137.759
137.447
136.996
136.329
135.397
134.185
132.727
131.126
129.485
127.882
126.427
125.262
124.484
124.129
124.081
124.048
123.734
122.901
121.35
118.938
115.619
111.524
107.122
103.22
100.77
100.708
103.824
110.841
122.342
138.598
159.432
184.109
211.438
240.074
268.641
295.534
319.114
337.887
350.574
356.497
355.475
347.511
332.939
312.63
287.806
259.978
230.837
201.751
173.963
148.813
127.359
110.252
97.702
89.393
84.724
83.161
84.019
86.363
89.275
91.91
93.756
94.741
94.952
94.48
93.495
92.266
91.135
90.501
90.552
91.215
92.333
93.718
95.205
96.674
97.966
98.892
99.349
99.324
98.86
98.051
96.976
95.684
94.232
92.685
91.109
89.58
88.157
86.868
85.732
84.759
83.959
83.345
82.919
82.666
82.563
82.587
82.717
82.94
83.241
83.599
83.985
84.37
84.73
85.055
85.334
85.566
85.745
85.87
85.945
85.979
85.985
85.971
85.943
85.906
85.866
85.834
85.819
85.831
85.878
85.966
86.101
86.292
86.542
86.858
87.242
87.697
88.225
88.83
89.515
90.284
91.139
92.082
93.115
94.24
95.457
96.767
98.168
99.658
101.235
102.897
104.641
106.462
108.357
110.319
112.345
114.427
116.56
118.737
120.95
123.191
125.453
127.727
130.005
132.278
134.537
136.773
138.977
141.14
143.253
145.306
147.29
149.196
151.017
152.742
154.365
155.876
157.268
158.535
159.668
160.661
161.51
162.207
162.749
163.13
163.347
163.397
163.276
162.983
162.517
161.875
161.058
160.067
158.902
157.564
156.057
154.383
152.546
150.549
148.398
146.098
143.655
141.074
138.364
135.531
132.583
129.528
126.374
123.131
119.807
116.412
112.955
109.446
105.895
102.311
98.705
95.086
91.464
87.848
84.248
80.674
77.133
73.636
70.189
66.802
63.481
60.233
57.065
53.983
50.993
48.098
45.304
42.614
40.031
37.558
35.197
32.949
30.815
28.795
26.89
25.099
23.42
21.853
20.395
19.043
17.796
16.65
15.602
14.647
13.784
13.007
12.312
11.696
11.154
10.682
10.277
9.932
9.646
9.412
9.229
9.092
8.997
8.942
8.923
8.937
8.981
9.054
9.153
9.276
9.421
9.586
9.769
9.97
10.186
10.416
10.66
10.915
11.181
11.456
11.74
12.031
12.328
12.629
12.933
13.238
13.542
13.844
14.141
14.43
14.711
14.979
15.232
15.466
15.68
15.869
16.029
16.158
16.251
16.303
16.312
16.273
16.181
16.034
15.826
15.555
15.216
14.806
14.322
13.761
13.119
12.395
11.586
10.691
9.708
8.636
7.475
6.225
4.886
3.46
1.947
0.349
-1.33
-3.089
-4.924
-6.832
-8.808
-10.849
-12.948
-15.101
-17.302
-19.545
-21.825
-24.134
-26.467
-28.816
-31.175
-33.538
-35.897
-38.247
-40.581
-42.892
-45.174
-47.423
-49.631
-51.794
-53.907
-55.965
-57.964
-59.901
-61.771
-63.573
-65.302
-66.958
-68.538
-70.041
-71.465
-72.81
-74.076
-75.262
-76.368
-77.395
-78.344
-79.216
-80.011
-80.731
-81.378
-81.953
-82.458
-82.893
-83.261
-83.564
-83.802
-83.976
-84.088
-84.139
-84.128
-84.058
-83.928
-83.738
-83.49
-83.182
-82.815
-82.388
-81.901
-81.354
-80.745
-80.075
-79.342
-78.546
-77.689
-76.768
-75.784
-74.737
-73.629
-72.46
-71.231
-69.944
-68.6
-67.201
-65.75
-64.251
-62.706
-61.121
-59.5
-57.851
-56.179
-54.493
-52.801
-51.109
-49.428
-47.764
-46.126
-44.523
-42.961
-41.449
-39.996
-38.612
-37.306
-36.087
-34.963
-33.941
-33.028
-32.233
-31.561
-31.012
-30.589
-30.297
-30.142
-30.133
-30.277
-30.573
-31.022
-31.62
-32.365
-33.251
-34.263
-35.381
-36.583
-37.85
-39.168
-40.528
-41.915
-43.306
-44.671
-45.983
-47.219
-48.371
-49.431
-50.383
-51.224
-51.957
-52.601
-53.198
-53.783
-54.382
-55.021
-55.729
-56.535
-57.489
-58.657
-60.077
-61.752
-63.638
-65.632
-67.63
-69.534
-71.202
-72.449
-73.11
-73.086
-72.429
-71.396
-70.275
-69.315
-68.769
-68.851
-69.739
-71.52
-73.994
-76.516
-78.225
-78.212
-75.601
-69.527
-59.057
-43.448
-22.286
3.787
33.057
64.344
96.711
129.612
163.365
195.535
221.671
237.789
239.36
225.981
201.522
169.604
134.825
99.885
64.467
29.282
-4.614
-35.878
-62.161
-82.186
-96.02
-104.182
-107.615
-107.456
-104.75
-100.568
-96.15
-92.494
-90.001
-88.729
-88.565
-89.201
-90.367
-91.796
-92.934
-93.289
-92.727
-91.297
-89.184
-86.657
-83.851
-80.843
-77.908
-75.308
-73.157
-71.515
-70.334
-69.502
-68.99
-68.791
-68.81
-68.949
-69.125
-69.228
-69.194
-68.997
-68.594
-67.959
-67.092
-65.984
-64.64
-63.088
-61.351
-59.453
-57.42
-55.269
-53.02
-50.702
-48.344
-45.981
-43.651
-41.377
-39.178
-37.064
-35.045
-33.125
-31.305
-29.578
-27.931
-26.355
-24.843
-23.388
-21.985
-20.624
-19.296
-17.988
-16.69
-15.391
-14.082
-12.753
-11.394
-9.996
-8.551
-7.052
-5.492
-3.865
-2.162
-0.376
1.502
3.478
5.559
7.753
10.064
12.5
15.062
17.755
20.58
23.539
26.632
29.858
33.215
36.702
40.315
44.049
47.9
51.86
55.924
60.084
64.33
68.654
73.046
77.495
81.989
86.518
91.067
95.626
100.181
104.718
109.225
113.686
118.089
122.42
126.664
130.809
134.84
138.744
142.51
146.125
149.577
152.855
155.95
158.852
161.552
164.042
166.316
168.367
170.191
171.782
173.137
174.254
175.132
175.77
176.167
176.327
176.25
175.94
175.4
174.637
173.654
172.459
171.058
169.459
167.67
165.701
163.56
161.259
158.806
156.213
153.491
150.65
147.703
144.659
141.531
138.33
135.067
131.752
128.397
125.01
121.604
118.186
114.767
111.355
107.958
104.584
101.241
97.934
94.671
91.456
88.296
85.193
82.154
79.18
76.276
73.443
70.685
68.001
65.394
62.865
60.413
58.038
55.74
53.519
51.373
49.301
47.302
45.374
43.515
41.724
39.998
38.336
36.734
35.192
33.708
32.278
30.901
29.575
28.299
27.069
25.885
24.745
23.646
22.588
21.568
20.585
19.637
18.723
17.84
16.987
16.163
15.365
14.592
13.843
13.115
12.407
11.716
11.041
10.381
9.732
9.093
8.462
7.836
7.214
6.593
5.972
5.347
4.718
4.08
3.433
2.774
2.101
1.411
0.702
-0.027
-0.779
-1.555
-2.356
-3.186
-4.043
-4.931
-5.849
-6.798
-7.779
-8.791
-9.836
-10.911
-12.018
-13.155
-14.32
-15.513
-16.731
-17.974
-19.239
-20.524
-21.828
-23.146
-24.478
-25.82
-27.17
-28.524
-29.88
-31.236
-32.587
-33.931
-35.265
-36.586
-37.892
-39.178
-40.443
-41.684
-42.899
-44.084
-45.238
-46.36
-47.446
-48.496
-49.507
-50.48
-51.412
-52.304
-53.155
-53.964
-54.732
-55.458
-56.143
-56.788
-57.392
-57.956
-58.482
-58.969
-59.418
-59.831
-60.209
-60.551
-60.859
-61.133
-61.375
-61.585
-61.764
-61.913
-62.032
-62.122
-62.183
-62.215
-62.22
-62.196
-62.143
-62.062
-61.953
-61.814
-61.646
-61.449
-61.221
-60.961
-60.671
-60.348
-59.993
-59.604
-59.182
-58.725
-58.233
-57.708
-57.148
-56.554
-55.928
-55.269
-54.581
-53.863
-53.119
-52.35
-51.558
-50.747
-49.92
-49.08
-48.232
-47.379
-46.529
-45.686
-44.858
-44.05
-43.269
-42.522
-41.816
-41.156
-40.548
-39.996
-39.507
-39.086
-38.74
-38.475
-38.297
-38.209
-38.217
-38.324
-38.535
-38.852
-39.272
-39.795
-40.42
-41.15
-41.99
-42.944
-44.009
-45.184
-46.462
-47.838
-49.304
-50.845
-52.437
-54.059
-55.689
-57.311
-58.916
-60.487
-62.004
-63.441
-64.769
-65.968
-67.029
-67.943
-68.698
-69.296
-69.744
-70.07
-70.314
-70.511
-70.693
-70.891
-71.14
-71.484
-71.966
-72.639
-73.57
-74.785
-76.271
-77.975
-79.777
-81.53
-83.101
-84.31
-84.941
-84.864
-84.043
-82.607
-80.872
-79.195
-77.876
-77.185
-77.357
-78.513
-80.577
-83.11
-85.273
-86.005
-84.242
-79.105
-69.728
-55.287
-35.267
-9.639
20.544
53.146
86.053
117.731
147.866
176.854
203.714
225.417
236.791
232.877
212.071
176.81
133.331
88.246
45.778
7.569
-27.078
-58.689
-86.674
-109.985
-127.402
-138.752
-144.919
-146.998
-146.196
-143.573
-139.835
-135.664
-131.705
-128.206
-125.184
-122.667
-120.536
-118.677
-117.171
-115.949
-114.812
-113.745
-112.712
-111.585
-110.385
-109.086
-107.517
-105.654
-103.576
-101.321
-99.04
-96.937
-95.073
-93.502
-92.313
-91.501
-91.026
-90.828
-90.759
-90.646
-90.398
-89.962
-89.303
-88.429
-87.343
-86.048
-84.581
-82.99
-81.308
-79.561
-77.763
-75.922
-74.057
-72.198
-70.378
-68.628
-66.969
-65.411
-63.96
-62.62
-61.387
-60.256
-59.215
-58.249
-57.344
-56.491
-55.68
-54.903
-54.149
-53.405
-52.656
-51.888
-51.088
-50.245
-49.347
-48.385
-47.348
-46.227
-45.016
-43.707
-42.292
-40.766
-39.119
-37.345
-35.437
-33.389
-31.197
-28.857
-26.365
-23.72
-20.921
-17.969
-14.863
-11.608
-8.206
-4.66
-0.978
2.837
6.776
10.833
14.998
19.263
23.618
28.052
32.555
37.114
41.719
46.356
51.012
55.674
60.329
64.962
69.56
74.109
78.594
83.002
87.318
91.53
95.622
99.583
103.399
107.058
110.549
113.861
116.983
119.906
122.621
125.121
127.399
129.448
131.263
132.84
134.175
135.266
136.111
136.71
137.062
137.168
137.031
136.653
136.039
135.193
134.121
132.828
131.323
129.613
127.707
125.615
123.346
120.911
118.321
115.588
112.724
109.741
106.651
103.467
100.202
96.868
93.479
90.046
86.581
83.098
79.607
76.12
72.648
69.202
65.793
62.429
59.12
55.875
52.702
49.608
46.6
43.684
40.866
38.151
35.542
33.043
30.657
28.386
26.232
24.194
22.274
20.47
18.782
17.209
15.747
14.395
13.15
12.009
10.967
10.022
9.17
8.405
7.724
7.122
6.595
6.138
5.745
5.412
5.135
4.907
4.726
4.585
4.481
4.409
4.364
4.343
4.342
4.357
4.383
4.419
4.461
4.507
4.553
4.597
4.638
4.673
4.702
4.722
4.732
4.731
4.719
4.694
4.657
4.606
4.541
4.462
4.37
4.264
4.144
4.012
3.866
3.708
3.539
3.358
3.168
2.968
2.759
2.542
2.319
2.09
1.855
1.617
1.375
1.131
0.885
0.637
0.39
0.142
-0.104
-0.35
-0.593
-0.834
-1.072
-1.307
-1.539
-1.767
-1.991
-2.211
-2.427
-2.64
-2.849
-3.054
-3.256
-3.455
-3.652
-3.848
-4.042
-4.237
-4.433
-4.63
-4.831
-5.037
-5.248
-5.467
-5.694
-5.931
-6.179
-6.441
-6.717
-7.01
-7.32
-7.651
-8.002
-8.376
-8.774
-9.198
-9.648
-10.127
-10.635
-11.174
-11.744
-12.346
-12.981
-13.648
-14.349
-15.083
-15.85
-16.648
-17.478
-18.337
-19.225
-20.138
-21.076
-22.035
-23.013
-24.006
-25.011
-26.025
-27.042
-28.059
-29.071
-30.073
-31.059
-32.023
-32.961
-33.865
-34.731
-35.552
-36.323
-37.038
-37.69
-38.274
-38.784
-39.214
-39.56
-39.815
-39.975
-40.036
-39.994
-39.845
-39.587
-39.217
-38.733
-38.135
-37.421
-36.593
-35.651
-34.596
-33.431
-32.16
-30.787
-29.318
-27.757
-26.114
-24.397
-22.616
-20.779
-18.898
-16.983
-15.045
-13.097
-11.147
-9.207
-7.288
-5.401
-3.56
-1.777
-0.065
1.565
3.101
4.531
5.846
7.034
8.091
9.01
9.787
10.412
10.874
11.162
11.274
11.206
10.96
10.539
9.948
9.202
8.323
7.333
6.255
5.106
3.896
2.638
1.352
0.062
-1.198
-2.402
-3.538
-4.597
-5.567
-6.445
-7.24
-7.979
-8.718
-9.499
-10.355
-11.311
-12.383
-13.609
-15.033
-16.686
-18.612
-20.859
-23.438
-26.339
-29.494
-32.737
-35.89
-38.782
-41.174
-42.818
-43.543
-43.264
-42.122
-40.512
-38.803
-37.24
-36.154
-35.945
-36.815
-38.851
-41.272
-42.252
-40.742
-36.293
-29.052
-20.338
-9.077
7.718
32.338
67.307
111.284
158.95
205.506
245.586
275.936
296.557
307.367
308.908
301.563
284.516
256.813
218.029
169.611
115.544
62.413
17.075
-16.558
-38.308
-51.639
-60.807
-68.035
-73.342
-75.339
-73.479
-68.812
-63.247
-58.836
-56.568
-56.576
-58.841
-63.003
-68.51
-74.719
-80.761
-85.897
-89.819
-92.412
-93.583
-93.42
-92.157
-90.119
-87.799
-85.656
-83.901
-82.648
-81.992
-81.933
-82.441
-83.452
-84.795
-86.297
-87.865
-89.417
-90.886
-92.224
-93.358
-94.235
-94.842
-95.175
-95.232
-95.018
-94.529
-93.767
-92.756
-91.515
-90.068
-88.439
-86.648
-84.717
-82.677
-80.557
-78.39
-76.203
-74.011
-71.826
-69.656
-67.504
-65.372
-63.257
-61.15
-59.046
-56.938
-54.821
-52.692
-50.545
-48.375
-46.174
-43.936
-41.653
-39.321
-36.933
-34.486
-31.975
-29.395
-26.743
-24.018
-21.216
-18.335
-15.37
-12.318
-9.175
-5.939
-2.607
0.823
4.354
7.984
11.715
15.546
19.473
23.496
27.611
31.813
36.098
40.461
44.895
49.392
53.946
58.548
63.188
67.856
72.541
77.233
81.919
86.587
91.225
95.819
100.356
104.824
109.207
113.492
117.665
121.713
125.621
129.375
132.964
136.373
139.591
142.605
145.405
147.98
150.321
152.418
154.265
155.853
157.177
158.231
159.012
159.517
159.744
159.692
159.362
158.756
157.875
156.724
155.308
153.632
151.704
149.532
147.124
144.49
141.641
138.588
135.344
131.92
128.331
124.59
120.711
116.709
112.599
108.394
104.11
99.761
95.362
90.929
86.474
82.011
77.556
73.12
68.715
64.355
60.051
55.813
51.65
47.573
43.59
39.708
35.935
32.276
28.736
25.321
22.034
18.876
15.852
12.96
10.203
7.58
5.09
2.732
0.503
-1.599
-3.576
-5.432
-7.171
-8.796
-10.313
-11.725
-13.038
-14.257
-15.386
-16.43
-17.396
-18.288
-19.111
-19.871
-20.573
-21.221
-21.82
-22.376
-22.891
-23.372
-23.821
-24.243
-24.641
-25.018
-25.378
-25.723
-26.056
-26.378
-26.693
-27.001
-27.305
-27.605
-27.904
-28.201
-28.499
-28.798
-29.098
-29.4
-29.705
-30.012
-30.322
-30.634
-30.949
-31.267
-31.588
-31.91
-32.235
-32.561
-32.888
-33.216
-33.543
-33.87
-34.196
-34.52
-34.842
-35.161
-35.477
-35.79
-36.098
-36.402
-36.701
-36.995
-37.284
-37.567
-37.845
-38.117
-38.383
-38.643
-38.898
-39.147
-39.391
-39.631
-39.866
-40.097
-40.325
-40.551
-40.774
-40.997
-41.221
-41.445
-41.672
-41.903
-42.14
-42.383
-42.635
-42.898
-43.172
-43.46
-43.763
-44.084
-44.424
-44.784
-45.168
-45.575
-46.009
-46.47
-46.96
-47.479
-48.03
-48.613
-49.228
-49.877
-50.558
-51.273
-52.02
-52.799
-53.609
-54.449
-55.316
-56.21
-57.126
-58.064
-59.018
-59.987
-60.966
-61.95
-62.937
-63.92
-64.895
-65.856
-66.798
-67.714
-68.599
-69.446
-70.249
-71
-71.693
-72.323
-72.881
-73.363
-73.762
-74.072
-74.287
-74.403
-74.414
-74.316
-74.104
-73.776
-73.328
-72.76
-72.068
-71.253
-70.315
-69.254
-68.073
-66.774
-65.359
-63.833
-62.2
-60.466
-58.638
-56.722
-54.728
-52.664
-50.542
-48.374
-46.172
-43.948
-41.716
-39.489
-37.281
-35.104
-32.972
-30.896
-28.89
-26.965
-25.137
-23.418
-21.82
-20.355
-19.033
-17.864
-16.858
-16.021
-15.357
-14.868
-14.559
-14.436
-14.508
-14.784
-15.263
-15.945
-16.826
-17.897
-19.149
-20.565
-22.117
-23.778
-25.521
-27.322
-29.167
-31.038
-32.907
-34.742
-36.505
-38.163
-39.699
-41.099
-42.349
-43.446
-44.398
-45.23
-45.99
-46.729
-47.491
-48.315
-49.238
-50.303
-51.558
-53.056
-54.87
-57.033
-59.531
-62.306
-65.238
-68.168
-70.95
-73.392
-75.233
-76.296
-76.497
-75.884
-74.727
-73.352
-72.033
-71.027
-70.556
-70.783
-71.716
-73.031
-74.077
-73.519
-69.973
-62.874
-51.377
-35.741
-16.566
7.778
37.714
73.582
115.87
160.557
203.639
242.256
272.387
293.663
306.907
310.606
304.524
287.513
256.873
212.841
157.592
95.001
32.791
-20.904
-61.393
-87.078
-100.811
-108.642
-114.253
-118.887
-121.95
-121.213
-116.301
-108.533
-99.561
-91.254
-84.53
-79.659
-76.831
-75.872
-76.5
-78.34
-80.855
-83.674
-86.519
-88.969
-90.637
-91.321
-90.969
-89.716
-87.804
-85.421
-82.751
-80.076
-77.7
-75.81
-74.475
-73.672
-73.307
-73.281
-73.496
-73.801
-74.011
-74.011
-73.748
-73.206
-72.408
-71.375
-70.113
-68.651
-67.031
-65.284
-63.437
-61.507
-59.501
-57.443
-55.364
-53.297
-51.279
-49.336
-47.479
-45.72
-44.066
-42.518
-41.075
-39.732
-38.477
-37.301
-36.198
-35.16
-34.18
-33.248
-32.352
-31.479
-30.616
-29.748
-28.864
-27.954
-27.006
-26.011
-24.959
-23.84
-22.648
-21.373
-20.006
-18.539
-16.962
-15.267
-13.446
-11.492
-9.398
-7.16
-4.772
-2.231
0.465
3.317
6.327
9.492
12.813
16.286
19.907
23.672
27.576
31.61
35.769
40.042
44.421
48.896
53.454
58.085
62.775
67.512
72.282
77.07
81.863
86.645
91.401
96.116
100.774
105.359
109.857
114.252
118.528
122.671
126.667
130.501
134.16
137.632
140.906
143.969
146.812
149.425
151.8
153.929
155.806
157.426
158.784
159.876
160.7
161.255
161.542
161.56
161.312
160.801
160.031
159.008
157.737
156.226
154.482
152.515
150.334
147.949
145.373
142.616
139.691
136.612
133.392
130.043
126.581
123.019
119.371
115.652
111.875
108.055
104.204
100.336
96.463
92.6
88.756
84.945
81.177
77.463
73.811
70.232
66.734
63.325
60.01
56.798
53.693
50.699
47.822
45.064
42.428
39.915
37.527
35.263
33.124
31.107
29.212
27.437
25.778
24.233
22.799
21.471
20.246
19.119
18.087
17.144
16.287
15.511
14.811
14.182
13.621
13.122
12.682
12.297
11.962
11.674
11.428
11.223
11.054
10.919
10.815
10.739
10.691
10.666
10.666
10.687
10.73
10.794
10.878
10.982
11.107
11.252
11.418
11.605
11.814
12.046
12.302
12.581
12.885
13.215
13.572
13.955
14.366
14.806
15.274
15.771
16.297
16.853
17.438
18.053
18.696
19.368
20.068
20.795
21.548
22.327
23.129
23.954
24.8
25.665
26.547
27.444
28.355
29.276
30.204
31.139
32.076
33.013
33.947
34.875
35.793
36.699
37.588
38.457
39.304
40.124
40.915
41.674
42.397
43.081
43.724
44.324
44.877
45.382
45.837
46.239
46.588
46.883
47.12
47.301
47.423
47.487
47.492
47.438
47.325
47.155
46.928
46.645
46.309
45.923
45.488
45.01
44.492
43.941
43.361
42.759
42.139
41.509
40.874
40.241
39.615
39.001
38.407
37.84
37.306
36.814
36.369
35.979
35.654
35.401
35.229
35.145
35.155
35.266
35.486
35.824
36.291
36.893
37.631
38.508
39.52
40.663
41.929
43.304
44.768
46.305
47.898
49.534
51.205
52.896
54.593
56.287
57.96
59.606
61.226
62.825
64.41
66.002
67.619
69.29
71.054
72.934
74.947
77.101
79.39
81.811
84.351
86.986
89.687
92.417
95.119
97.731
100.185
102.39
104.26
105.708
106.627
106.94
106.582
105.501
103.669
101.068
97.692
93.56
88.707
83.184
77.064
70.428
63.368
55.998
48.427
40.761
33.125
25.623
18.346
11.37
4.749
-1.479
-7.283
-12.658
-17.627
-22.232
-26.526
-30.568
-34.415
-38.136
-41.804
-45.495
-49.278
-53.215
-57.372
-61.781
-66.444
-71.331
-76.329
-81.278
-86.016
-90.338
-94.009
-96.856
-98.743
-99.631
-99.718
-99.298
-98.62
-97.924
-97.514
-97.672
-98.548
-100.146
-101.608
-101.304
-98.434
-92.628
-84.16
-74.591
-62.919
-46.108
-21.791
12.998
56.877
103.746
148.466
186.096
215.313
238.856
257.791
271.151
274.461
261.784
229.509
177.369
111.516
40.546
-26.529
-80.544
-118.778
-142.272
-154.471
-162.19
-168.713
-174.466
-178.805
-179.244
-175.402
-168.87
-161.283
-154.381
-148.91
-144.79
-142.087
-140.802
-140.759
-141.667
-143.135
-144.944
-147.045
-149.36
-151.614
-153.427
-154.609
-155.183
-155.287
-155.038
-154.484
-153.68
-152.81
-152.156
-151.886
-152.036
-152.549
-153.311
-154.221
-155.195
-156.117
-156.844
-157.285
-157.405
-157.202
-156.713
-155.977
-155.015
-153.862
-152.552
-151.114
-149.572
-147.952
-146.277
-144.574
-142.882
-141.224
-139.621
-138.084
-136.621
-135.232
-133.917
-132.667
-131.471
-130.321
-129.209
-128.131
-127.08
-126.046
-125.018
-123.984
-122.931
-121.847
-120.718
-119.532
-118.279
-116.947
-115.527
-114.01
-112.389
-110.654
-108.797
-106.807
-104.676
-102.393
-99.953
-97.346
-94.567
-91.61
-88.47
-85.145
-81.632
-77.932
-74.043
-69.967
-65.706
-61.264
-56.644
-51.853
-46.897
-41.785
-36.525
-31.128
-25.605
-19.969
-14.232
-8.409
-2.514
3.436
9.425
15.437
21.454
27.458
33.432
39.356
45.213
50.984
56.651
62.196
67.6
72.847
77.919
82.8
87.475
91.929
96.148
100.12
103.831
107.27
110.429
113.297
115.868
118.133
120.089
121.731
123.057
124.065
124.755
125.129
125.189
124.939
124.385
123.532
122.388
120.963
119.265
117.306
115.098
112.652
109.984
107.106
104.033
100.782
97.367
93.804
90.111
86.302
82.396
78.409
74.357
70.257
66.125
61.978
57.829
53.695
49.59
45.528
41.522
37.584
33.727
29.96
26.295
22.741
19.304
15.993
12.815
9.774
6.874
4.12
1.514
-0.942
-3.248
-5.403
-7.407
-9.263
-10.971
-12.536
-13.959
-15.245
-16.398
-17.422
-18.324
-19.107
-19.778
-20.344
-20.809
-21.18
-21.463
-21.666
-21.793
-21.853
-21.849
-21.79
-21.679
-21.524
-21.329
-21.099
-20.839
-20.553
-20.245
-19.919
-19.579
-19.226
-18.864
-18.495
-18.121
-17.744
-17.365
-16.985
-16.605
-16.225
-15.846
-15.467
-15.089
-14.712
-14.334
-13.956
-13.576
-13.195
-12.81
-12.422
-12.029
-11.63
-11.225
-10.812
-10.391
-9.961
-9.522
-9.072
-8.612
-8.142
-7.662
-7.171
-6.669
-6.158
-5.638
-5.109
-4.572
-4.029
-3.48
-2.928
-2.372
-1.816
-1.26
-0.707
-0.157
0.387
0.922
1.448
1.963
2.463
2.947
3.413
3.86
4.283
4.683
5.057
5.403
5.719
6.005
6.257
6.476
6.658
6.804
6.913
6.982
7.012
7.001
6.949
6.856
6.722
6.547
6.33
6.073
5.775
5.437
5.06
4.645
4.193
3.705
3.182
2.627
2.04
1.425
0.782
0.115
-0.574
-1.283
-2.01
-2.751
-3.504
-4.265
-5.032
-5.801
-6.569
-7.332
-8.087
-8.829
-9.554
-10.259
-10.94
-11.592
-12.212
-12.796
-13.34
-13.84
-14.293
-14.694
-15.04
-15.327
-15.552
-15.712
-15.805
-15.828
-15.78
-15.658
-15.461
-15.188
-14.84
-14.415
-13.915
-13.339
-12.69
-11.97
-11.18
-10.326
-9.409
-8.437
-7.416
-6.352
-5.253
-4.127
-2.982
-1.828
-0.672
0.475
1.607
2.715
3.79
4.822
5.802
6.718
7.563
8.328
9.003
9.581
10.053
10.414
10.662
10.792
10.801
10.68
10.419
10.009
9.448
8.735
7.871
6.86
5.709
4.429
3.047
1.584
0.065
-1.493
-3.078
-4.675
-6.258
-7.798
-9.26
-10.615
-11.848
-12.951
-13.91
-14.72
-15.39
-15.94
-16.425
-16.903
-17.418
-18.015
-18.735
-19.616
-20.722
-22.13
-23.895
-26.044
-28.546
-31.308
-34.23
-37.206
-40.076
-42.619
-44.622
-45.925
-46.499
-46.503
-46.164
-45.709
-45.401
-45.535
-46.314
-47.83
-49.983
-52.298
-54.02
-54.3
-52.163
-46.507
-36.326
-20.765
0.953
28.73
61.397
97.729
136.131
175.595
216.759
259.077
300.084
335.501
357.985
361.754
345.869
312.442
267.625
217.244
162.498
104.648
44.758
-14.116
-64.098
-100.149
-120.833
-128.238
-129.414
-129.068
-128.751
-128.601
-126.484
-121.833
-115.853
-109.555
-104.116
-100.077
-97.299
-95.626
-94.865
-94.69
-94.771
-95.006
-95.464
-96.162
-97.014
-97.836
-98.356
-98.503
-98.396
-98.075
-97.547
-96.844
-96.02
-95.225
-94.691
-94.528
-94.709
-95.174
-95.82
-96.542
-97.273
-97.923
-98.371
-98.553
-98.447
-98.06
-97.441
-96.635
-95.669
-94.573
-93.383
-92.125
-90.833
-89.541
-88.276
-87.072
-85.953
-84.936
-84.035
-83.255
-82.599
-82.061
-81.631
-81.293
-81.033
-80.842
-80.711
-80.631
-80.587
-80.565
-80.549
-80.523
-80.47
-80.376
-80.225
-80
-79.689
-79.279
-78.759
-78.118
-77.344
-76.427
-75.353
-74.112
-72.693
-71.086
-69.282
-67.272
-65.05
-62.611
-59.95
-57.066
-53.957
-50.624
-47.068
-43.291
-39.299
-35.096
-30.689
-26.087
-21.299
-16.336
-11.212
-5.938
-0.53
4.998
10.627
16.342
22.124
27.954
33.813
39.682
45.54
51.367
57.142
62.846
68.457
73.956
79.322
84.537
89.581
94.437
99.086
103.513
107.701
111.638
115.308
118.701
121.806
124.612
127.112
129.299
131.168
132.714
133.937
134.833
135.405
135.655
135.585
135.201
134.509
133.516
132.231
130.664
128.827
126.73
124.387
121.813
119.021
116.027
112.847
109.498
105.997
102.362
98.609
94.757
90.823
86.825
82.78
78.706
74.619
70.536
66.472
62.443
58.462
54.545
50.702
46.948
43.292
39.745
36.316
33.013
29.844
26.815
23.932
21.198
18.618
16.195
13.929
11.822
9.874
8.084
6.45
4.97
3.642
2.461
1.424
0.525
-0.24
-0.878
-1.393
-1.792
-2.082
-2.269
-2.359
-2.359
-2.275
-2.115
-1.885
-1.591
-1.238
-0.834
-0.384
0.107
0.633
1.19
1.772
2.375
2.994
3.627
4.268
4.914
5.563
6.212
6.857
7.496
8.128
8.751
9.362
9.961
10.547
11.119
11.675
12.215
12.739
13.246
13.736
14.208
14.661
15.097
15.514
15.912
16.29
16.649
16.988
17.306
17.604
17.88
18.135
18.367
18.577
18.764
18.928
19.068
19.184
19.275
19.342
19.383
19.399
19.389
19.352
19.288
19.197
19.078
18.93
18.754
18.549
18.314
18.049
17.755
17.43
17.076
16.691
16.276
15.831
15.357
14.853
14.321
13.76
13.173
12.558
11.918
11.253
10.563
9.85
9.115
8.358
7.581
6.784
5.969
5.137
4.289
3.426
2.551
1.664
0.768
-0.136
-1.047
-1.961
-2.878
-3.795
-4.709
-5.618
-6.52
-7.413
-8.292
-9.157
-10.004
-10.83
-11.633
-12.41
-13.157
-13.873
-14.554
-15.197
-15.799
-16.356
-16.865
-17.323
-17.726
-18.07
-18.353
-18.571
-18.721
-18.8
-18.804
-18.731
-18.578
-18.342
-18.022
-17.615
-17.119
-16.534
-15.859
-15.092
-14.235
-13.287
-12.25
-11.124
-9.911
-8.613
-7.234
-5.775
-4.242
-2.637
-0.967
0.764
2.548
4.38
6.249
8.147
10.065
11.992
13.918
15.832
17.721
19.577
21.387
23.141
24.829
26.439
27.96
29.38
30.688
31.872
32.925
33.835
34.594
35.195
35.633
35.905
36.007
35.933
35.673
35.221
34.573
33.729
32.69
31.463
30.056
28.484
26.769
24.936
23.008
21.009
18.953
16.859
14.748
12.648
10.594
8.621
6.753
5.01
3.405
1.941
0.618
-0.589
-1.72
-2.82
-3.932
-5.094
-6.333
-7.69
-9.208
-10.929
-12.917
-15.242
-17.933
-20.985
-24.337
-27.84
-31.336
-34.643
-37.5
-39.644
-40.886
-41.099
-40.345
-38.933
-37.152
-35.318
-33.836
-32.957
-32.768
-33.4
-34.647
-35.691
-35.748
-33.503
-26.928
-15.12
2.291
25.307
51.865
80.903
113.378
149.895
192.88
243.85
299.478
354.466
400.834
429.085
434.424
417.14
381.071
333.9
281.666
225.52
166.344
104.638
43.303
-9.675
-48.809
-72.059
-81.229
-83.253
-82.874
-81.848
-80.403
-76.467
-69.664
-61.449
-53.083
-46.112
-41.392
-38.854
-38.368
-39.613
-42.024
-45.074
-48.465
-51.935
-55.201
-58.025
-60.1
-61.264
-61.646
-61.443
-60.797
-59.871
-58.829
-57.86
-57.252
-57.163
-57.582
-58.459
-59.685
-61.141
-62.731
-64.317
-65.731
-66.878
-67.722
-68.256
-68.517
-68.534
-68.322
-67.918
-67.361
-66.683
-65.914
-65.071
-64.174
-63.25
-62.332
-61.454
-60.643
-59.913
-59.275
-58.731
-58.283
-57.925
-57.651
-57.449
-57.308
-57.221
-57.177
-57.168
-57.184
-57.211
-57.235
-57.242
-57.217
-57.147
-57.02
-56.822
-56.544
-56.175
-55.704
-55.123
-54.422
-53.592
-52.622
-51.502
-50.224
-48.778
-47.158
-45.357
-43.37
-41.192
-38.82
-36.253
-33.49
-30.531
-27.378
-24.033
-20.499
-16.783
-12.889
-8.825
-4.599
-0.22
4.301
8.952
13.723
18.598
23.565
28.608
33.712
38.861
44.038
49.226
54.407
59.564
64.679
69.733
74.708
79.586
84.35
88.98
93.461
97.776
101.907
105.841
109.561
113.055
116.309
119.31
122.048
124.513
126.694
128.585
130.177
131.466
132.446
133.115
133.47
133.512
133.24
132.656
131.764
130.568
129.074
127.289
125.22
122.878
120.271
117.412
114.313
110.986
107.447
103.708
99.786
95.697
91.456
87.079
82.584
77.988
73.307
68.559
63.76
58.928
54.078
49.228
44.392
39.586
34.825
30.124
25.494
20.949
16.501
12.161
7.938
3.842
-0.118
-3.937
-7.607
-11.124
-14.483
-17.68
-20.715
-23.584
-26.288
-28.827
-31.202
-33.414
-35.468
-37.364
-39.108
-40.704
-42.157
-43.471
-44.654
-45.71
-46.646
-47.47
-48.187
-48.805
-49.331
-49.772
-50.134
-50.426
-50.652
-50.821
-50.938
-51.01
-51.042
-51.04
-51.009
-50.954
-50.88
-50.79
-50.688
-50.578
-50.462
-50.344
-50.226
-50.11
-49.997
-49.889
-49.788
-49.693
-49.607
-49.529
-49.459
-49.398
-49.345
-49.301
-49.263
-49.233
-49.209
-49.19
-49.176
-49.165
-49.157
-49.15
-49.144
-49.137
-49.129
-49.119
-49.106
-49.089
-49.069
-49.043
-49.012
-48.975
-48.933
-48.884
-48.829
-48.767
-48.699
-48.624
-48.542
-48.453
-48.359
-48.257
-48.15
-48.038
-47.92
-47.798
-47.672
-47.543
-47.412
-47.28
-47.148
-47.016
-46.887
-46.761
-46.64
-46.524
-46.417
-46.318
-46.23
-46.154
-46.091
-46.043
-46.011
-45.998
-46.003
-46.03
-46.08
-46.155
-46.255
-46.383
-46.54
-46.728
-46.948
-47.201
-47.489
-47.812
-48.171
-48.567
-49.001
-49.472
-49.98
-50.524
-51.105
-51.721
-52.37
-53.051
-53.762
-54.5
-55.264
-56.05
-56.855
-57.677
-58.511
-59.353
-60.2
-61.048
-61.89
-62.723
-63.54
-64.337
-65.108
-65.847
-66.548
-67.207
-67.816
-68.37
-68.865
-69.293
-69.65
-69.93
-70.129
-70.243
-70.268
-70.201
-70.04
-69.781
-69.424
-68.968
-68.412
-67.757
-67.003
-66.152
-65.206
-64.169
-63.043
-61.834
-60.548
-59.192
-57.773
-56.299
-54.782
-53.231
-51.657
-50.073
-48.49
-46.92
-45.374
-43.862
-42.397
-40.988
-39.647
-38.385
-37.212
-36.136
-35.169
-34.319
-33.593
-32.997
-32.528
-32.187
-31.975
-31.898
-31.964
-32.178
-32.541
-33.054
-33.718
-34.53
-35.483
-36.563
-37.738
-38.981
-40.267
-41.581
-42.92
-44.275
-45.622
-46.927
-48.147
-49.241
-50.195
-50.992
-51.592
-51.993
-52.219
-52.325
-52.451
-52.724
-53.184
-53.868
-54.794
-55.892
-57.125
-58.447
-59.666
-60.627
-61.278
-61.536
-61.415
-61.076
-60.568
-59.912
-59.294
-58.84
-58.664
-59.013
-60.001
-61.602
-63.867
-66.747
-70.082
-73.753
-77.332
-80.134
-81.082
-78.456
-71.263
-59.186
-42.52
-22.83
0.292
29.042
65.282
110.83
163.416
217.246
266.906
308.168
340.7
365.649
383.009
390.595
382.751
355.716
308.138
241.995
165.397
86.858
15.233
-41.808
-82.814
-109.68
-127.009
-139.968
-150.431
-157.827
-160.206
-156.627
-148.133
-136.855
-125.431
-115.277
-106.696
-99.952
-95.017
-91.79
-90.296
-90.153
-90.781
-91.978
-93.624
-95.46
-97.302
-98.878
-99.832
-100.13
-99.915
-99.228
-98.144
-96.795
-95.269
-93.766
-92.566
-91.763
-91.328
-91.204
-91.264
-91.38
-91.481
-91.455
-91.166
-90.552
-89.592
-88.3
-86.732
-84.937
-82.942
-80.787
-78.512
-76.149
-73.734
-71.301
-68.878
-66.496
-64.183
-61.955
-59.828
-57.808
-55.899
-54.096
-52.392
-50.774
-49.233
-47.763
-46.358
-45.009
-43.708
-42.442
-41.199
-39.965
-38.729
-37.477
-36.197
-34.877
-33.506
-32.074
-30.573
-28.994
-27.329
-25.566
-23.697
-21.711
-19.599
-17.353
-14.964
-12.424
-9.729
-6.872
-3.851
-0.664
2.692
6.217
9.91
13.771
17.794
21.978
26.317
30.803
35.431
40.189
45.069
50.059
55.147
60.319
65.561
70.859
76.195
81.553
86.916
92.266
97.584
102.851
108.049
113.158
118.159
123.031
127.757
132.317
136.692
140.864
144.817
148.534
151.998
155.194
158.109
160.73
163.044
165.04
166.71
168.045
169.038
169.684
169.98
169.923
169.513
168.751
167.639
166.183
164.387
162.259
159.808
157.044
153.98
150.628
147.003
143.122
139
134.655
130.107
125.375
120.479
115.44
110.28
105.02
99.683
94.291
88.865
83.429
78.004
72.612
67.275
62.012
56.843
51.788
46.865
42.091
37.481
33.052
28.815
24.784
20.969
17.38
14.026
10.911
8.042
5.423
3.055
0.939
-0.925
-2.539
-3.906
-5.03
-5.916
-6.571
-7.002
-7.217
-7.227
-7.039
-6.667
-6.12
-5.412
-4.553
-3.557
-2.437
-1.205
0.125
1.541
3.029
4.578
6.174
7.807
9.464
11.136
12.81
14.479
16.134
17.765
19.366
20.93
22.451
23.924
25.344
26.707
28.01
29.25
30.426
31.536
32.579
33.556
34.466
35.31
36.091
36.809
37.467
38.067
38.612
39.104
39.548
39.946
40.301
40.616
40.896
41.144
41.361
41.553
41.72
41.867
41.995
42.106
42.203
42.286
42.358
42.419
42.47
42.512
42.546
42.571
42.588
42.596
42.596
42.586
42.565
42.534
42.491
42.434
42.363
42.276
42.171
42.049
41.907
41.743
41.557
41.346
41.111
40.849
40.559
40.242
39.895
39.518
39.111
38.674
38.205
37.707
37.178
36.62
36.033
35.418
34.776
34.107
33.414
32.699
31.962
31.206
30.432
29.644
28.844
28.035
27.219
26.401
25.582
24.766
23.959
23.162
22.38
21.617
20.877
20.164
19.483
18.838
18.234
17.675
17.166
16.711
16.316
15.984
15.72
15.527
15.412
15.376
15.425
15.562
15.79
16.113
16.533
17.054
17.677
18.403
19.235
20.172
21.215
22.363
23.616
24.971
26.428
27.982
29.631
31.371
33.197
35.103
37.084
39.132
41.239
43.397
45.596
47.826
50.077
52.338
54.595
56.837
59.051
61.225
63.346
65.404
67.386
69.28
71.075
72.762
74.33
75.77
77.075
78.235
79.24
80.088
80.776
81.306
81.678
81.889
81.934
81.81
81.52
81.068
80.456
79.689
78.771
77.714
76.543
75.285
73.965
72.6
71.2
69.769
68.324
66.893
65.512
64.216
63.03
61.962
61.035
60.282
59.701
59.263
58.894
58.466
57.877
57.102
56.124
54.941
53.61
52.164
50.671
49.355
48.42
47.968
48.068
48.682
49.661
50.985
52.62
54.324
55.85
56.944
57.322
56.921
55.805
53.898
51.226
47.997
44.489
41.285
39.206
39.015
41.6
47.955
58.873
75.199
97.659
126.452
161.434
201.451
244.143
287.268
328.513
366.802
403.009
436.223
464.281
482.786
483.7
462.502
418.708
355.657
283.567
211.995
147.075
93.292
49.556
13.086
-16.809
-41.238
-59.534
-69.845
-72.298
-67.613
-57.401
-44.348
-30.391
-16.89
-4.752
5.66
13.987
20.028
23.898
25.855
26.244
25.384
23.446
20.634
17.246
13.452
9.352
4.983
0.335
-4.485
-9.353
-14.241
-19.16
-24.109
-29.076
-34.001
-38.85
-43.688
-48.548
-53.412
-58.251
-62.993
-67.566
-71.915
-75.948
-79.559
-82.693
-85.333
-87.499
-89.25
-90.655
-91.795
-92.759
-93.625
-94.448
-95.254
-96.05
-96.842
-97.631
-98.424
-99.231
-100.059
-100.911
-101.792
-102.701
-103.629
-104.557
-105.454
-106.288
-107.036
-107.68
-108.208
-108.615
-108.893
-109.037
-109.048
-108.924
-108.661
-108.253
-107.69
-106.965
-106.075
-105.017
-103.789
-102.391
-100.823
-99.084
-97.173
-95.091
-92.836
-90.408
-87.804
-85.025
-82.072
-78.948
-75.656
-72.203
-68.595
-64.838
-60.942
-56.917
-52.772
-48.517
-44.165
-39.726
-35.214
-30.641
-26.022
-21.372
-16.704
-12.035
-7.381
-2.757
1.819
6.331
10.763
15.099
19.32
23.413
27.36
31.148
34.76
38.183
41.402
44.405
47.178
49.712
51.994
54.016
55.769
57.246
58.442
59.35
59.969
60.294
60.324
60.06
59.502
58.652
57.512
56.088
54.385
52.408
50.167
47.669
44.924
41.942
38.735
35.315
31.694
27.886
23.905
19.764
15.48
11.066
6.538
1.912
-2.797
-7.573
-12.401
-17.265
-22.152
-27.046
-31.933
-36.8
-41.634
-46.422
-51.152
-55.813
-60.394
-64.885
-69.277
-73.561
-77.731
-81.778
-85.698
-89.483
-93.131
-96.637
-99.999
-103.212
-106.277
-109.191
-111.955
-114.568
-117.031
-119.345
-121.512
-123.534
-125.413
-127.151
-128.753
-130.221
-131.559
-132.77
-133.858
-134.827
-135.681
-136.425
-137.061
-137.594
-138.028
-138.367
-138.616
-138.776
-138.853
-138.85
-138.77
-138.616
-138.391
-138.098
-137.74
-137.319
-136.839
-136.301
-135.707
-135.06
-134.361
-133.613
-132.818
-131.977
-131.092
-130.164
-129.195
-128.187
-127.142
-126.059
-124.942
-123.79
-122.607
-121.392
-120.147
-118.873
-117.571
-116.243
-114.889
-113.511
-112.11
-110.687
-109.244
-107.781
-106.299
-104.801
-103.288
-101.76
-100.219
-98.667
-97.105
-95.535
-93.957
-92.373
-90.786
-89.195
-87.604
-86.013
-84.424
-82.84
-81.261
-79.69
-78.129
-76.58
-75.045
-73.527
-72.027
-70.55
-69.096
-67.669
-66.271
-64.906
-63.576
-62.285
-61.034
-59.827
-58.668
-57.558
-56.501
-55.499
-54.556
-53.674
-52.855
-52.102
-51.418
-50.803
-50.26
-49.791
-49.397
-49.079
-48.837
-48.673
-48.585
-48.574
-48.638
-48.776
-48.987
-49.267
-49.615
-50.027
-50.501
-51.032
-51.615
-52.247
-52.921
-53.633
-54.376
-55.144
-55.93
-56.727
-57.529
-58.328
-59.116
-59.888
-60.634
-61.349
-62.023
-62.651
-63.226
-63.74
-64.188
-64.563
-64.86
-65.075
-65.203
-65.241
-65.186
-65.035
-64.788
-64.444
-64.002
-63.465
-62.832
-62.108
-61.296
-60.4
-59.426
-58.38
-57.269
-56.104
-54.894
-53.65
-52.384
-51.11
-49.84
-48.586
-47.363
-46.181
-45.052
-43.989
-43.002
-42.103
-41.304
-40.618
-40.057
-39.63
-39.346
-39.211
-39.23
-39.402
-39.727
-40.208
-40.848
-41.654
-42.634
-43.79
-45.123
-46.635
-48.318
-50.163
-52.146
-54.239
-56.414
-58.651
-60.937
-63.26
-65.598
-67.917
-70.177
-72.331
-74.353
-76.21
-77.859
-79.282
-80.481
-81.504
-82.466
-83.449
-84.475
-85.559
-86.699
-87.866
-89.052
-90.175
-91.076
-91.721
-92.183
-92.561
-92.986
-93.54
-94.216
-95.071
-96.205
-97.555
-98.958
-100.236
-101.241
-102.012
-102.708
-103.467
-104.377
-105.513
-106.922
-108.552
-110.082
-110.78
-109.679
-105.665
-97.529
-84.202
-64.697
-38.107
-4.479
35.03
79.073
125.731
174.037
224.559
275.934
325.305
367.224
393.318
398.711
382.686
348.841
304.909
256.069
203.691
147.096
84.971
19.781
-41.565
-91.832
-126.361
-145.131
-152.947
-155.002
-154.364
-151.915
-146.467
-137.506
-126.104
-113.904
-102.852
-94.163
-88.147
-84.808
-83.795
-84.588
-86.64
-89.365
-92.254
-94.869
-96.816
-97.752
-97.539
-96.265
-94.138
-91.434
-88.425
-85.367
-82.54
-80.24
-78.61
-77.651
-77.296
-77.4
-77.81
-78.387
-78.951
-79.323
-79.403
-79.15
-78.563
-77.676
-76.515
-75.099
-73.472
-71.675
-69.742
-67.704
-65.581
-63.394
-61.177
-58.97
-56.813
-54.738
-52.76
-50.891
-49.135
-47.494
-45.963
-44.535
-43.195
-41.931
-40.736
-39.598
-38.509
-37.458
-36.43
-35.41
-34.382
-33.331
-32.244
-31.108
-29.91
-28.641
-27.289
-25.846
-24.302
-22.65
-20.878
-18.978
-16.938
-14.751
-12.407
-9.9
-7.223
-4.369
-1.335
1.881
5.283
8.87
12.642
16.597
20.733
25.047
29.532
34.183
38.992
43.951
49.051
54.28
59.627
65.078
70.622
76.242
81.924
87.652
93.409
99.177
104.941
110.68
116.377
122.013
127.569
133.026
138.366
143.57
148.619
153.496
158.183
162.665
166.924
170.946
174.717
178.223
181.452
184.394
187.037
189.374
191.395
193.096
194.471
195.516
196.23
196.61
196.658
196.375
195.765
194.832
193.581
192.021
190.16
188.007
185.573
182.87
179.911
176.711
173.283
169.644
165.81
161.797
157.623
153.305
148.862
144.311
139.671
134.96
130.197
125.398
120.583
115.768
110.969
106.204
101.488
96.835
92.26
87.777
83.397
79.133
74.995
70.993
67.136
63.43
59.883
56.501
53.288
50.248
47.383
44.695
42.185
39.853
37.698
35.719
33.914
32.278
30.809
29.503
28.354
27.358
26.509
25.8
25.226
24.78
24.455
24.245
24.142
24.141
24.233
24.412
24.673
25.007
25.409
25.874
26.394
26.965
27.582
28.239
28.932
29.657
30.41
31.187
31.984
32.8
33.63
34.472
35.324
36.184
37.05
37.919
38.792
39.667
40.542
41.417
42.291
43.163
44.034
44.903
45.769
46.632
47.492
48.349
49.202
50.052
50.899
51.741
52.58
53.414
54.244
55.068
55.887
56.7
57.506
58.305
59.096
59.878
60.652
61.417
62.171
62.916
63.649
64.372
65.082
65.78
66.466
67.138
67.795
68.439
69.068
69.681
70.279
70.861
71.426
71.974
72.503
73.013
73.503
73.972
74.419
74.842
75.242
75.617
75.966
76.289
76.585
76.854
77.095
77.306
77.486
77.634
77.749
77.829
77.873
77.88
77.849
77.777
77.665
77.51
77.312
77.068
76.779
76.441
76.054
75.617
75.131
74.595
74.01
73.377
72.698
71.976
71.213
70.413
69.577
68.709
67.811
66.885
65.933
64.957
63.961
62.947
61.921
60.89
59.86
58.837
57.83
56.847
55.893
54.976
54.102
53.273
52.495
51.776
51.123
50.548
50.058
49.656
49.348
49.132
49.005
48.959
48.977
49.041
49.138
49.261
49.406
49.58
49.786
50.027
50.307
50.623
50.973
51.359
51.776
52.221
52.703
53.234
53.842
54.565
55.415
56.397
57.503
58.702
59.963
61.251
62.512
63.708
64.803
65.759
66.555
67.172
67.575
67.725
67.571
67.048
66.126
64.796
63.059
60.949
58.505
55.772
52.826
49.728
46.527
43.281
40.03
36.807
33.668
30.661
27.838
25.273
22.983
20.934
19.069
17.287
15.49
13.614
11.582
9.313
6.825
4.21
1.602
-0.809
-2.898
-4.624
-5.954
-6.84
-7.334
-7.586
-7.75
-7.978
-8.336
-8.771
-9.25
-9.877
-10.667
-11.455
-12.172
-12.857
-13.582
-14.502
-15.18
-14.351
-10.994
-4.72
3.642
12.5
21.792
33.803
53.146
84.549
129.279
183.982
241.82
295.727
342.02
381.813
417.862
451.088
478.822
492.997
485.28
451.693
392.435
315.034
230.055
145.694
69.504
4.417
-49.891
-92.221
-123.009
-141.678
-147.013
-141.668
-129.233
-115.054
-104.744
-99.868
-99.504
-100.411
-99.311
-95.73
-90.974
-87.481
-86.953
-89.263
-93.421
-98.174
-102.659
-106.598
-109.839
-112.19
-113.567
-114.052
-113.822
-113.092
-112.095
-111.016
-110.073
-109.568
-109.638
-110.28
-111.437
-112.964
-114.718
-116.589
-118.418
-120.036
-121.354
-122.335
-122.979
-123.335
-123.433
-123.3
-122.983
-122.53
-121.978
-121.364
-120.709
-120.039
-119.386
-118.788
-118.282
-117.897
-117.646
-117.537
-117.574
-117.751
-118.064
-118.5
-119.04
-119.671
-120.378
-121.147
-121.963
-122.81
-123.667
-124.516
-125.334
-126.102
-126.801
-127.413
-127.921
-128.31
-128.564
-128.669
-128.612
-128.381
-127.961
-127.34
-126.505
-125.445
-124.15
-122.612
-120.821
-118.774
-116.466
-113.894
-111.058
-107.959
-104.599
-100.981
-97.112
-92.998
-88.648
-84.071
-79.28
-74.287
-69.106
-63.753
-58.244
-52.597
-46.832
-40.966
-35.021
-29.018
-22.977
-16.92
-10.871
-4.85
1.119
7.015
12.815
18.496
24.039
29.421
34.624
39.626
44.41
48.958
53.255
57.285
61.034
64.49
67.641
70.479
72.994
75.18
77.031
78.544
79.717
80.55
81.042
81.196
81.017
80.51
79.681
78.539
77.092
75.353
73.333
71.044
68.502
65.72
62.716
59.506
56.106
52.535
48.811
44.953
40.979
36.907
32.758
28.548
24.297
20.023
15.742
11.471
7.228
3.027
-1.116
-5.188
-9.175
-13.066
-16.849
-20.513
-24.05
-27.452
-30.711
-33.822
-36.779
-39.579
-42.22
-44.699
-47.016
-49.172
-51.168
-53.005
-54.687
-56.218
-57.602
-58.845
-59.95
-60.926
-61.777
-62.512
-63.136
-63.657
-64.082
-64.418
-64.674
-64.855
-64.97
-65.025
-65.027
-64.983
-64.9
-64.783
-64.638
-64.47
-64.286
-64.089
-63.884
-63.675
-63.465
-63.257
-63.053
-62.857
-62.669
-62.49
-62.323
-62.167
-62.024
-61.892
-61.773
-61.665
-61.569
-61.484
-61.409
-61.344
-61.287
-61.238
-61.196
-61.16
-61.13
-61.105
-61.083
-61.065
-61.048
-61.034
-61.02
-61.007
-60.994
-60.98
-60.966
-60.95
-60.934
-60.917
-60.9
-60.882
-60.865
-60.848
-60.833
-60.82
-60.81
-60.804
-60.802
-60.806
-60.817
-60.834
-60.859
-60.893
-60.935
-60.988
-61.051
-61.126
-61.211
-61.309
-61.419
-61.541
-61.677
-61.825
-61.988
-62.164
-62.354
-62.559
-62.778
-63.011
-63.258
-63.52
-63.794
-64.082
-64.382
-64.694
-65.017
-65.35
-65.691
-66.041
-66.398
-66.76
-67.126
-67.495
-67.865
-68.234
-68.601
-68.964
-69.321
-69.67
-70.008
-70.335
-70.647
-70.942
-71.217
-71.471
-71.7
-71.901
-72.072
-72.209
-72.31
-72.371
-72.389
-72.361
-72.284
-72.155
-71.972
-71.731
-71.431
-71.069
-70.642
-70.148
-69.585
-68.952
-68.247
-67.467
-66.614
-65.685
-64.681
-63.601
-62.446
-61.216
-59.913
-58.537
-57.09
-55.574
-53.991
-52.346
-50.64
-48.879
-47.067
-45.21
-43.316
-41.39
-39.441
-37.475
-35.501
-33.526
-31.561
-29.612
-27.688
-25.796
-23.943
-22.139
-20.39
-18.704
-17.086
-15.541
-14.074
-12.688
-11.391
-10.184
-9.068
-8.04
-7.1
-6.249
-5.492
-4.833
-4.269
-3.798
-3.417
-3.121
-2.908
-2.769
-2.685
-2.631
-2.583
-2.522
-2.435
-2.314
-2.148
-1.918
-1.597
-1.158
-0.586
0.131
1.002
2.04
3.258
4.636
6.099
7.538
8.816
9.809
10.44
10.66
10.406
9.676
8.55
7.185
5.875
4.938
4.586
4.943
6.093
8.022
10.594
13.583
16.539
18.876
20.082
19.782
17.725
13.852
8.359
1.59
-5.835
-12.927
-18.486
-21.254
-19.98
-13.469
-0.757
18.941
46.299
81.1
121.861
166.719
213.48
260.731
309.136
358.794
407.649
450.907
480.052
487.254
469.31
427.874
369.623
301.991
229.753
156.234
83.626
15.664
-41.947
-85.464
-113.516
-128.409
-135.397
-137.871
-137.519
-134.499
-127.526
-116.942
-104.274
-91.066
-79.034
-69.077
-61.297
-55.654
-51.907
-49.631
-48.349
-47.637
-47.193
-46.718
-45.981
-44.744
-42.716
-39.851
-36.313
-32.277
-27.948
-23.559
-19.294
-15.389
-12.154
-9.725
-8.083
-7.141
-6.718
-6.614
-6.681
-6.767
-6.708
-6.422
-5.872
-5.049
-3.997
-2.748
-1.315
0.288
2.063
4.015
6.124
8.357
10.668
12.987
15.256
17.436
19.489
21.395
23.146
24.739
26.188
27.511
28.722
29.829
30.826
31.71
32.49
33.184
33.82
34.432
35.05
35.702
36.42
37.226
38.14
39.179
40.349
41.654
43.101
44.7
46.463
48.401
50.525
52.839
55.348
58.054
60.959
64.06
67.352
70.831
74.49
78.323
82.325
86.488
90.804
95.262
99.851
104.557
109.365
114.26
119.224
124.237
129.281
134.335
139.381
144.398
149.365
154.263
159.071
163.768
168.335
172.752
176.999
181.058
184.911
188.539
191.927
195.059
197.921
200.499
202.781
204.757
206.418
207.755
208.762
209.435
209.768
209.76
209.41
208.719
207.688
206.322
204.626
202.605
200.269
197.627
194.687
191.463
187.966
184.209
180.207
175.975
171.527
166.881
162.053
157.061
151.922
146.653
141.273
135.8
130.252
124.646
119
113.331
107.656
101.992
96.353
90.756
85.215
79.744
74.355
69.06
63.872
58.799
53.851
49.036
44.362
39.834
35.458
31.237
27.175
23.275
19.536
15.959
12.544
9.289
6.191
3.248
0.456
-2.19
-4.694
-7.063
-9.301
-11.415
-13.413
-15.299
-17.083
-18.77
-20.369
-21.886
-23.328
-24.703
-26.018
-27.279
-28.492
-29.664
-30.801
-31.907
-32.988
-34.048
-35.091
-36.121
-37.139
-38.149
-39.153
-40.151
-41.144
-42.132
-43.115
-44.092
-45.062
-46.023
-46.973
-47.909
-48.83
-49.732
-50.612
-51.466
-52.291
-53.083
-53.839
-54.555
-55.227
-55.852
-56.426
-56.945
-57.408
-57.81
-58.15
-58.423
-58.629
-58.765
-58.83
-58.823
-58.744
-58.591
-58.366
-58.07
-57.704
-57.268
-56.766
-56.2
-55.572
-54.886
-54.145
-53.354
-52.517
-51.637
-50.721
-49.773
-48.799
-47.803
-46.791
-45.768
-44.74
-43.713
-42.692
-41.682
-40.69
-39.721
-38.781
-37.875
-37.009
-36.188
-35.416
-34.698
-34.037
-33.438
-32.903
-32.435
-32.037
-31.711
-31.46
-31.285
-31.187
-31.168
-31.227
-31.365
-31.581
-31.874
-32.244
-32.688
-33.206
-33.795
-34.454
-35.179
-35.968
-36.818
-37.725
-38.684
-39.691
-40.74
-41.825
-42.939
-44.076
-45.229
-46.392
-47.559
-48.724
-49.882
-51.027
-52.154
-53.257
-54.33
-55.366
-56.357
-57.294
-58.169
-58.975
-59.703
-60.349
-60.904
-61.365
-61.729
-61.992
-62.149
-62.193
-62.116
-61.912
-61.578
-61.115
-60.526
-59.821
-59.012
-58.115
-57.148
-56.124
-55.053
-53.937
-52.774
-51.561
-50.291
-48.967
-47.6
-46.199
-44.772
-43.325
-41.859
-40.366
-38.833
-37.242
-35.567
-33.796
-31.928
-29.978
-27.981
-25.98
-24.028
-22.166
-20.42
-18.815
-17.369
-16.107
-15.053
-14.24
-13.701
-13.484
-13.642
-14.214
-15.221
-16.656
-18.478
-20.627
-23.031
-25.626
-28.369
-31.225
-34.16
-37.137
-40.113
-43.044
-45.887
-48.594
-51.092
-53.308
-55.207
-56.818
-58.23
-59.583
-61.006
-62.572
-64.358
-66.463
-68.894
-71.578
-74.355
-76.942
-79.126
-80.826
-81.93
-82.278
-81.84
-80.672
-78.958
-77.078
-75.284
-73.671
-72.453
-71.96
-72.437
-74.044
-76.743
-80.253
-84.374
-88.947
-93.531
-97.322
-99.287
-98.273
-93.244
-83.224
-67.114
-43.956
-13.037
25.257
69.133
116.579
165.392
214.363
263.915
313.09
359.01
396.347
416.957
415.045
389.181
342.261
281.679
214.101
143.733
73.657
5.657
-56.444
-107.324
-143.888
-165.301
-174.529
-177.027
-176.234
-173.879
-170.118
-163.775
-155.159
-145.527
-135.936
-127.689
-121.463
-117.255
-114.983
-114.293
-114.608
-115.426
-116.475
-117.501
-118.209
-118.376
-117.741
-116.209
-113.969
-111.247
-108.209
-105.048
-101.953
-99.117
-96.793
-95.096
-93.98
-93.361
-93.107
-93.08
-93.163
-93.208
-93.056
-92.622
-91.875
-90.822
-89.503
-87.952
-86.191
-84.266
-82.22
-80.093
-77.921
-75.729
-73.543
-71.398
-69.331
-67.377
-65.564
-63.905
-62.407
-61.072
-59.895
-58.869
-57.983
-57.219
-56.565
-56.007
-55.531
-55.126
-54.775
-54.46
-54.165
-53.87
-53.557
-53.211
-52.816
-52.357
-51.822
-51.197
-50.47
-49.631
-48.667
-47.567
-46.318
-44.91
-43.333
-41.576
-39.632
-37.493
-35.154
-32.611
-29.86
-26.902
-23.735
-20.361
-16.783
-13.005
-9.032
-4.871
-0.531
3.979
8.648
13.464
18.413
23.482
28.654
33.913
39.242
44.622
50.035
55.46
60.879
66.271
71.615
76.89
82.075
87.149
92.091
96.882
101.5
105.926
110.141
114.127
117.867
121.345
124.546
127.455
130.06
132.349
134.313
135.942
137.229
138.169
138.756
138.988
138.864
138.384
137.549
136.364
134.834
132.964
130.762
128.238
125.402
122.266
118.844
115.148
111.195
107
102.58
97.954
93.139
88.154
83.018
77.751
72.372
66.901
61.358
55.761
50.129
44.482
38.837
33.212
27.624
22.089
16.623
11.24
5.953
0.775
-4.283
-9.209
-13.995
-18.632
-23.114
-27.435
-31.588
-35.572
-39.383
-43.019
-46.48
-49.767
-52.88
-55.822
-58.595
-61.204
-63.652
-65.945
-68.087
-70.084
-71.943
-73.669
-75.27
-76.752
-78.122
-79.387
-80.554
-81.63
-82.622
-83.536
-84.38
-85.159
-85.879
-86.547
-87.167
-87.746
-88.288
-88.798
-89.28
-89.737
-90.175
-90.595
-91.001
-91.396
-91.781
-92.16
-92.535
-92.907
-93.279
-93.652
-94.028
-94.409
-94.795
-95.19
-95.593
-96.006
-96.432
-96.871
-97.326
-97.798
-98.29
-98.801
-99.333
-99.888
-100.464
-101.065
-101.689
-102.338
-103.012
-103.712
-104.441
-105.198
-105.985
-106.8
-107.641
-108.507
-109.396
-110.309
-111.247
-112.209
-113.193
-114.197
-115.22
-116.26
-117.311
-118.366
-119.417
-120.455
-121.47
-122.458
-123.416
-124.338
-125.213
-126.027
-126.755
-127.381
-127.894
-128.29
-128.565
-128.714
-128.72
-128.581
-128.312
-127.909
-127.354
-126.592
-125.516
-124.079
-122.309
-120.249
-117.967
-115.539
-113.031
-110.604
-108.529
-106.94
-105.819
-105.046
-104.382
-103.624
-102.65
-101.22
-98.98
-95.745
-91.49
-86.373
-80.755
-74.905
-68.972
-63.179
-57.801
-53.011
-48.886
-45.34
-42.102
-38.997
-35.949
-32.87
-29.682
-26.326
-22.761
-19.024
-15.243
-11.494
-7.807
-4.198
-0.658
2.815
6.204
9.512
12.758
15.953
19.101
22.198
25.228
28.185
31.066
33.876
36.616
39.291
41.9
44.441
46.914
49.319
51.654
53.918
56.108
58.223
60.258
62.21
64.079
65.859
67.548
69.138
70.623
71.997
73.253
74.386
75.39
76.259
76.985
77.566
77.998
78.282
78.416
78.399
78.225
77.892
77.397
76.741
75.923
74.945
73.812
72.534
71.13
69.624
68.037
66.39
64.694
62.958
61.195
59.422
57.667
55.959
54.325
52.785
51.368
50.103
48.987
47.984
47.008
45.94
44.683
43.173
41.341
39.133
36.569
33.736
30.799
27.977
25.418
23.204
21.448
20.244
19.582
19.344
19.319
19.262
19.045
18.618
17.867
16.629
14.821
12.487
9.77
6.856
3.972
1.274
-1.031
-2.361
-2.032
1.019
8.421
21.093
39.38
63.069
90.873
122.836
159.821
202.485
252.088
307.72
367.238
428.131
485.14
532.079
561.692
567.179
546.609
502.605
441.546
370.373
293.381
213.596
133.821
59.34
-2.49
-47.018
-73.129
-84.589
-88.455
-89.159
-88.547
-86.296
-80.397
-70.868
-59.289
-47.355
-36.953
-29.023
-23.546
-20.349
-19.113
-19.388
-20.706
-22.68
-24.992
-27.282
-29.3
-30.811
-31.53
-31.426
-30.641
-29.304
-27.593
-25.724
-23.851
-22.177
-20.949
-20.237
-19.996
-20.143
-20.523
-20.986
-21.413
-21.669
-21.611
-21.177
-20.354
-19.158
-17.64
-15.847
-13.814
-11.586
-9.213
-6.735
-4.19
-1.614
0.961
3.499
5.958
8.313
10.542
12.634
14.586
16.398
18.074
19.622
21.054
22.379
23.607
24.746
25.805
26.796
27.733
28.631
29.504
30.368
31.236
32.122
33.039
33.998
35.01
36.087
37.237
38.473
39.806
41.248
42.81
44.503
46.338
48.323
50.467
52.777
55.258
57.915
60.75
63.765
66.962
70.339
73.895
77.626
81.527
85.593
89.816
94.188
98.699
103.337
108.091
112.945
117.887
122.9
127.967
133.072
138.197
143.323
148.431
153.501
158.513
163.448
168.284
173.001
177.579
181.998
186.239
190.281
194.107
197.698
201.039
204.113
206.904
209.4
211.588
213.455
214.992
216.189
217.039
217.536
217.675
217.453
216.869
215.921
214.612
212.943
210.92
208.548
205.833
202.785
199.412
195.726
191.74
187.466
182.919
178.115
173.07
167.802
162.328
156.667
150.838
144.86
138.754
132.539
126.235
119.862
113.44
106.989
100.528
94.077
87.653
81.276
74.962
68.728
62.59
56.565
50.665
44.905
39.297
33.854
28.585
23.501
18.61
13.92
9.438
5.168
1.115
-2.718
-6.327
-9.713
-12.873
-15.81
-18.523
-21.016
-23.292
-25.353
-27.204
-28.85
-30.297
-31.552
-32.62
-33.509
-34.226
-34.779
-35.176
-35.427
-35.539
-35.521
-35.383
-35.133
-34.781
-34.336
-33.806
-33.202
-32.532
-31.804
-31.027
-30.209
-29.359
-28.483
-27.59
-26.686
-25.778
-24.872
-23.975
-23.093
-22.23
-21.392
-20.583
-19.807
-19.069
-18.373
-17.72
-17.114
-16.557
-16.051
-15.598
-15.199
-14.855
-14.566
-14.333
-14.156
-14.033
-13.965
-13.95
-13.987
-14.075
-14.212
-14.396
-14.627
-14.9
-15.216
-15.571
-15.964
-16.392
-16.853
-17.344
-17.865
-18.412
-18.984
-19.579
-20.194
-20.828
-21.48
-22.148
-22.831
-23.527
-24.235
-24.955
-25.687
-26.429
-27.182
-27.946
-28.72
-29.506
-30.303
-31.114
-31.938
-32.777
-33.632
-34.504
-35.394
-36.303
-37.234
-38.186
-39.162
-40.162
-41.188
-42.241
-43.32
-44.428
-45.565
-46.73
-47.924
-49.146
-50.396
-51.672
-52.974
-54.299
-55.647
-57.013
-58.397
-59.793
-61.2
-62.613
-64.028
-65.44
-66.843
-68.233
-69.603
-70.947
-72.26
-73.534
-74.763
-75.942
-77.062
-78.118
-79.103
-80.01
-80.833
-81.566
-82.203
-82.739
-83.169
-83.488
-83.693
-83.781
-83.749
-83.595
-83.318
-82.917
-82.393
-81.747
-80.981
-80.098
-79.102
-77.999
-76.795
-75.497
-74.116
-72.659
-71.14
-69.57
-67.962
-66.33
-64.689
-63.055
-61.442
-59.866
-58.342
-56.884
-55.508
-54.227
-53.057
-52.01
-51.099
-50.336
-49.734
-49.303
-49.049
-48.975
-49.083
-49.375
-49.851
-50.518
-51.381
-52.44
-53.695
-55.142
-56.777
-58.591
-60.567
-62.676
-64.888
-67.177
-69.519
-71.907
-74.326
-76.756
-79.17
-81.527
-83.786
-85.921
-87.894
-89.657
-91.204
-92.551
-93.764
-94.972
-96.273
-97.733
-99.435
-101.432
-103.698
-106.144
-108.581
-110.773
-112.581
-113.915
-114.646
-114.688
-114.049
-112.866
-111.437
-110.055
-108.87
-107.981
-107.548
-107.788
-108.879
-110.85
-113.477
-116.462
-119.574
-122.623
-125.296
-127.013
-126.53
-122.096
-112.396
-96.801
-76.24
-52.67
-26.685
2.845
39.023
85.212
141.589
205.126
270.233
330.945
383.611
424.966
452.197
462.421
451.025
416.657
360.53
284.948
197.158
104.582
14.758
-62.378
-121.326
-160.764
-182.384
-192.833
-198.124
-200.608
-200.852
-197.396
-188.756
-175.948
-161.073
-146.217
-133.241
-123.01
-115.589
-110.854
-108.539
-108.154
-109.117
-110.955
-113.238
-115.475
-117.317
-118.447
-118.55
-117.623
-115.847
-113.392
-110.49
-107.416
-104.387
-101.649
-99.468
-97.921
-96.961
-96.496
-96.364
-96.399
-96.46
-96.398
-96.071
-95.41
-94.405
-93.072
-91.46
-89.615
-87.574
-85.383
-83.089
-80.728
-78.333
-75.937
-73.57
-71.266
-69.065
-66.993
-65.065
-63.291
-61.672
-60.206
-58.884
-57.695
-56.622
-55.652
-54.773
-53.972
-53.235
-52.548
-51.891
-51.247
-50.597
-49.922
-49.206
-48.431
-47.584
-46.65
-45.616
-44.469
-43.199
-41.793
-40.238
-38.521
-36.631
-34.556
-32.286
-29.812
-27.126
-24.222
-21.095
-17.742
-14.162
-10.354
-6.319
-2.06
2.418
7.111
12.01
17.109
22.395
27.859
33.486
39.263
45.174
51.204
57.333
63.544
69.817
76.132
82.468
88.804
95.117
101.385
107.586
113.697
119.694
125.555
131.257
136.779
142.099
147.195
152.049
156.641
160.954
164.97
168.675
172.054
175.094
177.785
180.115
182.077
183.664
184.871
185.694
186.132
186.184
185.851
185.138
184.048
182.587
180.765
178.589
176.071
173.224
170.06
166.595
162.844
158.826
154.557
150.057
145.345
140.442
135.368
130.143
124.79
119.329
113.782
108.168
102.51
96.826
91.138
85.464
79.823
74.234
68.712
63.275
57.938
52.715
47.62
42.664
37.86
33.216
28.743
24.447
20.335
16.412
12.683
9.149
5.814
2.678
-0.26
-3.001
-5.548
-7.902
-10.07
-12.054
-13.86
-15.494
-16.963
-18.273
-19.431
-20.444
-21.322
-22.07
-22.698
-23.215
-23.627
-23.943
-24.172
-24.321
-24.399
-24.414
-24.373
-24.283
-24.152
-23.987
-23.794
-23.58
-23.349
-23.108
-22.861
-22.613
-22.368
-22.13
-21.902
-21.688
-21.489
-21.309
-21.149
-21.011
-20.897
-20.808
-20.744
-20.707
-20.696
-20.712
-20.755
-20.825
-20.921
-21.042
-21.188
-21.358
-21.55
-21.763
-21.995
-22.244
-22.509
-22.787
-23.076
-23.375
-23.68
-23.99
-24.302
-24.613
-24.922
-25.227
-25.524
-25.811
-26.088
-26.35
-26.597
-26.826
-27.035
-27.223
-27.389
-27.531
-27.648
-27.739
-27.803
-27.84
-27.85
-27.831
-27.785
-27.711
-27.611
-27.485
-27.334
-27.162
-26.968
-26.755
-26.527
-26.284
-26.03
-25.769
-25.502
-25.233
-24.965
-24.703
-24.448
-24.206
-23.979
-23.77
-23.583
-23.421
-23.286
-23.18
-23.106
-23.066
-23.061
-23.091
-23.158
-23.262
-23.404
-23.581
-23.794
-24.041
-24.32
-24.628
-24.962
-25.318
-25.693
-26.08
-26.477
-26.876
-27.272
-27.66
-28.034
-28.385
-28.708
-28.996
-29.241
-29.437
-29.575
-29.651
-29.656
-29.585
-29.434
-29.195
-28.866
-28.442
-27.92
-27.297
-26.572
-25.742
-24.808
-23.77
-22.631
-21.392
-20.058
-18.633
-17.126
-15.542
-13.891
-12.181
-10.425
-8.632
-6.818
-4.993
-3.172
-1.366
0.41
2.144
3.821
5.427
6.948
8.372
9.685
10.875
11.927
12.83
13.576
14.16
14.581
14.833
14.91
14.802
14.502
14.007
13.316
12.429
11.348
10.079
8.635
7.045
5.338
3.544
1.681
-0.239
-2.211
-4.217
-6.226
-8.196
-10.085
-11.863
-13.519
-15.03
-16.366
-17.532
-18.563
-19.55
-20.64
-21.922
-23.409
-25.108
-27.012
-29.096
-31.369
-33.765
-36.088
-38.249
-40.246
-42.083
-43.83
-45.511
-47.008
-48.265
-49.394
-50.4
-51.278
-52.091
-52.829
-53.617
-54.716
-56.237
-58.145
-60.439
-62.955
-65.295
-66.436
-64.584
-58.218
-46.446
-29.96
-10.555
11.547
37.694
70.942
114.664
168.596
229.328
291.274
348.124
396.097
432.234
454.142
459.93
446.053
411.588
357.311
284.638
200.285
111.133
25.117
-47.353
-102.158
-138.688
-159.578
-172.437
-181.206
-186.784
-188.871
-184.814
-174.429
-159.829
-143.287
-127.481
-113.968
-103.26
-95.693
-91.23
-89.556
-90.162
-92.373
-95.575
-99.225
-102.757
-105.622
-107.342
-107.724
-106.883
-105.058
-102.523
-99.561
-96.458
-93.545
-91.164
-89.476
-88.468
-88.035
-88.002
-88.197
-88.459
-88.62
-88.511
-88.041
-87.189
-85.972
-84.44
-82.641
-80.613
-78.4
-76.05
-73.602
-71.087
-68.538
-65.986
-63.469
-61.03
-58.699
-56.496
-54.435
-52.52
-50.75
-49.123
-47.628
-46.252
-44.984
-43.815
-42.735
-41.735
-40.802
-39.919
-39.071
-38.24
-37.409
-36.563
-35.687
-34.766
-33.787
-32.739
-31.611
-30.391
-29.069
-27.632
-26.067
-24.363
-22.507
-20.49
-18.301
-15.932
-13.375
-10.624
-7.675
-4.525
-1.171
2.388
6.152
10.118
14.284
18.646
23.197
27.931
32.839
37.912
43.137
48.502
53.995
59.599
65.299
71.078
76.92
82.805
88.714
94.628
100.526
106.388
112.192
117.919
123.545
129.051
134.414
139.615
144.632
149.447
154.04
158.394
162.49
166.314
169.849
173.082
175.999
178.59
180.843
182.75
184.304
185.498
186.33
186.795
186.893
186.626
185.993
185.001
183.653
181.957
179.92
177.554
174.868
171.875
168.589
165.025
161.199
157.128
152.829
148.322
143.625
138.758
133.741
128.595
123.341
117.998
112.588
107.131
101.648
96.158
90.68
85.234
79.837
74.507
69.259
64.11
59.073
54.162
49.389
44.766
40.302
36.005
31.884
27.944
24.19
20.626
17.255
14.078
11.094
8.304
5.706
3.295
1.07
-0.976
-2.847
-4.549
-6.09
-7.476
-8.716
-9.818
-10.791
-11.644
-12.386
-13.025
-13.573
-14.037
-14.427
-14.752
-15.02
-15.241
-15.422
-15.572
-15.697
-15.805
-15.902
-15.994
-16.086
-16.185
-16.293
-16.415
-16.554
-16.713
-16.894
-17.1
-17.331
-17.589
-17.874
-18.185
-18.523
-18.887
-19.276
-19.688
-20.121
-20.574
-21.043
-21.528
-22.025
-22.531
-23.044
-23.561
-24.08
-24.597
-25.109
-25.615
-26.111
-26.595
-27.064
-27.517
-27.95
-28.363
-28.753
-29.12
-29.46
-29.774
-30.06
-30.317
-30.545
-30.743
-30.91
-31.048
-31.155
-31.232
-31.28
-31.3
-31.292
-31.259
-31.201
-31.12
-31.019
-30.898
-30.76
-30.607
-30.442
-30.267
-30.084
-29.897
-29.707
-29.517
-29.331
-29.15
-28.979
-28.818
-28.672
-28.543
-28.434
-28.347
-28.285
-28.25
-28.246
-28.275
-28.339
-28.441
-28.582
-28.763
-28.988
-29.256
-29.568
-29.926
-30.329
-30.778
-31.272
-31.81
-32.392
-33.016
-33.681
-34.384
-35.124
-35.897
-36.701
-37.532
-38.386
-39.26
-40.148
-41.046
-41.95
-42.855
-43.754
-44.643
-45.516
-46.367
-47.19
-47.979
-48.727
-49.428
-50.077
-50.667
-51.193
-51.65
-52.033
-52.337
-52.559
-52.693
-52.738
-52.69
-52.547
-52.308
-51.971
-51.538
-51.009
-50.386
-49.671
-48.87
-47.987
-47.029
-46.002
-44.913
-43.773
-42.592
-41.379
-40.147
-38.906
-37.666
-36.439
-35.237
-34.071
-32.954
-31.898
-30.915
-30.017
-29.218
-28.527
-27.955
-27.506
-27.183
-26.992
-26.937
-27.027
-27.27
-27.672
-28.236
-28.967
-29.864
-30.923
-32.133
-33.468
-34.905
-36.422
-38.002
-39.64
-41.325
-43.041
-44.768
-46.469
-48.112
-49.671
-51.112
-52.395
-53.519
-54.503
-55.411
-56.361
-57.448
-58.738
-60.284
-62.119
-64.208
-66.466
-68.758
-70.914
-72.843
-74.515
-75.95
-77.183
-78.295
-79.432
-80.746
-82.359
-84.258
-86.333
-88.424
-90.408
-92.225
-93.823
-95.163
-96.192
-97.015
-97.824
-98.749
-99.799
-100.21
-98.524
-93.491
-84.334
-71.642
-56.762
-39.48
-17.67
12.999
56.238
111.48
174.632
238.359
296.705
348.927
395.377
436.406
469.188
484.512
474.394
435.394
368.757
283.859
191.7
100.283
16.828
-55.732
-116.657
-164.199
-198.361
-219.106
-226.593
-222.618
-209.959
-192.742
-174.837
-159.534
-147.874
-138.253
-129.577
-120.774
-112.142
-105.919
-103.068
-103.715
-107.307
-112.177
-117.158
-121.656
-125.105
-127.202
-127.884
-127.189
-125.336
-122.691
-119.622
-116.44
-113.493
-111.123
-109.465
-108.518
-108.18
-108.245
-108.518
-108.83
-109
-108.862
-108.334
-107.393
-106.053
-104.372
-102.396
-100.166
-97.73
-95.138
-92.43
-89.638
-86.795
-83.935
-81.097
-78.326
-75.655
-73.106
-70.693
-68.424
-66.302
-64.324
-62.484
-60.77
-59.174
-57.687
-56.302
-55.011
-53.803
-52.662
-51.574
-50.524
-49.495
-48.472
-47.443
-46.393
-45.311
-44.186
-43.007
-41.764
-40.446
-39.041
-37.537
-35.921
-34.182
-32.309
-30.293
-28.124
-25.793
-23.293
-20.62
-17.768
-14.734
-11.516
-8.11
-4.518
-0.74
3.221
7.362
11.679
16.164
20.811
25.61
30.552
35.626
40.82
46.12
51.512
56.981
62.512
68.088
73.692
79.305
84.911
90.491
96.024
101.494
106.879
112.162
117.323
122.343
127.205
131.89
136.381
140.661
144.715
148.527
152.083
155.369
158.375
161.088
163.498
165.598
167.379
168.835
169.963
170.758
171.219
171.345
171.138
170.599
169.732
168.543
167.037
165.223
163.108
160.703
158.019
155.068
151.862
148.416
144.745
140.863
136.788
132.534
128.121
123.564
118.881
114.091
109.211
104.26
99.253
94.21
89.148
84.082
79.031
74.008
69.03
64.111
59.264
54.503
49.84
45.286
40.851
36.545
32.377
28.354
24.482
20.769
17.218
13.834
10.62
7.578
4.71
2.017
-0.501
-2.845
-5.017
-7.019
-8.853
-10.522
-12.03
-13.382
-14.581
-15.633
-16.544
-17.317
-17.961
-18.479
-18.88
-19.168
-19.35
-19.432
-19.422
-19.324
-19.145
-18.891
-18.568
-18.182
-17.739
-17.245
-16.705
-16.124
-15.507
-14.86
-14.188
-13.494
-12.783
-12.06
-11.329
-10.594
-9.857
-9.123
-8.396
-7.678
-6.972
-6.282
-5.609
-4.957
-4.328
-3.723
-3.145
-2.596
-2.077
-1.59
-1.136
-0.717
-0.333
0.014
0.324
0.596
0.83
1.025
1.182
1.3
1.379
1.42
1.424
1.389
1.318
1.211
1.068
0.891
0.68
0.438
0.164
-0.139
-0.471
-0.829
-1.213
-1.622
-2.052
-2.504
-2.976
-3.466
-3.973
-4.495
-5.031
-5.58
-6.14
-6.711
-7.291
-7.88
-8.476
-9.08
-9.689
-10.305
-10.927
-11.553
-12.184
-12.82
-13.46
-14.104
-14.753
-15.406
-16.064
-16.726
-17.393
-18.064
-18.74
-19.42
-20.105
-20.793
-21.484
-22.179
-22.875
-23.573
-24.272
-24.969
-25.664
-26.356
-27.042
-27.719
-28.387
-29.041
-29.679
-30.298
-30.894
-31.464
-32.003
-32.509
-32.976
-33.402
-33.782
-34.111
-34.385
-34.601
-34.752
-34.837
-34.849
-34.786
-34.644
-34.42
-34.111
-33.716
-33.231
-32.657
-31.99
-31.232
-30.382
-29.44
-28.407
-27.288
-26.084
-24.799
-23.44
-22.013
-20.524
-18.983
-17.398
-15.779
-14.137
-12.484
-10.833
-9.195
-7.584
-6.013
-4.498
-3.052
-1.689
-0.422
0.736
1.772
2.676
3.435
4.039
4.481
4.757
4.863
4.796
4.553
4.129
3.523
2.739
1.777
0.641
-0.667
-2.139
-3.764
-5.52
-7.385
-9.34
-11.365
-13.451
-15.59
-17.769
-19.968
-22.161
-24.323
-26.434
-28.475
-30.417
-32.22
-33.866
-35.38
-36.842
-38.369
-40.064
-41.989
-44.191
-46.755
-49.722
-53.031
-56.519
-59.885
-62.824
-65.165
-66.763
-67.403
-66.92
-65.302
-62.695
-59.507
-56.223
-53.141
-50.544
-48.887
-48.655
-50.177
-53.515
-58.435
-64.534
-71.481
-78.859
-85.373
-88.926
-87.727
-80.698
-68.366
-52.319
-32.699
-7.445
27.22
74.449
134.248
202.451
272.173
337.787
395.864
445.159
484.909
511.744
520.455
505.856
465.56
401.307
318.616
225.846
131.618
44.049
-30.183
-87.616
-128.478
-154.926
-170.193
-177.397
-176.538
-168.423
-155.533
-139.744
-125.423
-114.831
-106.553
-99.904
-93.09
-85.59
-79.586
-76.122
-75.573
-77.641
-80.785
-84.031
-87.008
-89.404
-91.108
-91.935
-91.772
-90.758
-89.134
-87.16
-85.057
-82.993
-81.175
-79.834
-79.066
-78.821
-78.975
-79.343
-79.756
-80.099
-80.253
-80.092
-79.554
-78.624
-77.321
-75.703
-73.827
-71.731
-69.457
-67.054
-64.556
-62.005
-59.443
-56.905
-54.431
-52.053
-49.792
-47.662
-45.674
-43.827
-42.12
-40.545
-39.087
-37.735
-36.481
-35.316
-34.232
-33.215
-32.251
-31.324
-30.418
-29.516
-28.604
-27.667
-26.689
-25.658
-24.563
-23.391
-22.132
-20.774
-19.305
-17.712
-15.981
-14.101
-12.062
-9.851
-7.46
-4.88
-2.104
0.872
4.053
7.442
11.041
14.85
18.869
23.095
27.524
32.153
36.974
41.979
47.16
52.506
58.004
63.642
69.405
75.278
81.244
87.286
93.384
99.52
105.674
111.824
117.949
124.029
130.04
135.961
141.768
147.441
152.958
158.295
163.434
168.354
173.035
177.458
181.607
185.464
189.015
192.245
195.141
197.691
199.886
201.718
203.178
204.262
204.966
205.287
205.226
204.784
203.964
202.77
201.209
199.289
197.02
194.412
191.478
188.232
184.689
180.866
176.78
172.45
167.895
163.135
158.191
153.083
147.833
142.464
136.995
131.45
125.849
120.214
114.565
108.923
103.308
97.738
92.232
86.807
81.48
76.267
71.181
66.237
61.445
56.818
52.364
48.092
44.008
40.12
36.43
32.942
29.658
26.579
23.703
21.031
18.559
16.283
14.2
12.303
10.588
9.048
7.674
6.461
5.4
4.483
3.7
3.043
2.504
2.071
1.737
1.492
1.327
1.233
1.2
1.221
1.286
1.389
1.52
1.672
1.84
2.016
2.195
2.371
2.54
2.697
2.837
2.959
3.058
3.133
3.18
3.2
3.189
3.148
3.075
2.97
2.834
2.665
2.466
2.237
1.977
1.69
1.376
1.037
0.674
0.29
-0.113
-0.533
-0.968
-1.415
-1.871
-2.334
-2.802
-3.273
-3.744
-4.213
-4.678
-5.138
-5.589
-6.031
-6.463
-6.881
-7.286
-7.675
-8.049
-8.405
-8.744
-9.065
-9.367
-9.65
-9.914
-10.159
-10.384
-10.59
-10.777
-10.947
-11.1
-11.238
-11.363
-11.475
-11.578
-11.674
-11.764
-11.852
-11.938
-12.027
-12.119
-12.217
-12.323
-12.44
-12.569
-12.713
-12.874
-13.055
-13.256
-13.481
-13.73
-14.005
-14.307
-14.636
-14.994
-15.38
-15.796
-16.242
-16.718
-17.224
-17.759
-18.321
-18.909
-19.521
-20.153
-20.802
-21.461
-22.127
-22.795
-23.461
-24.119
-24.764
-25.394
-26.003
-26.589
-27.147
-27.671
-28.155
-28.593
-28.977
-29.3
-29.554
-29.733
-29.83
-29.84
-29.758
-29.584
-29.313
-28.942
-28.464
-27.871
-27.159
-26.329
-25.378
-24.313
-23.14
-21.873
-20.53
-19.137
-17.708
-16.256
-14.79
-13.307
-11.809
-10.297
-8.771
-7.238
-5.703
-4.167
-2.637
-1.119
0.393
1.912
3.462
5.078
6.772
8.548
10.395
12.284
14.186
16.064
17.864
19.548
21.078
22.412
23.528
24.405
25.003
25.287
25.206
24.699
23.741
22.327
20.464
18.186
15.537
12.568
9.361
5.993
2.527
-0.965
-4.432
-7.831
-11.104
-14.199
-17.073
-19.671
-21.979
-24.013
-25.791
-27.358
-28.772
-30.09
-31.406
-32.813
-34.388
-36.224
-38.407
-40.992
-44.017
-47.465
-51.236
-55.201
-59.176
-62.887
-66.045
-68.398
-69.747
-70.052
-69.445
-68.151
-66.516
-64.998
-64.025
-63.867
-64.728
-66.584
-68.954
-71.146
-71.741
-68.585
-60.432
-46.523
-26.716
-2.32
27.45
64.353
108.558
160.882
218.764
277.316
334.724
388.031
433.995
469.653
487.336
479.814
444.955
383.75
302.711
211.794
117.706
26.572
-55.574
-125.612
-179.497
-214.759
-233.733
-239.204
-235.359
-227.493
-217.67
-207.479
-198.184
-188.56
-178.7
-169.012
-159.412
-151.717
-146.846
-144.696
-145.286
-147.359
-149.844
-152.373
-154.307
-155.334
-155.292
-153.848
-151.018
-147.084
-142.284
-136.922
-131.367
-125.934
-120.979
-116.858
-113.705
-111.501
-110.157
-109.526
-109.462
-109.836
-110.503
-111.311
-112.165
-113.029
-113.899
-114.774
-115.632
-116.412
-117.026
-117.419
-117.559
-117.422
-117.009
-116.321
-115.36
-114.154
-112.733
-111.121
-109.34
-107.402
-105.305
-103.068
-100.72
-98.302
-95.882
-93.508
-91.208
-89.005
-86.909
-84.922
-83.047
-81.273
-79.576
-77.938
-76.344
-74.784
-73.254
-71.742
-70.23
-68.694
-67.103
-65.434
-63.667
-61.787
-59.781
-57.639
-55.352
-52.919
-50.344
-47.63
-44.777
-41.786
-38.653
-35.381
-31.973
-28.433
-24.767
-20.981
-17.082
-13.076
-8.973
-4.782
-0.512
3.827
8.226
12.673
17.158
21.666
26.183
30.693
35.183
39.634
44.032
48.358
52.596
56.729
60.741
64.615
68.335
71.885
75.249
78.413
81.362
84.081
86.559
88.782
90.738
92.419
93.812
94.911
95.706
96.193
96.366
96.221
95.756
94.969
93.861
92.433
90.688
88.629
86.261
83.592
80.629
77.381
73.858
70.071
66.032
61.755
57.253
52.541
47.635
42.549
37.301
31.908
26.386
20.754
15.029
9.229
3.371
-2.527
-8.446
-14.371
-20.285
-26.171
-32.013
-37.797
-43.508
-49.131
-54.655
-60.066
-65.353
-70.505
-75.513
-80.368
-85.062
-89.588
-93.94
-98.112
-102.1
-105.901
-109.512
-112.932
-116.16
-119.195
-122.038
-124.691
-127.156
-129.435
-131.532
-133.451
-135.196
-136.772
-138.183
-139.437
-140.538
-141.492
-142.307
-142.989
-143.545
-143.982
-144.306
-144.526
-144.649
-144.681
-144.63
-144.504
-144.311
-144.056
-143.748
-143.394
-143.001
-142.576
-142.126
-141.658
-141.178
-140.693
-140.209
-139.733
-139.27
-138.825
-138.405
-138.014
-137.658
-137.341
-137.068
-136.842
-136.668
-136.549
-136.488
-136.489
-136.553
-136.682
-136.88
-137.146
-137.482
-137.888
-138.364
-138.911
-139.526
-140.211
-140.961
-141.776
-142.654
-143.591
-144.583
-145.629
-146.723
-147.862
-149.041
-150.255
-151.499
-152.769
-154.059
-155.363
-156.676
-157.993
-159.308
-160.615
-161.909
-163.184
-164.436
-165.659
-166.85
-168.002
-169.113
-170.178
-171.195
-172.159
-173.07
-173.925
-174.722
-175.46
-176.139
-176.758
-177.318
-177.82
-178.266
-178.656
-178.993
-179.28
-179.52
-179.715
-179.87
-179.987
-180.071
-180.126
-180.155
-180.163
-180.155
-180.132
-180.101
-180.063
-180.023
-179.983
-179.946
-179.914
-179.888
-179.868
-179.856
-179.85
-179.85
-179.853
-179.857
-179.858
-179.854
-179.839
-179.808
-179.756
-179.675
-179.558
-179.399
-179.189
-178.918
-178.579
-178.162
-177.658
-177.057
-176.35
-175.528
-174.58
-173.499
-172.274
-170.897
-169.361
-167.656
-165.778
-163.719
-161.475
-159.043
-156.419
-153.604
-150.598
-147.403
-144.022
-140.458
-136.718
-132.806
-128.729
-124.497
-120.116
-115.597
-110.951
-106.19
-101.327
-96.377
-91.351
-86.263
-81.126
-75.952
-70.755
-65.545
-60.335
-55.136
-49.961
-44.827
-39.745
-34.728
-29.784
-24.919
-20.134
-15.431
-10.804
-6.242
-1.733
2.734
7.169
11.581
15.981
20.384
24.807
29.271
33.785
38.359
43.003
47.724
52.528
57.407
62.322
67.222
72.079
76.841
81.454
85.834
89.836
93.362
96.381
98.865
100.804
102.231
103.202
103.916
104.751
106.007
107.89
110.559
114.08
118.494
123.821
129.818
135.931
141.631
146.478
150.201
152.796
154.18
154.241
153.336
152.254
152.461
156.073
164.171
177.253
195.44
217.7
245.252
280.155
322.794
374.255
432.199
492.22
553.179
612.328
666.647
712.833
741.266
743.153
714.545
655.259
574.37
484.159
393.574
310.721
238.708
178.025
131.15
98.165
78.45
70.695
70.7
75.784
84.538
95.901
110.302
127.04
144.454
161.198
175.763
187.472
196.46
202.994
207.507
210.436
212.208
213.201
213.763
214.181
214.656
215.355
216.457
218.107
220.29
222.921
225.873
228.999
232.192
235.343
238.301
240.908
243.125
245.015
246.688
248.263
249.822
251.42
253.128
255.038
257.189
259.566
262.129
264.813
267.571
270.375
273.191
275.971
278.673
281.258
283.694
285.969
288.079
290.018
291.788
293.395
294.847
296.162
297.362
298.466
299.492
300.456
301.374
302.266
303.154
304.058
305.002
306.006
307.089
308.267
309.56
310.987
312.566
314.319
316.26
318.403
320.759
323.333
326.129
329.144
332.369
335.784
339.374
343.122
347.011
351.032
355.171
359.415
363.744
368.133
372.559
377.006
381.461
385.917
390.377
394.848
399.352
403.932
408.625
413.467
418.476
423.648
428.972
434.427
439.99
445.64
451.348
457.068
462.747
468.32
473.713
478.848
483.616
487.872
491.463
494.234
496.059
496.847
496.523
495.028
492.307
488.318
483.039
476.475
468.642
459.567
449.278
437.805
425.222
411.655
397.257
382.199
366.629
350.671
334.445
318.067
301.664
285.346
269.193
253.264
237.613
222.298
207.394
192.981
179.103
165.76
152.925
140.549
128.603
117.061
105.885
95.025
84.415
74.008
63.784
53.744
43.883
34.187
24.62
15.14
5.728
-3.616
-12.877
-22.036
-31.081
-39.997
-48.753
-57.305
-65.596
-73.59
-81.271
-88.638
-95.687
-102.411
-108.794
-114.823
-120.497
-125.822
-130.804
-135.448
-139.76
-143.749
-147.438
-150.857
-154.042
-157.018
-159.804
-162.413
-164.858
-167.151
-169.308
-171.337
-173.244
-175.033
-176.713
-178.294
-179.787
-181.199
-182.534
-183.794
-184.981
-186.099
-187.15
-188.14
-189.073
-189.952
-190.784
-191.576
-192.334
-193.066
-193.777
-194.472
-195.154
-195.828
-196.497
-197.165
-197.835
-198.51
-199.193
-199.889
-200.6
-201.331
-202.084
-202.862
-203.669
-204.505
-205.375
-206.279
-207.219
-208.197
-209.213
-210.269
-211.366
-212.503
-213.682
-214.902
-216.162
-217.462
-218.8
-220.175
-221.585
-223.027
-224.5
-226.001
-227.528
-229.079
-230.65
-232.24
-233.845
-235.462
-237.089
-238.722
-240.358
-241.994
-243.628
-245.256
-246.875
-248.485
-250.084
-251.671
-253.245
-254.808
-256.36
-257.902
-259.434
-260.96
-262.479
-263.993
-265.504
-267.012
-268.521
-270.033
-271.551
-273.079
-274.621
-276.179
-277.759
-279.362
-280.993
-282.655
-284.35
-286.083
-287.859
-289.685
-291.57
-293.523
-295.544
-297.633
-299.789
-302.005
-304.274
-306.583
-308.912
-311.244
-313.562
-315.849
-318.094
-320.283
-322.395
-324.406
-326.283
-328.001
-329.549
-330.922
-332.117
-333.137
-333.985
-334.681
-335.263
-335.772
-336.236
-336.679
-337.101
-337.516
-337.964
-338.467
-339.028
-339.617
-340.14
-340.5
-340.641
-340.476
-339.884
-338.818
-337.27
-335.323
-333.215
-331.136
-329.176
-327.428
-325.944
-324.557
-322.943
-320.583
-316.731
-310.763
-302.241
-290.729
-275.926
-257.874
-236.881
-213.583
-188.961
-163.911
-139.223
-115.789
-94.393
-75.546
-59.569
-46.466
-35.885
-27.47
-20.829
-15.393
-10.673
-6.326
-2.075
2.17
6.307
10.222
13.73
16.554
18.529
19.602
19.785
19.202
18.041
16.482
14.751
13.092
11.657
10.547
9.814
9.415
9.279
9.32
9.406
9.436
9.369
9.119
8.582
7.731
6.574
5.215
3.861
2.596
1.393
0.291
-0.61
-1.232
-1.516
-1.595
-1.766
-2.107
-2.542
-3.013
-3.525
-4.199
-5.196
-6.48
-7.877
-9.358
-10.868
-12.365
-13.727
-14.343
-13.411
-9.732
-1.533
12.274
32.2
58.138
88.729
123.994
164.989
212.339
267.052
327.671
390.51
452.133
508.233
553.976
584.895
595.874
582.35
543.964
482.99
403.622
313.033
216.71
120.73
33.028
-40.865
-95.177
-127.546
-141.095
-139.722
-130.24
-118.94
-108.607
-101.679
-97.305
-92.941
-87.74
-80.596
-72.36
-65.543
-61.042
-59.291
-59.733
-60.597
-61.052
-60.77
-59.426
-57.093
-53.687
-48.946
-42.968
-36.034
-28.326
-20.067
-11.487
-2.765
5.801
13.838
21.142
27.644
33.306
38.15
42.222
45.556
48.262
50.511
52.391
53.929
55.128
55.946
56.365
56.41
56.094
55.436
54.5
53.355
52.085
50.798
49.56
48.407
47.367
46.438
45.624
44.942
44.4
44.007
43.773
43.695
43.771
43.997
44.344
44.776
45.249
45.706
46.111
46.451
46.716
46.916
47.063
47.169
47.253
47.34
47.45
47.605
47.825
48.124
48.526
49.063
49.764
50.668
51.804
53.189
54.838
56.762
58.964
61.446
64.204
67.228
70.51
74.043
77.821
81.836
86.08
90.54
95.204
100.055
105.077
110.255
115.571
121.008
126.549
132.174
137.868
143.614
149.392
155.184
160.971
166.73
172.443
178.088
183.646
189.096
194.418
199.593
204.603
209.43
214.057
218.47
222.652
226.589
230.268
233.676
236.802
239.635
242.166
244.385
246.285
247.86
249.103
250.011
250.581
250.81
250.697
250.243
249.45
248.318
246.852
245.057
242.937
240.499
237.751
234.7
231.358
227.732
223.836
219.68
215.277
210.639
205.78
200.714
195.456
190.019
184.419
178.672
172.792
166.795
160.699
154.517
148.267
141.964
135.623
129.262
122.894
116.536
110.202
103.906
97.663
91.486
85.389
79.385
73.485
67.702
62.045
56.526
51.154
45.938
40.886
36.006
31.304
26.787
22.46
18.328
14.393
10.66
7.131
3.807
0.69
-2.22
-4.924
-7.422
-9.716
-11.808
-13.701
-15.399
-16.906
-18.229
-19.372
-20.342
-21.145
-21.789
-22.281
-22.629
-22.842
-22.926
-22.892
-22.75
-22.512
-22.188
-21.787
-21.319
-20.792
-20.218
-19.608
-18.972
-18.323
-17.672
-17.03
-16.412
-15.832
-15.307
-14.849
-14.469
-14.178
-13.986
-13.911
-13.975
-14.203
-14.609
-15.201
-15.981
-16.954
-18.129
-19.525
-21.144
-22.972
-25.008
-27.279
-29.846
-32.776
-36.087
-39.73
-43.634
-47.776
-52.122
-56.577
-60.981
-65.157
-69.011
-72.606
-76.096
-79.554
-83.067
-86.831
-91.078
-96.049
-101.919
-108.647
-116.055
-124.083
-132.59
-141.265
-149.846
-158.065
-165.677
-172.639
-178.995
-184.654
-189.678
-194.327
-198.761
-203.142
-207.625
-212.219
-216.938
-221.908
-227.105
-232.356
-237.563
-242.627
-247.469
-252.103
-256.5
-260.57
-264.303
-267.756
-270.961
-273.962
-276.778
-279.383
-281.776
-283.981
-286.004
-287.845
-289.506
-290.982
-292.277
-293.411
-294.399
-295.254
-295.987
-296.601
-297.102
-297.494
-297.783
-297.976
-298.08
-298.103
-298.049
-297.919
-297.707
-297.406
-297.014
-296.536
-295.98
-295.347
-294.639
-293.849
-292.982
-292.065
-291.103
-290.071
-288.905
-287.536
-285.946
-284.19
-282.341
-280.424
-278.47
-276.562
-274.863
-273.574
-272.783
-272.39
-272.197
-272.075
-271.938
-271.67
-271.071
-269.871
-267.931
-265.358
-262.426
-259.347
-256.251
-253.243
-250.463
-248.128
-246.378
-245.163
-244.293
-243.605
-243.011
-242.473
-241.964
-241.399
-240.705
-239.884
-238.993
-238.087
-237.183
-236.27
-235.328
-234.352
-233.341
-232.277
-231.113
-229.802
-228.316
-226.632
-224.728
-222.616
-220.325
-217.926
-215.543
-213.289
-211.247
-209.485
-208.052
-206.926
-206.021
-205.226
-204.404
-203.448
-202.309
-200.964
-199.377
-197.619
-195.868
-194.231
-192.779
-191.542
-190.468
-189.522
-188.795
-188.295
-187.921
-187.729
-187.764
-187.94
-188.217
-188.45
-188.126
-186.577
-182.546
-174.006
-159.336
-137.674
-109.768
-77.457
-41.608
-1.939
44.112
99.257
163.822
236.115
310.486
379.796
436.702
473.726
486.816
473.939
436.664
379.918
307.959
226.583
141.168
56.534
-19.956
-82.562
-127.848
-154.552
-166.123
-166.966
-161.171
-153.008
-144.275
-136.356
-129.646
-122.285
-113.428
-102.21
-88.743
-75.456
-63.851
-54.689
-48.189
-43.361
-39.582
-36.85
-35.145
-34.417
-34.466
-34.921
-35.418
-35.724
-35.767
-35.516
-34.975
-34.27
-33.538
-32.923
-32.625
-32.787
-33.415
-34.442
-35.755
-37.211
-38.701
-40.132
-41.374
-42.292
-42.807
-42.882
-42.522
-41.766
-40.651
-39.22
-37.537
-35.698
-33.787
-31.88
-30.037
-28.29
-26.66
-25.166
-23.818
-22.623
-21.586
-20.713
-20.002
-19.456
-19.071
-18.835
-18.728
-18.723
-18.788
-18.896
-19.021
-19.145
-19.25
-19.324
-19.353
-19.329
-19.241
-19.076
-18.821
-18.457
-17.969
-17.342
-16.564
-15.625
-14.513
-13.216
-11.721
-10.014
-8.091
-5.944
-3.57
-0.968
1.861
4.912
8.168
11.615
15.239
19.024
22.968
27.065
31.308
35.689
40.196
44.824
49.582
54.479
59.522
64.719
70.077
75.61
81.351
87.32
93.531
99.985
106.664
113.541
120.589
127.778
135.066
142.401
149.707
156.901
163.913
170.676
177.122
183.18
188.754
193.763
198.148
201.864
204.889
207.217
208.842
209.768
210.024
209.654
208.723
207.316
205.494
203.314
200.839
198.129
195.265
192.323
189.353
186.397
183.484
180.634
177.872
175.216
172.662
170.196
167.793
165.415
163.045
160.673
158.286
155.876
153.426
150.925
148.372
145.778
143.152
140.503
137.837
135.161
132.494
129.858
127.277
124.776
122.372
120.077
117.902
115.853
113.935
112.152
110.5
108.97
107.559
106.26
105.068
103.979
102.983
102.071
101.231
100.453
99.726
99.038
98.379
97.737
97.105
96.473
95.834
95.18
94.506
93.804
93.068
92.289
91.461
90.575
89.624
88.602
87.502
86.32
85.052
83.695
82.246
80.707
79.079
77.361
75.553
73.65
71.653
69.57
67.407
65.176
62.891
60.569
58.236
55.923
53.663
51.485
49.417
47.483
45.711
44.136
42.791
41.718
40.951
40.517
40.441
40.747
41.448
42.549
44.043
45.903
48.111
50.653
53.514
56.687
60.158
63.914
67.939
72.216
76.729
81.471
86.444
91.652
97.12
102.876
108.961
115.44
122.371
129.813
137.834
146.499
155.866
165.994
176.939
188.759
201.525
215.294
230.082
245.915
262.821
280.856
300.124
320.693
342.589
365.821
390.357
416.097
442.856
470.311
497.978
525.339
551.921
577.321
601.298
623.773
644.857
664.898
684.443
704.161
724.67
746.409
769.527
793.827
818.72
843.244
866.118
885.742
900.456
908.717
909.201
901.054
883.905
857.828
823.433
781.88
734.632
683.438
630.193
576.555
524.033
473.987
427.357
384.733
346.428
312.264
281.776
254.515
229.881
207.197
185.922
165.51
145.525
125.878
106.637
87.891
69.849
52.728
36.733
22.147
9.197
-2.071
-11.725
-19.906
-26.805
-32.606
-37.509
-41.751
-45.571
-49.145
-52.551
-55.806
-58.904
-61.837
-64.628
-67.304
-69.877
-72.387
-74.91
-77.528
-80.333
-83.399
-86.741
-90.358
-94.24
-98.364
-102.728
-107.345
-112.22
-117.362
-122.775
-128.452
-134.382
-140.534
-146.836
-153.207
-159.556
-165.81
-171.935
-177.908
-183.724
-189.388
-194.906
-200.287
-205.542
-210.677
-215.691
-220.588
-225.368
-230.045
-234.649
-239.213
-243.78
-248.38
-253.028
-257.74
-262.514
-267.341
-272.207
-277.085
-281.952
-286.798
-291.612
-296.378
-301.091
-305.732
-310.294
-314.782
-319.188
-323.498
-327.697
-331.746
-335.612
-339.266
-342.665
-345.772
-348.543
-350.911
-352.827
-354.258
-355.159
-355.501
-355.238
-354.297
-352.623
-350.171
-346.901
-342.809
-337.899
-332.18
-325.698
-318.503
-310.655
-302.241
-293.324
-283.947
-274.165
-264.015
-253.536
-242.809
-231.91
-220.918
-209.931
-199.016
-188.226
-177.612
-167.191
-156.969
-146.957
-137.141
-127.522
-118.124
-108.967
-100.09
-91.55
-83.364
-75.536
-68.059
-60.886
-53.992
-47.365
-40.991
-34.871
-29.012
-23.416
-18.097
-13.075
-8.346
-3.903
0.281
4.255
8.044
11.657
15.093
18.324
21.331
24.113
26.66
28.967
31.038
32.874
34.487
35.904
37.139
38.2
39.089
39.794
40.315
40.663
40.851
40.905
40.847
40.693
40.461
40.173
39.846
39.493
39.122
38.733
38.329
37.917
37.502
37.096
36.703
36.327
35.97
35.634
35.318
35.024
34.752
34.496
34.257
34.034
33.826
33.635
33.462
33.307
33.169
33.048
32.942
32.852
32.775
32.709
32.652
32.602
32.558
32.518
32.481
32.447
32.412
32.378
32.343
32.308
32.271
32.232
32.193
32.152
32.112
32.073
32.035
31.999
31.968
31.942
31.922
31.911
31.909
31.918
31.939
31.973
32.021
32.084
32.164
32.262
32.377
32.512
32.667
32.844
33.041
33.26
33.501
33.764
34.048
34.353
34.678
35.022
35.383
35.761
36.153
36.559
36.975
37.399
37.83
38.264
38.698
39.13
39.557
39.975
40.382
40.774
41.149
41.504
41.836
42.141
42.418
42.664
42.875
43.051
43.188
43.286
43.342
43.355
43.324
43.248
43.127
42.96
42.749
42.492
42.191
41.847
41.461
41.034
40.57
40.068
39.534
38.968
38.374
37.755
37.114
36.455
35.781
35.095
34.402
33.705
33.007
32.312
31.624
30.944
30.278
29.627
28.995
28.384
27.797
27.234
26.697
26.188
25.707
25.255
24.832
24.436
24.069
23.729
23.416
23.127
22.86
22.612
22.379
22.159
21.948
21.741
21.535
21.326
21.109
20.883
20.642
20.381
20.095
19.779
19.426
19.033
18.598
18.118
17.589
17.008
16.373
15.682
14.933
14.122
13.244
12.294
11.268
10.163
8.982
7.727
6.398
4.991
3.495
1.901
0.204
-1.591
-3.477
-5.45
-7.51
-9.663
-11.9
-14.192
-16.532
-18.943
-21.484
-24.223
-27.17
-30.262
-33.425
-36.632
-39.847
-42.981
-45.869
-48.304
-50.204
-51.677
-52.916
-54.043
-55.149
-56.348
-57.841
-59.906
-62.674
-66.024
-69.691
-73.464
-77.216
-80.844
-84.203
-87.064
-89.293
-90.95
-92.23
-93.302
-94.256
-95.133
-95.965
-96.842
-97.835
-98.931
-100.051
-101.12
-102.102
-102.999
-103.832
-104.605
-105.306
-105.94
-106.522
-107.071
-107.6
-108.111
-108.597
-109.052
-109.481
-109.887
-110.278
-110.662
-111.042
-111.421
-111.805
-112.195
-112.597
-113.014
-113.448
-113.902
-114.378
-114.876
-115.398
-115.944
-116.516
-117.111
-117.724
-118.353
-118.993
-119.64
-120.29
-120.936
-121.572
-122.193
-122.791
-123.359
-123.89
-124.378
-124.815
-125.192
-125.503
-125.74
-125.895
-125.963
-125.936
-125.807
-125.57
-125.221
-124.755
-124.169
-123.459
-122.625
-121.666
-120.584
-119.382
-118.062
-116.631
-115.094
-113.459
-111.736
-109.933
-108.06
-106.126
-104.143
-102.12
-100.071
-98.007
-95.942
-93.891
-91.867
-89.883
-87.952
-86.086
-84.291
-82.576
-80.945
-79.409
-77.981
-76.674
-75.498
-74.466
-73.584
-72.856
-72.28
-71.845
-71.531
-71.321
-71.197
-71.15
-71.175
-71.263
-71.402
-71.572
-71.741
-71.883
-71.962
-71.928
-71.769
-71.502
-71.175
-70.894
-70.756
-70.82
-71.175
-71.894
-72.951
-74.279
-75.71
-77.005
-78.068
-78.897
-79.463
-79.808
-80.039
-80.281
-80.822
-81.958
-83.699
-85.913
-88.459
-91.101
-93.653
-95.986
-97.852
-99.087
-99.761
-99.99
-99.887
-99.626
-99.215
-98.414
-96.289
-91.097
-81.273
-65.892
-45.848
-23.214
1.597
30.157
66.311
114.239
174.269
243.088
314.621
382.012
440.768
486.81
516.316
525.968
511.477
472.21
410.646
329.932
236.974
138.752
42.298
-42.614
-109.202
-155.114
-181.859
-195.445
-201.916
-203.442
-199.074
-187.96
-170.805
-150.869
-133.69
-121.79
-114.193
-109.322
-104.399
-98.666
-94.056
-91.403
-91.064
-92.782
-95.081
-97.111
-98.646
-99.373
-99.161
-98.096
-96.284
-93.888
-91.18
-88.427
-85.802
-83.578
-82.085
-81.326
-81.162
-81.484
-82.068
-82.67
-83.157
-83.293
-82.81
-81.758
-80.241
-78.295
-76.05
-73.604
-70.993
-68.372
-65.903
-63.537
-61.243
-59.036
-56.89
-54.849
-52.965
-51.202
-49.527
-47.981
-46.589
-45.365
-44.33
-43.453
-42.704
-42.084
-41.587
-41.198
-40.901
-40.672
-40.485
-40.328
-40.187
-40.048
-39.894
-39.71
-39.477
-39.184
-38.818
-38.367
-37.819
-37.16
-36.376
-35.453
-34.379
-33.14
-31.727
-30.128
-28.333
-26.336
-24.129
-21.708
-19.07
-16.212
-13.133
-9.832
-6.31
-2.569
1.389
5.558
9.933
14.508
19.275
24.225
29.349
34.635
40.073
45.648
51.348
57.16
63.067
69.056
75.109
81.209
87.341
93.487
99.628
105.747
111.826
117.847
123.792
129.644
135.385
140.998
146.467
151.776
156.909
161.851
166.587
171.103
175.387
179.427
183.21
186.726
189.965
192.919
195.58
197.942
199.998
201.745
203.178
204.297
205.099
205.586
205.758
205.619
205.171
204.421
203.373
202.035
200.416
198.525
196.371
193.965
191.32
188.448
185.361
182.075
178.604
174.962
171.164
167.227
163.165
158.996
154.736
150.399
146.003
141.563
137.095
132.615
128.137
123.677
119.248
114.864
110.538
106.283
102.11
98.03
94.054
90.191
86.449
82.836
79.36
76.027
72.841
69.808
66.931
64.213
61.656
59.261
57.03
54.961
53.054
51.308
49.721
48.289
47.01
45.88
44.895
44.05
43.34
42.76
42.304
41.967
41.741
41.621
41.601
41.673
41.831
42.068
42.378
42.754
43.189
43.676
44.209
44.781
45.387
46.019
46.672
47.341
48.018
48.7
49.38
50.053
50.716
51.363
51.991
52.595
53.171
53.716
54.227
54.701
55.136
55.528
55.876
56.178
56.432
56.637
56.792
56.895
56.947
56.946
56.892
56.785
56.625
56.412
56.146
55.828
55.458
55.038
54.567
54.048
53.48
52.866
52.206
51.501
50.754
49.964
49.133
48.263
47.355
46.409
45.429
44.413
43.364
42.284
41.172
40.03
38.86
37.662
36.437
35.188
33.914
32.617
31.299
29.961
28.604
27.23
25.841
24.438
23.023
21.599
20.167
18.729
17.289
15.848
14.41
12.977
11.553
10.141
8.744
7.367
6.014
4.688
3.396
2.14
0.926
-0.241
-1.357
-2.417
-3.416
-4.349
-5.211
-5.997
-6.703
-7.323
-7.855
-8.294
-8.637
-8.881
-9.023
-9.062
-8.995
-8.821
-8.54
-8.153
-7.658
-7.058
-6.356
-5.555
-4.658
-3.671
-2.601
-1.455
-0.244
1.025
2.341
3.692
5.066
6.45
7.832
9.197
10.532
11.822
13.053
14.21
15.278
16.245
17.095
17.818
18.4
18.828
19.093
19.187
19.106
18.843
18.393
17.749
16.907
15.866
14.627
13.19
11.559
9.74
7.745
5.597
3.318
0.935
-1.527
-4.05
-6.616
-9.207
-11.802
-14.37
-16.883
-19.318
-21.646
-23.849
-25.9
-27.771
-29.481
-31.089
-32.679
-34.371
-36.253
-38.374
-40.821
-43.667
-46.899
-50.455
-54.173
-57.801
-61.193
-64.259
-66.816
-68.727
-69.937
-70.441
-70.423
-70.163
-69.768
-69.332
-69.102
-69.334
-70.235
-71.895
-74.207
-77.007
-80.243
-83.897
-87.118
-88.181
-85.54
-77.802
-65.35
-50.564
-34.139
-15.085
10.226
47.998
100.868
167.247
241.963
316.612
385.249
444.923
492.941
526.951
542.326
532.829
495.587
431.09
344.183
244.14
140.544
42.975
-40.577
-105.808
-152.158
-182.94
-202.614
-215.037
-221.353
-219.75
-210.029
-193.901
-174.974
-159.012
-148.542
-142.694
-140.111
-138.187
-136.207
-135.882
-137.786
-142.034
-148.091
-154.272
-159.609
-163.819
-166.651
-168.125
-168.424
-167.728
-166.336
-164.645
-162.964
-161.498
-160.47
-160.076
-160.355
-161.254
-162.636
-164.288
-166.026
-167.697
-169.154
-170.27
-170.979
-171.264
-171.144
-170.668
-169.882
-168.825
-167.543
-166.078
-164.471
-162.754
-160.963
-159.134
-157.307
-155.524
-153.818
-152.208
-150.707
-149.322
-148.048
-146.883
-145.813
-144.823
-143.898
-143.024
-142.187
-141.375
-140.569
-139.751
-138.901
-137.999
-137.027
-135.964
-134.795
-133.503
-132.073
-130.491
-128.744
-126.82
-124.706
-122.389
-119.858
-117.099
-114.104
-110.861
-107.364
-103.604
-99.577
-95.279
-90.708
-85.865
-80.75
-75.368
-69.724
-63.827
-57.684
-51.31
-44.717
-37.923
-30.945
-23.801
-16.511
-9.097
-1.58
6.016
13.668
21.354
29.047
36.722
44.35
51.903
59.353
66.672
73.831
80.801
87.553
94.06
100.299
106.247
111.879
117.171
122.097
126.635
130.77
134.489
137.784
140.649
143.079
145.081
146.669
147.857
148.661
149.089
149.138
148.812
148.119
147.064
145.661
143.913
141.809
139.35
136.537
133.371
129.857
125.982
121.715
117.038
111.946
106.448
100.58
94.376
87.866
81.098
74.122
67.008
59.848
52.717
45.675
38.785
32.106
25.717
19.72
14.197
9.204
4.785
0.95
-2.29
-4.924
-6.969
-8.462
-9.458
-10.038
-10.264
-10.176
-9.822
-9.245
-8.505
-7.684
-6.842
-6.02
-5.252
-4.559
-3.96
-3.479
-3.115
-2.851
-2.656
-2.488
-2.32
-2.145
-1.951
-1.732
-1.475
-1.16
-0.778
-0.335
0.166
0.72
1.325
1.979
2.674
3.385
4.091
4.766
5.391
5.957
6.457
6.884
7.234
7.502
7.691
7.808
7.857
7.842
7.765
7.627
7.433
7.191
6.909
6.593
6.251
5.888
5.507
5.116
4.718
4.314
3.908
3.499
3.089
2.681
2.276
1.878
1.488
1.108
0.739
0.383
0.041
-0.288
-0.603
-0.907
-1.2
-1.484
-1.76
-2.032
-2.301
-2.569
-2.84
-3.116
-3.4
-3.695
-4.005
-4.332
-4.68
-5.051
-5.45
-5.879
-6.34
-6.837
-7.373
-7.948
-8.568
-9.232
-9.945
-10.707
-11.521
-12.389
-13.312
-14.29
-15.326
-16.418
-17.566
-18.77
-20.028
-21.339
-22.7
-24.11
-25.566
-27.063
-28.6
-30.172
-31.774
-33.402
-35.052
-36.716
-38.391
-40.071
-41.748
-43.418
-45.074
-46.71
-48.32
-49.897
-51.435
-52.927
-54.367
-55.749
-57.066
-58.313
-59.482
-60.57
-61.57
-62.479
-63.293
-64.009
-64.623
-65.134
-65.54
-65.84
-66.034
-66.123
-66.109
-65.992
-65.778
-65.47
-65.074
-64.596
-64.045
-63.429
-62.757
-62.038
-61.283
-60.504
-59.712
-58.92
-58.138
-57.382
-56.663
-55.995
-55.394
-54.871
-54.439
-54.108
-53.888
-53.789
-53.822
-53.993
-54.307
-54.766
-55.372
-56.128
-57.038
-58.103
-59.32
-60.683
-62.187
-63.825
-65.591
-67.474
-69.454
-71.509
-73.616
-75.754
-77.912
-80.077
-82.24
-84.386
-86.485
-88.518
-90.466
-92.308
-94.036
-95.629
-97.045
-98.293
-99.428
-100.536
-101.762
-103.228
-104.986
-107.12
-109.718
-112.76
-116.177
-119.75
-123.063
-125.773
-127.633
-128.376
-127.834
-125.986
-122.877
-118.84
-114.517
-110.475
-107.267
-105.445
-105.387
-107.319
-111.344
-117.2
-124.264
-131.835
-139.008
-144.671
-147.648
-146.673
-140.51
-128.053
-108.375
-80.762
-44.723
-0.694
49.541
103.674
159.076
214.107
269.431
325.152
379.022
425.631
455.188
458.634
432.422
378.685
305.407
222.246
135.609
48.947
-35.105
-113.564
-181.897
-233.7
-265.422
-277.203
-271.033
-253.657
-232.149
-210.943
-194.242
-181.634
-170.002
-157.936
-143.791
-128.408
-114.899
-104.548
-97.972
-94.712
-92.859
-91.458
-90.112
-88.351
-86.14
-83.336
-79.64
-75.178
-70.297
-65.252
-60.353
-55.89
-52.034
-49.016
-47.069
-46.201
-46.289
-47.162
-48.57
-50.306
-52.21
-54.096
-55.786
-57.164
-58.152
-58.719
-58.887
-58.665
-58.068
-57.125
-55.87
-54.352
-52.625
-50.751
-48.793
-46.814
-44.88
-43.042
-41.338
-39.801
-38.455
-37.313
-36.379
-35.65
-35.113
-34.755
-34.565
-34.523
-34.606
-34.783
-35.022
-35.287
-35.543
-35.756
-35.899
-35.949
-35.886
-35.693
-35.356
-34.864
-34.209
-33.384
-32.377
-31.181
-29.785
-28.183
-26.37
-24.342
-22.098
-19.636
-16.955
-14.055
-10.936
-7.601
-4.05
-0.288
3.683
7.858
12.228
16.785
21.517
26.413
31.459
36.641
41.943
47.348
52.84
58.402
64.014
69.661
75.321
80.977
86.608
92.195
97.718
103.157
108.492
113.703
118.771
123.676
128.401
132.926
137.236
141.312
145.139
148.703
151.989
154.984
157.678
160.058
162.117
163.847
165.241
166.295
167.006
167.371
167.391
167.067
166.401
165.398
164.063
162.402
160.424
158.138
155.554
152.684
149.543
146.142
142.499
138.629
134.549
130.276
125.83
121.229
116.492
111.639
106.69
101.665
96.584
91.466
86.333
81.202
76.093
71.025
66.016
61.082
56.24
51.504
46.889
42.407
38.072
33.892
29.879
26.039
22.381
18.911
15.632
12.548
9.66
6.97
4.475
2.175
0.065
-1.858
-3.6
-5.167
-6.566
-7.804
-8.892
-9.838
-10.653
-11.348
-11.934
-12.425
-12.833
-13.173
-13.457
-13.699
-13.912
-14.108
-14.3
-14.501
-14.719
-14.966
-15.253
-15.588
-15.984
-16.45
-16.993
-17.621
-18.341
-19.157
-20.077
-21.102
-22.231
-23.465
-24.805
-26.25
-27.806
-29.47
-31.234
-33.09
-35.027
-37.027
-39.071
-41.135
-43.182
-45.181
-47.101
-48.911
-50.587
-52.1
-53.413
-54.492
-55.294
-55.784
-55.936
-55.725
-55.126
-54.128
-52.725
-50.924
-48.75
-46.221
-43.349
-40.145
-36.616
-32.771
-28.623
-24.183
-19.468
-14.489
-9.249
-3.741
2.044
8.133
14.557
21.355
28.592
36.326
44.611
53.515
63.089
73.388
84.472
96.391
109.192
122.929
137.622
153.263
169.872
187.452
206.027
225.684
246.479
268.452
291.671
316.119
341.642
368.048
395.071
422.163
448.681
474.079
497.739
519.685
540.769
561.102
580.484
598.467
613.537
626.657
640.971
659.182
684.573
716.739
751.1
783.443
809.073
825.429
833.143
832.275
822.933
805.131
778.18
742.537
699.701
651.426
599.885
547.151
494.844
444.468
397.255
353.934
314.875
280.149
249.425
222.185
197.92
175.989
155.756
136.75
118.553
100.857
83.622
66.935
50.909
35.766
21.739
9.015
-2.208
-11.798
-19.811
-26.426
-31.857
-36.374
-40.229
-43.648
-46.888
-50.187
-53.679
-57.431
-61.477
-65.832
-70.547
-75.71
-81.358
-87.489
-94.087
-101.108
-108.522
-116.299
-124.384
-132.702
-141.168
-149.71
-158.285
-166.874
-175.443
-183.948
-192.318
-200.455
-208.301
-215.823
-223.001
-229.835
-236.327
-242.479
-248.318
-253.889
-259.238
-264.406
-269.416
-274.279
-279.018
-283.666
-288.273
-292.9
-297.59
-302.364
-307.239
-312.221
-317.311
-322.507
-327.79
-333.125
-338.482
-343.83
-349.146
-354.41
-359.596
-364.668
-369.588
-374.312
-378.804
-383.034
-386.971
-390.589
-393.866
-396.778
-399.312
-401.459
-403.209
-404.55
-405.472
-405.961
-406.009
-405.611
-404.761
-403.457
-401.699
-399.484
-396.816
-393.696
-390.129
-386.121
-381.677
-376.806
-371.515
-365.818
-359.728
-353.261
-346.435
-339.267
-331.778
-323.99
-315.925
-307.607
-299.059
-290.305
-281.372
-272.285
-263.071
-253.755
-244.364
-234.924
-225.462
-216.004
-206.575
-197.199
-187.901
-178.703
-169.63
-160.7
-151.935
-143.353
-134.971
-126.806
-118.873
-111.183
-103.749
-96.58
-89.684
-83.068
-76.736
-70.692
-64.937
-59.47
-54.291
-49.394
-44.776
-40.431
-36.351
-32.526
-28.947
-25.603
-22.481
-19.567
-16.848
-14.308
-11.931
-9.702
-7.604
-5.619
-3.731
-1.921
-0.174
1.53
3.205
4.871
6.542
8.236
9.967
11.751
13.601
15.532
17.555
19.684
21.928
24.298
26.803
29.451
32.25
35.205
38.322
41.605
45.056
48.678
52.47
56.433
60.565
64.862
69.322
73.939
78.708
83.62
88.669
93.846
99.141
104.542
110.039
115.619
121.27
126.977
132.726
138.503
144.292
150.077
155.843
161.571
167.247
172.852
178.37
183.782
189.072
194.222
199.215
204.035
208.664
213.086
217.285
221.247
224.957
228.401
231.566
234.44
237.012
239.272
241.212
242.822
244.097
245.031
245.62
245.86
245.751
245.291
244.482
243.326
241.825
239.985
237.812
235.313
232.496
229.372
225.95
222.244
218.266
214.03
209.551
204.845
199.929
194.82
189.536
184.096
178.518
172.821
167.024
161.147
155.208
149.228
143.224
137.215
131.22
125.255
119.338
113.485
107.713
102.036
96.468
91.023
85.713
80.551
75.546
70.709
66.048
61.571
57.285
53.194
49.304
45.618
42.138
38.866
35.802
32.945
30.295
27.848
25.601
23.551
21.694
20.023
18.533
17.218
16.072
15.087
14.257
13.572
13.027
12.612
12.321
12.144
12.073
12.102
12.22
12.422
12.698
13.042
13.445
13.9
14.402
14.942
15.514
16.113
16.732
17.367
18.011
18.66
19.31
19.955
20.593
21.219
21.831
22.423
22.995
23.541
24.061
24.551
25.008
25.431
25.816
26.161
26.465
26.723
26.935
27.097
27.206
27.261
27.257
27.193
27.065
26.87
26.604
26.266
25.85
25.354
24.775
24.108
23.35
22.498
21.549
20.499
19.345
18.084
16.713
15.229
13.631
11.915
10.079
8.121
6.04
3.834
1.502
-0.958
-3.544
-6.257
-9.096
-12.06
-15.146
-18.352
-21.675
-25.11
-28.653
-32.299
-36.04
-39.872
-43.785
-47.772
-51.824
-55.932
-60.087
-64.279
-68.498
-72.732
-76.972
-81.205
-85.422
-89.609
-93.755
-97.847
-101.872
-105.817
-109.667
-113.408
-117.025
-120.503
-123.829
-126.989
-129.969
-132.756
-135.34
-137.709
-139.854
-141.764
-143.431
-144.845
-146
-146.888
-147.505
-147.844
-147.901
-147.671
-147.152
-146.344
-145.245
-143.85
-142.157
-140.157
-137.852
-135.247
-132.35
-129.171
-125.722
-122.021
-118.094
-113.978
-109.706
-105.308
-100.807
-96.225
-91.59
-86.938
-82.308
-77.735
-73.238
-68.826
-64.509
-60.297
-56.195
-52.199
-48.272
-44.358
-40.414
-36.417
-32.369
-28.287
-24.162
-19.962
-15.672
-11.33
-7.042
-2.934
0.923
4.52
7.861
10.866
13.415
15.463
17.106
18.524
19.855
21.034
21.806
21.989
21.448
19.96
17.242
12.905
6.562
-1.829
-11.915
-23.303
-35.523
-47.974
-60.144
-71.443
-81.212
-89.13
-95.276
-99.843
-103.233
-106.04
-108.697
-111.64
-115.373
-120.149
-125.958
-132.672
-139.935
-147.187
-153.981
-159.902
-164.537
-167.681
-169.324
-169.552
-168.617
-166.913
-164.818
-162.804
-161.383
-160.853
-161.281
-162.646
-164.847
-167.668
-170.775
-172.961
-172.256
-167.09
-156.569
-141.298
-122.751
-100.843
-73.414
-36.684
12.372
73.34
141.88
211.39
276.92
336.181
388.511
432.703
463.895
474.379
457.252
409.635
334.053
238.898
135.265
33.465
-57.277
-131.288
-186.967
-225.296
-249.267
-262.878
-268.806
-267.773
-261.388
-250.548
-236.474
-222.338
-208.754
-196.098
-185.064
-174.906
-166.681
-161.323
-158.676
-158.691
-160.208
-162.154
-164.064
-165.391
-165.879
-165.297
-163.292
-159.866
-155.252
-149.674
-143.447
-136.873
-130.199
-123.757
-117.892
-112.788
-108.505
-105.004
-102.162
-99.842
-97.921
-96.267
-94.76
-93.34
-91.992
-90.724
-89.568
-88.554
-87.689
-86.966
-86.352
-85.773
-85.15
-84.435
-83.6
-82.639
-81.558
-80.352
-79.012
-77.543
-75.951
-74.24
-72.413
-70.461
-68.381
-66.192
-63.932
-61.659
-59.424
-57.257
-55.175
-53.183
-51.286
-49.483
-47.77
-46.129
-44.538
-42.983
-41.452
-39.94
-38.437
-36.924
-35.375
-33.757
-32.042
-30.211
-28.247
-26.137
-23.87
-21.436
-18.833
-16.065
-13.136
-10.045
-6.794
-3.38
0.196
3.931
7.819
11.855
16.034
20.35
24.796
29.364
34.046
38.833
43.718
48.692
53.747
58.872
64.055
69.285
74.547
79.829
85.118
90.397
95.653
100.871
106.035
111.132
116.147
121.064
125.869
130.549
135.089
139.474
143.693
147.731
151.576
155.216
158.64
161.836
164.794
167.504
169.958
172.148
174.068
175.711
177.072
178.149
178.938
179.437
179.647
179.566
179.198
178.545
177.61
176.399
174.917
173.173
171.173
168.926
166.443
163.734
160.811
157.685
154.37
150.879
147.227
143.427
139.495
135.445
131.294
127.057
122.749
118.386
113.984
109.557
105.121
100.69
96.279
91.9
87.568
83.294
79.09
74.968
70.938
67.01
63.192
59.493
55.92
52.479
49.175
46.013
42.997
40.13
37.414
34.849
32.436
30.176
28.066
26.105
24.29
22.619
21.088
19.693
18.428
17.29
16.272
15.368
14.574
13.882
13.288
12.783
12.362
12.019
11.747
11.54
11.392
11.297
11.248
11.242
11.271
11.332
11.419
11.527
11.654
11.795
11.946
12.104
12.266
12.43
12.592
12.75
12.904
13.051
13.19
13.32
13.441
13.551
13.652
13.742
13.823
13.893
13.954
14.005
14.048
14.083
14.111
14.132
14.147
14.156
14.16
14.159
14.153
14.142
14.125
14.101
14.07
14.032
13.985
13.931
13.867
13.794
13.709
13.613
13.505
13.382
13.244
13.09
12.918
12.726
12.514
12.281
12.025
11.744
11.438
11.104
10.741
10.349
9.927
9.475
8.993
8.481
7.94
7.372
6.78
6.166
5.531
4.877
4.207
3.525
2.835
2.142
1.447
0.75
0.052
-0.644
-1.334
-2.014
-2.678
-3.325
-3.947
-4.537
-5.08
-5.563
-5.975
-6.313
-6.575
-6.755
-6.839
-6.806
-6.632
-6.308
-5.835
-5.217
-4.464
-3.575
-2.546
-1.404
-0.195
1.053
2.337
3.71
5.278
7.081
9.076
11.2
13.388
15.578
17.727
19.673
21.113
21.865
21.929
21.466
20.8
20.234
19.928
20.151
21.343
23.833
27.784
33.067
39.169
45.549
51.874
57.786
62.828
66.582
68.656
68.928
67.711
65.406
62.273
58.535
54.401
50.098
45.936
42.077
38.424
34.8
31.087
27.241
23.296
19.294
15.228
11.132
7.139
3.423
0.096
-2.814
-5.369
-7.703
-9.908
-12.061
-14.299
-16.749
-19.462
-22.42
-25.466
-28.4
-31.169
-33.768
-36.156
-38.328
-40.273
-42.047
-43.926
-46.141
-48.673
-51.462
-54.415
-57.431
-60.597
-63.984
-67.364
-70.535
-73.551
-76.408
-79.118
-81.745
-83.333
-82.134
-77.027
-66.882
-52.036
-34.806
-15.469
7.288
36.743
78.299
133.56
200.138
272.96
344.886
411.498
470.449
518.734
552.495
565.261
550.678
506.952
436.329
346.211
246.837
146.62
53.416
-27.653
-94.559
-145.74
-181.826
-204.029
-213.406
-211.739
-201.471
-186.332
-169.944
-155.76
-145.145
-136.647
-129.124
-121.293
-113.194
-106.929
-103.527
-103.228
-105.477
-108.594
-111.479
-113.596
-114.554
-114.254
-112.57
-109.47
-105.198
-100.115
-94.629
-89.151
-84.032
-79.601
-76.148
-73.779
-72.449
-72.035
-72.359
-73.242
-74.522
-76.023
-77.581
-79.103
-80.547
-81.881
-83.075
-84.068
-84.786
-85.196
-85.285
-85.052
-84.5
-83.632
-82.461
-81.019
-79.353
-77.502
-75.494
-73.34
-71.056
-68.667
-66.214
-63.754
-61.333
-58.979
-56.714
-54.548
-52.487
-50.535
-48.681
-46.905
-45.179
-43.484
-41.801
-40.121
-38.431
-36.712
-34.938
-33.079
-31.11
-29.011
-26.766
-24.359
-21.776
-19.004
-16.036
-12.874
-9.518
-5.967
-2.219
1.729
5.877
10.222
14.757
19.476
24.378
29.459
34.717
40.14
45.711
51.415
57.239
63.168
69.187
75.274
81.405
87.56
93.729
99.902
106.071
112.217
118.313
124.332
130.249
136.046
141.717
147.249
152.619
157.815
162.827
167.653
172.298
176.745
180.952
184.881
188.495
191.77
194.698
197.268
199.462
201.264
202.648
203.601
204.122
204.197
203.802
202.913
201.498
199.556
197.126
194.241
190.93
187.217
183.111
178.631
173.808
168.667
163.232
157.524
151.555
145.354
138.964
132.428
125.796
119.096
112.324
105.486
98.593
91.659
84.707
77.753
70.801
63.869
56.98
50.157
43.428
36.809
30.305
23.921
17.662
11.54
5.579
-0.203
-5.793
-11.177
-16.347
-21.292
-25.998
-30.46
-34.68
-38.659
-42.403
-45.914
-49.189
-52.23
-55.041
-57.627
-59.995
-62.153
-64.107
-65.867
-67.442
-68.841
-70.077
-71.16
-72.096
-72.896
-73.568
-74.122
-74.567
-74.913
-75.168
-75.342
-75.443
-75.48
-75.461
-75.394
-75.286
-75.141
-74.968
-74.77
-74.552
-74.319
-74.074
-73.82
-73.561
-73.298
-73.034
-72.769
-72.506
-72.246
-71.987
-71.732
-71.48
-71.23
-70.982
-70.736
-70.491
-70.245
-69.997
-69.748
-69.494
-69.235
-68.971
-68.699
-68.419
-68.131
-67.834
-67.527
-67.211
-66.886
-66.553
-66.213
-65.866
-65.512
-65.155
-64.793
-64.429
-64.065
-63.7
-63.337
-62.978
-62.624
-62.276
-61.938
-61.609
-61.293
-60.99
-60.702
-60.431
-60.179
-59.947
-59.736
-59.549
-59.387
-59.25
-59.139
-59.054
-58.995
-58.96
-58.947
-58.953
-58.976
-59.012
-59.057
-59.109
-59.163
-59.217
-59.265
-59.307
-59.338
-59.354
-59.352
-59.324
-59.265
-59.169
-59.028
-58.836
-58.585
-58.267
-57.873
-57.402
-56.846
-56.2
-55.456
-54.603
-53.633
-52.544
-51.334
-50.007
-48.564
-47.011
-45.358
-43.625
-41.833
-39.998
-38.132
-36.232
-34.301
-32.343
-30.362
-28.368
-26.36
-24.323
-22.249
-20.135
-17.973
-15.76
-13.477
-11.081
-8.542
-5.839
-2.97
0.039
3.168
6.395
9.686
13.003
16.289
19.462
22.461
25.242
27.759
29.971
31.814
33.19
34.025
34.266
33.88
32.864
31.223
28.961
26.113
22.741
18.923
14.761
10.335
5.7
0.914
-3.961
-8.849
-13.644
-18.252
-22.586
-26.592
-30.257
-33.603
-36.69
-39.596
-42.388
-45.158
-48.038
-51.094
-54.312
-57.599
-60.737
-63.57
-66.113
-68.398
-70.436
-72.263
-73.924
-75.548
-77.473
-79.946
-82.93
-86.299
-89.877
-93.535
-97.328
-101.344
-105.459
-109.517
-113.622
-117.934
-122.638
-127.909
-132.916
-135.935
-135.654
-130.748
-121.392
-109.743
-96.05
-79.474
-57.083
-22.743
25.896
88.076
160.223
233.251
300.325
356.396
395.834
417.324
418.565
396.451
351.958
285.555
200.083
102.849
1.269
-95.083
-176.417
-237.371
-276.921
-298.547
-308.872
-313.919
-316.367
-316.202
-312.12
-302.793
-288.947
-272.732
-256.291
-241.427
-228.977
-218.969
-211.177
-205.314
-201.132
-198.299
-196.449
-195.288
-194.448
-193.553
-192.319
-190.417
-187.553
-183.684
-178.901
-173.338
-167.255
-160.956
-154.71
-148.844
-143.681
-139.327
-135.764
-132.925
-130.66
-128.85
-127.424
-126.254
-125.201
-124.207
-123.247
-122.315
-121.42
-120.515
-119.524
-118.414
-117.174
-115.811
-114.347
-112.791
-111.149
-109.44
-107.679
-105.876
-104.044
-102.175
-100.261
-98.307
-96.331
-94.372
-92.484
-90.702
-89.042
-87.515
-86.116
-84.837
-83.67
-82.591
-81.573
-80.593
-79.628
-78.666
-77.696
-76.7
-75.654
-74.528
-73.284
-71.891
-70.326
-68.566
-66.593
-64.392
-61.951
-59.264
-56.333
-53.156
-49.731
-46.056
-42.127
-37.943
-33.508
-28.827
-23.906
-18.754
-13.379
-7.794
-2.01
3.958
10.095
16.387
22.819
29.373
36.03
42.77
49.571
56.411
63.266
70.114
76.928
83.683
90.356
96.921
103.354
109.631
115.728
121.622
127.291
132.713
137.868
142.735
147.297
151.535
155.433
158.976
162.152
164.948
167.354
169.362
170.966
172.162
172.946
173.317
173.277
172.829
171.977
170.727
169.087
167.068
164.681
161.939
158.856
155.45
151.737
147.735
143.465
138.945
134.198
129.245
124.108
118.809
113.371
107.819
102.173
96.459
90.699
84.915
79.129
73.364
67.64
61.978
56.396
50.913
45.546
40.311
35.222
30.295
25.54
20.968
16.591
12.415
8.448
4.695
1.161
-2.152
-5.241
-8.107
-10.751
-13.173
-15.376
-17.366
-19.145
-20.72
-22.097
-23.284
-24.287
-25.116
-25.781
-26.29
-26.655
-26.887
-26.997
-26.999
-26.902
-26.721
-26.465
-26.148
-25.78
-25.371
-24.933
-24.474
-24.005
-23.535
-23.076
-22.637
-22.227
-21.856
-21.531
-21.261
-21.053
-20.913
-20.845
-20.853
-20.941
-21.116
-21.385
-21.754
-22.222
-22.784
-23.434
-24.162
-24.956
-25.796
-26.656
-27.508
-28.33
-29.099
-29.801
-30.416
-30.918
-31.277
-31.459
-31.434
-31.182
-30.684
-29.921
-28.882
-27.561
-25.969
-24.132
-22.071
-19.794
-17.298
-14.571
-11.601
-8.39
-4.938
-1.247
2.692
6.899
11.389
16.172
21.273
26.73
32.608
38.989
45.943
53.516
61.747
70.664
80.301
90.697
101.892
113.909
126.759
140.463
155.038
170.489
186.839
204.1
222.281
241.438
261.633
282.912
305.349
329.009
353.834
379.699
406.328
433.261
460.063
486.314
511.557
535.435
557.804
578.704
598.534
618.026
637.885
658.846
681.63
706.704
734.205
763.889
794.936
825.999
855.502
881.586
902.305
915.887
920.847
916.185
901.509
877.066
843.663
802.696
755.93
705.322
652.904
600.5
549.698
501.735
457.409
417.079
380.783
348.291
319.126
292.761
268.607
246.122
224.9
204.65
185.168
166.311
148.083
130.567
113.894
98.202
83.583
70.096
57.781
46.672
36.69
27.667
19.409
11.69
4.306
-2.917
-10.161
-17.583
-25.258
-33.191
-41.353
-49.676
-58.104
-66.585
-75.044
-83.399
-91.579
-99.517
-107.168
-114.485
-121.417
-127.909
-133.912
-139.406
-144.393
-148.9
-152.959
-156.613
-159.907
-162.897
-165.646
-168.212
-170.649
-173.009
-175.335
-177.674
-180.073
-182.579
-185.235
-188.073
-191.111
-194.364
-197.836
-201.527
-205.435
-209.549
-213.852
-218.33
-222.969
-227.753
-232.669
-237.698
-242.821
-248.016
-253.261
-258.535
-263.817
-269.084
-274.312
-279.476
-284.551
-289.512
-294.333
-298.988
-303.45
-307.691
-311.686
-315.41
-318.842
-321.96
-324.739
-327.158
-329.191
-330.821
-332.032
-332.812
-333.152
-333.049
-332.507
-331.537
-330.154
-328.368
-326.187
-323.613
-320.642
-317.275
-313.513
-309.354
-304.807
-299.883
-294.588
-288.937
-282.944
-276.611
-269.938
-262.909
-255.502
-247.719
-239.57
-231.079
-222.291
-213.253
-204.022
-194.674
-185.27
-175.866
-166.518
-157.266
-148.151
-139.232
-130.568
-122.233
-114.313
-106.868
-99.942
-93.567
-87.748
-82.476
-77.726
-73.443
-69.58
-66.104
-62.983
-60.198
-57.736
-55.562
-53.642
-51.936
-50.386
-48.948
-47.59
-46.276
-44.996
-43.747
-42.541
-41.41
-40.383
-39.473
-38.688
-38.023
-37.468
-37.021
-36.677
-36.427
-36.272
-36.212
-36.242
-36.363
-36.563
-36.828
-37.136
-37.455
-37.756
-38.018
-38.225
-38.366
-38.433
-38.421
-38.325
-38.149
-37.893
-37.556
-37.136
-36.632
-36.043
-35.373
-34.627
-33.81
-32.932
-31.998
-31.015
-29.991
-28.93
-27.839
-26.722
-25.582
-24.423
-23.25
-22.069
-20.884
-19.702
-18.529
-17.371
-16.233
-15.121
-14.04
-12.994
-11.987
-11.022
-10.102
-9.23
-8.407
-7.636
-6.919
-6.255
-5.648
-5.097
-4.602
-4.164
-3.782
-3.455
-3.184
-2.966
-2.801
-2.687
-2.622
-2.605
-2.634
-2.708
-2.824
-2.98
-3.175
-3.405
-3.667
-3.961
-4.282
-4.627
-4.995
-5.384
-5.789
-6.211
-6.646
-7.093
-7.55
-8.014
-8.486
-8.962
-9.442
-9.924
-10.407
-10.89
-11.371
-11.851
-12.328
-12.802
-13.272
-13.737
-14.198
-14.654
-15.105
-15.55
-15.989
-16.424
-16.853
-17.277
-17.696
-18.112
-18.523
-18.931
-19.335
-19.737
-20.137
-20.534
-20.93
-21.324
-21.717
-22.108
-22.499
-22.89
-23.279
-23.668
-24.057
-24.444
-24.831
-25.218
-25.603
-25.986
-26.369
-26.749
-27.127
-27.502
-27.875
-28.244
-28.608
-28.969
-29.323
-29.672
-30.013
-30.347
-30.673
-30.989
-31.295
-31.59
-31.874
-32.145
-32.403
-32.647
-32.876
-33.089
-33.286
-33.467
-33.63
-33.775
-33.902
-34.009
-34.098
-34.166
-34.214
-34.242
-34.249
-34.235
-34.2
-34.144
-34.067
-33.969
-33.85
-33.711
-33.552
-33.373
-33.176
-32.96
-32.727
-32.478
-32.214
-31.936
-31.645
-31.342
-31.03
-30.71
-30.383
-30.052
-29.719
-29.384
-29.052
-28.723
-28.4
-28.085
-27.781
-27.49
-27.214
-26.956
-26.718
-26.503
-26.312
-26.148
-26.013
-25.91
-25.838
-25.802
-25.802
-25.839
-25.915
-26.031
-26.186
-26.382
-26.619
-26.895
-27.21
-27.564
-27.954
-28.38
-28.838
-29.326
-29.84
-30.379
-30.937
-31.51
-32.093
-32.681
-33.269
-33.85
-34.42
-34.971
-35.498
-35.994
-36.452
-36.866
-37.228
-37.533
-37.774
-37.943
-38.034
-38.041
-37.958
-37.78
-37.501
-37.117
-36.624
-36.019
-35.298
-34.46
-33.502
-32.424
-31.227
-29.91
-28.478
-26.932
-25.278
-23.523
-21.675
-19.741
-17.732
-15.657
-13.53
-11.362
-9.167
-6.959
-4.751
-2.558
-0.398
1.716
3.765
5.734
7.609
9.373
11.013
12.513
13.861
15.044
16.054
16.883
17.525
17.972
18.214
18.245
18.065
17.673
17.069
16.259
15.246
14.042
12.67
11.151
9.512
7.776
5.959
4.077
2.144
0.182
-1.778
-3.709
-5.588
-7.391
-9.102
-10.702
-12.154
-13.475
-14.727
-15.997
-17.422
-19.113
-21.116
-23.51
-26.396
-29.766
-33.557
-37.608
-41.579
-45.22
-48.404
-50.912
-52.535
-53.224
-52.968
-51.945
-50.632
-49.337
-48.235
-47.696
-48.071
-49.516
-52.112
-55.705
-59.817
-64.196
-68.737
-72.406
-73.357
-70.039
-61.03
-46.921
-30.654
-13.25
6.238
31.629
69.781
123.97
192.66
270.366
348.141
418.992
479.805
528.791
564.215
583.248
580.226
550.365
492.959
409.564
307.145
196.663
88.33
-6.541
-80.284
-132.491
-166.055
-186.942
-201.082
-209.375
-209.909
-201.892
-186.286
-166.869
-149.79
-137.817
-130.041
-125.103
-120.367
-115.146
-111.452
-110.083
-111.209
-114.348
-117.802
-120.41
-121.732
-121.437
-119.445
-115.923
-111.1
-105.294
-98.934
-92.479
-86.308
-80.803
-76.319
-72.965
-70.704
-69.431
-68.953
-69.088
-69.687
-70.56
-71.522
-72.474
-73.371
-74.202
-74.971
-75.641
-76.139
-76.408
-76.417
-76.155
-75.625
-74.83
-73.776
-72.483
-70.991
-69.347
-67.594
-65.755
-63.845
-61.877
-59.875
-57.881
-55.951
-54.13
-52.447
-50.921
-49.56
-48.368
-47.348
-46.486
-45.761
-45.145
-44.615
-44.152
-43.744
-43.377
-43.027
-42.666
-42.26
-41.779
-41.202
-40.507
-39.675
-38.69
-37.537
-36.207
-34.698
-33.007
-31.128
-29.056
-26.784
-24.309
-21.628
-18.741
-15.649
-12.354
-8.857
-5.162
-1.272
2.805
7.065
11.5
16.105
20.869
25.782
30.831
36.002
41.278
46.643
52.081
57.573
63.102
68.649
74.198
79.731
85.231
90.682
96.065
101.36
106.548
111.612
116.532
121.29
125.867
130.244
134.404
138.335
142.023
145.454
148.614
151.489
154.067
156.345
158.318
159.987
161.354
162.422
163.203
163.716
163.978
164.009
163.821
163.416
162.799
161.98
160.965
159.767
158.385
156.804
155.016
153.015
150.795
148.353
145.67
142.712
139.459
135.893
132.017
127.852
123.412
118.708
113.76
108.584
103.222
97.737
92.176
86.577
80.977
75.404
69.909
64.561
59.413
54.51
49.868
45.487
41.38
37.568
34.084
30.955
28.156
25.659
23.467
21.608
20.18
19.255
18.773
18.674
18.953
19.516
20.293
21.119
21.513
21.103
19.811
17.472
13.949
9.366
3.692
-2.514
-7.616
-10.504
-10.912
-9.736
-9.887
-14.259
-23.199
-34.291
-41.718
-37.847
