Name,Criss Capps
Date of Birth,"Feb 5, 1952"
Recorded Date,2024-02-22 22:00:37 -0400
Classification,Sinus Rhythm
Symptoms,
Software Version,1.90
Device,"Watch5,4"
Sample Rate,512.844 hertz


Lead,Lead I
Unit,µV

-34.668
-44.371
-55.484
-66.634
-76.457
-84.358
-90.473
-94.445
-95.683
-94.436
-91.035
-85.917
-79.986
-73.661
-67.011
-60.481
-54.607
-49.503
-45.217
-41.523
-37.749
-33.614
-29.109
-24.113
-18.581
-12.565
-6.13
0.47
6.79
12.579
17.737
22.196
25.983
29.107
31.561
33.405
34.744
35.655
36.189
36.38
36.239
35.801
35.129
34.273
33.281
32.186
31.007
29.763
28.471
27.143
25.784
24.399
22.995
21.583
20.177
18.791
17.44
16.13
14.868
13.658
12.505
11.414
10.39
9.44
8.569
7.785
7.095
6.503
6.013
5.626
5.34
5.155
5.069
5.08
5.184
5.377
5.659
6.026
6.476
7.004
7.606
8.279
9.018
9.819
10.677
11.588
12.55
13.557
14.609
15.701
16.834
18.004
19.211
20.453
21.731
23.045
24.393
25.779
27.201
28.662
30.163
31.707
33.294
34.929
36.611
38.345
40.13
41.97
43.866
45.82
47.833
49.906
52.041
54.239
56.501
58.827
61.216
63.669
66.183
68.756
71.385
74.068
76.8
79.575
82.388
85.232
88.101
90.986
93.879
96.769
99.648
102.502
105.322
108.093
110.8
113.429
115.963
118.389
120.69
122.85
124.853
126.685
128.334
129.786
131.031
132.053
132.841
133.379
133.657
133.666
133.398
132.846
132.004
130.873
129.46
127.772
125.815
123.591
121.095
118.325
115.293
112.009
108.488
104.755
100.836
96.766
92.601
88.389
84.175
79.997
75.876
71.838
67.923
64.174
60.651
57.407
54.469
51.863
49.616
47.711
46.123
44.792
43.609
42.494
41.376
40.168
38.804
37.197
35.23
32.826
29.862
26.156
21.645
16.331
10.329
4.025
-2.159
-7.847
-12.497
-15.533
-16.606
-15.493
-12.435
-8.346
-4.131
-0.64
1.193
0.62
-2.888
-9.571
-18.702
-28.329
-36.119
-39.507
-35.858
-22.667
2.71
42.509
98.051
168.035
248.375
334.453
421.101
505.264
588.041
668.594
742.022
799.262
823.237
797.825
717.658
584.912
413.304
224.286
31.953
-150.941
-313.921
-454.193
-563.007
-634.054
-668.141
-665.172
-636.427
-597.013
-556.978
-526.91
-505.961
-486.063
-463.025
-432.313
-396.391
-363.582
-337.316
-319.206
-308.536
-301.156
-295.123
-289.713
-283.25
-274.646
-263.341
-248.96
-231.962
-213.295
-193.627
-173.644
-154.547
-137.655
-123.852
-113.598
-106.885
-103.332
-102.602
-104.384
-108.174
-113.393
-119.619
-126.522
-133.873
-141.572
-149.485
-157.432
-165.273
-172.859
-180.001
-186.567
-192.473
-197.66
-202.137
-205.933
-209.071
-211.593
-213.547
-214.991
-216.003
-216.649
-216.976
-217.054
-216.959
-216.79
-216.668
-216.666
-216.805
-217.089
-217.494
-217.994
-218.562
-219.153
-219.706
-220.167
-220.485
-220.62
-220.539
-220.198
-219.543
-218.514
-217.043
-215.082
-212.604
-209.587
-206.02
-201.896
-197.212
-191.978
-186.214
-179.936
-173.153
-165.877
-158.112
-149.874
-141.181
-132.053
-122.515
-112.588
-102.293
-91.656
-80.699
-69.448
-57.925
-46.155
-34.159
-21.962
-9.592
2.922
15.55
28.262
41.028
53.815
66.592
79.326
91.988
104.546
116.971
129.233
141.302
153.147
164.742
176.056
187.062
197.732
208.038
217.956
227.459
236.523
245.125
253.244
260.859
267.952
274.504
280.5
285.927
290.771
295.023
298.673
301.715
304.145
305.96
307.159
307.743
307.717
307.085
305.857
304.04
301.646
298.689
295.183
291.145
286.594
281.551
276.036
270.073
263.689
256.908
249.759
242.27
234.471
226.393
218.067
209.523
200.796
191.915
182.914
173.824
164.677
155.504
146.336
137.201
128.129
119.148
110.284
101.563
93.009
84.644
76.49
68.566
60.892
53.484
46.356
39.524
32.998
26.789
20.906
15.356
10.144
5.274
0.748
-3.433
-7.271
-10.767
-13.925
-16.751
-19.251
-21.432
-23.304
-24.877
-26.16
-27.165
-27.904
-28.391
-28.638
-28.659
-28.468
-28.078
-27.505
-26.764
-25.867
-24.83
-23.668
-22.394
-21.022
-19.567
-18.042
-16.46
-14.834
-13.177
-11.499
-9.814
-8.131
-6.46
-4.812
-3.195
-1.617
-0.086
1.393
2.812
4.168
5.456
6.671
7.812
8.875
9.86
10.765
11.589
12.332
12.994
13.576
14.08
14.506
14.856
15.133
15.339
15.476
15.546
15.553
15.5
15.388
15.221
15.003
14.734
14.419
14.059
13.656
13.213
12.731
12.212
11.657
11.065
10.438
9.775
9.077
8.344
7.573
6.766
5.921
5.037
4.113
3.148
2.142
1.093
-0
-1.138
-2.321
-3.549
-4.824
-6.144
-7.509
-8.919
-10.372
-11.867
-13.401
-14.973
-16.578
-18.213
-19.873
-21.554
-23.248
-24.951
-26.654
-28.35
-30.031
-31.689
-33.314
-34.899
-36.432
-37.905
-39.308
-40.631
-41.865
-42.999
-44.023
-44.929
-45.707
-46.349
-46.845
-47.19
-47.375
-47.393
-47.24
-46.911
-46.401
-45.707
-44.826
-43.758
-42.503
-41.064
-39.443
-37.644
-35.674
-33.539
-31.25
-28.816
-26.249
-23.56
-20.765
-17.877
-14.912
-11.888
-8.823
-5.736
-2.65
0.413
3.429
6.376
9.23
11.967
14.562
16.996
19.248
21.3
23.134
24.731
26.073
27.142
27.924
28.406
28.577
28.43
27.956
27.155
26.035
24.6
22.858
20.811
18.453
15.78
12.8
9.524
5.966
2.15
-1.901
-6.152
-10.546
-15.029
-19.546
-24.044
-28.495
-32.855
-37.071
-41.086
-44.816
-48.193
-51.171
-53.71
-55.784
-57.394
-58.549
-59.297
-59.727
-59.936
-60.034
-60.139
-60.354
-60.807
-61.62
-62.948
-65.028
-68.011
-71.933
-76.713
-82.038
-87.532
-92.869
-97.57
-101.019
-102.803
-102.666
-100.748
-97.913
-95.046
-92.967
-92.629
-94.725
-99.639
-107.52
-117.575
-127.763
-135.697
-138.533
-133.247
-117.431
-88.592
-44.532
15.691
91.875
181.615
279.619
380.096
477.029
566.169
648.54
724.423
791.185
841.785
858.735
824.922
731.856
580.355
387.766
178.746
-25.251
-205.762
-353.232
-464.862
-541.211
-587.522
-610.54
-617.894
-614.404
-601.512
-580.205
-550.019
-512.858
-472.82
-432.797
-395.551
-362.825
-334.736
-310.928
-290.925
-273.809
-258.492
-244.67
-232.178
-220.376
-208.882
-197.23
-184.697
-171.346
-157.669
-143.811
-130.032
-116.815
-104.47
-93.603
-85.06
-79.062
-75.483
-74.175
-74.776
-76.984
-80.61
-85.23
-90.25
-95.293
-100.112
-104.545
-108.575
-112.09
-114.903
-116.942
-118.205
-118.73
-118.593
-117.847
-116.506
-114.609
-112.215
-109.399
-106.264
-102.887
-99.317
-95.616
-91.844
-88.09
-84.469
-81.051
-77.863
-74.912
-72.179
-69.647
-67.307
-65.127
-63.062
-61.071
-59.111
-57.15
-55.169
-53.141
-51.029
-48.787
-46.359
-43.707
-40.811
-37.653
-34.225
-30.52
-26.534
-22.273
-17.752
-12.981
-7.969
-2.716
2.776
8.503
14.458
20.629
27.008
33.582
40.345
47.286
54.394
61.66
69.074
76.628
84.315
92.126
100.048
108.068
116.17
124.34
132.561
140.815
149.084
157.347
165.586
173.781
181.912
189.957
197.894
205.701
213.356
220.835
228.113
235.166
241.969
248.496
254.721
260.621
266.168
271.34
276.11
280.456
284.355
287.786
290.727
293.16
295.066
296.429
297.233
297.468
297.121
296.185
294.652
292.521
289.788
286.457
282.531
278.016
272.922
267.26
261.045
254.294
247.027
239.265
231.034
222.361
213.276
203.809
193.995
183.868
173.465
162.824
151.983
140.982
129.861
118.66
107.419
96.178
84.978
73.856
62.851
52
41.339
30.902
20.721
10.826
1.246
-7.994
-16.869
-25.358
-33.444
-41.109
-48.341
-55.128
-61.465
-67.344
-72.765
-77.727
-82.235
-86.292
-89.909
-93.094
-95.861
-98.224
-100.198
-101.802
-103.054
-103.974
-104.584
-104.906
-104.962
-104.776
-104.371
-103.77
-102.997
-102.075
-101.028
-99.878
-98.646
-97.354
-96.021
-94.667
-93.31
-91.966
-90.651
-89.379
-88.161
-87.011
-85.936
-84.945
-84.045
-83.24
-82.533
-81.928
-81.425
-81.023
-80.722
-80.519
-80.411
-80.395
-80.465
-80.617
-80.844
-81.142
-81.502
-81.92
-82.386
-82.896
-83.441
-84.015
-84.61
-85.22
-85.839
-86.458
-87.073
-87.679
-88.268
-88.838
-89.383
-89.9
-90.386
-90.839
-91.257
-91.64
-91.988
-92.3
-92.578
-92.823
-93.038
-93.225
-93.387
-93.527
-93.648
-93.754
-93.848
-93.934
-94.017
-94.1
-94.186
-94.28
-94.385
-94.505
-94.645
-94.807
-94.995
-95.213
-95.464
-95.75
-96.076
-96.443
-96.853
-97.309
-97.811
-98.361
-98.959
-99.604
-100.296
-101.034
-101.815
-102.637
-103.497
-104.391
-105.316
-106.266
-107.236
-108.222
-109.218
-110.218
-111.217
-112.208
-113.185
-114.141
-115.07
-115.966
-116.822
-117.631
-118.385
-119.079
-119.705
-120.257
-120.73
-121.117
-121.412
-121.609
-121.705
-121.695
-121.576
-121.343
-120.994
-120.529
-119.946
-119.246
-118.43
-117.5
-116.46
-115.314
-114.066
-112.725
-111.296
-109.788
-108.209
-106.569
-104.879
-103.151
-101.396
-99.628
-97.861
-96.111
-94.395
-92.73
-91.134
-89.623
-88.214
-86.923
-85.767
-84.761
-83.919
-83.254
-82.778
-82.505
-82.448
-82.619
-83.024
-83.668
-84.555
-85.684
-87.053
-88.653
-90.476
-92.515
-94.761
-97.212
-99.857
-102.684
-105.675
-108.815
-112.073
-115.421
-118.818
-122.215
-125.569
-128.842
-131.997
-135.011
-137.842
-140.437
-142.755
-144.75
-146.393
-147.686
-148.594
-149.061
-149.096
-148.723
-148.007
-147.086
-145.997
-144.7
-143.309
-142.017
-141.055
-140.727
-141.107
-142.063
-143.68
-146.13
-149.283
-152.743
-155.747
-157.276
-156.872
-154.552
-150.059
-143.137
-133.952
-123.212
-112.491
-103.836
-98.46
-96.812
-99.493
-106.806
-118.387
-132.941
-147.515
-158.248
-161.86
-155.35
-135.474
-99.614
-45.664
26.242
112.329
207.957
308.059
409.096
509.916
607.303
695.585
765.075
803.141
799.021
745.099
640.885
491.235
306.056
102.526
-101.174
-284.381
-429.017
-529.558
-588.375
-616.75
-630.11
-635.655
-634.832
-624.765
-600.593
-563.032
-516.545
-466.456
-417.749
-372.601
-331.887
-296.239
-265.686
-240.362
-219.775
-202.716
-188.584
-176.847
-166.448
-156.559
-146.273
-134.59
-121.424
-107.226
-92.212
-76.76
-61.48
-46.83
-33.519
-22.386
-13.642
-7.141
-2.692
0.034
1.325
1.396
0.668
-0.301
-1.179
-1.775
-1.993
-1.829
-1.191
0.02
1.808
4.094
6.776
9.759
12.98
16.427
20.069
23.853
27.715
31.578
35.393
39.118
42.71
46.103
49.2
51.937
54.29
56.27
57.912
59.251
60.318
61.147
61.791
62.297
62.714
63.082
63.429
63.789
64.203
64.724
65.416
66.33
67.498
68.946
70.691
72.749
75.133
77.847
80.883
84.236
87.905
91.892
96.203
100.838
105.791
111.054
116.617
122.47
128.604
135.006
141.663
148.562
155.689
163.033
170.58
178.318
186.228
194.293
202.492
210.804
219.207
227.68
236.196
244.733
253.264
261.767
270.217
278.589
286.858
294.998
302.984
310.791
318.394
325.768
332.887
339.726
346.261
352.469
358.326
363.81
368.901
373.577
377.819
381.611
384.934
387.774
390.117
391.951
393.266
394.054
394.307
394.023
393.198
391.832
389.928
387.491
384.526
381.043
377.052
372.567
367.602
362.176
356.309
350.02
343.336
336.279
328.878
321.161
313.158
304.899
296.417
287.744
278.914
269.962
260.921
251.826
242.711
233.611
224.558
215.586
206.725
198.007
189.461
181.115
172.996
165.129
157.537
150.241
143.262
136.615
130.316
124.378
118.81
113.622
108.819
104.404
100.38
96.745
93.497
90.632
88.143
86.022
84.258
82.842
81.758
80.994
80.534
80.36
80.457
80.806
81.388
82.186
83.179
84.349
85.677
87.141
88.725
90.407
92.171
93.997
95.867
97.766
99.678
101.587
103.479
105.343
107.165
108.935
110.643
112.28
113.838
115.31
116.689
117.971
119.152
120.228
121.197
122.057
122.808
123.448
123.978
124.4
124.712
124.919
125.021
125.02
124.921
124.726
124.44
124.066
123.609
123.074
122.466
121.789
121.049
120.249
119.396
118.493
117.544
116.555
115.529
114.472
113.386
112.277
111.148
110.003
108.846
107.68
106.509
105.336
104.165
103
101.843
100.7
99.573
98.466
97.382
96.326
95.299
94.304
93.345
92.422
91.537
90.692
89.888
89.126
88.407
87.733
87.104
86.52
85.982
85.49
85.045
84.646
84.295
83.989
83.729
83.516
83.347
83.222
83.141
83.103
83.104
83.145
83.223
83.336
83.48
83.654
83.855
84.08
84.328
84.597
84.884
85.188
85.509
85.846
86.198
86.564
86.944
87.337
87.741
88.158
88.586
89.025
89.474
89.933
90.402
90.88
91.366
91.861
92.364
92.872
93.387
93.908
94.434
94.965
95.5
96.038
96.579
97.123
97.667
98.209
98.747
99.276
99.792
100.29
100.761
101.198
101.594
101.939
102.225
102.444
102.588
102.648
102.617
102.487
102.251
101.901
101.43
100.83
100.094
99.215
98.187
97.007
95.673
94.185
92.549
90.767
88.844
86.779
84.572
82.229
79.759
77.176
74.491
71.723
68.896
66.049
63.231
60.482
57.838
55.324
52.958
50.763
48.775
47.034
45.568
44.4
43.53
42.957
42.715
42.818
43.234
43.899
44.698
45.509
46.312
47.124
47.824
48.3
48.406
47.94
46.928
45.486
43.508
40.861
37.679
34.12
30.663
28.127
26.828
26.881
28.666
32.498
38.393
46.274
55.312
63.978
71.316
76.712
79.62
79.583
76.244
69.655
61.019
53.842
52.724
60.943
80.068
107.767
139.363
173.789
213.496
266.069
339.935
436.503
550.207
667.194
772.064
851.595
895.35
898.553
855.926
767.2
636.954
469.767
278.794
78.194
-118.015
-289.267
-421.349
-508.633
-551.771
-563.934
-560.85
-550.397
-536.165
-516.43
-486.611
-447.785
-404.058
-359.289
-318.167
-283.28
-254.913
-232.982
-216.583
-204.235
-194.698
-187.265
-181.05
-174.793
-167.331
-157.515
-144.854
-129.818
-113.077
-95.138
-76.636
-58.345
-41.15
-26.159
-14.055
-4.878
1.531
5.489
7.367
7.413
5.966
3.507
0.358
-3.276
-7.252
-11.567
-16.202
-21.048
-26.02
-31.016
-35.892
-40.591
-45.084
-49.345
-53.396
-57.238
-60.856
-64.273
-67.521
-70.641
-73.676
-76.643
-79.541
-82.408
-85.3
-88.291
-91.476
-94.891
-98.537
-102.405
-106.467
-110.694
-115.06
-119.517
-124
-128.456
-132.836
-137.102
-141.232
-145.183
-148.903
-152.332
-155.404
-158.07
-160.301
-162.067
-163.346
-164.124
-164.389
-164.141
-163.391
-162.149
-160.419
-158.202
-155.494
-152.292
-148.606
-144.453
-139.86
-134.854
-129.471
-123.751
-117.747
-111.521
-105.134
-98.64
-92.086
-85.508
-78.945
-72.427
-65.991
-59.677
-53.503
-47.472
-41.575
-35.791
-30.093
-24.454
-18.825
-13.134
-7.324
-1.356
4.789
11.101
17.552
24.097
30.678
37.228
43.645
49.796
55.524
60.656
65.023
68.468
70.813
71.865
71.453
69.438
65.716
60.231
52.952
43.88
33.042
20.491
6.328
-9.308
-26.243
-44.276
-63.218
-82.894
-103.117
-123.685
-144.416
-165.146
-185.744
-206.112
-226.167
-245.837
-265.07
-283.831
-302.114
-319.94
-337.346
-354.391
-371.113
-387.532
-403.669
-419.546
-435.17
-450.54
-465.635
-480.414
-494.838
-508.868
-522.463
-535.577
-548.155
-560.134
-571.449
-582.029
-591.822
-600.785
-608.885
-616.095
-622.399
-627.787
-632.261
-635.837
-638.529
-640.349
-641.315
-641.445
-640.763
-639.299
-637.084
-634.152
-630.538
-626.277
-621.404
-615.955
-609.967
-603.475
-596.515
-589.122
-581.334
-573.189
-564.729
-555.994
-547.025
-537.863
-528.547
-519.119
-509.615
-500.073
-490.528
-481.011
-471.554
-462.187
-452.938
-443.831
-434.891
-426.14
-417.596
-409.278
-401.201
-393.378
-385.82
-378.537
-371.535
-364.82
-358.393
-352.257
-346.411
-340.852
-335.576
-330.576
-325.846
-321.376
-317.155
-313.173
-309.415
-305.87
-302.521
-299.353
-296.352
-293.501
-290.784
-288.186
-285.69
-283.283
-280.948
-278.671
-276.438
-274.236
-272.051
-269.872
-267.688
-265.487
-263.26
-260.999
-258.695
-256.342
-253.935
-251.468
-248.938
-246.341
-243.675
-240.94
-238.133
-235.255
-232.307
-229.29
-226.205
-223.054
-219.839
-216.565
-213.232
-209.844
-206.405
-202.917
-199.383
-195.804
-192.185
-188.525
-184.827
-181.091
-177.319
-173.51
-169.664
-165.781
-161.858
-157.895
-153.888
-149.834
-145.73
-141.573
-137.357
-133.077
-128.73
-124.31
-119.813
-115.234
-110.567
-105.81
-100.957
-96.005
-90.949
-85.786
-80.512
-75.125
-69.623
-64.005
-58.269
-52.416
-46.447
-40.363
-34.168
-27.864
-21.456
-14.947
-8.345
-1.655
5.113
11.948
18.841
25.78
32.757
39.759
46.773
53.785
60.781
67.746
74.665
81.522
88.296
94.966
101.514
107.921
114.174
120.258
126.153
131.832
137.267
142.433
147.304
151.856
156.066
159.908
163.362
166.416
169.065
171.31
173.143
174.555
175.526
176.037
176.083
175.675
174.845
173.628
172.05
170.118
167.828
165.188
162.214
158.932
155.326
151.329
146.94
142.274
137.567
133.081
128.916
124.949
121.021
117.132
113.238
109.114
104.282
98.149
90.543
81.92
73.002
64.258
56.048
48.792
43.171
40.086
39.907
42.146
45.83
50.163
54.586
58.642
61.715
62.942
61.76
58.175
52.687
45.821
37.985
29.664
21.394
13.816
7.597
3.271
1.033
0.963
2.829
5.729
8.789
11.33
12.46
11.453
7.855
1.083
-7.277
-13.105
-13.106
-3.973
14.149
36.443
62.477
94.226
137.962
206.601
304.704
431.013
579.174
731.502
873.79
992.266
1070.881
1102.981
1084.436
1016.716
911.114
776.519
619.494
447.059
264.077
81.246
-83.587
-217.229
-312.491
-371.726
-407.945
-430.811
-444.711
-449.354
-439.36
-413.865
-376.342
-331.443
-285.194
-240.67
-198.818
-161.032
-128.053
-100.31
-77.913
-59.944
-45.26
-33.327
-23.411
-14.273
-4.655
6.693
20.311
35.811
52.567
70.05
87.603
104.398
119.483
131.766
140.672
146.259
148.782
148.647
146.277
142.023
136.361
129.924
123.181
116.42
109.852
103.572
97.712
92.498
88.061
84.447
81.674
79.701
78.493
78.036
78.283
79.166
80.617
82.541
84.843
87.456
90.291
93.256
96.248
99.132
101.811
104.237
106.39
108.283
109.938
111.373
112.626
113.751
114.797
115.813
116.841
117.906
119.049
120.315
121.759
123.445
125.422
127.717
130.35
133.332
136.669
140.362
144.405
148.778
153.467
158.462
163.756
169.346
175.226
181.381
187.796
194.455
201.342
208.443
215.742
223.221
230.866
238.659
246.587
254.635
262.789
271.03
279.337
287.69
296.067
304.449
312.812
321.135
329.393
337.566
345.633
353.572
361.363
368.983
376.41
383.625
390.605
397.331
403.781
409.935
415.772
421.274
426.422
431.199
435.587
439.572
443.139
446.276
448.971
451.215
452.999
454.318
455.167
455.543
455.446
454.875
453.833
452.326
450.358
447.939
445.077
441.786
438.076
433.964
429.466
424.6
419.384
413.841
407.991
401.859
395.469
388.847
382.018
375.01
367.851
360.567
353.187
345.737
338.245
330.737
323.238
315.772
308.363
301.032
293.8
286.684
279.703
272.872
266.204
259.713
253.407
247.297
241.388
235.685
230.192
224.911
219.84
214.98
210.326
205.874
201.619
197.554
193.67
189.96
186.411
183.016
179.761
176.636
173.628
170.726
167.919
165.195
162.544
159.956
157.421
154.932
152.482
150.063
147.672
145.303
142.954
140.622
138.308
136.011
133.733
131.475
129.241
127.036
124.862
122.726
120.633
118.588
116.599
114.67
112.809
111.023
109.317
107.699
106.173
104.748
103.427
102.215
101.117
100.136
99.274
98.533
97.913
97.413
97.033
96.769
96.619
96.577
96.638
96.795
97.041
97.367
97.765
98.225
98.737
99.291
99.876
100.481
101.096
101.711
102.315
102.897
103.449
103.961
104.423
104.828
105.168
105.435
105.624
105.727
105.74
105.659
105.481
105.201
104.819
104.333
103.742
103.046
102.247
101.345
100.344
99.246
98.054
96.773
95.407
93.96
92.436
90.842
89.18
87.457
85.676
83.842
81.958
80.029
78.057
76.046
73.998
71.915
69.798
67.649
65.468
63.256
61.013
58.74
56.435
54.1
51.733
49.335
46.904
44.441
41.945
39.417
36.855
34.261
31.634
28.977
26.289
23.572
20.83
18.065
15.28
12.48
9.67
6.854
4.039
1.232
-1.56
-4.33
-7.069
-9.768
-12.418
-15.009
-17.531
-19.975
-22.33
-24.589
-26.74
-28.776
-30.688
-32.469
-34.112
-35.61
-36.958
-38.153
-39.191
-40.07
-40.791
-41.357
-41.771
-42.035
-42.151
-42.127
-41.974
-41.71
-41.347
-40.891
-40.366
-39.809
-39.256
-38.743
-38.296
-37.908
-37.598
-37.421
-37.379
-37.435
-37.569
-37.751
-38.001
-38.423
-39.066
-39.867
-40.931
-42.585
-44.911
-47.827
-51.389
-55.289
-60.141
-67.891
-78.158
-89.152
-97.967
-99.088
-92.733
-84.403
-79.543
-85.908
-104.07
-126.594
-147.71
-161.23
-165.925
-167.256
-168.588
-172.17
-178.707
-185.921
-192.75
-199.288
-205.502
-211.825
-218.449
-225.161
-231.935
-238.888
-246.1
-253.657
-261.71
-270.37
-279.748
-290.032
-301.266
-313.392
-326.281
-339.544
-352.653
-365.135
-376.456
-386.006
-393.422
-398.434
-401.021
-401.855
-401.762
-401.404
-401.367
-402.321
-404.894
-409.316
-415.38
-420.697
-421.132
-414.661
-400.443
-379.46
-355.272
-325.066
-281.62
-218.683
-130.015
-20.926
94.705
204.853
300.07
381.198
451.699
508.605
541.417
531.861
468.842
353.011
195.623
16.401
-171.305
-360.098
-542.677
-712.356
-855.554
-955.913
-1004.485
-998.847
-948.977
-874.431
-795.322
-731.772
-692.427
-674.363
-668.535
-659.725
-640.586
-612.022
-578.065
-547.309
-523.563
-505.361
-491.123
-477.913
-463.792
-449.007
-433.558
-417.179
-400.257
-383.213
-366.227
-349.702
-334.105
-319.636
-306.763
-296.202
-288.091
-282.277
-278.566
-276.538
-275.883
-276.421
-277.783
-279.456
-281.041
-282.233
-282.827
-282.734
-281.862
-280.112
-277.456
-273.93
-269.617
-264.609
-259.003
-252.88
-246.304
-239.354
-232.112
-224.666
-217.132
-209.623
-202.242
-195.104
-188.296
-181.873
-175.875
-170.309
-165.152
-160.377
-155.945
-151.8
-147.903
-144.213
-140.691
-137.302
-134.004
-130.745
-127.475
-124.133
-120.669
-117.047
-113.235
-109.211
-104.963
-100.477
-95.752
-90.79
-85.592
-80.156
-74.477
-68.547
-62.36
-55.917
-49.216
-42.262
-35.057
-27.603
-19.904
-11.965
-3.791
4.612
13.239
22.085
31.142
40.399
49.841
59.454
69.22
79.121
89.136
99.245
109.423
119.648
129.896
140.143
150.365
160.535
170.626
180.611
190.461
200.15
209.648
218.926
227.955
236.706
245.15
253.259
261.006
268.362
275.301
281.799
287.83
293.371
298.402
302.901
306.85
310.233
313.036
315.246
316.855
317.854
318.24
318.009
317.162
315.701
313.63
310.958
307.692
303.846
299.433
294.472
288.98
282.981
276.496
269.552
262.176
254.397
246.245
237.751
228.95
219.874
210.559
201.04
191.353
181.535
171.623
161.652
151.659
141.679
131.745
121.892
112.151
102.554
93.129
83.905
74.908
66.163
57.691
49.514
41.65
34.115
26.922
20.085
13.611
7.509
1.785
-3.559
-8.52
-13.099
-17.298
-21.122
-24.575
-27.665
-30.4
-32.791
-34.848
-36.585
-38.014
-39.149
-40.004
-40.595
-40.939
-41.052
-40.952
-40.655
-40.174
-39.525
-38.723
-37.783
-36.719
-35.545
-34.273
-32.916
-31.489
-30.007
-28.482
-26.923
-25.336
-23.724
-22.094
-20.458
-18.828
-17.214
-15.625
-14.068
-12.549
-11.079
-9.662
-8.301
-6.989
-5.719
-4.484
-3.286
-2.135
-1.043
-0.013
0.967
1.927
2.903
3.911
4.942
5.977
7.006
8.036
9.09
10.151
11.14
12.032
12.91
13.976
15.454
17.402
19.643
21.938
24.208
26.358
28.127
28.992
28.312
25.817
21.834
17.012
11.778
6.426
1.34
-2.82
-5.163
-5.223
-3.325
-0.33
3.092
6.539
9.686
12.083
13.028
12.069
9.379
5.604
1.303
-3.22
-7.819
-12.386
-16.638
-20.332
-23.494
-26.377
-29.223
-32.152
-35.165
-38.191
-41.225
-44.303
-47.42
-50.531
-53.583
-56.537
-59.395
-62.188
-64.936
-67.642
-70.297
-72.882
-75.384
-77.799
-80.12
-82.344
-84.463
-86.471
-88.359
-90.122
-91.754
-93.249
-94.6
-95.799
-96.836
-97.708
-98.412
-98.951
-99.327
-99.541
-99.593
-99.485
-99.218
-98.794
-98.216
-97.486
-96.609
-95.588
-94.43
-93.138
-91.723
-90.19
-88.548
-86.805
-84.972
-83.056
-81.069
-79.021
-76.926
-74.795
-72.641
-70.478
-68.323
-66.191
-64.101
-62.07
-60.115
-58.255
-56.506
-54.886
-53.41
-52.091
-50.941
-49.969
-49.188
-48.611
-48.248
-48.109
-48.202
-48.532
-49.105
-49.925
-50.99
-52.288
-53.811
-55.549
-57.494
-59.652
-62.019
-64.584
-67.341
-70.275
-73.363
-76.583
-79.895
-83.243
-86.574
-89.836
-92.981
-95.982
-98.799
-101.388
-103.704
-105.686
-107.288
-108.485
-109.235
-109.508
-109.321
-108.696
-107.704
-106.462
-105.049
-103.554
-102.095
-100.761
-99.689
-99.025
-98.844
-99.276
-100.486
-102.539
-105.454
-109.101
-113.03
-116.739
-119.808
-121.675
-121.774
-119.728
-115.313
-108.853
-101.364
-94.077
-87.966
-83.87
-82.797
-85.299
-91.249
-99.788
-107.623
-110.702
-107.025
-94.076
-71.155
-38.396
8.893
73.26
155.314
253.456
357.789
458.665
549.557
627.684
694.484
748.691
783.622
784.37
735.835
630.594
468.344
264.576
43.86
-170.626
-352.806
-486.547
-571.076
-611.141
-621.782
-619.829
-610.991
-596.895
-575.315
-541.381
-496.849
-446.813
-395.567
-348.052
-307.145
-273.348
-246.858
-227.033
-212.413
-201.576
-193.603
-187.416
-181.6
-174.862
-165.944
-154.323
-140.469
-125.127
-108.923
-92.547
-76.795
-62.544
-50.82
-42.182
-36.564
-33.687
-33.137
-34.471
-37.308
-41.173
-45.458
-49.68
-53.545
-56.833
-59.429
-61.267
-62.254
-62.361
-61.635
-60.12
-57.879
-54.987
-51.508
-47.517
-43.102
-38.341
-33.316
-28.143
-22.929
-17.792
-12.86
-8.213
-3.907
0.018
3.553
6.713
9.516
12.004
14.229
16.235
18.063
19.749
21.324
22.829
24.312
25.825
27.428
29.167
31.074
33.18
35.503
38.054
40.842
43.867
47.12
50.597
54.299
58.227
62.386
66.778
71.403
76.258
81.337
86.637
92.153
97.883
103.821
109.962
116.302
122.839
129.57
136.492
143.597
150.878
158.324
165.925
173.669
181.543
189.533
197.622
205.796
214.038
222.33
230.656
238.996
247.33
255.637
263.896
272.084
280.178
288.154
295.988
303.654
311.126
318.38
325.39
332.129
338.571
344.691
350.464
355.865
360.87
365.454
369.595
373.271
376.461
379.146
381.308
382.932
384.003
384.51
384.443
383.795
382.562
380.74
378.331
375.336
371.762
367.616
362.91
357.657
351.872
345.575
338.788
331.532
323.835
315.725
307.23
298.383
289.218
279.768
270.071
260.163
250.082
239.867
229.558
219.194
208.814
198.458
188.165
177.972
167.915
158.031
148.353
138.912
129.74
120.863
112.307
104.096
96.25
88.787
81.723
75.072
68.842
63.044
57.681
52.757
48.272
44.223
40.606
37.414
34.638
32.267
30.289
28.688
27.447
26.55
25.976
25.705
25.714
25.981
26.483
27.195
28.094
29.156
30.357
31.674
33.085
34.567
36.1
37.664
39.24
40.81
42.359
43.869
45.329
46.724
48.043
49.277
50.416
51.453
52.381
53.195
53.891
54.466
54.918
55.247
55.452
55.536
55.5
55.348
55.085
54.715
54.244
53.68
53.029
52.297
51.492
50.622
49.693
48.713
47.687
46.623
45.525
44.4
43.254
42.09
40.913
39.728
38.537
37.345
36.153
34.965
33.783
32.608
31.444
30.291
29.151
28.026
26.916
25.822
24.744
23.682
22.635
21.603
20.584
19.577
18.581
17.593
16.613
15.64
14.671
13.708
12.748
11.793
10.841
9.895
8.954
8.02
7.094
6.179
5.275
4.387
3.517
2.667
1.841
1.04
0.27
-0.469
-1.172
-1.837
-2.46
-3.038
-3.568
-4.045
-4.465
-4.824
-5.117
-5.34
-5.487
-5.553
-5.534
-5.426
-5.225
-4.926
-4.527
-4.023
-3.414
-2.695
-1.867
-0.926
0.127
1.294
2.574
3.965
5.467
7.077
8.793
10.613
12.532
14.547
16.654
18.849
21.126
23.48
25.903
28.387
30.926
33.508
36.124
38.761
41.409
44.053
46.682
49.281
51.839
54.339
56.768
59.112
61.355
63.484
65.48
67.327
69.007
70.502
71.798
72.877
73.724
74.326
74.67
74.75
74.559
74.088
73.331
72.279
70.929
69.279
67.331
65.085
62.544
59.718
56.62
53.272
49.693
45.899
41.899
37.696
33.298
28.723
23.99
19.12
14.136
9.07
3.969
-1.106
-6.092
-10.935
-15.594
-20.03
-24.197
-28.044
-31.502
-34.506
-37.005
-38.956
-40.333
-41.121
-41.325
-40.971
-40.121
-38.877
-37.357
-35.691
-34.005
-32.439
-31.117
-30.195
-29.906
-30.386
-31.687
-33.744
-36.257
-38.871
-41.259
-42.965
-43.405
-42.171
-39.007
-34.05
-28.16
-22.276
-17.314
-14.351
-14.271
-17.67
-24.826
-35.04
-46.257
-55.952
-61.19
-58.723
-45.541
-18.642
24.522
85.43
163.027
253.433
351.666
451.835
549.673
645.063
737.13
820.911
887.556
920.698
903.084
827.967
696.519
518.943
314.597
100.364
-107.197
-288.442
-430.297
-527.35
-581.616
-605.725
-613.217
-607.276
-585.286
-544.393
-484.765
-418.194
-360.846
-320.764
-298.389
-285.612
-271.853
-253.036
-230.577
-209.13
-192.496
-181.282
-173.599
-166.185
-157.075
-145.628
-132.004
-117.195
-101.943
-86.523
-71.427
-57.321
-44.864
-34.904
-27.862
-23.56
-21.731
-22.018
-24.035
-27.501
-32.044
-37.114
-42.299
-47.377
-52.184
-56.681
-60.806
-64.39
-67.346
-69.675
-71.397
-72.591
-73.325
-73.633
-73.568
-73.201
-72.594
-71.832
-70.998
-70.14
-69.316
-68.582
-68.002
-67.676
-67.671
-68.011
-68.693
-69.686
-70.954
-72.469
-74.188
-76.054
-78.014
-80.015
-82.012
-83.977
-85.872
-87.651
-89.261
-90.636
-91.723
-92.49
-92.908
-92.959
-92.626
-91.898
-90.769
-89.247
-87.338
-85.042
-82.358
-79.28
-75.81
-71.953
-67.718
-63.115
-58.157
-52.853
-47.216
-41.26
-35.001
-28.451
-21.625
-14.535
-7.197
0.372
8.15
16.115
24.246
32.517
40.905
49.381
57.921
66.496
75.081
83.647
92.168
100.614
108.959
117.172
125.225
133.088
140.73
148.127
155.252
162.078
168.578
174.721
180.481
185.843
190.777
195.243
199.205
202.628
205.49
207.799
209.543
210.68
211.216
211.2
210.67
209.67
208.205
206.196
203.62
200.562
196.947
192.487
187.126
180.968
173.988
166.518
158.01
146.648
132.814
118.24
105.706
100.472
102.359
106.126
106.59
96.37
74.888
49.23
24.893
7.765
-0.974
-6.541
-12.161
-19.978
-30.664
-42.04
-53.066
-63.785
-74.082
-84.243
-94.324
-104.004
-113.165
-121.832
-129.973
-137.556
-144.573
-151.02
-156.914
-162.292
-167.164
-171.504
-175.302
-178.563
-181.291
-183.495
-185.184
-186.364
-187.048
-187.256
-187.01
-186.331
-185.244
-183.772
-181.944
-179.786
-177.329
-174.604
-171.64
-168.47
-165.124
-161.635
-158.033
-154.35
-150.614
-146.855
-143.101
-139.379
-135.716
-132.135
-128.661
-125.315
-122.117
-119.086
-116.24
-113.593
-111.158
-108.946
-106.967
-105.227
-103.732
-102.484
-101.485
-100.733
-100.226
-99.957
-99.921
-100.109
-100.511
-101.114
-101.907
-102.874
-104.002
-105.275
-106.678
-108.194
-109.807
-111.501
-113.26
-115.069
-116.911
-118.772
-120.637
-122.491
-124.322
-126.116
-127.862
-129.549
-131.168
-132.708
-134.162
-135.525
-136.789
-137.951
-139.008
-139.958
-140.801
-141.537
-142.168
-142.698
-143.133
-143.476
-143.736
-143.92
-144.035
-144.09
-144.094
-144.055
-143.983
-143.885
-143.77
-143.647
-143.523
-143.406
-143.302
-143.219
-143.162
-143.136
-143.145
-143.193
-143.283
-143.417
-143.597
-143.823
-144.095
-144.414
-144.777
-145.182
-145.627
-146.107
-146.616
-147.15
-147.702
-148.264
-148.828
-149.385
-149.926
-150.443
-150.926
-151.366
-151.753
-152.079
-152.335
-152.512
-152.603
-152.599
-152.494
-152.281
-151.952
-151.505
-150.934
-150.236
-149.407
-148.446
-147.351
-146.119
-144.753
-143.25
-141.611
-139.838
-137.932
-135.896
-133.734
-131.451
-129.05
-126.54
-123.925
-121.215
-118.419
-115.543
-112.599
-109.595
-106.542
-103.452
-100.335
-97.203
-94.068
-90.944
-87.845
-84.787
-81.785
-78.853
-76.004
-73.254
-70.615
-68.099
-65.715
-63.471
-61.375
-59.438
-57.67
-56.083
-54.681
-53.473
-52.462
-51.653
-51.052
-50.656
-50.455
-50.441
-50.609
-50.959
-51.504
-52.248
-53.184
-54.305
-55.597
-57.042
-58.623
-60.302
-62.025
-63.743
-65.407
-66.979
-68.445
-69.769
-70.91
-71.819
-72.424
-72.68
-72.571
-72.069
-71.168
-69.888
-68.264
-66.371
-64.337
-62.265
-60.269
-58.472
-56.967
-55.893
-55.376
-55.561
-56.668
-58.806
-61.965
-66.038
-70.701
-75.551
-80.247
-84.293
-87.045
-88.118
-87.29
-84.727
-81.28
-77.769
-74.921
-73.574
-74.339
-77.589
-83.449
-91.096
-98.556
-103.628
-103.713
-96.129
-78.808
-49.446
-5.993
52.248
125.017
209.992
301.904
395.349
484.794
566.262
640.779
708.311
765.792
806.413
814.343
774.346
678.838
527.68
335.493
124.66
-83.078
-266.64
-413.742
-519.853
-586.059
-617.82
-619.675
-598.556
-560.607
-514.552
-473.972
-445.173
-429.964
-423.758
-414.066
-395.258
-367.776
-335.1
-304.765
-280.001
-259.742
-242.452
-225.755
-208.258
-189.533
-169.444
-148.354
-126.818
-105.58
-85.288
-66.296
-49.156
-34.717
-23.492
-15.699
-11.282
-9.779
-10.734
-13.783
-18.42
-24.051
-30.207
-36.455
-42.414
-47.846
-52.5
-56.169
-58.767
-60.247
-60.596
-59.839
-58.019
-55.211
-51.538
-47.141
-42.158
-36.718
-30.936
-24.95
-18.927
-13.032
-7.427
-2.221
2.529
6.775
10.493
13.684
16.366
18.587
20.413
21.904
23.11
24.082
24.862
25.504
26.075
26.639
27.264
28.004
28.893
29.963
31.239
32.737
34.467
36.431
38.62
41.035
43.679
46.558
49.68
53.048
56.664
60.527
64.639
68.997
73.604
78.457
83.558
88.904
94.495
100.332
106.413
112.737
119.297
126.085
133.09
140.302
147.708
155.294
163.045
170.943
178.972
187.114
195.35
203.658
212.018
220.406
228.797
237.167
245.489
253.736
261.881
269.895
277.749
285.414
292.862
300.062
306.986
313.605
319.89
325.812
331.346
336.464
341.142
345.355
349.081
352.299
354.99
357.138
358.726
359.741
360.174
360.016
359.262
357.907
355.952
353.399
350.254
346.525
342.222
337.361
331.958
326.032
319.605
312.702
305.348
297.574
289.408
280.885
272.038
262.902
253.516
243.915
234.141
224.23
214.224
204.162
194.082
184.023
174.025
164.124
154.355
144.756
135.358
126.193
117.291
108.679
100.383
92.425
84.824
77.599
70.765
64.332
58.311
52.709
47.529
42.774
38.444
34.534
31.041
27.956
25.269
22.97
21.044
19.477
18.252
17.351
16.754
16.442
16.394
16.587
17
17.61
18.394
19.33
20.395
21.566
22.823
24.143
25.508
26.897
28.293
29.678
31.037
32.356
33.621
34.82
35.941
36.976
37.915
38.752
39.48
40.093
40.59
40.965
41.218
41.348
41.355
41.24
41.005
40.652
40.185
39.608
38.925
38.142
37.262
36.293
35.24
34.11
32.908
31.643
30.319
28.943
27.522
26.061
24.567
23.045
21.5
19.938
18.363
16.781
15.196
13.613
12.034
10.465
8.91
7.37
5.851
4.354
2.883
1.439
0.026
-1.355
-2.702
-4.012
-5.285
-6.519
-7.714
-8.867
-9.978
-11.048
-12.075
-13.06
-14.004
-14.905
-15.766
-16.586
-17.366
-18.108
-18.811
-19.478
-20.109
-20.706
-21.269
-21.801
-22.303
-22.775
-23.221
-23.64
-24.036
-24.409
-24.76
-25.092
-25.405
-25.702
-25.982
-26.248
-26.501
-26.741
-26.97
-27.188
-27.396
-27.594
-27.783
-27.961
-28.128
-28.283
-28.425
-28.553
-28.663
-28.755
-28.825
-28.871
-28.89
-28.881
-28.84
-28.764
-28.651
-28.499
-28.303
-28.064
-27.777
-27.44
-27.052
-26.611
-26.116
-25.567
-24.962
-24.301
-23.583
-22.811
-21.984
-21.104
-20.175
-19.197
-18.175
-17.114
-16.019
-14.898
-13.756
-12.604
-11.452
-10.31
-9.192
-8.109
-7.075
-6.101
-5.201
-4.389
-3.674
-3.068
-2.582
-2.225
-2.011
-1.951
-2.056
-2.336
-2.799
-3.454
-4.308
-5.364
-6.621
-8.075
-9.727
-11.574
-13.626
-15.885
-18.346
-21.001
-23.84
-26.845
-29.99
-33.243
-36.552
-39.869
-43.149
-46.353
-49.456
-52.429
-55.232
-57.82
-60.144
-62.159
-63.846
-65.19
-66.166
-66.779
-67.067
-67.102
-67.007
-66.898
-66.842
-66.918
-67.209
-67.806
-68.85
-70.458
-72.68
-75.601
-79.322
-83.872
-89.255
-95.303
-101.552
-107.539
-112.876
-117.076
-119.665
-120.317
-118.765
-115.153
-110.283
-104.888
-99.387
-94.534
-91.217
-89.786
-90.588
-92.452
-91.833
-86.973
-77.542
-63.929
-48.895
-30.214
-0.758
45.863
115.755
205.843
304.463
400.561
484.425
555.1
617.695
672.759
715.732
734.592
712.544
638.809
511.691
336.044
127.547
-91.792
-301.296
-477.213
-603.07
-676.628
-701.019
-689.036
-657.93
-618.302
-580.597
-551.488
-529.82
-512.895
-493.831
-465.803
-428.309
-385.02
-343.08
-308.026
-281.044
-260.678
-243.924
-229.389
-216.863
-205.714
-195.218
-184.161
-171.716
-158.079
-143.668
-128.73
-113.644
-98.909
-85.283
-73.855
-65.173
-59.2
-55.711
-54.323
-54.736
-56.721
-59.846
-63.503
-67.225
-70.708
-73.78
-76.396
-78.44
-79.784
-80.384
-80.258
-79.489
-78.17
-76.372
-74.157
-71.58
-68.702
-65.602
-62.368
-59.08
-55.825
-52.679
-49.722
-47.061
-44.775
-42.907
-41.478
-40.462
-39.822
-39.525
-39.523
-39.761
-40.19
-40.756
-41.41
-42.116
-42.829
-43.499
-44.073
-44.482
-44.672
-44.604
-44.244
-43.572
-42.574
-41.233
-39.544
-37.509
-35.131
-32.405
-29.33
-25.895
-22.095
-17.932
-13.409
-8.53
-3.303
2.269
8.178
14.416
20.973
27.841
35.009
42.471
50.213
58.221
66.477
74.963
83.657
92.54
101.586
110.773
120.073
129.463
138.916
148.406
157.907
167.391
176.828
186.192
195.454
204.584
213.554
222.335
230.896
239.209
247.246
254.979
262.382
269.427
276.088
282.342
288.165
293.536
298.434
302.84
306.737
310.111
312.949
315.241
316.977
318.152
318.763
318.808
318.288
317.207
315.568
313.381
310.655
307.401
303.635
299.373
294.634
289.438
283.808
277.769
271.347
264.57
257.466
250.067
242.404
234.51
226.417
218.161
209.776
201.295
192.754
184.188
175.628
167.109
158.662
150.318
142.106
134.054
126.189
118.536
111.118
103.957
97.072
90.481
84.2
78.244
72.622
67.347
62.424
57.86
53.658
49.82
46.347
43.234
40.48
38.077
36.019
34.295
32.897
31.81
31.022
30.517
30.281
30.296
30.546
31.013
31.678
32.524
33.533
34.686
35.965
37.354
38.833
40.387
41.999
43.652
45.333
47.025
48.715
50.391
52.039
53.648
55.209
56.71
58.144
59.502
60.777
61.964
63.058
64.053
64.948
65.74
66.427
67.01
67.489
67.865
68.141
68.318
68.399
68.388
68.288
68.104
67.839
67.498
67.085
66.604
66.062
65.461
64.807
64.106
63.361
62.577
61.759
60.912
60.039
59.146
58.237
57.315
56.385
55.452
54.518
53.587
52.662
51.746
50.843
49.953
49.08
48.225
47.388
46.572
45.778
45.006
44.257
43.532
42.832
42.157
41.509
40.887
40.293
39.726
39.187
38.677
38.195
37.743
37.319
36.924
36.558
36.221
35.912
35.631
35.377
35.148
34.945
34.766
34.609
34.473
34.357
34.26
34.18
34.118
34.071
34.04
34.022
34.018
34.025
34.043
34.071
34.106
34.146
34.192
34.239
34.287
34.334
34.377
34.416
34.447
34.469
34.481
34.479
34.461
34.427
34.373
34.298
34.2
34.077
33.929
33.752
33.547
33.311
33.042
32.737
32.393
32.007
31.576
31.096
30.563
29.973
29.32
28.602
27.813
26.948
26.003
24.972
23.85
22.631
21.307
19.869
18.31
16.621
14.794
12.82
10.692
8.4
5.939
3.306
0.496
-2.494
-5.67
-9.035
-12.595
-16.349
-20.3
-24.445
-28.782
-33.309
-38.016
-42.889
-47.915
-53.081
-58.38
-63.816
-69.386
-75.078
-80.879
-86.772
-92.734
-98.743
-104.761
-110.733
-116.608
-122.335
-127.874
-133.199
-138.272
-143.052
-147.488
-151.512
-155.08
-158.163
-160.737
-162.797
-164.355
-165.44
-166.129
-166.535
-166.772
-166.973
-167.252
-167.718
-168.515
-169.744
-171.534
-174.063
-177.38
-181.478
-186.281
-191.478
-196.721
-201.743
-206.11
-209.31
-211.049
-211.016
-209.229
-206.385
-203.15
-200.072
-197.725
-196.616
-197.246
-200.185
-205.549
-210.905
-212.24
-206.587
-191.217
-167.869
-142.67
-116.42
-87.618
-50.243
9.685
96.987
209.817
341.827
474.459
592.558
683.315
732.435
732.753
678.708
569.497
412.708
220.893
11.52
-196.576
-385.94
-542.849
-658.648
-731.315
-764.613
-765.837
-745.82
-714.453
-681.079
-653.187
-632.197
-615.8
-597.064
-569.118
-530.234
-483.257
-435.754
-393.969
-360.205
-334.096
-312.955
-295.459
-281.902
-272.001
-264.951
-259.328
-253.337
-246.208
-238.079
-228.941
-218.857
-208.209
-197.612
-188.09
-180.782
-176.168
-174.169
-174.564
-176.988
-181.073
-186.432
-192.425
-198.322
-203.618
-207.996
-211.329
-213.624
-214.86
-215.018
-214.148
-212.343
-209.716
-206.385
-202.441
-197.952
-192.992
-187.651
-182.058
-176.356
-170.681
-165.173
-159.915
-154.964
-150.364
-146.133
-142.271
-138.765
-135.58
-132.662
-129.967
-127.457
-125.094
-122.849
-120.674
-118.513
-116.312
-114.009
-111.562
-108.942
-106.125
-103.092
-99.837
-96.354
-92.648
-88.73
-84.607
-80.28
-75.75
-71.013
-66.07
-60.925
-55.581
-50.044
-44.32
-38.41
-32.32
-26.052
-19.611
-12.997
-6.213
0.741
7.865
15.151
22.593
30.18
37.903
45.75
53.706
61.756
69.882
78.068
86.299
94.557
102.826
111.088
119.327
127.524
135.661
143.718
151.671
159.495
167.163
174.647
181.915
188.94
195.694
202.147
208.274
214.049
219.451
224.455
229.034
233.159
236.797
239.918
242.502
244.535
246.011
246.932
247.312
247.169
246.526
245.397
243.79
241.698
239.105
235.991
232.338
228.143
223.421
218.187
212.453
206.226
199.511
192.294
184.549
176.243
167.331
157.796
147.648
136.933
125.738
114.167
102.346
90.382
78.361
66.361
54.458
42.727
31.248
20.117
9.442
-0.649
-10.008
-18.521
-26.107
-32.733
-38.418
-43.22
-47.227
-50.52
-53.156
-55.189
-56.653
-57.586
-58.021
-58.003
-57.583
-56.839
-55.872
-54.771
-53.602
-52.4
-51.163
-49.861
-48.437
-46.844
-45.047
-43.024
-40.773
-38.302
-35.624
-32.758
-29.729
-26.542
-23.19
-19.668
-15.975
-12.126
-8.151
-4.094
-0.009
4.052
8.039
11.913
15.643
19.208
22.593
25.789
28.797
31.61
34.218
36.61
38.776
40.709
42.405
43.867
45.099
46.109
46.904
47.494
47.886
48.09
48.11
47.952
47.621
47.122
46.463
45.653
44.703
43.624
42.429
41.131
39.742
38.275
36.743
35.158
33.53
31.872
30.193
28.504
26.817
25.141
23.486
21.862
20.277
18.741
17.26
15.842
14.494
13.22
12.026
10.916
9.892
8.957
8.112
7.358
6.693
6.117
5.627
5.219
4.889
4.633
4.445
4.319
4.248
4.227
4.246
4.301
4.382
4.482
4.594
4.71
4.821
4.921
5.004
5.061
5.087
5.076
5.022
4.919
4.762
4.549
4.274
3.934
3.528
3.055
2.518
1.919
1.261
0.548
-0.218
-1.031
-1.886
-2.775
-3.693
-4.632
-5.582
-6.535
-7.477
-8.393
-9.27
-10.098
-10.87
-11.576
-12.209
-12.751
-13.186
-13.499
-13.678
-13.709
-13.582
-13.282
-12.799
-12.128
-11.272
-10.238
-9.03
-7.649
-6.086
-4.331
-2.386
-0.274
1.968
4.291
6.67
9.102
11.593
14.135
16.705
19.257
21.791
24.37
26.987
29.524
31.742
33.38
34.36
34.853
35.067
35.045
34.875
34.811
35.378
37.228
40.588
45.058
49.965
54.868
59.437
63.265
65.652
65.649
62.822
57.571
50.778
43.137
35.068
26.897
19.106
12.462
7.416
3.776
0.914
-1.711
-4.359
-7.099
-9.987
-13.264
-17.114
-21.45
-25.961
-30.331
-34.367
-37.988
-41.193
-43.933
-46.134
-47.772
-48.884
-49.529
-49.78
-49.735
-49.467
-49.065
-48.641
-48.295
-48.151
-48.37
-49.151
-50.625
-52.834
-55.687
-58.939
-62.33
-65.581
-68.281
-69.935
-70.185
-68.861
-66.138
-62.639
-59.049
-56.063
-54.579
-55.309
-58.433
-64
-71.52
-79.464
-86.218
-88.796
-82.577
-65.434
-36.691
2.616
47.876
99.982
163.284
239.547
332.187
435.953
538.952
635.954
720.794
788.791
838.009
856.053
828.484
749.534
617.739
442.697
244.123
36.852
-163.364
-340.159
-484.996
-588.919
-648.723
-669.387
-656.581
-620.527
-571.943
-521.389
-478.333
-445.538
-421.164
-397.82
-368.627
-333.177
-294.862
-260.291
-234.217
-216.71
-205.742
-198.535
-193.048
-188.037
-182.341
-174.742
-164.443
-151.464
-136.229
-119.148
-100.768
-81.842
-63.362
-46.659
-32.613
-21.407
-12.972
-7.008
-3.161
-1.215
-0.811
-1.406
-2.645
-4.317
-6.305
-8.694
-11.551
-14.797
-18.366
-22.151
-25.961
-29.686
-33.225
-36.438
-39.266
-41.644
-43.497
-44.826
-45.636
-45.914
-45.642
-44.745
-43.111
-40.721
-37.606
-33.84
-29.571
-24.907
-19.954
-14.861
-9.738
-4.665
0.286
5.105
9.801
14.345
18.702
22.818
26.598
30.003
33.031
35.688
38.036
40.144
42.089
43.994
45.966
48.072
50.367
52.873
55.586
58.531
61.727
65.192
68.966
73.075
77.535
82.367
87.567
93.117
98.988
105.13
111.491
118.039
124.748
131.601
138.591
145.707
152.939
160.285
167.733
175.267
182.867
190.509
198.168
205.828
213.471
221.081
228.644
236.143
243.557
250.865
258.04
265.057
271.885
278.492
284.847
290.919
296.68
302.104
307.166
311.84
316.104
319.937
323.317
326.225
328.641
330.547
331.926
332.765
333.05
332.772
331.923
330.498
328.493
325.91
322.751
319.021
314.73
309.887
304.505
298.601
292.193
285.303
277.954
270.172
261.986
253.427
244.527
235.32
225.842
216.129
206.217
196.143
185.947
175.665
165.335
154.997
144.687
134.443
124.302
114.299
104.47
94.847
85.462
76.344
67.521
59.018
50.858
43.063
35.65
28.636
22.033
15.853
10.101
4.785
-0.095
-4.54
-8.551
-12.136
-15.302
-18.06
-20.421
-22.4
-24.013
-25.277
-26.211
-26.836
-27.173
-27.244
-27.073
-26.683
-26.098
-25.342
-24.439
-23.414
-22.289
-21.087
-19.832
-18.544
-17.244
-15.951
-14.684
-13.46
-12.295
-11.202
-10.193
-9.28
-8.473
-7.777
-7.201
-6.747
-6.419
-6.218
-6.145
-6.198
-6.375
-6.671
-7.082
-7.603
-8.226
-8.943
-9.748
-10.631
-11.583
-12.596
-13.659
-14.765
-15.902
-17.063
-18.239
-19.42
-20.599
-21.769
-22.921
-24.049
-25.148
-26.213
-27.238
-28.221
-29.158
-30.048
-30.889
-31.681
-32.424
-33.12
-33.769
-34.374
-34.938
-35.465
-35.959
-36.425
-36.868
-37.292
-37.703
-38.107
-38.509
-38.915
-39.33
-39.76
-40.209
-40.683
-41.185
-41.721
-42.295
-42.908
-43.566
-44.269
-45.021
-45.823
-46.675
-47.58
-48.536
-49.543
-50.602
-51.709
-52.865
-54.065
-55.307
-56.588
-57.904
-59.251
-60.625
-62.02
-63.433
-64.857
-66.288
-67.72
-69.147
-70.565
-71.967
-73.348
-74.703
-76.026
-77.313
-78.558
-79.756
-80.904
-81.997
-83.031
-84.001
-84.905
-85.738
-86.498
-87.182
-87.786
-88.307
-88.744
-89.095
-89.359
-89.536
-89.624
-89.624
-89.536
-89.36
-89.1
-88.755
-88.327
-87.819
-87.233
-86.573
-85.843
-85.046
-84.186
-83.269
-82.3
-81.284
-80.228
-79.138
-78.022
-76.886
-75.739
-74.589
-73.447
-72.322
-71.223
-70.164
-69.156
-68.215
-67.353
-66.585
-65.923
-65.38
-64.972
-64.709
-64.601
-64.655
-64.878
-65.281
-65.871
-66.657
-67.647
-68.844
-70.253
-71.875
-73.716
-75.769
-78.023
-80.468
-83.092
-85.889
-88.864
-92.016
-95.333
-98.808
-102.425
-106.16
-109.99
-113.876
-117.758
-121.583
-125.3
-128.868
-132.267
-135.466
-138.422
-141.095
-143.423
-145.359
-146.884
-147.959
-148.556
-148.694
-148.404
-147.765
-146.91
-145.921
-144.882
-143.9
-143.049
-142.453
-142.243
-142.502
-143.37
-145.021
-147.545
-150.968
-155.139
-159.607
-163.849
-167.359
-169.499
-169.641
-167.321
-162.336
-155.161
-146.899
-138.878
-132.389
-128.54
-128.359
-132.562
-141.049
-152.384
-163.988
-172.559
-174.458
-166.329
-144.761
-106.492
-50.518
21.419
106.714
201.143
301.873
409.045
518.278
622.455
711.708
769.963
787.251
760.231
687.331
575.809
431.872
257.433
61.587
-144.69
-346.18
-519.729
-648.458
-726.072
-753.138
-740.102
-702.767
-651.857
-599.356
-557.853
-529.862
-515.422
-508.686
-495.944
-471.752
-436.722
-394.692
-354.706
-321.244
-293.792
-271.346
-251.885
-234.476
-219.301
-206.132
-194.315
-182.957
-171.656
-160.286
-148.685
-136.944
-125.349
-114.303
-104.571
-96.979
-91.791
-88.96
-88.325
-89.555
-92.341
-96.358
-101.063
-105.833
-110.247
-114.036
-117.029
-119.193
-120.479
-120.842
-120.333
-119.051
-117.093
-114.571
-111.576
-108.164
-104.409
-100.4
-96.226
-91.999
-87.818
-83.776
-79.975
-76.486
-73.355
-70.606
-68.227
-66.191
-64.466
-63.003
-61.744
-60.637
-59.631
-58.678
-57.742
-56.774
-55.721
-54.53
-53.14
-51.504
-49.587
-47.363
-44.816
-41.936
-38.713
-35.151
-31.259
-27.043
-22.509
-17.659
-12.491
-7.007
-1.216
4.875
11.254
17.911
24.837
32.02
39.448
47.11
54.992
63.083
71.375
79.853
88.503
97.308
106.25
115.309
124.466
133.701
142.993
152.318
161.656
170.985
180.283
189.53
198.701
207.774
216.724
225.53
234.165
242.607
250.829
258.806
266.513
273.925
281.017
287.764
294.144
300.132
305.706
310.844
315.526
319.731
323.443
326.642
329.315
331.448
333.028
334.046
334.494
334.366
333.658
332.37
330.502
328.056
325.038
321.454
317.315
312.632
307.421
301.697
295.481
288.795
281.662
274.11
266.167
257.864
249.232
240.305
231.117
221.705
212.106
202.356
192.493
182.555
172.58
162.606
152.668
142.804
133.047
123.431
113.989
104.752
95.747
87.003
78.544
70.394
62.573
55.1
47.993
41.264
34.927
28.99
23.459
18.34
13.633
9.337
5.451
1.967
-1.121
-3.823
-6.151
-8.117
-9.736
-11.024
-11.999
-12.679
-13.083
-13.231
-13.143
-12.839
-12.341
-11.669
-10.843
-9.882
-8.807
-7.637
-6.388
-5.08
-3.729
-2.35
-0.959
0.43
1.805
3.154
4.466
5.731
6.942
8.09
9.172
10.18
11.112
11.965
12.737
13.426
14.034
14.56
15.006
15.374
15.666
15.885
16.036
16.12
16.142
16.105
16.013
15.871
15.681
15.446
15.171
14.857
14.509
14.127
13.716
13.276
12.811
12.32
11.806
11.27
10.712
10.133
9.534
8.914
8.273
7.611
6.928
6.224
5.498
4.749
3.977
3.181
2.362
1.518
0.649
-0.244
-1.163
-2.106
-3.074
-4.066
-5.08
-6.116
-7.173
-8.248
-9.339
-10.444
-11.561
-12.685
-13.815
-14.947
-16.078
-17.203
-18.32
-19.424
-20.512
-21.58
-22.624
-23.64
-24.626
-25.576
-26.488
-27.359
-28.186
-28.966
-29.696
-30.375
-30.999
-31.567
-32.077
-32.527
-32.915
-33.241
-33.502
-33.697
-33.827
-33.891
-33.888
-33.819
-33.684
-33.484
-33.22
-32.891
-32.499
-32.046
-31.532
-30.958
-30.326
-29.636
-28.891
-28.092
-27.241
-26.339
-25.387
-24.387
-23.341
-22.248
-21.111
-19.93
-18.707
-17.443
-16.142
-14.804
-13.432
-12.03
-10.6
-9.146
-7.673
-6.185
-4.686
-3.183
-1.68
-0.184
1.296
2.754
4.182
5.571
6.908
8.184
9.386
10.504
11.525
12.437
13.228
13.887
14.404
14.77
14.977
15.013
14.869
14.535
14.001
13.262
12.311
11.143
9.755
8.147
6.326
4.301
2.078
-0.339
-2.954
-5.765
-8.763
-11.937
-15.273
-18.75
-22.346
-26.027
-29.742
-33.447
-37.096
-40.653
-44.098
-47.397
-50.51
-53.393
-55.985
-58.243
-60.146
-61.659
-62.754
-63.44
-63.735
-63.703
-63.454
-63.056
-62.576
-62.096
-61.679
-61.439
-61.503
-61.94
-62.853
-64.374
-66.559
-69.452
-72.974
-76.743
-80.35
-83.436
-85.516
-86.107
-84.86
-81.476
-76.106
-69.621
-62.927
-56.746
-51.972
-49.546
-50.227
-54.634
-61.537
-67.47
-69.347
-65.235
-55.931
-43.674
-27.592
-2.438
40.685
108.339
200.609
310.268
425.169
536.511
638.825
728.26
799.651
841.833
842.041
790.43
684.598
530.263
339.519
129.814
-80.01
-269.084
-419.752
-523.894
-582.339
-604.935
-603.288
-584.535
-552.445
-510.475
-465.956
-428.057
-403.12
-390.329
-380.735
-365.684
-341.645
-310.584
-279.47
-253.16
-232.196
-215.613
-201.312
-187.944
-175.393
-163.313
-151.114
-138.677
-126.253
-113.972
-101.938
-90.299
-79.247
-69.38
-61.598
-56.29
-53.374
-52.621
-53.622
-56.085
-59.812
-64.366
-69.142
-73.63
-77.449
-80.411
-82.509
-83.717
-83.991
-83.33
-81.778
-79.437
-76.44
-72.905
-68.936
-64.604
-59.976
-55.154
-50.265
-45.459
-40.894
-36.664
-32.814
-29.38
-26.383
-23.836
-21.74
-20.052
-18.705
-17.642
-16.808
-16.167
-15.688
-15.321
-15.004
-14.673
-14.256
-13.703
-12.982
-12.059
-10.906
-9.5
-7.825
-5.879
-3.668
-1.193
1.55
4.566
7.865
11.448
15.313
19.46
23.885
28.586
33.56
38.803
44.31
50.075
56.094
62.363
68.877
75.63
82.613
89.815
97.222
104.822
112.599
120.538
128.621
136.831
145.149
153.557
162.037
170.569
179.13
187.702
196.26
204.782
213.244
221.621
229.89
238.024
245.998
253.786
261.362
268.7
275.775
282.56
289.03
295.161
300.928
306.308
311.278
315.817
319.902
323.516
326.639
329.255
331.348
332.905
333.914
334.364
334.248
333.56
332.295
330.451
328.028
325.029
321.46
317.328
312.643
307.417
301.666
295.408
288.662
281.45
273.796
265.726
257.267
248.449
239.303
229.86
220.153
210.218
200.088
189.8
179.388
168.89
158.341
147.777
137.233
126.744
116.343
106.063
95.937
85.994
76.264
66.774
57.551
48.617
39.995
31.704
23.762
16.184
8.983
2.17
-4.247
-10.261
-15.869
-21.07
-25.862
-30.249
-34.235
-37.826
-41.031
-43.859
-46.322
-48.431
-50.202
-51.649
-52.789
-53.637
-54.212
-54.532
-54.614
-54.478
-54.143
-53.628
-52.952
-52.134
-51.192
-50.146
-49.012
-47.808
-46.55
-45.255
-43.936
-42.609
-41.286
-39.979
-38.702
-37.463
-36.272
-35.139
-34.071
-33.073
-32.153
-31.315
-30.562
-29.898
-29.325
-28.845
-28.458
-28.166
-27.969
-27.865
-27.855
-27.936
-28.107
-28.367
-28.711
-29.139
-29.646
-30.231
-30.889
-31.618
-32.414
-33.274
-34.195
-35.172
-36.203
-37.284
-38.411
-39.581
-40.79
-42.035
-43.313
-44.621
-45.956
-47.316
-48.697
-50.099
-51.518
-52.952
-54.399
-55.856
-57.322
-58.795
-60.273
-61.753
-63.235
-64.716
-66.195
-67.671
-69.141
-70.604
-72.059
-73.505
-74.939
-76.362
-77.771
-79.167
-80.547
-81.913
-83.262
-84.595
-85.911
-87.211
-88.493
-89.758
-91.005
-92.234
-93.444
-94.636
-95.808
-96.961
-98.094
-99.206
-100.298
-101.368
-102.417
-103.442
-104.443
-105.418
-106.366
-107.286
-108.176
-109.034
-109.858
-110.646
-111.397
-112.108
-112.775
-113.397
-113.971
-114.491
-114.957
-115.362
-115.705
-115.979
-116.183
-116.311
-116.36
-116.326
-116.206
-115.995
-115.691
-115.29
-114.789
-114.186
-113.477
-112.662
-111.738
-110.705
-109.563
-108.313
-106.956
-105.494
-103.929
-102.265
-100.506
-98.658
-96.725
-94.714
-92.634
-90.493
-88.299
-86.065
-83.802
-81.521
-79.239
-76.971
-74.732
-72.539
-70.408
-68.357
-66.402
-64.559
-62.843
-61.268
-59.846
-58.594
-57.527
-56.659
-56.004
-55.571
-55.37
-55.41
-55.697
-56.232
-57.01
-58.025
-59.273
-60.752
-62.467
-64.423
-66.609
-69.016
-71.63
-74.428
-77.387
-80.472
-83.631
-86.817
-89.99
-93.112
-96.163
-99.119
-101.938
-104.58
-106.987
-109.105
-110.908
-112.364
-113.447
-114.171
-114.56
-114.668
-114.596
-114.415
-114.187
-113.998
-113.91
-114.01
-114.413
-115.191
-116.464
-118.417
-121.12
-124.586
-128.691
-133.036
-137.204
-140.824
-143.378
-144.322
-143.296
-140.044
-134.84
-128.655
-122.415
-117.021
-113.416
-112.316
-114.342
-119.858
-128.1
-137.015
-144.324
-147.45
-143.501
-129.833
-103.528
-61.624
-4.032
66.288
146.655
233.185
324.814
424.474
528.129
627.056
706.616
744.847
731.389
668.003
564.022
438.55
300.652
147.714
-20.012
-201.441
-381.969
-533.796
-640.167
-695.509
-708.533
-702.027
-689.906
-676.393
-660.694
-635.85
-600.551
-559.112
-515.319
-473.262
-435.102
-401.043
-371.212
-345.551
-323.489
-304.161
-287.237
-272.758
-260.351
-249.24
-238.41
-226.704
-213.762
-199.957
-185.476
-170.44
-155.209
-140.293
-126.528
-114.958
-106.015
-99.583
-95.475
-93.374
-92.992
-94.116
-96.293
-98.892
-101.51
-103.934
-106.041
-107.838
-109.238
-110.06
-110.23
-109.76
-108.689
-107.097
-105.033
-102.505
-99.544
-96.205
-92.553
-88.685
-84.669
-80.539
-76.346
-72.143
-68.01
-64.065
-60.38
-56.979
-53.867
-51.023
-48.426
-46.066
-43.91
-41.909
-40.019
-38.193
-36.4
-34.621
-32.826
-30.974
-29.017
-26.891
-24.55
-21.968
-19.124
-16.001
-12.589
-8.878
-4.868
-0.574
3.999
8.847
13.971
19.375
25.059
31.015
37.237
43.715
50.441
57.405
64.6
72.014
79.638
87.461
95.477
103.676
112.049
120.583
129.261
138.068
146.985
155.993
165.071
174.198
183.351
192.506
201.642
210.735
219.76
228.692
237.507
246.177
254.678
262.982
271.062
278.89
286.439
293.683
300.595
307.149
313.319
319.08
324.409
329.283
333.68
337.58
340.964
343.815
346.118
347.86
349.029
349.617
349.617
349.026
347.843
346.07
343.71
340.769
337.258
333.188
328.572
323.429
317.776
311.636
305.032
297.991
290.54
282.709
274.531
266.039
257.266
248.249
239.024
229.628
220.098
210.474
200.792
191.091
181.408
171.78
162.243
152.831
143.577
134.515
125.674
117.083
108.768
100.754
93.062
85.713
78.725
72.111
65.885
60.057
54.634
49.622
45.024
40.84
37.069
33.706
30.746
28.181
26.002
24.196
22.751
21.653
20.886
20.433
20.275
20.396
20.774
21.39
22.224
23.254
24.462
25.825
27.324
28.939
30.65
32.438
34.286
36.176
38.091
40.016
41.937
43.839
45.711
47.542
49.319
51.035
52.681
54.249
55.733
57.128
58.429
59.631
60.734
61.733
62.629
63.421
64.108
64.692
65.174
65.555
65.838
66.026
66.12
66.126
66.045
65.881
65.639
65.321
64.931
64.474
63.951
63.367
62.725
62.028
61.279
60.481
59.637
58.749
57.82
56.854
55.851
54.816
53.75
52.656
51.537
50.394
49.229
48.045
46.845
45.629
44.4
43.161
41.914
40.66
39.402
38.142
36.882
35.624
34.371
33.126
31.89
30.665
29.456
28.263
27.091
25.941
24.817
23.722
22.657
21.627
20.632
19.675
18.76
17.886
17.057
16.275
15.539
14.853
14.218
13.634
13.103
12.625
12.201
11.831
11.516
11.254
11.046
10.891
10.789
10.739
10.74
10.793
10.894
11.044
11.242
11.485
11.773
12.103
12.475
12.887
13.336
13.822
14.344
14.9
15.489
16.11
16.763
17.446
18.16
18.904
19.676
20.477
21.306
22.163
23.048
23.961
24.902
25.871
26.868
27.894
28.95
30.033
31.145
32.283
33.448
34.638
35.852
37.088
38.343
39.615
40.901
42.197
43.5
44.804
46.103
47.393
48.666
49.913
51.126
52.293
53.405
54.449
55.415
56.29
57.063
57.722
58.26
58.666
58.933
59.051
59.01
58.799
58.41
57.835
57.068
56.103
54.936
53.567
52
50.243
48.3
46.172
43.851
41.333
38.621
35.72
32.639
29.399
26.018
22.529
18.981
15.42
11.893
8.443
5.095
1.879
-1.161
-3.983
-6.525
-8.73
-10.568
-12.008
-13.028
-13.648
-13.898
-13.843
-13.601
-13.267
-12.943
-12.756
-12.809
-13.223
-14.143
-15.674
-17.959
-21.186
-25.411
-30.604
-36.604
-43.005
-49.362
-55.272
-60.184
-63.522
-64.956
-64.319
-61.898
-58.553
-55.165
-52.592
-51.666
-52.911
-56.658
-63.016
-71.129
-79.24
-84.183
-81.279
-66.883
-39.076
0.575
46.965
96.812
151.048
215.896
301.267
412.712
545.513
684.801
807.412
889.976
918.232
887.078
802.219
675.765
517.568
337.977
146.471
-46.987
-225.845
-374.102
-482.18
-548.036
-581.24
-596.368
-602.525
-603.089
-595.379
-574.194
-539.491
-495.067
-446.236
-398.248
-353.398
-312.682
-276.972
-246.59
-222.029
-203.133
-188.868
-178.681
-172.025
-167.702
-164.57
-161.316
-156.539
-149.812
-141.35
-131.244
-119.814
-107.701
-95.542
-84.271
-74.938
-67.918
-63.145
-60.464
-59.564
-60.143
-61.957
-64.549
-67.324
-69.938
-72.244
-74.186
-75.817
-77.103
-77.922
-78.253
-78.162
-77.721
-77.021
-76.116
-74.989
-73.652
-72.148
-70.527
-68.865
-67.21
-65.567
-63.955
-62.413
-61.003
-59.82
-58.917
-58.295
-57.942
-57.833
-57.943
-58.26
-58.755
-59.379
-60.087
-60.839
-61.605
-62.372
-63.113
-63.789
-64.35
-64.737
-64.902
-64.82
-64.463
-63.812
-62.85
-61.559
-59.935
-57.986
-55.711
-53.109
-50.173
-46.894
-43.271
-39.307
-35.006
-30.374
-25.421
-20.152
-14.577
-8.707
-2.553
3.874
10.564
17.508
24.693
32.104
39.724
47.535
55.515
63.646
71.903
80.262
88.698
97.185
105.698
114.209
122.692
131.117
139.456
147.681
155.76
163.665
171.365
178.829
186.027
192.931
199.511
205.739
211.586
217.025
222.032
226.582
230.651
234.217
237.262
239.765
241.71
243.083
243.872
244.065
243.656
242.638
241.009
238.768
235.919
232.467
228.419
223.786
218.582
212.823
206.528
199.717
192.416
184.649
176.445
167.835
158.851
149.526
139.896
129.997
119.867
109.544
99.068
88.477
77.811
67.11
56.411
45.754
35.177
24.715
14.406
4.282
-5.622
-15.276
-24.651
-33.718
-42.453
-50.834
-58.839
-66.451
-73.654
-80.437
-86.788
-92.701
-98.171
-103.195
-107.773
-111.909
-115.606
-118.872
-121.716
-124.15
-126.186
-127.84
-129.126
-130.063
-130.67
-130.965
-130.969
-130.704
-130.19
-129.451
-128.507
-127.381
-126.096
-124.674
-123.137
-121.505
-119.8
-118.041
-116.247
-114.435
-112.624
-110.828
-109.062
-107.34
-105.674
-104.074
-102.551
-101.113
-99.768
-98.521
-97.377
-96.339
-95.411
-94.594
-93.887
-93.291
-92.805
-92.426
-92.152
-91.98
-91.906
-91.924
-92.032
-92.222
-92.49
-92.829
-93.233
-93.695
-94.21
-94.77
-95.37
-96.003
-96.662
-97.343
-98.039
-98.745
-99.455
-100.164
-100.868
-101.561
-102.241
-102.902
-103.542
-104.158
-104.747
-105.308
-105.838
-106.335
-106.799
-107.228
-107.622
-107.98
-108.301
-108.586
-108.835
-109.048
-109.226
-109.371
-109.483
-109.564
-109.616
-109.639
-109.637
-109.61
-109.56
-109.491
-109.402
-109.298
-109.179
-109.049
-108.908
-108.76
-108.606
-108.447
-108.286
-108.123
-107.961
-107.799
-107.639
-107.482
-107.328
-107.177
-107.032
-106.891
-106.754
-106.622
-106.493
-106.369
-106.246
-106.126
-106.005
-105.883
-105.758
-105.627
-105.489
-105.341
-105.179
-105.002
-104.805
-104.586
-104.342
-104.069
-103.763
-103.422
-103.041
-102.619
-102.151
-101.635
-101.067
-100.445
-99.766
-99.027
-98.228
-97.366
-96.439
-95.447
-94.387
-93.26
-92.066
-90.804
-89.475
-88.079
-86.618
-85.094
-83.511
-81.87
-80.177
-78.436
-76.652
-74.832
-72.984
-71.114
-69.229
-67.339
-65.453
-63.58
-61.729
-59.912
-58.14
-56.427
-54.786
-53.233
-51.781
-50.442
-49.232
-48.164
-47.248
-46.494
-45.909
-45.5
-45.277
-45.25
-45.427
-45.814
-46.416
-47.234
-48.271
-49.53
-51.003
-52.678
-54.544
-56.591
-58.815
-61.224
-63.818
-66.587
-69.522
-72.604
-75.813
-79.128
-82.511
-85.905
-89.259
-92.519
-95.644
-98.613
-101.385
-103.911
-106.138
-107.991
-109.419
-110.394
-110.882
-110.871
-110.375
-109.422
-108.075
-106.442
-104.618
-102.714
-100.859
-99.163
-97.77
-96.81
-96.437
-96.883
-98.266
-100.575
-103.678
-107.205
-110.722
-113.879
-116.204
-117.073
-116.155
-113.347
-108.949
-103.964
-99.405
-96.081
-94.851
-96.406
-100.965
-108.322
-117.348
-125.691
-130.668
-129.446
-119.115
-97.266
-61.797
-11.107
55.06
135.716
227.521
324.498
420.742
510.148
589.364
659.91
720.731
768.737
797.377
791.033
737.717
631.509
471.068
272.711
59.835
-143.241
-308.72
-425.12
-494.974
-528.32
-544.879
-556.216
-564.074
-565.944
-554.462
-527.832
-489.952
-445.739
-401.253
-359.392
-320.471
-285.311
-254.102
-226.866
-204.067
-185.323
-169.873
-157.608
-148.218
-140.741
-134.416
-128.414
-121.7
-114.063
-105.71
-96.57
-86.843
-77.008
-67.434
-58.78
-51.86
-46.903
-43.839
-42.551
-42.716
-44.039
-46.281
-48.973
-51.571
-53.73
-55.214
-55.939
-55.957
-55.274
-53.904
-51.915
-49.407
-46.486
-43.259
-39.792
-36.126
-32.299
-28.36
-24.394
-20.496
-16.755
-13.274
-10.107
-7.285
-4.833
-2.748
-1.009
0.408
1.55
2.475
3.228
3.852
4.382
4.849
5.295
5.773
6.337
7.049
7.958
9.098
10.504
12.2
14.202
16.525
19.174
22.143
25.432
29.045
32.984
37.256
41.863
46.801
52.067
57.652
63.548
69.747
76.24
83.014
90.059
97.361
104.909
112.694
120.702
128.917
137.321
145.895
154.619
163.471
172.43
181.471
190.57
199.704
208.849
217.981
227.075
236.107
245.051
253.882
262.575
271.104
279.443
287.567
295.45
303.067
310.394
317.405
324.079
330.391
336.32
341.846
346.946
351.604
355.799
359.517
362.74
365.454
367.648
369.31
370.432
371.005
371.025
370.488
369.393
367.74
365.53
362.77
359.463
355.621
351.252
346.369
340.989
335.127
328.803
322.038
314.854
307.277
299.332
291.048
282.452
273.574
264.447
255.102
245.571
235.888
226.087
216.2
206.262
196.307
186.366
176.473
166.659
156.955
147.391
137.996
128.796
119.818
111.086
102.622
94.448
86.583
79.042
71.842
64.995
58.512
52.401
46.67
41.322
36.359
31.783
27.592
23.783
20.349
17.285
14.582
12.23
10.217
8.532
7.16
6.086
5.296
4.773
4.5
4.46
4.635
5.007
5.559
6.271
7.127
8.108
9.196
10.374
11.626
12.935
14.285
15.662
17.051
18.439
19.813
21.162
22.475
23.741
24.952
26.099
27.176
28.176
29.094
29.924
30.662
31.306
31.851
32.298
32.643
32.886
33.026
33.064
33
32.835
32.571
32.207
31.748
31.194
30.548
29.813
28.993
28.09
27.108
26.05
24.92
23.721
22.457
21.131
19.746
18.304
16.81
15.266
13.675
12.039
10.361
8.644
6.89
5.101
3.281
1.431
-0.446
-2.348
-4.273
-6.219
-8.182
-10.161
-12.152
-14.155
-16.165
-18.183
-20.204
-22.229
-24.256
-26.283
-28.309
-30.334
-32.356
-34.374
-36.388
-38.395
-40.394
-42.385
-44.365
-46.334
-48.289
-50.23
-52.154
-54.061
-55.948
-57.813
-59.655
-61.472
-63.263
-65.024
-66.755
-68.455
-70.122
-71.756
-73.355
-74.918
-76.444
-77.932
-79.38
-80.786
-82.147
-83.462
-84.728
-85.943
-87.103
-88.207
-89.253
-90.238
-91.16
-92.017
-92.806
-93.526
-94.174
-94.749
-95.249
-95.672
-96.018
-96.286
-96.476
-96.588
-96.621
-96.577
-96.454
-96.253
-95.975
-95.618
-95.184
-94.674
-94.087
-93.427
-92.696
-91.896
-91.031
-90.105
-89.123
-88.089
-87.01
-85.891
-84.738
-83.558
-82.359
-81.15
-79.938
-78.734
-77.547
-76.39
-75.275
-74.213
-73.217
-72.296
-71.464
-70.73
-70.104
-69.593
-69.206
-68.948
-68.829
-68.857
-69.043
-69.391
-69.909
-70.601
-71.469
-72.516
-73.74
-75.132
-76.682
-78.383
-80.23
-82.229
-84.38
-86.675
-89.101
-91.645
-94.281
-96.983
-99.713
-102.414
-105.035
-107.527
-109.847
-111.973
-113.876
-115.517
-116.857
-117.841
-118.416
-118.563
-118.26
-117.49
-116.281
-114.669
-112.728
-110.586
-108.355
-106.137
-104.057
-102.207
-100.694
-99.652
-99.175
-99.387
-100.452
-102.403
-105.214
-108.763
-112.689
-116.598
-120.102
-122.649
-123.695
-122.918
-120.059
-115.258
-109.238
-102.679
-96.346
-91.074
-87.305
-85.411
-85.805
-88.085
-90.855
-91.578
-86.343
-71.684
-46.01
-11.083
29.648
73.951
122.105
180.66
256.608
353.059
468.897
592.653
709.218
802.086
854.761
858.494
807.791
705.802
561.046
380.431
179.249
-28.381
-226.254
-390.47
-510.451
-583.977
-617.295
-630.058
-633.576
-630.967
-621.75
-599.429
-563.238
-518.069
-469.244
-422.678
-381.476
-346.545
-318.402
-296.302
-279.057
-265.4
-253.803
-243.316
-233.263
-222.444
-209.733
-194.768
-177.814
-159.639
-141.232
-123.283
-106.298
-91.105
-78.605
-69.26
-63.157
-60.023
-59.338
-60.679
-63.689
-67.875
-72.681
-77.668
-82.461
-86.815
-90.591
-93.616
-95.756
-96.952
-97.189
-96.502
-94.948
-92.586
-89.489
-85.758
-81.494
-76.799
-71.767
-66.483
-61.063
-55.624
-50.288
-45.186
-40.401
-35.985
-31.976
-28.378
-25.171
-22.331
-19.81
-17.549
-15.5
-13.616
-11.855
-10.187
-8.566
-6.942
-5.261
-3.463
-1.498
0.666
3.059
5.699
8.598
11.762
15.191
18.874
22.807
26.99
31.422
36.108
41.05
46.247
51.694
57.387
63.319
69.487
75.885
82.507
89.349
96.402
103.664
111.131
118.796
126.65
134.682
142.881
151.231
159.719
168.329
177.044
185.847
194.719
203.643
212.6
221.571
230.537
239.477
248.369
257.193
265.924
274.541
283.019
291.335
299.463
307.38
315.06
322.479
329.612
336.437
342.928
349.064
354.822
360.18
365.117
369.616
373.657
377.225
380.304
382.882
384.948
386.492
387.509
387.992
387.939
387.349
386.223
384.563
382.376
379.669
376.451
372.736
368.537
363.872
358.759
353.219
347.275
340.952
334.275
327.272
319.973
312.406
304.604
296.598
288.421
280.106
271.687
263.195
254.665
246.129
237.619
229.164
220.796
212.542
204.431
196.489
188.739
181.206
173.91
166.872
160.109
153.638
147.473
141.626
136.107
130.925
126.086
121.596
117.456
113.669
110.233
107.148
104.409
102.011
99.948
98.213
96.796
95.688
94.878
94.354
94.104
94.115
94.373
94.867
95.581
96.503
97.618
98.913
100.375
101.989
103.744
105.625
107.621
109.719
111.908
114.175
116.511
118.903
121.343
123.82
126.324
128.845
131.375
133.904
136.424
138.926
141.401
143.842
146.24
148.589
150.88
153.108
155.266
157.346
159.343
161.25
163.061
164.77
166.371
167.859
169.227
170.472
171.587
172.567
173.408
174.105
174.654
175.051
175.292
175.373
175.291
175.045
174.631
174.05
173.299
172.38
171.293
170.039
168.621
167.042
165.304
163.411
161.368
159.179
156.849
154.383
151.786
149.066
146.229
143.28
140.228
137.079
133.84
130.519
127.123
123.659
120.136
116.56
112.939
109.282
105.595
101.886
98.162
94.431
90.7
86.974
83.259
79.561
75.883
72.23
68.606
65.012
61.452
57.928
54.441
50.994
47.586
44.219
40.893
37.608
34.364
31.161
27.998
24.874
21.789
18.743
15.733
12.761
9.824
6.921
4.053
1.216
-1.59
-4.366
-7.114
-9.837
-12.534
-15.209
-17.861
-20.491
-23.1
-25.688
-28.254
-30.798
-33.319
-35.816
-38.289
-40.737
-43.159
-45.555
-47.924
-50.264
-52.576
-54.858
-57.11
-59.33
-61.52
-63.678
-65.805
-67.902
-69.971
-72.011
-74.025
-76.014
-77.98
-79.925
-81.851
-83.761
-85.658
-87.546
-89.428
-91.311
-93.201
-95.103
-97.026
-98.979
-100.973
-103.017
-105.122
-107.297
-109.554
-111.902
-114.352
-116.91
-119.585
-122.384
-125.315
-128.387
-131.61
-134.99
-138.535
-142.251
-146.141
-150.211
-154.459
-158.88
-163.468
-168.218
-173.129
-178.206
-183.449
-188.852
-194.405
-200.094
-205.898
-211.79
-217.728
-223.656
-229.52
-235.271
-240.865
-246.272
-251.457
-256.379
-260.992
-265.244
-269.089
-272.497
-275.446
-277.913
-279.905
-281.467
-282.676
-283.656
-284.525
-285.375
-286.307
-287.425
-288.839
-290.673
-293.053
-296.059
-299.796
-304.388
-309.856
-316.154
-323.096
-330.257
-337.174
-343.396
-348.38
-351.597
-352.74
-351.601
-348.298
-343.499
-337.897
-332.176
-327.122
-323.225
-320.673
-319.668
-319.892
-319.972
-317.413
-308.634
-289.927
-259.385
-219.21
-173.218
-124.7
-74.546
-16.1
58.283
153.523
270.093
396.062
514.98
607.675
655.202
650.168
589.909
480.317
334.072
158.593
-34.38
-232.342
-424.096
-590.901
-718.649
-802.031
-840.875
-845.548
-830.486
-806.458
-783.36
-766.167
-753.422
-741.923
-725.059
-697.178
-657.609
-608.654
-556.476
-506.998
-462.999
-425.528
-393.673
-366.817
-345.726
-331.385
-324.229
-323.196
-326.031
-330.112
-333.413
-334.807
-333.498
-328.641
-319.514
-306.315
-290.226
-273.127
-256.84
-242.348
-230.086
-220.51
-214.207
-211.366
-211.579
-213.85
-216.909
-219.981
-222.755
-224.95
-226.22
-226.29
-225.043
-222.672
-219.643
-216.245
-212.562
-208.623
-204.409
-199.964
-195.407
-190.786
-186.069
-181.262
-176.4
-171.571
-166.93
-162.57
-158.519
-154.785
-151.342
-148.172
-145.271
-142.617
-140.167
-137.882
-135.72
-133.646
-131.642
-129.675
-127.705
-125.678
-123.528
-121.205
-118.68
-115.93
-112.943
-109.707
-106.21
-102.449
-98.434
-94.168
-89.649
-84.875
-79.837
-74.532
-68.963
-63.133
-57.047
-50.71
-44.126
-37.299
-30.234
-22.936
-15.409
-7.658
0.315
8.505
16.901
25.495
34.274
43.224
52.331
61.579
70.95
80.425
89.986
99.614
109.289
118.99
128.696
138.384
148.031
157.612
167.103
176.477
185.706
194.764
203.622
212.251
220.622
228.707
236.477
243.902
250.956
257.609
263.834
269.605
274.897
279.686
283.95
287.667
290.821
293.393
295.371
296.743
297.5
297.636
297.146
296.029
294.286
291.92
288.94
285.353
281.173
276.414
271.094
265.235
258.859
251.993
244.665
236.905
228.747
220.224
211.373
202.233
192.842
183.241
173.473
163.578
153.599
143.579
133.561
123.584
113.69
103.919
94.309
84.897
75.718
66.805
58.19
49.902
41.968
34.413
27.258
20.523
14.224
8.375
2.988
-1.93
-6.372
-10.335
-13.82
-16.828
-19.365
-21.437
-23.054
-24.228
-24.974
-25.308
-25.248
-24.813
-24.026
-22.908
-21.482
-19.774
-17.807
-15.607
-13.201
-10.613
-7.869
-4.995
-2.015
1.046
4.164
7.317
10.483
13.641
16.771
19.855
22.876
25.817
28.663
31.402
34.021
36.509
38.856
41.054
43.097
44.98
46.698
48.249
49.632
50.845
51.891
52.771
53.487
54.043
54.445
54.696
54.803
54.772
54.61
54.325
53.923
53.412
52.799
52.093
51.301
50.43
49.487
48.48
47.416
46.302
45.145
43.951
42.727
41.479
40.214
38.936
37.651
36.365
35.082
33.806
32.542
31.293
30.063
28.855
27.671
26.515
25.387
24.29
23.225
22.192
21.194
20.229
19.3
18.406
17.547
16.724
15.938
15.189
14.477
13.803
13.166
12.568
12.009
11.488
11.007
10.564
10.16
9.794
9.468
9.18
8.93
8.719
8.545
8.41
8.313
8.254
8.233
8.252
8.31
8.41
8.551
8.736
8.966
9.243
9.569
9.946
10.375
10.859
11.399
11.995
12.65
13.363
14.137
14.972
15.868
16.826
17.847
18.932
20.08
21.293
22.569
23.91
25.313
26.78
28.308
29.896
31.543
33.246
35.003
36.811
38.666
40.564
42.499
44.465
46.456
48.465
50.483
52.502
54.513
56.507
58.475
60.407
62.295
64.127
65.894
67.585
69.191
70.699
72.096
73.368
74.502
75.486
76.306
76.952
77.41
77.672
77.73
77.58
77.215
76.63
75.818
74.774
73.496
71.985
70.242
68.269
66.069
63.652
61.036
58.234
55.264
52.132
48.838
45.388
41.798
38.082
34.261
30.36
26.404
22.436
18.516
14.699
11.045
7.6
4.391
1.463
-1.135
-3.352
-5.119
-6.394
-7.158
-7.385
-7.066
-6.224
-4.894
-3.152
-1.122
1.084
3.338
5.495
7.434
9
10.054
10.455
9.989
8.56
6.175
2.923
-0.913
-4.986
-9.01
-12.535
-14.964
-15.94
-15.211
-12.84
-9.483
-5.711
-2.053
0.776
2.211
1.864
-0.45
-4.102
-7.494
-8.919
-6.277
2.71
19.902
47.503
87.397
140.267
206.002
282.633
365.649
450.489
532.425
607.695
676.764
738.761
789.017
820.696
821.043
777.524
686.904
550.479
375.681
179.477
-23.408
-215.542
-375.205
-493.269
-567.276
-603.336
-619.43
-626.031
-626.534
-620.15
-600.397
-566.247
-522.011
-472.82
-424.346
-379.642
-339.815
-305.847
-277.949
-255.867
-238.797
-225.437
-215.1
-207.108
-200.326
-193.605
-185.727
-176.114
-165.141
-153.425
-141.378
-129.479
-118.29
-108.526
-101.199
-96.81
-95.243
-96.205
-99.229
-103.868
-109.781
-116.459
-123.176
-129.406
-134.801
-139.106
-142.289
-144.314
-145.099
-144.671
-143.104
-140.483
-136.933
-132.571
-127.48
-121.764
-115.528
-108.873
-101.957
-94.924
-87.916
-81.082
-74.514
-68.275
-62.424
-56.98
-51.943
-47.301
-43.016
-39.038
-35.329
-31.85
-28.568
-25.458
-22.475
-19.573
-16.707
-13.823
-10.887
-7.877
-4.773
-1.563
1.755
5.18
8.706
12.315
16.002
19.762
23.591
27.493
31.468
35.512
39.625
43.803
48.045
52.352
56.724
61.163
65.671
70.249
74.901
79.634
84.451
89.353
94.34
99.413
104.57
109.81
115.131
120.529
126.001
131.543
137.149
142.814
148.533
154.297
160.096
165.92
171.758
177.595
183.419
189.212
194.957
200.635
206.227
211.711
217.067
222.272
227.302
232.135
236.746
241.113
245.211
249.017
252.506
255.657
258.446
260.852
262.854
264.432
265.569
266.249
266.455
266.176
265.4
264.118
262.324
260.015
257.187
253.843
249.986
245.623
240.764
235.42
229.608
223.345
216.652
209.55
202.066
194.226
186.059
177.596
168.869
159.912
150.758
141.444
132.006
122.481
112.905
103.317
93.752
84.246
74.837
65.557
56.44
47.519
38.823
30.381
22.22
14.364
6.836
-0.344
-7.159
-13.592
-19.632
-25.27
-30.496
-35.307
-39.7
-43.675
-47.235
-50.383
-53.127
-55.475
-57.437
-59.025
-60.254
-61.138
-61.694
-61.941
-61.896
-61.579
-61.011
-60.213
-59.204
-58.006
-56.64
-55.126
-53.484
-51.735
-49.897
-47.989
-46.029
-44.034
-42.018
-39.998
-37.986
-35.994
-34.034
-32.116
-30.249
-28.441
-26.698
-25.026
-23.43
-21.914
-20.481
-19.133
-17.871
-16.694
-15.603
-14.596
-13.672
-12.827
-12.059
-11.366
-10.744
-10.189
-9.698
-9.269
-8.896
-8.578
-8.31
-8.089
-7.913
-7.779
-7.685
-7.629
-7.609
-7.624
-7.673
-7.756
-7.873
-8.024
-8.209
-8.428
-8.682
-8.973
-9.301
-9.669
-10.078
-10.53
-11.028
-11.573
-12.17
-12.82
-13.525
-14.29
-15.115
-16.003
-16.957
-17.978
-19.068
-20.228
-21.46
-22.764
-24.141
-25.591
-27.114
-28.709
-30.375
-32.109
-33.91
-35.775
-37.701
-39.685
-41.724
-43.812
-45.946
-48.122
-50.332
-52.573
-54.837
-57.119
-59.41
-61.704
-63.993
-66.269
-68.523
-70.749
-72.937
-75.079
-77.167
-79.191
-81.145
-83.019
-84.805
-86.496
-88.084
-89.561
-90.921
-92.157
-93.265
-94.237
-95.069
-95.758
-96.298
-96.685
-96.917
-96.992
-96.906
-96.66
-96.252
-95.684
-94.956
-94.071
-93.03
-91.839
-90.501
-89.021
-87.404
-85.657
-83.786
-81.8
-79.707
-77.514
-75.233
-72.871
-70.44
-67.951
-65.415
-62.842
-60.244
-57.633
-55.021
-52.422
-49.847
-47.311
-44.826
-42.409
-40.073
-37.834
-35.706
-33.706
-31.846
-30.14
-28.601
-27.239
-26.064
-25.084
-24.307
-23.741
-23.392
-23.267
-23.37
-23.708
-24.281
-25.093
-26.141
-27.417
-28.91
-30.613
-32.517
-34.62
-36.919
-39.398
-42.045
-44.849
-47.789
-50.842
-53.966
-57.103
-60.2
-63.206
-66.073
-68.773
-71.273
-73.526
-75.49
-77.117
-78.364
-79.215
-79.65
-79.639
-79.174
-78.281
-77.038
-75.573
-74.02
-72.474
-71.001
-69.673
-68.58
-67.852
-67.622
-68.003
-69.061
-70.864
-73.554
-77.202
-81.733
-86.829
-91.843
-96.043
-98.833
-99.635
-97.837
-93.116
-85.472
-75.445
-64.427
-53.923
-45.17
-39.377
-37.421
-39.451
-44.968
-52.275
-58.204
-59.341
-52.154
-32.923
1.253
52.607
121.573
205.311
299.441
398.68
498.796
598.802
696.353
785.591
856.202
891.948
879.717
815.377
703.111
556.122
387.67
206.063
19.623
-162.666
-327.267
-457.63
-544.142
-585.492
-588.503
-565.203
-525.208
-477.345
-431.163
-393.421
-368.318
-354.199
-342.385
-325.423
-300.261
-268.387
-235.821
-206.802
-181.997
-160.548
-140.41
-120.654
-101.671
-83.855
-67.667
-53.221
-40.162
-28.272
-17.402
-7.312
2.042
10.594
18.291
24.878
29.969
33.48
35.505
36.163
35.725
34.465
32.661
30.798
29.396
28.761
29.045
30.274
32.381
35.332
39.09
43.532
48.488
53.789
59.287
64.886
70.507
76.047
81.362
86.278
90.663
94.445
97.587
100.085
101.94
103.15
103.747
103.798
103.371
102.535
101.35
99.858
98.116
96.192
94.162
92.114
90.118
88.227
86.486
84.932
83.6
82.522
81.718
81.194
80.961
81.034
81.429
82.165
83.259
84.718
86.548
88.755
91.344
94.321
97.686
101.44
105.582
110.108
115.017
120.305
125.965
131.986
138.354
145.055
152.069
159.379
166.963
174.798
182.858
191.12
199.558
208.145
216.853
225.653
234.516
243.412
252.311
261.183
269.994
278.715
287.313
295.757
304.016
312.058
319.852
327.368
334.577
341.451
347.962
354.083
359.791
365.06
369.87
374.199
378.028
381.34
384.121
386.355
388.033
389.147
389.688
389.654
389.043
387.855
386.093
383.763
380.872
377.431
373.453
368.953
363.949
358.46
352.509
346.122
339.324
332.143
324.611
316.758
308.617
300.222
291.607
282.809
273.863
264.806
255.675
246.506
237.337
228.202
219.138
210.178
201.355
192.7
184.243
176.011
168.029
160.322
152.908
145.807
139.035
132.603
126.524
120.802
115.444
110.449
105.816
101.541
97.616
94.031
90.775
87.833
85.188
82.822
80.714
78.843
77.184
75.712
74.401
73.223
72.15
71.153
70.203
69.272
68.331
67.352
66.308
65.172
63.921
62.529
60.976
59.24
57.304
55.152
52.77
50.147
47.274
44.144
40.755
37.103
33.191
29.02
24.596
19.925
15.015
9.877
4.523
-1.035
-6.782
-12.701
-18.777
-24.992
-31.326
-37.763
-44.282
-50.864
-57.491
-64.145
-70.806
-77.457
-84.082
-90.664
-97.19
-103.645
-110.018
-116.3
-122.481
-128.557
-134.521
-140.373
-146.111
-151.737
-157.252
-162.66
-167.967
-173.18
-178.304
-183.349
-188.323
-193.236
-198.098
-202.919
-207.709
-212.479
-217.239
-221.999
-226.768
-231.555
-236.37
-241.219
-246.111
-251.051
-256.044
-261.096
-266.209
-271.385
-276.624
-281.925
-287.285
-292.7
-298.164
-303.668
-309.204
-314.763
-320.331
-325.898
-331.45
-336.973
-342.452
-347.874
-353.224
-358.486
-363.647
-368.691
-373.605
-378.377
-382.994
-387.444
-391.716
-395.8
-399.687
-403.369
-406.837
-410.085
-413.106
-415.896
-418.45
-420.765
-422.84
-424.672
-426.262
-427.611
-428.721
-429.596
-430.24
-430.658
-430.854
-430.836
-430.609
-430.181
-429.558
-428.747
-427.754
-426.585
-425.247
-423.745
-422.084
-420.267
-418.299
-416.181
-413.916
-411.507
-408.952
-406.254
-403.413
-400.428
-397.299
-394.028
-390.613
-387.054
-383.351
-379.505
-375.516
-371.385
-367.11
-362.694
-358.137
-353.442
-348.61
-343.644
-338.548
-333.327
-327.988
-322.541
-316.994
-311.358
-305.644
-299.866
-294.036
-288.169
-282.277
-276.371
-270.465
-264.574
-258.714
-252.903
-247.155
-241.487
-235.913
-230.446
-225.101
-219.886
-214.804
-209.858
-205.054
-200.399
-195.91
-191.602
-187.482
-183.554
-179.82
-176.271
-172.896
-169.672
-166.559
-163.516
-160.504
-157.488
-154.448
-151.358
-148.18
-144.874
-141.384
-137.657
-133.667
-129.383
-124.787
-119.899
-114.753
-109.42
-104.019
-98.648
-93.406
-88.415
-83.781
-79.631
-76.113
-73.33
-71.429
-70.61
-70.953
-72.455
-74.965
-78.048
-81.232
-84.097
-86.06
-86.486
-84.97
-81.278
-75.67
-69.085
-62.497
-56.759
-52.802
-51.449
-53.131
-57.858
-64.668
-71.253
-74.924
-73.027
-62.488
-40.165
-3.47
49.966
120.013
202.723
293.902
389.204
486.46
587.832
691.831
790.909
871.133
911.943
899.076
830.343
713.714
566.092
401.174
225.952
46.638
-129.894
-290.547
-419.406
-507.379
-553.44
-564.941
-553.096
-526.456
-492.176
-457.745
-429.327
-410.922
-401.025
-391.222
-373.313
-343.466
-303.743
-261.551
-222.776
-189.493
-161.152
-135.794
-112.941
-93.449
-77.625
-64.999
-54.434
-44.51
-34.582
-24.476
-13.897
-2.703
8.963
20.592
31.309
40.183
46.799
51.179
53.431
53.762
52.411
49.688
46.127
42.341
38.749
35.573
32.942
30.934
29.625
29.088
29.304
30.17
31.595
33.505
35.843
38.576
41.656
44.997
48.51
52.117
55.737
59.296
62.712
65.875
68.705
71.161
73.23
74.928
76.28
77.307
78.045
78.545
78.853
79.015
79.076
79.069
79.038
79.031
79.105
79.326
79.746
80.402
81.321
82.524
84.024
85.836
87.964
90.401
93.143
96.192
99.55
103.225
107.218
111.525
116.14
121.057
126.266
131.763
137.537
143.58
149.881
156.432
163.223
170.246
177.491
184.943
192.586
200.402
208.373
216.477
224.693
232.998
241.367
249.776
258.202
266.619
275.002
283.324
291.559
299.68
307.661
315.473
323.089
330.482
337.625
344.489
351.049
357.279
363.155
368.651
373.744
378.412
382.635
386.392
389.664
392.434
394.687
396.408
397.585
398.209
398.27
397.764
396.687
395.038
392.818
390.03
386.68
382.776
378.328
373.349
367.852
361.855
355.376
348.437
341.06
333.271
325.096
316.562
307.698
298.536
289.105
279.438
269.568
259.527
249.349
239.069
228.719
218.334
207.948
197.593
187.301
177.104
167.033
157.115
147.38
137.853
128.559
119.522
110.763
102.302
94.156
86.342
78.873
71.761
65.016
58.646
52.657
47.052
41.833
37.001
32.555
28.492
24.807
21.494
18.546
15.954
13.708
11.797
10.209
8.931
7.948
7.247
6.81
6.624
6.671
6.935
7.399
8.045
8.857
9.817
10.909
12.115
13.419
14.805
16.256
17.758
19.297
20.857
22.426
23.991
25.539
27.059
28.54
29.971
31.343
32.647
33.874
35.018
36.07
37.025
37.877
38.622
39.255
39.772
40.172
40.453
40.612
40.649
40.564
40.359
40.033
39.591
39.033
38.364
37.586
36.706
35.725
34.651
33.488
32.242
30.918
29.522
28.062
26.543
24.972
23.356
21.702
20.016
18.307
16.58
14.842
13.101
11.363
9.635
7.922
6.23
4.566
2.933
1.338
-0.216
-1.726
-3.186
-4.596
-5.953
-7.255
-8.501
-9.691
-10.825
-11.903
-12.927
-13.898
-14.817
-15.686
-16.508
-17.285
-18.02
-18.717
-19.378
-20.008
-20.61
-21.188
-21.745
-22.286
-22.814
-23.333
-23.846
-24.356
-24.866
-25.378
-25.895
-26.418
-26.948
-27.486
-28.032
-28.585
-29.144
-29.708
-30.273
-30.836
-31.394
-31.943
-32.477
-32.991
-33.481
-33.941
-34.366
-34.75
-35.087
-35.371
-35.595
-35.754
-35.842
-35.853
-35.78
-35.618
-35.362
-35.008
-34.552
-33.99
-33.319
-32.538
-31.645
-30.64
-29.525
-28.301
-26.97
-25.537
-24.009
-22.392
-20.694
-18.926
-17.097
-15.222
-13.314
-11.39
-9.463
-7.551
-5.668
-3.832
-2.059
-0.364
1.241
2.739
4.117
5.358
6.446
7.365
8.101
8.642
8.975
9.09
8.979
8.642
8.08
7.294
6.281
5.034
3.545
1.818
-0.138
-2.314
-4.693
-7.249
-9.948
-12.737
-15.567
-18.393
-21.174
-23.887
-26.506
-28.993
-31.304
-33.389
-35.203
-36.719
-37.918
-38.771
-39.277
-39.477
-39.436
-39.269
-39.083
-38.937
-38.901
-39.059
-39.496
-40.335
-41.689
-43.617
-46.225
-49.651
-53.937
-59.06
-64.799
-70.656
-76.128
-80.78
-84.103
-85.599
-84.939
-81.969
-77.088
-71.282
-65.536
-60.653
-57.314
-56.102
-57.368
-61.04
-66.025
-70.143
-70.91
-65.967
-53.125
-30.127
5.164
54.547
117.833
191.811
272.092
353.838
434.418
514.808
595.667
674.768
743.902
787.941
789.995
737.891
629.08
471.707
282.896
82.11
-112.957
-286.916
-429.934
-535.033
-599.535
-626.288
-620.881
-594.05
-556.924
-520.169
-492.48
-474.919
-464.345
-453.134
-433.71
-404.579
-368.364
-331.059
-297.542
-268.759
-243.51
-219.849
-197.167
-176.241
-157.593
-141.105
-126.135
-111.816
-97.927
-84.6
-71.737
-59.216
-47.084
-35.661
-25.577
-17.598
-12.005
-8.689
-7.49
-8.124
-10.311
-13.764
-17.977
-22.323
-26.362
-29.801
-32.439
-34.229
-35.119
-35.048
-34.059
-32.232
-29.656
-26.44
-22.676
-18.439
-13.824
-8.929
-3.866
1.234
6.247
11.051
15.517
19.566
23.145
26.221
28.798
30.89
32.518
33.728
34.574
35.104
35.368
35.412
35.277
35.019
34.7
34.385
34.146
34.038
34.104
34.381
34.896
35.665
36.707
38.028
39.625
41.505
43.673
46.136
48.911
52.006
55.432
59.193
63.29
67.725
72.496
77.604
83.045
88.815
94.904
101.306
108.018
115.039
122.372
130.009
137.926
146.093
154.469
163.016
171.697
180.467
189.272
198.071
206.83
215.534
224.192
232.794
241.312
249.71
257.927
265.923
273.684
281.196
288.453
295.452
302.179
308.649
314.906
320.953
326.763
332.264
337.332
341.88
345.853
349.207
351.928
353.981
355.307
355.864
355.617
354.522
352.543
349.608
345.602
340.476
334.237
326.943
318.729
309.694
299.898
289.411
278.287
266.59
254.405
241.793
228.794
215.47
201.896
188.177
174.463
160.853
147.398
134.117
120.975
107.964
95.103
82.403
69.872
57.526
45.376
33.457
21.827
10.522
-0.435
-11.041
-21.318
-31.265
-40.86
-50.072
-58.854
-67.169
-74.996
-82.307
-89.074
-95.28
-100.916
-105.986
-110.512
-114.512
-117.993
-120.967
-123.436
-125.414
-126.92
-127.974
-128.601
-128.824
-128.67
-128.167
-127.348
-126.243
-124.881
-123.287
-121.484
-119.496
-117.351
-115.073
-112.69
-110.226
-107.707
-105.16
-102.611
-100.084
-97.603
-95.189
-92.862
-90.64
-88.54
-86.578
-84.768
-83.12
-81.646
-80.355
-79.254
-78.349
-77.645
-77.144
-76.848
-76.756
-76.868
-77.18
-77.688
-78.386
-79.268
-80.326
-81.552
-82.936
-84.469
-86.138
-87.933
-89.842
-91.85
-93.945
-96.112
-98.337
-100.607
-102.906
-105.221
-107.538
-109.846
-112.132
-114.384
-116.591
-118.744
-120.833
-122.849
-124.785
-126.634
-128.389
-130.046
-131.6
-133.048
-134.389
-135.62
-136.74
-137.751
-138.653
-139.448
-140.138
-140.728
-141.221
-141.622
-141.937
-142.171
-142.33
-142.423
-142.456
-142.436
-142.371
-142.268
-142.135
-141.977
-141.803
-141.617
-141.425
-141.233
-141.045
-140.864
-140.695
-140.539
-140.4
-140.278
-140.174
-140.087
-140.018
-139.965
-139.926
-139.898
-139.879
-139.864
-139.849
-139.831
-139.803
-139.76
-139.695
-139.603
-139.474
-139.304
-139.082
-138.802
-138.455
-138.034
-137.531
-136.939
-136.253
-135.465
-134.571
-133.567
-132.447
-131.209
-129.851
-128.371
-126.767
-125.041
-123.192
-121.224
-119.139
-116.942
-114.636
-112.227
-109.721
-107.125
-104.448
-101.697
-98.882
-96.014
-93.105
-90.167
-87.215
-84.264
-81.33
-78.43
-75.584
-72.809
-70.123
-67.544
-65.092
-62.782
-60.633
-58.658
-56.873
-55.29
-53.925
-52.789
-51.897
-51.256
-50.877
-50.769
-50.94
-51.396
-52.141
-53.171
-54.482
-56.071
-57.938
-60.082
-62.5
-65.178
-68.099
-71.249
-74.604
-78.138
-81.81
-85.561
-89.335
-93.08
-96.75
-100.312
-103.73
-106.958
-109.951
-112.664
-115.062
-117.134
-118.872
-120.255
-121.285
-121.986
-122.421
-122.714
-122.984
-123.325
-123.817
-124.521
-125.503
-126.863
-128.696
-131.076
-134.06
-137.647
-141.856
-146.796
-152.468
-158.707
-165.171
-171.253
-176.336
-179.979
-181.7
-180.879
-177.135
-170.418
-161.132
-150.416
-139.504
-129.298
-120.744
-114.775
-111.85
-111.818
-113.592
-114.754
-112.579
-104.527
-87.774
-59.715
-18.182
37.264
104.331
179.093
256.729
334.901
414.001
492.621
567.15
627.317
657.404
645.378
583.156
472.561
323.84
146.597
-45.75
-240.313
-423.811
-577.738
-690.244
-757.151
-781.285
-774.26
-746.067
-703.199
-652.807
-602.01
-558.008
-525.696
-503.083
-481.92
-454.948
-419.985
-379.967
-341.816
-310.265
-285.692
-266.807
-251.452
-238.036
-225.909
-214.298
-202.205
-189.133
-175.164
-160.404
-145.035
-129.415
-114.034
-99.737
-87.601
-78.148
-71.35
-67.032
-64.86
-64.519
-65.742
-68.035
-70.737
-73.379
-75.675
-77.442
-78.608
-79.091
-78.788
-77.683
-75.845
-73.345
-70.256
-66.647
-62.561
-58.056
-53.212
-48.113
-42.854
-37.537
-32.257
-27.115
-22.222
-17.658
-13.476
-9.702
-6.328
-3.329
-0.68
1.663
3.75
5.63
7.347
8.946
10.462
11.94
13.428
14.98
16.657
18.508
20.566
22.858
25.399
28.199
31.266
34.598
38.187
42.025
46.11
50.441
55.024
59.857
64.937
70.257
75.81
81.587
87.583
93.79
100.2
106.804
113.595
120.567
127.713
135.028
142.499
150.117
157.866
165.735
173.708
181.771
189.906
198.097
206.326
214.577
222.831
231.072
239.278
247.431
255.509
263.492
271.356
279.08
286.639
294.01
301.169
308.091
314.752
321.13
327.2
332.938
338.322
343.33
347.94
352.132
355.885
359.179
361.998
364.325
366.143
367.441
368.206
368.428
368.1
367.215
365.77
363.763
361.193
358.064
354.38
350.15
345.384
340.094
334.295
328.007
321.248
314.041
306.411
298.384
289.987
281.251
272.205
262.883
253.317
243.542
233.592
223.504
213.312
203.053
192.763
182.477
172.23
162.057
151.992
142.066
132.312
122.759
113.435
104.367
95.581
87.1
78.944
71.131
63.679
56.6
49.907
43.607
37.707
32.212
27.122
22.439
18.158
14.277
10.788
7.684
4.955
2.589
0.574
-1.106
-2.465
-3.521
-4.29
-4.791
-5.044
-5.067
-4.88
-4.503
-3.958
-3.263
-2.44
-1.508
-0.488
0.601
1.742
2.915
4.105
5.296
6.474
7.625
8.738
9.801
10.804
11.739
12.598
13.373
14.06
14.653
15.149
15.546
15.841
16.033
16.123
16.11
15.996
15.782
15.47
15.063
14.565
13.98
13.311
12.565
11.746
10.859
9.91
8.905
7.851
6.752
5.614
4.442
3.241
2.016
0.773
-0.484
-1.752
-3.029
-4.312
-5.596
-6.877
-8.15
-9.413
-10.665
-11.902
-13.122
-14.32
-15.493
-16.642
-17.77
-18.879
-19.97
-21.039
-22.082
-23.101
-24.102
-25.093
-26.081
-27.067
-28.05
-29.033
-30.022
-31.022
-32.039
-33.067
-34.09
-35.096
-36.076
-37.032
-37.973
-38.893
-39.77
-40.564
-41.235
-41.77
-42.188
-42.515
-42.763
-42.918
-42.931
-42.817
-42.665
-42.522
-42.347
-41.944
-41.069
-39.651
-37.853
-35.918
-33.957
-32.046
-30.373
-29.493
-30.134
-32.756
-37.337
-43.298
-50.051
-57.119
-63.894
-69.4
-72.45
-71.996
-67.492
-59.468
-48.791
-36.322
-23.177
-10.514
0.48
8.488
12.474
12.529
9.253
3.493
-3.49
-10.759
-17.589
-23.023
-26.195
-26.892
-25.258
-21.798
-17.426
-12.676
-7.805
-3.189
0.845
4.124
6.555
8.286
9.683
10.917
12.007
12.964
13.738
14.324
14.756
15.003
14.988
14.667
14.024
13.071
11.853
10.393
8.688
6.734
4.524
2.057
-0.654
-3.591
-6.744
-10.104
-13.669
-17.439
-21.411
-25.573
-29.914
-34.42
-39.072
-43.841
-48.682
-53.532
-58.325
-63.004
-67.519
-71.834
-75.912
-79.707
-83.17
-86.242
-88.87
-91.023
-92.673
-93.791
-94.383
-94.488
-94.179
-93.585
-92.832
-92.005
-91.206
-90.53
-90.072
-89.969
-90.346
-91.282
-92.886
-95.289
-98.539
-102.606
-107.268
-112.023
-116.3
-119.596
-121.378
-121.071
-118.276
-112.86
-105.199
-96.308
-87.414
-79.436
-73.01
-69.018
-68.139
-70.232
-74.334
-77.443
-74.902
-64.155
-43.891
-13.969
23.105
68.843
126.921
199.908
291.405
398.914
514.651
630.16
734.474
816.411
866.888
877.273
840.303
756.301
629.524
465.417
276.067
73.565
-128.218
-307.856
-449.729
-547.767
-602.76
-627.112
-633.053
-622.785
-597.111
-557.052
-507.089
-459.039
-421.883
-396.039
-375.392
-352.093
-322.356
-288.539
-257.264
-233.04
-216.357
-205.96
-199.129
-193.67
-188.831
-183.644
-176.926
-168.284
-157.748
-145.326
-131.366
-116.434
-101.035
-86.139
-72.997
-62.15
-53.686
-47.526
-43.298
-40.725
-39.643
-39.646
-40.207
-40.969
-41.711
-42.357
-42.979
-43.553
-43.989
-44.211
-44.133
-43.734
-43.032
-42.034
-40.749
-39.166
-37.278
-35.103
-32.69
-30.088
-27.343
-24.475
-21.487
-18.421
-15.338
-12.323
-9.479
-6.852
-4.457
-2.304
-0.385
1.305
2.768
4.031
5.137
6.119
7.006
7.819
8.568
9.284
10.011
10.8
11.712
12.788
14.056
15.543
17.268
19.246
21.489
23.999
26.765
29.789
33.073
36.62
40.439
44.531
48.893
53.519
58.403
63.539
68.921
74.542
80.394
86.47
92.763
99.266
105.974
112.879
119.97
127.233
134.653
142.214
149.897
157.683
165.551
173.48
181.448
189.431
197.406
205.351
213.24
221.047
228.747
236.314
243.72
250.939
257.943
264.706
271.201
277.402
283.284
288.821
293.99
298.769
303.134
307.066
310.546
313.554
316.075
318.094
319.6
320.581
321.03
320.941
320.31
319.136
317.42
315.167
312.383
309.076
305.256
300.938
296.136
290.868
285.155
279.017
272.479
265.565
258.304
250.723
242.852
234.722
226.365
217.812
209.097
200.253
191.313
182.311
173.28
164.252
155.26
146.335
137.509
128.81
120.266
111.905
103.753
95.832
88.167
80.776
73.678
66.891
60.429
54.304
48.527
43.107
38.05
33.36
29.042
25.094
21.515
18.304
15.454
12.959
10.811
9
7.516
6.345
5.475
4.889
4.574
4.512
4.686
5.078
5.669
6.441
7.373
8.448
9.644
10.944
12.327
13.775
15.268
16.79
18.322
19.847
21.349
22.812
24.223
25.566
26.829
28.001
29.07
30.028
30.864
31.572
32.146
32.579
32.869
33.012
33.007
32.852
32.549
32.099
31.504
30.769
29.898
28.897
27.772
26.531
25.18
23.729
22.187
20.561
18.864
17.103
15.289
13.431
11.541
9.628
7.702
5.772
3.848
1.938
0.051
-1.805
-3.623
-5.395
-7.115
-8.777
-10.376
-11.908
-13.368
-14.755
-16.066
-17.299
-18.455
-19.534
-20.537
-21.467
-22.325
-23.115
-23.841
-24.507
-25.119
-25.68
-26.197
-26.674
-27.117
-27.533
-27.926
-28.302
-28.666
-29.023
-29.379
-29.738
-30.104
-30.481
-30.873
-31.283
-31.715
-32.17
-32.651
-33.161
-33.7
-34.269
-34.869
-35.498
-36.157
-36.842
-37.551
-38.283
-39.032
-39.795
-40.567
-41.343
-42.119
-42.889
-43.647
-44.388
-45.107
-45.796
-46.451
-47.067
-47.637
-48.157
-48.622
-49.026
-49.367
-49.639
-49.84
-49.965
-50.012
-49.978
-49.86
-49.656
-49.364
-48.981
-48.508
-47.944
-47.289
-46.546
-45.716
-44.803
-43.81
-42.742
-41.605
-40.406
-39.15
-37.847
-36.503
-35.129
-33.734
-32.328
-30.921
-29.528
-28.16
-26.834
-25.562
-24.36
-23.241
-22.219
-21.31
-20.524
-19.873
-19.365
-19.012
-18.823
-18.813
-18.992
-19.368
-19.949
-20.74
-21.746
-22.972
-24.414
-26.065
-27.917
-29.964
-32.205
-34.652
-37.305
-40.161
-43.21
-46.438
-49.827
-53.356
-56.992
-60.682
-64.38
-68.036
-71.614
-75.093
-78.437
-81.608
-84.554
-87.206
-89.515
-91.45
-92.985
-94.114
-94.85
-95.222
-95.3
-95.184
-94.976
-94.797
-94.755
-94.961
-95.552
-96.62
-98.301
-100.807
-104.224
-108.557
-113.699
-119.273
-124.859
-130.168
-134.739
-137.972
-139.537
-139.227
-137.211
-134.41
-131.806
-130.019
-129.776
-131.99
-137.014
-144.779
-154.799
-164.026
-168.968
-168.351
-159.752
-142.704
-117.765
-79.955
-26.065
45.424
134.552
232.728
330.877
422.208
503.18
575.593
637.564
682.578
698.135
668.329
586.758
455.355
283.714
90.791
-106.921
-294.746
-456.203
-582.554
-669.231
-715.426
-729.652
-720.158
-694.525
-661.683
-626.105
-592.066
-561.263
-529.984
-495.825
-456.667
-413.936
-374.167
-341.408
-317.701
-302.691
-292.915
-286.625
-282.95
-280.446
-278.081
-274.47
-268.58
-260.534
-250.821
-239.79
-227.917
-215.873
-204.539
-195.059
-188.076
-183.578
-181.294
-180.805
-181.753
-183.824
-186.537
-189.237
-191.39
-192.712
-193.098
-192.605
-191.288
-189.138
-186.186
-182.52
-178.258
-173.525
-168.435
-163.06
-157.447
-151.671
-145.83
-140.05
-134.486
-129.244
-124.377
-119.912
-115.861
-112.237
-109.052
-106.286
-103.884
-101.789
-99.949
-98.322
-96.883
-95.593
-94.399
-93.24
-92.047
-90.77
-89.379
-87.846
-86.146
-84.257
-82.16
-79.846
-77.32
-74.584
-71.63
-68.45
-65.034
-61.379
-57.486
-53.359
-49.002
-44.418
-39.613
-34.591
-29.357
-23.913
-18.259
-12.394
-6.316
-0.025
6.475
13.177
20.073
27.152
34.397
41.797
49.338
57.014
64.821
72.749
80.787
88.917
97.116
105.352
113.585
121.771
129.865
137.832
145.644
153.286
160.758
168.057
175.191
182.152
188.919
195.475
201.804
207.898
213.758
219.408
224.883
230.222
235.471
240.65
245.762
250.793
255.697
260.405
264.828
268.893
272.562
275.805
278.592
280.873
282.575
283.605
283.875
283.295
281.774
279.249
275.671
271.02
265.316
258.633
251.081
242.744
233.667
223.871
213.396
202.33
190.808
178.972
166.938
154.822
142.742
130.811
119.143
107.831
96.921
86.412
76.282
66.536
57.231
48.445
40.223
32.547
25.348
18.564
12.173
6.158
0.494
-4.857
-9.944
-14.792
-19.392
-23.709
-27.713
-31.404
-34.823
-38.024
-41.03
-43.816
-46.325
-48.517
-50.382
-51.921
-53.126
-53.977
-54.454
-54.562
-54.329
-53.796
-52.987
-51.913
-50.565
-48.934
-47.034
-44.897
-42.571
-40.093
-37.492
-34.792
-32.025
-29.229
-26.436
-23.667
-20.928
-18.225
-15.572
-12.989
-10.5
-8.122
-5.869
-3.75
-1.77
0.061
1.737
3.256
4.614
5.816
6.86
7.743
8.461
9.012
9.396
9.616
9.673
9.572
9.317
8.914
8.371
7.696
6.897
5.982
4.959
3.836
2.624
1.33
-0.033
-1.458
-2.933
-4.448
-5.993
-7.559
-9.135
-10.712
-12.283
-13.837
-15.368
-16.867
-18.327
-19.743
-21.108
-22.416
-23.663
-24.845
-25.959
-27.001
-27.971
-28.866
-29.686
-30.431
-31.101
-31.699
-32.227
-32.686
-33.079
-33.411
-33.684
-33.902
-34.07
-34.192
-34.272
-34.315
-34.325
-34.308
-34.268
-34.21
-34.139
-34.058
-33.973
-33.886
-33.803
-33.725
-33.657
-33.599
-33.553
-33.522
-33.506
-33.504
-33.516
-33.54
-33.576
-33.621
-33.67
-33.721
-33.769
-33.809
-33.836
-33.844
-33.828
-33.782
-33.7
-33.575
-33.402
-33.175
-32.887
-32.533
-32.106
-31.601
-31.011
-30.332
-29.558
-28.685
-27.71
-26.628
-25.437
-24.135
-22.719
-21.19
-19.548
-17.792
-15.925
-13.95
-11.872
-9.695
-7.427
-5.076
-2.649
-0.158
2.388
4.976
7.595
10.231
12.872
15.502
18.108
20.673
23.182
25.616
27.958
30.19
32.295
34.255
36.047
37.654
39.056
40.237
41.186
41.889
42.333
42.506
42.402
42.018
41.355
40.411
39.186
37.679
35.896
33.851
31.569
29.072
26.38
23.503
20.45
17.235
13.88
10.402
6.811
3.113
-0.676
-4.529
-8.391
-12.199
-15.909
-19.488
-22.928
-26.231
-29.362
-32.258
-34.842
-37.035
-38.797
-40.129
-40.981
-41.262
-40.963
-40.16
-39.108
-38.235
-37.777
-37.744
-38.104
-38.816
-39.846
-41.144
-42.282
-42.357
-40.741
-37.259
-32.061
-25.55
-17.99
-9.566
-0.964
6.399
11.134
12.334
9.637
3.166
-6.956
-20.415
-36.481
-53.668
-69.647
-82.227
-88.594
-84.927
-69.299
-41.103
-1.481
45.038
97.75
159.455
232.762
321.919
424.967
533.389
638.805
731.197
800.647
839.89
840.922
796.173
705.788
573.815
406.816
217.891
17.645
-181.193
-360.924
-508.745
-613.286
-670.402
-685.135
-664.794
-620.996
-565.168
-508.889
-462.146
-427.494
-402.666
-379.45
-349.769
-312.257
-269.816
-228.807
-194.391
-167.576
-146.836
-129.658
-114.708
-101.693
-90.636
-81.703
-74.375
-67.86
-61.946
-56.462
-51.26
-46.493
-42.273
-38.773
-36.433
-35.723
-36.744
-39.351
-43.313
-48.228
-53.674
-59.235
-64.408
-68.676
-71.749
-73.528
-73.993
-73.234
-71.352
-68.429
-64.62
-60.126
-55.106
-49.706
-44.063
-38.286
-32.536
-27.001
-21.814
-17.07
-12.827
-9.094
-5.879
-3.182
-0.967
0.823
2.247
3.37
4.244
4.915
5.44
5.885
6.322
6.83
7.468
8.281
9.305
10.565
12.081
13.873
15.945
18.292
20.916
23.822
27.016
30.511
34.311
38.418
42.832
47.554
52.581
57.917
63.558
69.501
75.745
82.285
89.118
96.238
103.639
111.307
119.229
127.389
135.767
144.346
153.105
162.019
171.066
180.223
189.463
198.762
208.092
217.427
226.737
235.993
245.166
254.224
263.138
271.875
280.405
288.697
296.719
304.44
311.829
318.857
325.495
331.715
337.49
342.795
347.607
351.903
355.665
358.873
361.513
363.57
365.032
365.891
366.139
365.771
364.786
363.183
360.964
358.133
354.7
350.671
346.061
340.883
335.154
328.892
322.12
314.861
307.14
298.986
290.427
281.495
272.223
262.645
252.795
242.711
232.427
221.98
211.408
200.747
190.033
179.303
168.59
157.93
147.356
136.9
126.593
116.464
106.542
96.851
87.416
78.261
69.404
60.866
52.661
44.804
37.308
30.182
23.434
17.07
11.091
5.501
0.296
-4.526
-8.969
-13.042
-16.754
-20.113
-23.132
-25.824
-28.201
-30.28
-32.076
-33.603
-34.88
-35.922
-36.746
-37.37
-37.81
-38.083
-38.205
-38.193
-38.063
-37.828
-37.505
-37.108
-36.649
-36.142
-35.599
-35.03
-34.447
-33.858
-33.272
-32.696
-32.138
-31.602
-31.094
-30.618
-30.177
-29.774
-29.411
-29.089
-28.81
-28.576
-28.386
-28.241
-28.143
-28.091
-28.087
-28.131
-28.224
-28.368
-28.563
-28.811
-29.113
-29.471
-29.886
-30.359
-30.894
-31.492
-32.154
-32.883
-33.68
-34.549
-35.491
-36.509
-37.604
-38.779
-40.036
-41.377
-42.803
-44.317
-45.92
-47.612
-49.395
-51.267
-53.229
-55.278
-57.414
-59.633
-61.932
-64.307
-66.754
-69.267
-71.841
-74.469
-77.146
-79.863
-82.614
-85.391
-88.186
-90.991
-93.798
-96.597
-99.382
-102.143
-104.873
-107.563
-110.206
-112.793
-115.317
-117.771
-120.146
-122.437
-124.637
-126.739
-128.738
-130.629
-132.409
-134.072
-135.617
-137.04
-138.341
-139.518
-140.57
-141.496
-142.298
-142.976
-143.53
-143.963
-144.275
-144.469
-144.547
-144.511
-144.363
-144.107
-143.743
-143.274
-142.702
-142.029
-141.257
-140.387
-139.42
-138.36
-137.208
-135.966
-134.636
-133.22
-131.72
-130.137
-128.474
-126.73
-124.909
-123.011
-121.037
-118.99
-116.871
-114.684
-112.43
-110.111
-107.733
-105.297
-102.809
-100.274
-97.696
-95.081
-92.436
-89.769
-87.089
-84.405
-81.729
-79.071
-76.447
-73.869
-71.354
-68.915
-66.569
-64.33
-62.214
-60.235
-58.406
-56.738
-55.244
-53.935
-52.826
-51.93
-51.258
-50.823
-50.635
-50.701
-51.031
-51.629
-52.491
-53.612
-54.991
-56.625
-58.523
-60.688
-63.114
-65.791
-68.707
-71.843
-75.17
-78.647
-82.215
-85.815
-89.392
-92.901
-96.309
-99.586
-102.684
-105.553
-108.138
-110.385
-112.27
-113.776
-114.868
-115.55
-115.863
-115.887
-115.757
-115.598
-115.489
-115.514
-115.77
-116.356
-117.41
-119.057
-121.368
-124.46
-128.467
-133.433
-139.328
-145.903
-152.639
-158.975
-164.375
-168.222
-169.888
-168.936
-165.219
-159.196
-151.883
-144.364
-137.615
-132.554
-130.13
-130.913
-134.674
-139.974
-144.399
-145.248
-139.579
-124.345
-96.472
-53.274
5.717
78.302
162.567
256.237
357.501
465.211
571.161
663.62
730.718
760.792
752.471
710.305
639.3
545.122
427.063
282.442
113.206
-72.613
-258.078
-422.064
-547.659
-627.653
-664.944
-668.823
-649.789
-615.039
-571.404
-527.764
-491.791
-468.814
-457.255
-447.575
-431.194
-403.978
-367.654
-329.518
-294.847
-265.3
-240.771
-219.324
-200.264
-184.192
-170.889
-160.11
-151.359
-143.622
-136.359
-129.281
-121.93
-114.133
-106.199
-98.531
-91.707
-86.439
-82.941
-81.141
-81.006
-82.333
-84.843
-88.232
-91.98
-95.472
-98.331
-100.374
-101.527
-101.834
-101.316
-99.969
-97.887
-95.212
-92.083
-88.625
-84.907
-80.955
-76.813
-72.572
-68.348
-64.275
-60.471
-57.001
-53.903
-51.204
-48.917
-47.037
-45.535
-44.358
-43.441
-42.728
-42.175
-41.746
-41.409
-41.118
-40.814
-40.439
-39.928
-39.234
-38.322
-37.162
-35.728
-34.004
-31.979
-29.655
-27.041
-24.14
-20.951
-17.475
-13.709
-9.652
-5.31
-0.688
4.205
9.363
14.777
20.439
26.338
32.465
38.81
45.362
52.115
59.057
66.176
73.458
80.887
88.447
96.123
103.897
111.753
119.671
127.635
135.626
143.627
151.621
159.588
167.511
175.371
183.148
190.822
198.376
205.789
213.039
220.108
226.974
233.617
240.016
246.151
252.002
257.55
262.775
267.659
272.184
276.332
280.088
283.434
286.356
288.841
290.873
292.443
293.54
294.154
294.278
293.906
293.033
291.657
289.776
287.392
284.507
281.125
277.254
272.903
268.082
262.806
257.089
250.948
244.405
237.479
230.194
222.575
214.648
206.441
197.981
189.3
180.427
171.395
162.235
152.979
143.662
134.315
124.97
115.662
106.421
97.279
88.266
79.413
70.747
62.296
54.085
46.139
38.48
31.13
24.106
17.427
11.106
5.157
-0.409
-5.585
-10.364
-14.741
-18.716
-22.288
-25.459
-28.234
-30.618
-32.619
-34.246
-35.51
-36.424
-37.001
-37.255
-37.204
-36.863
-36.251
-35.385
-34.287
-32.974
-31.467
-29.786
-27.951
-25.983
-23.902
-21.727
-19.478
-17.175
-14.835
-12.477
-10.118
-7.775
-5.464
-3.199
-0.994
1.138
3.186
5.138
6.984
8.717
10.328
11.81
13.159
14.368
15.434
16.355
17.127
17.751
18.226
18.553
18.733
18.769
18.663
18.419
18.042
17.536
16.907
16.16
15.302
14.34
13.282
12.134
10.905
9.604
8.238
6.816
5.347
3.839
2.3
0.738
-0.837
-2.42
-4.001
-5.572
-7.128
-8.659
-10.16
-11.624
-13.045
-14.417
-15.736
-16.996
-18.194
-19.326
-20.388
-21.378
-22.294
-23.134
-23.896
-24.581
-25.188
-25.717
-26.171
-26.551
-26.859
-27.099
-27.272
-27.384
-27.437
-27.436
-27.384
-27.286
-27.147
-26.97
-26.762
-26.526
-26.267
-25.991
-25.703
-25.406
-25.106
-24.805
-24.508
-24.219
-23.94
-23.675
-23.426
-23.195
-22.985
-22.795
-22.629
-22.485
-22.363
-22.262
-22.18
-22.116
-22.065
-22.024
-21.991
-21.96
-21.928
-21.891
-21.844
-21.784
-21.704
-21.6
-21.468
-21.303
-21.1
-20.854
-20.561
-20.217
-19.819
-19.363
-18.848
-18.269
-17.626
-16.917
-16.14
-15.297
-14.388
-13.412
-12.374
-11.276
-10.122
-8.919
-7.675
-6.398
-5.098
-3.788
-2.478
-1.182
0.084
1.309
2.48
3.583
4.607
5.537
6.357
7.054
7.611
8.016
8.253
8.308
8.168
7.822
7.264
6.492
5.505
4.303
2.883
1.239
-0.636
-2.737
-5.052
-7.568
-10.269
-13.137
-16.145
-19.249
-22.396
-25.54
-28.645
-31.685
-34.645
-37.493
-40.193
-42.692
-44.94
-46.915
-48.62
-50.064
-51.245
-52.142
-52.742
-53.097
-53.313
-53.506
-53.742
-53.975
-54.2
-54.565
-55.348
-56.873
-59.305
-62.516
-66.349
-70.867
-76.053
-81.632
-86.846
-90.514
-91.75
-90.369
-86.508
-80.118
-71.179
-59.98
-47.717
-36.447
-27.975
-23.223
-22.309
-25.298
-32.204
-42.467
-54.254
-64.427
-69.496
-66.371
-52.785
-26.676
13.734
69.45
140.202
224.043
317.738
415.942
511.892
599.292
672.763
730.787
774.645
802.246
808.128
783.149
717.255
608.625
462.754
289.52
102.615
-85.211
-260.921
-409.375
-519.349
-586.556
-613.651
-610.089
-585.695
-546.598
-499.147
-450.763
-408.151
-377.332
-358.177
-342.912
-324.846
-300.251
-269.547
-238.978
-212.801
-191.527
-174.703
-160.003
-145.607
-131.499
-117.507
-103.179
-88.546
-73.738
-58.715
-43.693
-29.055
-15.023
-2.19
8.57
16.964
23.038
26.922
28.971
29.46
28.537
26.582
24.141
21.578
19.123
16.892
14.867
13.114
11.779
10.97
10.716
10.994
11.748
12.922
14.498
16.456
18.757
21.336
24.108
27.004
29.981
33.018
36.085
39.127
42.063
44.798
47.284
49.509
51.478
53.209
54.721
56.028
57.167
58.188
59.141
60.065
60.99
61.933
62.923
64.002
65.223
66.641
68.298
70.219
72.426
74.935
77.757
80.902
84.365
88.135
92.204
96.57
101.23
106.188
111.438
116.973
122.783
128.855
135.179
141.744
148.538
155.548
162.763
170.169
177.757
185.515
193.432
201.492
209.678
217.971
226.352
234.799
243.293
251.808
260.322
268.811
277.251
285.617
293.885
302.029
310.023
317.84
325.453
332.835
339.96
346.799
353.327
359.516
365.341
370.776
375.796
380.377
384.495
388.129
391.257
393.86
395.919
397.416
398.337
398.669
398.401
397.523
396.028
393.912
391.173
387.811
383.829
379.233
374.03
368.231
361.849
354.899
347.4
339.373
330.84
321.826
312.359
302.468
292.183
281.537
270.562
259.294
247.769
236.022
224.091
212.013
199.826
187.568
175.275
162.985
150.733
138.555
126.486
114.558
102.804
91.254
79.937
68.881
58.11
47.648
37.515
27.731
18.311
9.269
0.618
-7.635
-15.482
-22.919
-29.944
-36.556
-42.759
-48.556
-53.953
-58.958
-63.579
-67.829
-71.719
-75.262
-78.473
-81.368
-83.962
-86.272
-88.315
-90.11
-91.675
-93.028
-94.187
-95.173
-96.002
-96.694
-97.267
-97.738
-98.124
-98.442
-98.707
-98.934
-99.135
-99.324
-99.511
-99.708
-99.924
-100.166
-100.443
-100.759
-101.121
-101.532
-101.995
-102.513
-103.087
-103.717
-104.404
-105.146
-105.943
-106.793
-107.693
-108.641
-109.633
-110.666
-111.734
-112.835
-113.961
-115.109
-116.273
-117.448
-118.627
-119.805
-120.977
-122.137
-123.281
-124.404
-125.502
-126.57
-127.605
-128.604
-129.565
-130.486
-131.366
-132.203
-132.997
-133.748
-134.458
-135.127
-135.756
-136.347
-136.902
-137.425
-137.916
-138.379
-138.818
-139.235
-139.635
-140.02
-140.395
-140.764
-141.132
-141.502
-141.878
-142.266
-142.669
-143.09
-143.535
-144.005
-144.504
-145.035
-145.599
-146.198
-146.834
-147.507
-148.217
-148.962
-149.743
-150.556
-151.4
-152.272
-153.166
-154.081
-155.01
-155.949
-156.893
-157.836
-158.771
-159.693
-160.596
-161.471
-162.314
-163.116
-163.87
-164.569
-165.207
-165.776
-166.268
-166.677
-166.997
-167.22
-167.343
-167.36
-167.266
-167.057
-166.73
-166.283
-165.714
-165.021
-164.205
-163.266
-162.205
-161.025
-159.731
-158.326
-156.815
-155.205
-153.502
-151.714
-149.85
-147.92
-145.932
-143.898
-141.829
-139.738
-137.637
-135.541
-133.462
-131.418
-129.423
-127.496
-125.652
-123.909
-122.282
-120.788
-119.443
-118.26
-117.251
-116.426
-115.795
-115.368
-115.156
-115.169
-115.412
-115.891
-116.609
-117.567
-118.768
-120.206
-121.869
-123.747
-125.829
-128.108
-130.586
-133.258
-136.109
-139.127
-142.291
-145.574
-148.948
-152.373
-155.791
-159.15
-162.402
-165.506
-168.44
-171.168
-173.646
-175.829
-177.656
-179.082
-180.088
-180.641
-180.721
-180.349
-179.556
-178.415
-177.048
-175.532
-173.945
-172.389
-170.936
-169.7
-168.826
-168.387
-168.489
-169.282
-170.799
-173.029
-175.869
-178.914
-181.693
-183.85
-184.911
-184.38
-182.007
-177.651
-171.507
-164.433
-157.45
-151.254
-146.41
-143.684
-143.581
-146.046
-150.615
-154.641
-153.668
-145.739
-130.13
-107.185
-80.329
-47.38
-1.497
61.389
145.02
245.14
348.331
444.662
528.622
598.293
655.495
696.6
707.863
674.666
587.518
444.543
259.126
53
-152.4
-334.604
-479.015
-581.184
-642.334
-670.705
-675.057
-660.288
-629.864
-588.07
-542.797
-503.202
-475.304
-458.123
-443.459
-423.703
-396.226
-363.505
-332.173
-306.618
-287.028
-272.046
-259.418
-247.626
-236.165
-224.379
-211.468
-197.14
-181.671
-165.333
-148.381
-131.187
-114.203
-98.234
-84.339
-73.054
-64.372
-58.13
-54.005
-51.709
-51.079
-51.772
-53.281
-55.236
-57.373
-59.54
-61.709
-63.801
-65.66
-67.142
-68.164
-68.689
-68.741
-68.361
-67.562
-66.368
-64.794
-62.872
-60.656
-58.204
-55.574
-52.805
-49.937
-47.025
-44.154
-41.433
-38.936
-36.691
-34.692
-32.914
-31.332
-29.926
-28.663
-27.495
-26.373
-25.255
-24.106
-22.907
-21.625
-20.217
-18.631
-16.801
-14.681
-12.239
-9.457
-6.319
-2.817
1.057
5.3
9.895
14.834
20.108
25.714
31.654
37.922
44.507
51.395
58.571
66.021
73.73
81.682
89.861
98.25
106.833
115.595
124.524
133.604
142.815
152.14
161.556
171.042
180.576
190.137
199.699
209.238
218.732
228.157
237.491
246.709
255.788
264.704
273.435
281.955
290.241
298.269
306.013
313.451
320.558
327.311
333.689
339.668
345.229
350.351
355.015
359.203
362.9
366.09
368.758
370.893
372.483
373.52
373.997
373.908
373.251
372.024
370.228
367.867
364.945
361.469
357.449
352.895
347.822
342.243
336.178
329.647
322.67
315.274
307.483
299.327
290.835
282.038
272.969
263.662
254.151
244.473
234.662
224.757
214.792
204.804
194.83
184.905
175.065
165.342
155.77
146.38
137.204
128.269
119.604
111.234
103.183
95.473
88.124
81.154
74.579
68.413
62.667
57.348
52.465
48.02
44.015
40.448
37.315
34.612
32.329
30.455
28.979
27.886
27.159
26.782
26.734
26.996
27.547
28.365
29.426
30.708
32.189
33.843
35.648
37.581
39.617
41.734
43.909
46.119
48.344
50.562
52.753
54.897
56.976
58.974
60.873
62.66
64.322
65.847
67.225
68.448
69.508
70.402
71.126
71.678
72.057
72.265
72.305
72.179
71.893
71.451
70.861
70.129
69.264
68.272
67.163
65.946
64.629
63.222
61.736
60.179
58.562
56.895
55.188
53.451
51.692
49.923
48.152
46.386
44.635
42.904
41.201
39.531
37.898
36.305
34.756
33.25
31.79
30.373
28.998
27.663
26.364
25.099
23.862
22.649
21.454
20.273
19.101
17.931
16.758
15.576
14.381
13.165
11.925
10.654
9.346
7.998
6.603
5.158
3.659
2.101
0.481
-1.202
-2.95
-4.765
-6.645
-8.59
-10.598
-12.666
-14.79
-16.965
-19.185
-21.443
-23.731
-26.042
-28.365
-30.693
-33.015
-35.321
-37.603
-39.849
-42.05
-44.197
-46.28
-48.289
-50.215
-52.049
-53.782
-55.406
-56.911
-58.291
-59.539
-60.647
-61.612
-62.427
-63.088
-63.594
-63.942
-64.132
-64.163
-64.037
-63.756
-63.325
-62.748
-62.032
-61.184
-60.212
-59.125
-57.936
-56.654
-55.292
-53.861
-52.374
-50.843
-49.283
-47.707
-46.129
-44.564
-43.027
-41.538
-40.112
-38.769
-37.525
-36.398
-35.403
-34.559
-33.876
-33.367
-33.041
-32.907
-32.975
-33.255
-33.754
-34.474
-35.42
-36.592
-37.989
-39.61
-41.448
-43.489
-45.722
-48.137
-50.73
-53.507
-56.466
-59.592
-62.875
-66.297
-69.841
-73.486
-77.197
-80.92
-84.604
-88.196
-91.655
-94.954
-98.046
-100.874
-103.378
-105.481
-107.135
-108.323
-109.024
-109.22
-108.924
-108.152
-106.958
-105.47
-103.81
-102.104
-100.496
-99.104
-98.066
-97.576
-97.855
-99.053
-101.191
-104.156
-107.702
-111.597
-115.63
-119.464
-122.636
-124.802
-125.856
-125.947
-125.599
-125.356
-125.523
-126.585
-128.999
-132.687
-137.484
-142.972
-147.984
-151.229
-150.504
-142.262
-123.923
-94.626
-56.438
-13.64
32.21
82.761
143.032
219.007
310.824
413.877
521.047
622.55
708.766
770.078
794.05
769.877
694.738
572.05
411.86
229.494
37.583
-151.63
-322.748
-463.055
-564.413
-625.079
-654.506
-666.568
-669.87
-667.798
-657.726
-634.424
-597.965
-552.101
-501.773
-452.124
-405.817
-364.247
-328.692
-299.686
-277.245
-260.724
-248.983
-241.205
-236.322
-232.716
-228.711
-222.692
-213.867
-202.437
-188.9
-173.754
-157.7
-141.621
-126.586
-113.809
-103.895
-96.833
-92.396
-90.184
-89.838
-91.041
-93.3
-96.009
-98.732
-101.214
-103.319
-105.018
-106.209
-106.772
-106.669
-105.912
-104.568
-102.708
-100.378
-97.619
-94.472
-90.986
-87.231
-83.283
-79.214
-75.103
-71.027
-67.071
-63.352
-59.959
-56.946
-54.342
-52.133
-50.296
-48.811
-47.642
-46.744
-46.078
-45.598
-45.266
-45.056
-44.931
-44.846
-44.754
-44.587
-44.295
-43.84
-43.193
-42.334
-41.251
-39.929
-38.362
-36.557
-34.515
-32.233
-29.706
-26.924
-23.879
-20.571
-16.998
-13.164
-9.07
-4.716
-0.105
4.76
9.876
15.239
20.848
26.702
32.797
39.125
45.678
52.445
59.414
66.573
73.906
81.397
89.03
96.788
104.652
112.605
120.628
128.699
136.797
144.9
152.984
161.025
168.997
176.875
184.63
192.235
199.664
206.887
213.876
220.605
227.044
233.167
238.947
244.358
249.375
253.973
258.131
261.825
265.038
267.75
269.946
271.611
272.733
273.302
273.31
272.752
271.623
269.922
267.65
264.812
261.412
257.461
252.971
247.954
242.429
236.416
229.935
223.012
215.672
207.945
199.86
191.448
182.745
173.784
164.601
155.232
145.715
136.087
126.386
116.648
106.912
97.212
87.585
78.067
68.69
59.489
50.494
41.737
33.247
25.049
17.17
9.632
2.458
-4.334
-10.728
-16.708
-22.264
-27.384
-32.063
-36.294
-40.075
-43.407
-46.291
-48.731
-50.733
-52.307
-53.461
-54.208
-54.561
-54.534
-54.144
-53.406
-52.338
-50.96
-49.29
-47.35
-45.159
-42.739
-40.111
-37.298
-34.321
-31.202
-27.963
-24.626
-21.211
-17.741
-14.235
-10.714
-7.197
-3.701
-0.246
3.153
6.48
9.721
12.863
15.892
18.799
21.573
24.206
26.689
29.016
31.181
33.179
35.006
36.66
38.139
39.442
40.568
41.52
42.298
42.905
43.344
43.621
43.739
43.704
43.523
43.202
42.75
42.175
41.485
40.69
39.798
38.82
37.764
36.64
35.457
34.225
32.951
31.645
30.314
28.968
27.612
26.255
24.903
23.561
22.236
20.931
19.651
18.4
17.18
15.994
14.843
13.729
12.652
11.612
10.609
9.64
8.705
7.8
6.921
6.066
5.228
4.404
3.589
2.778
1.965
1.145
0.313
-0.536
-1.406
-2.302
-3.229
-4.19
-5.188
-6.225
-7.303
-8.423
-9.585
-10.787
-12.029
-13.307
-14.618
-15.958
-17.321
-18.702
-20.095
-21.492
-22.885
-24.265
-25.623
-26.947
-28.227
-29.452
-30.609
-31.686
-32.671
-33.551
-34.316
-34.953
-35.449
-35.795
-35.979
-35.99
-35.821
-35.461
-34.904
-34.144
-33.175
-31.996
-30.604
-28.999
-27.183
-25.16
-22.935
-20.514
-17.905
-15.118
-12.165
-9.058
-5.814
-2.449
1.019
4.569
8.179
11.823
15.477
19.114
22.71
26.237
29.668
32.974
36.124
39.095
41.86
44.397
46.68
48.683
50.385
51.769
52.825
53.542
53.91
53.918
53.559
52.839
51.765
50.349
48.604
46.526
44.122
41.41
38.411
35.149
31.653
27.943
24.045
20.008
15.879
11.715
7.576
3.487
-0.511
-4.39
-8.132
-11.678
-14.966
-17.952
-20.564
-22.762
-24.573
-25.982
-26.958
-27.577
-27.928
-28.24
-28.923
-30.178
-32.027
-34.444
-37.354
-40.736
-44.523
-48.231
-50.922
-51.86
-50.683
-47.422
-42.387
-35.646
-27.286
-17.944
-9.038
-2.253
1.194
0.783
-3.403
-11.271
-22.784
-37.385
-53.332
-67.786
-77.768
-80.577
-74.075
-56.245
-24.653
22.729
86.888
166.094
255.869
351.51
448.15
543.37
637.656
729.049
812.758
879.362
914.696
905.988
844.872
730.251
567.589
369.539
155.447
-54.08
-235.625
-371.698
-458.888
-502.529
-518.43
-524.19
-527.158
-528.297
-522.928
-504.938
-474.785
-436.501
-394.726
-353.789
-314.953
-278.284
-244.586
-214.31
-187.917
-165.576
-146.814
-131.535
-119.873
-111.333
-104.849
-99.203
-93.186
-86.281
-78.615
-70.164
-60.874
-51.009
-41.08
-31.909
-24.447
-19.079
-15.664
-13.986
-13.768
-14.712
-16.528
-18.702
-20.536
-21.609
-21.753
-20.941
-19.286
-16.852
-13.637
-9.719
-5.257
-0.402
4.695
9.923
15.251
20.617
25.925
31.052
35.829
40.145
43.951
47.222
49.955
52.145
53.784
54.897
55.551
55.81
55.735
55.379
54.77
53.955
52.994
51.956
50.921
49.951
49.087
48.367
47.825
47.493
47.399
47.561
47.981
48.664
49.621
50.867
52.417
54.282
56.464
58.967
61.793
64.941
68.414
72.209
76.323
80.75
85.485
90.522
95.857
101.479
107.377
113.535
119.937
126.566
133.4
140.42
147.603
154.924
162.362
169.89
177.486
185.123
192.775
200.416
208.019
215.557
223.004
230.331
237.512
244.52
251.329
257.913
264.245
270.301
276.056
281.486
286.569
291.281
295.602
299.512
302.991
306.022
308.589
310.677
312.272
313.363
313.938
313.989
313.509
312.493
310.937
308.838
306.196
303.012
299.289
295.033
290.25
284.948
279.137
272.831
266.042
258.785
251.079
242.942
234.395
225.458
216.156
206.514
196.557
186.312
175.807
165.07
154.132
143.022
131.771
120.408
108.966
97.474
85.963
74.465
63.009
51.625
40.341
29.187
18.189
7.375
-3.231
-13.604
-23.72
-33.558
-43.096
-52.317
-61.202
-69.734
-77.901
-85.689
-93.088
-100.089
-106.684
-112.869
-118.639
-123.994
-128.933
-133.457
-137.569
-141.274
-144.579
-147.489
-150.015
-152.167
-153.954
-155.39
-156.488
-157.262
-157.727
-157.898
-157.791
-157.424
-156.814
-155.977
-154.934
-153.701
-152.298
-150.742
-149.053
-147.247
-145.343
-143.358
-141.308
-139.21
-137.078
-134.929
-132.774
-130.63
-128.507
-126.417
-124.373
-122.384
-120.46
-118.609
-116.839
-115.158
-113.571
-112.084
-110.702
-109.428
-108.267
-107.22
-106.289
-105.476
-104.781
-104.204
-103.742
-103.396
-103.162
-103.039
-103.022
-103.11
-103.299
-103.585
-103.965
-104.435
-104.992
-105.631
-106.348
-107.139
-107.999
-108.926
-109.913
-110.958
-112.055
-113.201
-114.392
-115.622
-116.889
-118.188
-119.515
-120.866
-122.237
-123.623
-125.022
-126.428
-127.839
-129.252
-130.663
-132.068
-133.465
-134.85
-136.22
-137.572
-138.902
-140.206
-141.481
-142.723
-143.927
-145.091
-146.21
-147.28
-148.298
-149.261
-150.164
-151.004
-151.778
-152.482
-153.113
-153.667
-154.142
-154.535
-154.842
-155.062
-155.191
-155.228
-155.171
-155.018
-154.767
-154.416
-153.965
-153.412
-152.756
-151.997
-151.135
-150.169
-149.1
-147.929
-146.659
-145.291
-143.827
-142.271
-140.626
-138.895
-137.081
-135.19
-133.224
-131.189
-129.089
-126.93
-124.718
-122.459
-120.16
-117.826
-115.466
-113.087
-110.698
-108.306
-105.92
-103.547
-101.198
-98.881
-96.607
-94.385
-92.226
-90.141
-88.145
-86.249
-84.468
-82.813
-81.296
-79.931
-78.728
-77.696
-76.84
-76.165
-75.679
-75.388
-75.297
-75.412
-75.736
-76.269
-77.012
-77.965
-79.126
-80.486
-82.031
-83.75
-85.633
-87.679
-89.896
-92.283
-94.836
-97.542
-100.39
-103.365
-106.447
-109.598
-112.765
-115.893
-118.931
-121.841
-124.595
-127.156
-129.48
-131.505
-133.161
-134.401
-135.193
-135.517
-135.36
-134.731
-133.66
-132.217
-130.532
-128.741
-126.982
-125.395
-124.119
-123.274
-123.008
-123.519
-124.939
-127.337
-130.678
-134.705
-139.093
-143.561
-147.742
-151.172
-153.473
-154.279
-153.516
-151.814
-149.974
-148.706
-148.672
-150.384
-154.325
-161.031
-170.452
-180.09
-185.918
-184.723
-174.374
-156.71
-135.645
-110.239
-75.932
-25.094
50.792
151.666
270.439
398.111
523.256
636.047
727.915
785.643
796.799
757.042
668.324
542.912
396.818
236.838
68.319
-104.843
-276.547
-429.546
-550.071
-631.957
-677.612
-699.216
-704.757
-695.819
-668.929
-621.664
-560.134
-494.5
-437.172
-394.029
-361.583
-335.586
-310.707
-285.34
-263.246
-245.961
-233.87
-226.005
-218.741
-209.721
-197.935
-183.017
-165.783
-147.21
-128.059
-109.184
-91.511
-75.96
-63.393
-54.247
-48.448
-45.664
-45.408
-47.166
-50.464
-54.787
-59.556
-64.297
-68.694
-72.504
-75.578
-77.825
-79.149
-79.508
-78.934
-77.465
-75.168
-72.131
-68.445
-64.212
-59.545
-54.54
-49.296
-43.942
-38.6
-33.396
-28.465
-23.885
-19.712
-15.988
-12.718
-9.891
-7.484
-5.446
-3.717
-2.245
-0.979
0.126
1.108
2.017
2.907
3.832
4.852
6.011
7.341
8.869
10.614
12.586
14.792
17.231
19.892
22.771
25.869
29.184
32.72
36.48
40.459
44.657
49.068
53.688
58.515
63.545
68.773
74.198
79.813
85.618
91.611
97.788
104.143
110.669
117.356
124.197
131.181
138.298
145.537
152.886
160.333
167.866
175.473
183.14
190.854
198.599
206.358
214.114
221.848
229.541
237.173
244.722
252.165
259.479
266.641
273.625
280.408
286.964
293.267
299.293
305.016
310.411
315.454
320.12
324.386
328.229
331.628
334.56
337.008
338.954
340.381
341.275
341.623
341.414
340.64
339.293
337.371
334.872
331.797
328.151
323.941
319.177
313.871
308.042
301.706
294.885
287.604
279.888
271.766
263.27
254.43
245.283
235.863
226.208
216.356
206.347
196.219
186.014
175.77
165.529
155.329
145.209
135.207
125.361
115.705
106.273
97.099
88.212
79.641
71.412
63.549
56.071
48.998
42.344
36.123
30.344
25.013
20.136
15.712
11.742
8.22
5.14
2.494
0.27
-1.545
-2.967
-4.013
-4.701
-5.053
-5.089
-4.832
-4.306
-3.534
-2.542
-1.353
0.007
1.513
3.14
4.865
6.663
8.512
10.389
12.274
14.147
15.989
17.783
19.513
21.165
22.727
24.187
25.534
26.762
27.862
28.831
29.663
30.357
30.913
31.33
31.61
31.756
31.773
31.664
31.435
31.094
30.646
30.1
29.463
28.745
27.952
27.095
26.182
25.222
24.222
23.192
22.14
21.072
19.996
18.918
17.846
16.783
15.736
14.709
13.705
12.729
11.782
10.866
9.983
9.134
8.317
7.534
6.781
6.059
5.363
4.693
4.044
3.415
2.801
2.198
1.604
1.014
0.426
-0.164
-0.76
-1.364
-1.979
-2.608
-3.251
-3.911
-4.589
-5.286
-6.002
-6.737
-7.491
-8.263
-9.053
-9.858
-10.676
-11.506
-12.344
-13.187
-14.032
-14.873
-15.707
-16.527
-17.33
-18.11
-18.859
-19.574
-20.247
-20.873
-21.446
-21.961
-22.411
-22.792
-23.099
-23.326
-23.47
-23.526
-23.492
-23.365
-23.143
-22.823
-22.406
-21.889
-21.273
-20.558
-19.746
-18.837
-17.834
-16.739
-15.555
-14.286
-12.938
-11.514
-10.022
-8.469
-6.861
-5.208
-3.518
-1.8
-0.064
1.681
3.422
5.15
6.852
8.518
10.134
11.686
13.159
14.539
15.812
16.963
17.98
18.85
19.561
20.107
20.481
20.675
20.684
20.496
20.107
19.511
18.707
17.693
16.467
15.03
13.387
11.553
9.537
7.351
4.998
2.469
-0.233
-3.1
-6.121
-9.276
-12.545
-15.903
-19.312
-22.714
-26.052
-29.272
-32.329
-35.2
-37.843
-40.214
-42.259
-43.903
-45.1
-45.823
-46.055
-45.795
-45.069
-43.915
-42.414
-40.696
-38.884
-37.119
-35.536
-34.249
-33.402
-33.123
-33.574
-34.975
-37.415
-40.883
-45.243
-50.148
-55.219
-60.119
-64.336
-67.265
-68.529
-67.864
-65.428
-62.009
-58.296
-54.95
-52.793
-52.307
-53.74
-57.415
-62.69
-67.695
-70.7
-68.455
-57.574
-37.053
-4.793
38.974
92.759
158.608
234.775
320.272
414.716
511.658
609.29
703.956
785.692
846.442
871.068
845.039
766.199
637.431
469.409
278.859
78.117
-120.191
-299.017
-443.967
-545.526
-600.869
-620.296
-619.852
-609.566
-594.672
-574.388
-543.622
-502.709
-455.799
-407.047
-361.386
-321.363
-287.016
-258.072
-233.947
-213.861
-196.893
-182.473
-170.194
-159.401
-149.58
-140.292
-130.914
-121.036
-110.814
-100.379
-89.836
-79.551
-69.821
-61.001
-53.72
-48.538
-45.588
-44.775
-45.864
-48.482
-52.321
-57.026
-62.041
-66.77
-70.777
-73.828
-75.853
-76.882
-76.93
-76.003
-74.167
-71.547
-68.279
-64.486
-60.263
-55.67
-50.771
-45.682
-40.552
-35.535
-30.786
-26.4
-22.425
-18.9
-15.846
-13.262
-11.132
-9.413
-8.045
-6.975
-6.16
-5.563
-5.15
-4.873
-4.671
-4.477
-4.224
-3.86
-3.352
-2.667
-1.782
-0.679
0.652
2.211
3.991
5.99
8.213
10.663
13.349
16.275
19.439
22.841
26.48
30.351
34.454
38.786
43.34
48.114
53.102
58.3
63.703
69.304
75.094
81.06
87.187
93.46
99.864
106.379
112.986
119.667
126.401
133.169
139.95
146.724
153.47
160.167
166.793
173.326
179.742
186.019
192.133
198.06
203.777
209.258
214.481
219.422
224.058
228.368
232.331
235.925
239.133
241.935
244.317
246.262
247.758
248.792
249.354
249.438
249.036
248.146
246.765
244.894
242.535
239.691
236.369
232.575
228.319
223.613
218.469
212.903
206.932
200.577
193.857
186.798
179.424
171.762
163.839
155.686
147.332
138.808
130.147
121.38
112.54
103.661
94.774
85.912
77.107
68.39
59.791
51.339
43.061
34.984
27.133
19.529
12.196
5.152
-1.584
-7.996
-14.068
-19.789
-25.148
-30.136
-34.746
-38.976
-42.822
-46.285
-49.367
-52.073
-54.408
-56.382
-58.002
-59.281
-60.231
-60.867
-61.203
-61.256
-61.045
-60.586
-59.899
-59.004
-57.92
-56.666
-55.262
-53.727
-52.081
-50.342
-48.528
-46.657
-44.748
-42.817
-40.88
-38.954
-37.053
-35.192
-33.382
-31.637
-29.966
-28.379
-26.886
-25.492
-24.205
-23.029
-21.97
-21.029
-20.21
-19.512
-18.937
-18.483
-18.149
-17.932
-17.829
-17.836
-17.949
-18.163
-18.475
-18.879
-19.37
-19.943
-20.591
-21.31
-22.093
-22.934
-23.826
-24.764
-25.74
-26.749
-27.785
-28.842
-29.913
-30.994
-32.08
-33.166
-34.247
-35.319
-36.378
-37.421
-38.446
-39.449
-40.428
-41.384
-42.313
-43.216
-44.093
-44.942
-45.764
-46.559
-47.326
-48.067
-48.78
-49.466
-50.126
-50.759
-51.366
-51.949
-52.507
-53.041
-53.553
-54.043
-54.512
-54.96
-55.389
-55.8
-56.192
-56.566
-56.923
-57.263
-57.586
-57.891
-58.177
-58.442
-58.685
-58.904
-59.094
-59.254
-59.38
-59.469
-59.515
-59.518
-59.471
-59.373
-59.219
-59.006
-58.73
-58.388
-57.977
-57.492
-56.931
-56.29
-55.566
-54.757
-53.861
-52.874
-51.795
-50.621
-49.352
-47.986
-46.523
-44.961
-43.301
-41.544
-39.693
-37.749
-35.718
-33.603
-31.41
-29.146
-26.819
-24.437
-22.009
-19.544
-17.053
-14.546
-12.035
-9.532
-7.049
-4.597
-2.192
0.151
2.417
4.589
6.653
8.593
10.393
12.038
13.513
14.808
15.913
16.817
17.51
17.98
18.218
18.216
17.968
17.47
16.72
15.715
14.457
12.96
11.234
9.292
7.14
4.775
2.202
-0.567
-3.522
-6.645
-9.913
-13.302
-16.773
-20.269
-23.735
-27.119
-30.374
-33.472
-36.375
-39.034
-41.408
-43.431
-45.056
-46.261
-47.009
-47.276
-47.086
-46.468
-45.497
-44.301
-42.968
-41.597
-40.32
-39.235
-38.479
-38.197
-38.473
-39.451
-41.304
-44.097
-47.846
-52.404
-57.346
-62.236
-66.669
-70.074
-71.887
-71.672
-69.124
-64.519
-58.706
-52.603
-47.092
-42.977
-40.983
-41.702
-45.296
-50.827
-56.271
-59.082
-56.577
-46.211
-25.278
8.834
58.298
123.153
200.468
286.175
375.333
464.955
554.781
643.38
727.327
798.102
842.017
844.797
794.787
688.3
530.063
333.148
117.265
-96.856
-287.855
-439.967
-546.949
-609.931
-638.73
-643.55
-629.18
-598.613
-551.791
-492.749
-434.098
-386.368
-357.603
-348.749
-348.013
-343.781
-325.749
-287.322
