Name,Criss Capps
Date of Birth,"Feb 5, 1952"
Recorded Date,2025-04-19 20:03:24 -0400
Classification,Inconclusive
Symptoms,
Software Version,1.90
Device,"Watch5,4"
Sample Rate,512.844 hertz


Lead,Lead I
Unit,µV

39.188
27.862
12.12
-5.464
-22.534
-37.51
-49.325
-57.229
-60.752
-59.919
-55.257
-47.894
-39.259
-30.556
-22.883
-17.017
-13.454
-12.462
-13.911
-17.278
-21.822
-26.72
-31.108
-34.417
-36.293
-36.516
-35.139
-32.337
-28.362
-23.612
-18.521
-13.405
-8.518
-4.024
0.035
3.608
6.67
9.24
11.339
12.988
14.222
15.054
15.492
15.566
15.305
14.76
13.992
13.061
12.031
10.95
9.853
8.768
7.721
6.725
5.796
4.942
4.158
3.447
2.812
2.256
1.782
1.39
1.072
0.822
0.636
0.512
0.448
0.445
0.497
0.604
0.766
0.98
1.249
1.569
1.936
2.344
2.787
3.259
3.755
4.267
4.788
5.311
5.831
6.341
6.836
7.313
7.766
8.191
8.586
8.948
9.276
9.567
9.821
10.037
10.218
10.363
10.475
10.556
10.608
10.634
10.637
10.622
10.59
10.547
10.495
10.439
10.383
10.331
10.287
10.256
10.242
10.247
10.278
10.335
10.424
10.546
10.703
10.896
11.128
11.398
11.707
12.054
12.439
12.86
13.315
13.803
14.319
14.862
15.428
16.013
16.613
17.226
17.846
18.471
19.096
19.719
20.335
20.942
21.535
22.113
22.671
23.207
23.718
24.203
24.658
25.082
25.474
25.83
26.151
26.435
26.681
26.889
27.058
27.188
27.28
27.334
27.352
27.334
27.281
27.196
27.08
26.935
26.762
26.562
26.338
26.091
25.823
25.533
25.224
24.896
24.55
24.186
23.806
23.408
22.992
22.56
22.11
21.642
21.156
20.651
20.128
19.585
19.022
18.44
17.837
17.213
16.568
15.901
15.212
14.5
13.765
13.007
12.226
11.422
10.596
9.749
8.88
7.992
7.086
6.163
5.225
4.274
3.313
2.344
1.37
0.394
-0.581
-1.551
-2.514
-3.466
-4.403
-5.322
-6.221
-7.096
-7.944
-8.763
-9.55
-10.301
-11.016
-11.691
-12.324
-12.914
-13.46
-13.96
-14.414
-14.822
-15.183
-15.499
-15.77
-15.997
-16.182
-16.328
-16.436
-16.509
-16.552
-16.566
-16.557
-16.529
-16.486
-16.432
-16.374
-16.316
-16.263
-16.22
-16.193
-16.187
-16.208
-16.261
-16.351
-16.483
-16.663
-16.896
-17.185
-17.536
-17.952
-18.437
-18.994
-19.626
-20.334
-21.122
-21.99
-22.939
-23.968
-25.078
-26.268
-27.534
-28.876
-30.29
-31.772
-33.318
-34.923
-36.582
-38.288
-40.034
-41.813
-43.616
-45.436
-47.263
-49.087
-50.897
-52.683
-54.434
-56.139
-57.785
-59.363
-60.859
-62.263
-63.563
-64.747
-65.805
-66.726
-67.499
-68.114
-68.563
-68.836
-68.925
-68.825
-68.528
-68.03
-67.325
-66.412
-65.287
-63.95
-62.402
-60.643
-58.678
-56.512
-54.151
-51.605
-48.882
-45.996
-42.962
-39.794
-36.51
-33.128
-29.666
-26.147
-22.591
-19.019
-15.453
-11.915
-8.429
-5.018
-1.707
1.482
4.523
7.395
10.073
12.535
14.761
16.732
18.435
19.855
20.979
21.794
22.283
22.437
22.253
21.73
20.872
19.69
18.196
16.418
14.396
12.169
9.776
7.252
4.623
1.926
-0.802
-3.518
-6.169
-8.711
-11.115
-13.348
-15.385
-17.222
-18.851
-20.302
-21.657
-22.984
-24.355
-25.84
-27.463
-29.276
-31.36
-33.786
-36.652
-40.048
-43.991
-48.529
-53.734
-59.563
-65.942
-72.673
-79.295
-85.347
-90.463
-94.203
-96.164
-96.113
-93.808
-89.276
-83.084
-75.913
-68.342
-60.957
-54.33
-48.817
-44.708
-42.102
-39.186
-32.823
-20.851
-1.045
25.786
55.274
87.144
122.738
166.174
226.708
306.134
401.318
506.668
609.122
699.607
770.563
811.44
816.874
780.672
699.298
577.307
419.463
236.194
42.349
-147.212
-313.682
-442.892
-528.207
-569.749
-575.059
-553.249
-513.741
-465.099
-415.891
-373.475
-340.511
-316.059
-294.501
-270.381
-242.811
-213.667
-187.505
-167.799
-154.4
-145.459
-138.462
-131.607
-124.369
-116.779
-108.882
-100.461
-91.599
-82.703
-74.102
-66.23
-59.436
-53.852
-49.8
-47.68
-47.517
-49.124
-52.225
-56.433
-61.452
-67.053
-72.852
-78.402
-83.381
-87.564
-90.86
-93.287
-94.843
-95.538
-95.433
-94.63
-93.248
-91.412
-89.22
-86.743
-84.049
-81.216
-78.35
-75.558
-72.945
-70.61
-68.613
-66.991
-65.773
-64.962
-64.54
-64.482
-64.745
-65.275
-66.03
-66.97
-68.059
-69.267
-70.553
-71.871
-73.176
-74.418
-75.559
-76.571
-77.428
-78.113
-78.614
-78.921
-79.032
-78.952
-78.68
-78.212
-77.545
-76.674
-75.593
-74.304
-72.807
-71.102
-69.193
-67.081
-64.768
-62.258
-59.554
-56.66
-53.581
-50.317
-46.875
-43.261
-39.483
-35.552
-31.476
-27.266
-22.933
-18.489
-13.946
-9.316
-4.612
0.156
4.974
9.83
14.711
19.603
24.493
29.368
34.215
39.02
43.769
48.449
53.045
57.545
61.935
66.203
70.335
74.319
78.143
81.795
85.265
88.541
91.614
94.473
97.109
99.514
101.68
103.599
105.266
106.674
107.819
108.696
109.302
109.635
109.693
109.475
108.982
108.216
107.178
105.874
104.307
102.484
100.412
98.099
95.555
92.79
89.814
86.64
83.281
79.75
76.063
72.233
68.277
64.212
60.054
55.821
51.531
47.2
42.848
38.493
34.152
29.844
25.587
21.399
17.296
13.298
9.42
5.678
2.087
-1.337
-4.581
-7.634
-10.483
-13.118
-15.529
-17.71
-19.652
-21.35
-22.8
-23.998
-24.943
-25.636
-26.077
-26.27
-26.219
-25.931
-25.416
-24.683
-23.742
-22.606
-21.288
-19.801
-18.16
-16.379
-14.473
-12.458
-10.35
-8.167
-5.929
-3.654
-1.361
0.93
3.201
5.434
7.614
9.73
11.77
13.721
15.571
17.301
18.896
20.349
21.652
22.803
23.808
24.678
25.438
26.125
26.778
27.432
28.123
28.875
29.717
30.685
31.816
33.154
34.742
36.604
38.771
41.263
44.075
47.183
50.524
53.994
57.489
60.916
64.181
67.198
69.869
72.078
73.714
74.665
74.84
74.153
72.485
69.798
66.154
61.724
56.856
51.934
47.286
43.287
40.34
38.69
38.507
39.728
41.874
44.562
47.479
50.293
52.988
55.59
57.981
60.592
64.488
71.405
83.986
104.185
132.296
166.195
202.498
239.037
275.954
318.303
371.747
439.351
521.202
608.02
687.115
745.766
770.78
759.188
714.558
644.319
561.176
472.357
380.606
286.585
187.474
83.581
-22.054
-126.135
-224.579
-314.886
-396.011
-466.956
-527.232
-576.743
-615.619
-644.337
-663.391
-673.691
-676.675
-674.173
-668.236
-660.29
-651.068
-641.247
-631.573
-622.243
-612.967
-602.876
-590.551
-575.224
-556.79
-535.116
-510.085
-481.873
-450.863
-417.901
-384.292
-350.883
-318.104
-286.381
-256.01
-227.236
-200.254
-174.97
-151.056
-128.339
-106.771
-86.34
-67.101
-49.045
-32.125
-16.377
-1.864
11.382
23.379
34.214
43.999
52.813
60.712
67.761
74.033
79.611
84.57
88.971
92.876
96.363
99.531
102.475
105.27
107.974
110.617
113.216
115.782
118.319
120.812
123.233
125.545
127.711
129.714
131.55
133.202
134.64
135.813
136.691
137.258
137.501
137.421
137.013
136.291
135.301
134.124
132.866
131.645
130.586
129.792
129.348
129.345
129.874
131.033
132.912
135.595
139.158
143.683
149.257
155.935
163.732
172.611
182.488
193.262
204.809
217.024
229.824
243.126
256.853
270.922
285.245
299.735
314.319
328.911
343.41
357.745
371.869
385.785
399.554
413.243
426.919
440.621
454.348
468.083
481.8
495.461
509.025
522.446
535.648
548.558
561.119
573.253
584.86
595.803
605.879
614.881
622.636
629.003
633.884
637.21
638.916
638.965
637.335
634.011
629.003
622.331
614.001
604.047
592.526
579.526
565.2
549.736
533.284
515.987
497.97
479.348
460.245
440.778
421.059
401.209
381.357
361.644
342.217
323.21
304.741
286.916
269.796
253.402
237.766
222.911
208.855
195.614
183.186
171.56
160.716
150.617
141.198
132.368
124.037
116.122
108.542
101.22
94.097
87.136
80.309
73.603
67.007
60.514
54.125
47.845
41.691
35.688
29.878
24.32
19.062
14.141
9.588
5.432
1.689
-1.632
-4.538
-7.051
-9.193
-10.987
-12.458
-13.635
-14.553
-15.251
-15.773
-16.171
-16.487
-16.756
-17.011
-17.281
-17.59
-17.959
-18.401
-18.922
-19.529
-20.23
-21.032
-21.942
-22.964
-24.098
-25.343
-26.699
-28.164
-29.737
-31.416
-33.2
-35.087
-37.075
-39.161
-41.345
-43.623
-45.99
-48.439
-50.962
-53.552
-56.202
-58.903
-61.646
-64.423
-67.225
-70.045
-72.875
-75.709
-78.537
-81.352
-84.149
-86.92
-89.659
-92.361
-95.019
-97.63
-100.189
-102.691
-105.133
-107.513
-109.826
-112.072
-114.248
-116.354
-118.387
-120.35
-122.241
-124.062
-125.815
-127.501
-129.122
-130.682
-132.181
-133.624
-135.013
-136.35
-137.639
-138.881
-140.081
-141.241
-142.362
-143.449
-144.503
-145.527
-146.523
-147.493
-148.44
-149.364
-150.269
-151.155
-152.024
-152.878
-153.717
-154.542
-155.353
-156.152
-156.937
-157.708
-158.464
-159.205
-159.929
-160.634
-161.32
-161.985
-162.626
-163.243
-163.833
-164.396
-164.928
-165.429
-165.897
-166.33
-166.727
-167.086
-167.405
-167.684
-167.92
-168.112
-168.26
-168.361
-168.414
-168.419
-168.375
-168.279
-168.133
-167.934
-167.683
-167.38
-167.023
-166.614
-166.153
-165.641
-165.078
-164.466
-163.806
-163.099
-162.347
-161.55
-160.711
-159.832
-158.912
-157.954
-156.96
-155.93
-154.868
-153.775
-152.653
-151.503
-150.326
-149.125
-147.901
-146.658
-145.395
-144.113
-142.814
-141.5
-140.176
-138.846
-137.51
-136.17
-134.827
-133.481
-132.138
-130.8
-129.469
-128.144
-126.824
-125.511
-124.207
-122.915
-121.638
-120.374
-119.12
-117.868
-116.619
-115.369
-114.121
-112.886
-111.645
-110.379
-109.069
-107.693
-106.266
-104.821
-103.353
-101.836
-100.268
-98.685
-97.179
-95.85
-94.661
-93.508
-92.294
-90.995
-89.649
-88.139
-86.377
-84.396
-82.231
-80.233
-78.28
-75.167
-71.014
-67.006
-65.14
-69.639
-80.469
-92.957
-102.22
-101.44
-89.625
-73.036
-56.896
-46.51
-43.251
-42.955
-43.313
-43.2
-42.375
-42.464
-43.652
-45.313
-47.296
-49.123
-50.472
-51.173
-50.812
-49.353
-47.299
-45.041
-42.786
-40.646
-38.573
-36.643
-35.112
-34.038
-33.249
-32.602
-31.975
-31.329
-30.748
-30.256
-29.802
-29.37
-28.971
-28.619
-28.346
-28.154
-28.008
-27.888
-27.778
-27.666
-27.557
-27.449
-27.333
-27.201
-27.043
-26.847
-26.603
-26.301
-25.933
-25.492
-24.967
-24.352
-23.64
-22.823
-21.898
-20.862
-19.705
-18.416
-16.979
-15.377
-13.604
-11.663
-9.564
-7.311
-4.91
-2.365
0.309
3.096
5.983
8.972
12.08
15.321
18.698
22.201
25.804
29.481
33.219
37.02
40.886
44.811
48.785
52.805
56.885
61.048
65.292
69.577
73.828
77.97
81.95
85.734
89.305
92.637
95.688
98.411
100.762
102.716
104.244
105.309
105.844
105.773
105.062
103.72
101.809
99.394
96.51
93.185
89.442
85.322
80.894
76.23
71.387
66.412
61.357
56.285
51.295
46.491
41.947
37.708
33.776
30.151
26.857
23.917
21.341
19.11
17.155
15.385
13.732
12.135
10.54
8.89
7.074
4.976
2.494
-0.469
-3.95
-8.011
-12.769
-18.249
-24.375
-30.924
-37.422
-43.348
-48.268
-51.682
-53.081
-52.189
-48.882
-43.422
-36.655
-29.485
-22.761
-17.332
-13.758
-12.256
-12.804
-14.617
-15.95
-14.062
-5.355
13.385
44.016
85.341
134.361
188.755
247.809
315.542
396.397
491.42
597.879
704.434
797.984
866.994
900.656
896.759
854.494
773.112
656.314
504.156
322.634
127.115
-65.154
-230.592
-351.813
-426.623
-460.968
-469.756
-467.605
-459.048
-443.933
-419.431
-382.844
-337.223
-288.113
-240.454
-198.923
-165.88
-141.727
-126.283
-118.422
-116.31
-118.149
-122.385
-127.235
-131.07
-132.588
-130.688
-125.166
-116.61
-105.785
-93.51
-80.743
-68.358
-57.22
-48.214
-41.683
-37.509
-35.439
-35.061
-35.971
-37.861
-40.347
-42.983
-45.49
-47.721
-49.589
-51.102
-52.226
-52.862
-52.975
-52.575
-51.684
-50.355
-48.634
-46.544
-44.128
-41.446
-38.553
-35.509
-32.37
-29.179
-25.982
-22.843
-19.841
-17.051
-14.522
-12.31
-10.448
-8.94
-7.795
-6.976
-6.416
-6.102
-6.044
-6.094
-6.091
-6.095
-6.072
-5.963
-6.017
-5.407
-3.338
-0.865
1.705
2.4
-1.149
-6.296
-11.283
-13.5
-9.359
-2.034
5.786
12.264
14.353
14.23
14.101
14.451
16.621
19.825
23.052
26.485
29.989
33.624
37.587
41.738
45.962
50.285
54.702
59.188
63.733
68.333
72.978
77.672
82.424
87.211
92.01
96.811
101.601
106.365
111.092
115.765
120.367
124.888
129.313
133.63
137.825
141.885
145.797
149.547
153.124
156.514
159.705
162.688
165.449
167.98
170.269
172.309
174.09
175.606
176.849
177.814
178.495
178.888
178.99
178.798
178.311
177.528
176.449
175.074
173.407
171.451
169.209
166.686
163.889
160.825
157.501
153.927
150.113
146.07
141.811
137.347
132.694
127.867
122.882
117.755
112.503
107.146
101.7
96.185
90.618
85.019
79.407
73.8
68.216
62.675
57.195
51.793
46.487
41.294
36.23
31.311
26.553
21.968
17.571
13.373
9.387
5.623
2.091
-1.201
-4.245
-7.034
-9.565
-11.835
-13.843
-15.588
-17.075
-18.307
-19.293
-20.039
-20.557
-20.855
-20.948
-20.847
-20.567
-20.124
-19.531
-18.805
-17.962
-17.021
-16.002
-14.923
-13.804
-12.663
-11.521
-10.398
-9.314
-8.288
-7.335
-6.47
-5.71
-5.071
-4.576
-4.239
-4.068
-4.068
-4.241
-4.582
-5.082
-5.723
-6.468
-7.282
-8.124
-8.957
-9.752
-10.475
-11.089
-11.551
-11.816
-11.846
-11.619
-11.116
-10.322
-9.235
-7.872
-6.278
-4.534
-2.734
-0.983
0.62
1.975
2.985
3.571
3.646
3.116
1.901
-0.084
-2.899
-6.554
-11.065
-16.448
-22.63
-29.427
-36.504
-43.324
-49.379
-54.275
-57.588
-58.861
-57.725
-53.994
-47.956
-40.416
-32.173
-23.716
-15.531
-8.308
-2.659
1.115
4.473
10.553
21.856
39.613
62.119
86.176
112.059
142.919
184.422
242.886
318.352
405.621
497.413
583.717
655.793
707.421
731.106
720.362
673.497
590.212
473.967
334.864
182.087
27.596
-113.857
-235.576
-334.61
-413.559
-482.568
-546.921
-607.745
-663.646
-709.12
-742.117
-764.333
-778.442
-788.296
-796.272
-803.053
-808.728
-812.858
-815.005
-814.734
-811.463
-804.671
-793.907
-778.855
-759.668
-736.795
-710.806
-682.424
-652.35
-621.229
-589.716
-558.364
-527.51
-497.341
-467.979
-439.504
-412.006
-385.562
-360.199
-335.913
-312.716
-290.635
-269.707
-249.951
-231.365
-213.929
-197.609
-182.401
-168.303
-155.294
-143.34
-132.364
-122.289
-113.062
-104.626
-96.913
-89.854
-83.373
-77.388
-71.837
-66.65
-61.741
-57.055
-52.541
-48.161
-43.907
-39.777
-35.783
-31.948
-28.291
-24.831
-21.598
-18.614
-15.896
-13.471
-11.353
-9.565
-8.144
-7.096
-6.408
-6.053
-5.98
-6.134
-6.457
-6.878
-7.315
-7.693
-7.937
-7.976
-7.749
-7.188
-6.225
-4.797
-2.831
-0.269
2.935
6.826
11.432
16.77
22.848
29.661
37.188
45.405
54.281
63.766
73.821
84.403
95.467
106.981
118.908
131.2
143.807
156.671
169.737
182.972
196.348
209.837
223.432
237.129
250.949
264.943
279.151
293.585
308.238
323.075
338.051
353.128
368.26
383.392
398.465
413.392
428.075
442.417
456.304
469.591
482.109
493.648
503.998
513.003
520.54
526.512
530.851
533.491
534.386
533.525
530.903
526.528
520.424
512.62
503.171
492.174
479.762
466.088
451.335
435.656
419.178
402.039
384.36
366.26
347.853
329.238
310.517
291.821
273.288
255.038
237.186
219.809
202.969
186.736
171.144
156.229
142.028
128.554
115.817
103.83
92.6
82.114
72.35
63.243
54.698
46.647
39.025
31.778
24.859
18.198
11.741
5.456
-0.681
-6.682
-12.551
-18.304
-23.952
-29.476
-34.856
-40.044
-44.973
-49.605
-53.909
-57.86
-61.44
-64.622
-67.384
-69.731
-71.676
-73.238
-74.434
-75.28
-75.789
-75.997
-75.941
-75.663
-75.217
-74.639
-73.959
-73.207
-72.408
-71.583
-70.755
-69.934
-69.123
-68.327
-67.554
-66.812
-66.11
-65.45
-64.832
-64.256
-63.721
-63.227
-62.777
-62.368
-62.003
-61.683
-61.409
-61.185
-61.013
-60.895
-60.829
-60.815
-60.849
-60.93
-61.055
-61.219
-61.42
-61.654
-61.918
-62.209
-62.525
-62.862
-63.219
-63.591
-63.978
-64.375
-64.782
-65.195
-65.612
-66.03
-66.449
-66.865
-67.276
-67.681
-68.078
-68.464
-68.839
-69.199
-69.543
-69.87
-70.179
-70.468
-70.738
-70.986
-71.214
-71.42
-71.606
-71.77
-71.914
-72.037
-72.141
-72.224
-72.289
-72.334
-72.361
-72.371
-72.363
-72.338
-72.299
-72.244
-72.177
-72.097
-72.008
-71.909
-71.802
-71.69
-71.574
-71.455
-71.335
-71.215
-71.098
-70.984
-70.875
-70.772
-70.676
-70.589
-70.512
-70.444
-70.388
-70.344
-70.311
-70.292
-70.285
-70.291
-70.311
-70.343
-70.389
-70.448
-70.519
-70.602
-70.697
-70.801
-70.914
-71.035
-71.163
-71.294
-71.429
-71.565
-71.699
-71.831
-71.959
-72.08
-72.193
-72.296
-72.387
-72.464
-72.525
-72.569
-72.594
-72.599
-72.582
-72.542
-72.478
-72.389
-72.273
-72.13
-71.96
-71.761
-71.533
-71.276
-70.989
-70.673
-70.327
-69.952
-69.548
-69.116
-68.658
-68.174
-67.665
-67.134
-66.58
-66.007
-65.415
-64.806
-64.181
-63.543
-62.893
-62.234
-61.566
-60.893
-60.215
-59.535
-58.854
-58.173
-57.496
-56.822
-56.154
-55.494
-54.841
-54.199
-53.568
-52.949
-52.344
-51.754
-51.179
-50.62
-50.078
-49.552
-49.044
-48.552
-48.077
-47.618
-47.176
-46.749
-46.337
-45.94
-45.555
-45.183
-44.823
-44.472
-44.131
-43.796
-43.468
-43.145
-42.825
-42.508
-42.191
-41.873
-41.554
-41.231
-40.904
-40.571
-40.232
-39.884
-39.527
-39.161
-38.784
-38.397
-37.998
-37.588
-37.168
-36.736
-36.295
-35.845
-35.386
-34.921
-34.45
-33.975
-33.499
-33.022
-32.548
-32.078
-31.615
-31.163
-30.723
-30.299
-29.893
-29.509
-29.15
-28.818
-28.516
-28.246
-28.012
-27.815
-27.658
-27.543
-27.471
-27.445
-27.464
-27.53
-27.643
-27.803
-28.008
-28.257
-28.548
-28.879
-29.247
-29.647
-30.077
-30.532
-31.005
-31.493
-31.987
-32.482
-32.97
-33.444
-33.894
-34.312
-34.69
-35.018
-35.286
-35.487
-35.61
-35.647
-35.589
-35.426
-35.151
-34.755
-34.231
-33.57
-32.767
-31.816
-30.711
-29.449
-28.027
-26.442
-24.695
-22.785
-20.714
-18.485
-16.101
-13.569
-10.894
-8.086
-5.153
-2.107
1.039
4.272
7.576
10.933
14.322
17.725
21.12
24.485
27.799
31.038
34.181
37.206
40.094
42.825
45.379
47.734
49.869
51.765
53.407
54.777
55.862
56.65
57.132
57.308
57.176
56.737
55.987
54.92
53.526
51.809
49.773
47.428
44.792
41.885
38.738
35.399
31.913
28.328
24.689
21.025
17.373
13.775
10.282
6.956
3.859
1.037
-1.47
-3.628
-5.437
-6.908
-8.082
-9.04
-9.853
-10.601
-11.384
-12.286
-13.406
-14.859
-16.734
-19.16
-22.325
-26.304
-31.092
-36.564
-42.358
-48.094
-53.441
-57.9
-60.924
-62.182
-61.467
-58.977
-55.526
-51.878
-48.713
-46.864
-46.906
-49.055
-53.395
-59.311
-65.114
-68.941
-68.013
-58.723
-38.378
-5.229
39.89
94.076
154.605
219.925
292.357
374.721
468.057
571.067
675.022
768.245
837.791
869.387
854.527
789.3
675.197
519.892
334.06
131.731
-70.917
-256.377
-408.951
-518.206
-581.195
-602.39
-590.732
-557.596
-512.999
-466.409
-424.952
-390.108
-360.542
-330.869
-296.115
-256.788
-216.425
-181.053
-155.216
-139.34
-131.425
-128.356
-127.929
-128.688
-129.482
-129.4
-127.308
-122.717
-115.953
-107.446
-97.748
-87.662
-77.884
-69.217
-62.581
-58.269
-56.15
-56.001
-57.4
-59.944
-63.311
-67.026
-70.552
-73.585
-75.94
-77.511
-78.336
-78.414
-77.737
-76.383
-74.439
-71.988
-69.124
-65.915
-62.419
-58.706
-54.848
-50.919
-47.007
-43.19
-39.545
-36.162
-33.094
-30.377
-28.033
-26.05
-24.413
-23.104
-22.084
-21.312
-20.749
-20.355
-20.098
-19.952
-19.88
-19.845
-19.807
-19.715
-19.536
-19.241
-18.807
-18.219
-17.464
-16.531
-15.417
-14.126
-12.655
-11.003
-9.166
-7.135
-4.907
-2.48
0.144
2.963
5.975
9.176
12.564
16.132
19.875
23.788
27.864
32.1
36.489
41.022
45.689
50.479
55.381
60.383
65.473
70.637
75.863
81.137
86.448
91.782
97.127
102.471
107.798
113.097
118.353
123.552
128.679
133.721
138.662
143.488
148.186
152.739
157.137
161.364
165.408
169.258
172.902
176.329
179.53
182.494
185.214
187.681
189.888
191.829
193.497
194.889
195.999
196.825
197.362
197.61
197.565
197.228
196.599
195.679
194.47
192.975
191.199
189.149
186.831
184.254
181.428
178.363
175.071
171.565
167.858
163.964
159.898
155.675
151.31
146.819
142.218
137.523
132.751
127.917
123.039
118.132
113.212
108.296
103.4
98.539
93.729
88.986
84.324
79.759
75.304
70.974
66.781
62.737
58.853
55.137
51.598
48.244
45.081
42.113
39.344
36.776
34.411
32.248
30.286
28.523
26.955
25.577
24.384
23.37
22.528
21.849
21.323
20.939
20.683
20.542
20.503
20.551
20.673
20.852
21.077
21.333
21.608
21.89
22.164
22.413
22.623
22.778
22.868
22.888
22.834
22.705
22.501
22.222
21.865
21.428
20.904
20.292
19.588
18.791
17.911
16.968
15.992
15.032
14.12
13.275
12.513
11.836
11.268
10.861
10.66
10.713
11.062
11.72
12.729
14.189
16.076
18.247
20.539
22.71
24.665
26.552
28.383
29.996
31.418
32.767
34.192
36.05
38.248
40.1
41.22
41.518
40.867
39.338
36.917
33.23
28.58
24.09
20.533
18.354
17.636
17.868
18.793
20.521
22.563
23.79
23.045
20.498
18.254
18.627
23.536
31.742
39.058
45.249
53.573
71.628
110.295
173.018
256.373
352.896
452.878
550.464
641.843
721.035
776.108
792.723
760.544
675.949
550.437
404.17
256.155
124.28
13.956
-79.604
-162.889
-245.49
-330.647
-414.964
-493.78
-560.584
-612.753
-651.633
-679.53
-699.774
-714.541
-724.772
-731.554
-735.777
-737.926
-738.318
-736.818
-733.029
-726.592
-717.112
-704.19
-687.473
-666.998
-643.151
-616.485
-587.699
-557.478
-526.451
-495.223
-464.377
-434.275
-405.104
-377.02
-350.073
-324.31
-299.815
-276.586
-254.59
-233.843
-214.354
-196.125
-179.178
-163.461
-148.878
-135.391
-122.953
-111.528
-101.089
-91.553
-82.831
-74.856
-67.549
-60.839
-54.658
-48.905
-43.482
-38.306
-33.282
-28.363
-23.536
-18.776
-14.074
-9.428
-4.839
-0.335
4.043
8.266
12.304
16.122
19.697
22.982
25.932
28.504
30.65
32.355
33.63
34.497
34.995
35.172
35.078
34.781
34.361
33.892
33.446
33.09
32.889
32.914
33.238
33.936
35.083
36.736
38.942
41.742
45.168
49.255
54.025
59.485
65.628
72.444
79.917
88.026
96.743
106.021
115.812
126.069
136.749
147.82
159.249
170.992
182.999
195.21
207.573
220.055
232.631
245.278
257.985
270.753
283.606
296.599
309.78
323.174
336.781
350.569
364.495
378.522
392.611
406.725
420.817
434.806
448.602
462.113
475.226
487.812
499.697
510.655
520.459
528.921
535.889
541.263
544.969
546.939
547.115
545.447
541.903
536.491
529.237
520.172
509.346
496.828
482.746
467.307
450.739
433.256
415.051
396.277
377.073
357.59
337.983
318.405
299.014
279.93
261.269
243.15
225.69
209.006
193.17
178.186
164.022
150.646
138.028
126.158
115.027
104.594
94.806
85.6
76.895
68.641
60.785
53.269
46.024
38.972
32.053
25.248
18.565
12.012
5.599
-0.676
-6.814
-12.785
-18.556
-24.085
-29.318
-34.227
-38.794
-42.994
-46.806
-50.204
-53.172
-55.715
-57.854
-59.61
-61.004
-62.055
-62.783
-63.225
-63.423
-63.419
-63.262
-62.988
-62.626
-62.206
-61.755
-61.297
-60.852
-60.432
-60.043
-59.692
-59.386
-59.133
-58.941
-58.811
-58.742
-58.732
-58.78
-58.882
-59.038
-59.245
-59.502
-59.808
-60.161
-60.561
-61.01
-61.505
-62.044
-62.624
-63.241
-63.888
-64.564
-65.262
-65.977
-66.704
-67.44
-68.178
-68.917
-69.652
-70.379
-71.094
-71.795
-72.478
-73.14
-73.781
-74.398
-74.989
-75.555
-76.096
-76.61
-77.099
-77.564
-78.004
-78.422
-78.817
-79.191
-79.545
-79.881
-80.201
-80.505
-80.795
-81.074
-81.342
-81.601
-81.853
-82.099
-82.341
-82.58
-82.818
-83.054
-83.291
-83.53
-83.771
-84.016
-84.264
-84.516
-84.772
-85.033
-85.298
-85.566
-85.837
-86.11
-86.385
-86.659
-86.931
-87.2
-87.464
-87.722
-87.972
-88.212
-88.442
-88.658
-88.86
-89.046
-89.216
-89.369
-89.503
-89.617
-89.711
-89.785
-89.837
-89.867
-89.874
-89.858
-89.819
-89.755
-89.667
-89.555
-89.418
-89.257
-89.072
-88.863
-88.631
-88.376
-88.1
-87.803
-87.486
-87.152
-86.801
-86.434
-86.054
-85.661
-85.258
-84.846
-84.426
-83.999
-83.566
-83.129
-82.689
-82.246
-81.8
-81.354
-80.908
-80.462
-80.017
-79.574
-79.133
-78.696
-78.263
-77.834
-77.411
-76.993
-76.581
-76.176
-75.777
-75.386
-75.001
-74.624
-74.254
-73.891
-73.534
-73.184
-72.839
-72.499
-72.163
-71.832
-71.504
-71.179
-70.857
-70.536
-70.218
-69.902
-69.588
-69.275
-68.964
-68.655
-68.347
-68.04
-67.735
-67.431
-67.129
-66.828
-66.528
-66.23
-65.932
-65.636
-65.34
-65.045
-64.75
-64.455
-64.159
-63.863
-63.567
-63.27
-62.972
-62.675
-62.378
-62.082
-61.786
-61.492
-61.199
-60.907
-60.617
-60.329
-60.041
-59.755
-59.47
-59.186
-58.903
-58.619
-58.335
-58.049
-57.761
-57.47
-57.176
-56.877
-56.573
-56.264
-55.951
-55.633
-55.311
-54.985
-54.658
-54.328
-53.997
-53.665
-53.332
-52.999
-52.665
-52.331
-51.997
-51.663
-51.329
-50.994
-50.661
-50.328
-49.996
-49.665
-49.336
-49.01
-48.687
-48.369
-48.056
-47.751
-47.454
-47.168
-46.893
-46.632
-46.383
-46.147
-45.923
-45.709
-45.501
-45.297
-45.093
-44.884
-44.669
-44.443
-44.203
-43.947
-43.674
-43.381
-43.065
-42.724
-42.352
-41.944
-41.494
-40.996
-40.441
-39.823
-39.133
-38.361
-37.503
-36.553
-35.503
-34.345
-33.061
-31.644
-30.088
-28.394
-26.562
-24.601
-22.519
-20.332
-18.069
-15.758
-13.425
-11.092
-8.766
-6.448
-4.147
-1.867
0.38
2.594
4.795
7.009
9.253
11.55
13.924
16.404
19.058
21.939
25.086
28.526
32.249
36.226
40.432
44.829
49.363
53.96
58.514
62.898
67.016
70.778
74.096
76.875
78.974
80.265
80.654
80.069
78.483
75.897
72.317
67.775
62.349
56.156
49.349
42.112
34.588
26.901
19.179
11.555
4.199
-2.718
-9.059
-14.722
-19.627
-23.724
-26.988
-29.417
-31.08
-32.098
-32.612
-32.799
-32.827
-32.839
-32.991
-33.447
-34.371
-35.949
-38.385
-41.779
-46.125
-51.328
-57.113
-63.153
-69.137
-74.613
-79.046
-82.087
-83.559
-83.517
-82.452
-80.915
-79.313
-78.149
-77.799
-78.353
-79.822
-81.84
-83.506
-82.791
-76.64
-62.473
-38.263
-5.218
32.325
72.714
116.618
168.949
238.711
328.592
434.585
548.11
656.208
750.263
826.417
879.806
904.712
892.355
832.758
722.478
564.723
370.386
157.475
-54.575
-244.689
-395.372
-497.837
-552.154
-568.474
-561.141
-541.838
-516.314
-484.829
-445.394
-397.396
-344.23
-290.86
-242.314
-202.845
-173.993
-155.618
-146.645
-144.877
-148.058
-154.44
-162.016
-168.849
-173.362
-174.169
-170.864
-163.994
-154.391
-142.936
-130.639
-118.477
-107.435
-98.549
-92.274
-88.502
-86.935
-87.119
-88.608
-91.063
-94.065
-97.102
-99.842
-102.136
-103.914
-105.218
-106.05
-106.33
-106.039
-105.213
-103.893
-102.154
-100.053
-97.621
-94.903
-91.959
-88.842
-85.622
-82.366
-79.112
-75.906
-72.797
-69.836
-67.105
-64.658
-62.52
-60.691
-59.152
-57.883
-56.865
-56.073
-55.469
-55.018
-54.684
-54.439
-54.267
-54.143
-54.036
-53.906
-53.706
-53.395
-52.945
-52.336
-51.549
-50.572
-49.389
-47.994
-46.39
-44.577
-42.551
-40.308
-37.838
-35.138
-32.209
-29.052
-25.673
-22.076
-18.266
-14.249
-10.034
-5.628
-1.041
3.721
8.65
13.737
18.971
24.338
29.826
35.419
41.103
46.861
52.676
58.531
64.41
70.294
76.168
82.016
87.82
93.564
99.232
104.807
110.274
115.617
120.821
125.87
130.751
135.449
139.951
144.245
148.32
152.163
155.766
159.119
162.212
165.038
167.589
169.859
171.84
173.53
174.924
176.019
176.812
177.305
177.496
177.387
176.981
176.28
175.287
174.008
172.448
170.615
168.514
166.155
163.547
160.7
157.625
154.333
150.836
147.146
143.275
139.238
135.047
130.716
126.26
121.693
117.03
112.287
107.479
102.622
97.731
92.824
87.913
83.015
78.145
73.318
68.546
63.846
59.229
54.709
50.299
46.01
41.853
37.839
33.977
30.274
26.739
23.379
20.198
17.203
14.398
11.787
9.372
7.155
5.138
3.319
1.696
0.268
-0.971
-2.027
-2.907
-3.619
-4.174
-4.582
-4.855
-5.005
-5.045
-4.988
-4.847
-4.635
-4.367
-4.056
-3.718
-3.368
-3.021
-2.693
-2.396
-2.146
-1.954
-1.83
-1.779
-1.808
-1.923
-2.132
-2.446
-2.874
-3.42
-4.086
-4.87
-5.761
-6.747
-7.799
-8.878
-9.947
-10.969
-11.912
-12.754
-13.465
-14.013
-14.368
-14.479
-14.309
-13.826
-12.991
-11.787
-10.215
-8.291
-6.075
-3.669
-1.163
1.349
3.783
6.081
8.152
9.896
11.217
11.988
12.117
11.504
9.993
7.53
4.172
0.095
-4.295
-8.546
-12.3
-15.132
-16.593
-16.452
-14.579
-11.228
-7.19
-3.125
0.375
2.782
3.942
3.621
1.583
-1.309
-3.399
-2.431
4.987
20.544
44.415
76.174
113.258
155.325
203.741
260.092
327.717
406.206
492.055
579.389
657.447
715.896
744.874
735.096
684.407
595.868
476.902
342.279
205.417
75.176
-41.635
-147.003
-246.291
-341.101
-433.352
-520.494
-596.267
-658.258
-705.26
-737.512
-758.116
-769.36
-772.877
-770.872
-765.102
-756.985
-748.036
-739.441
-731.951
-725.891
-721.033
-716.449
-710.905
-703.328
-692.737
-678.451
-660.014
-637.208
-610.251
-579.824
-546.909
-512.537
-477.712
-443.166
-409.458
-377.082
-346.327
-317.326
-290.068
-264.395
-240.115
-217.162
-195.565
-175.366
-156.616
-139.308
-123.406
-108.928
-95.906
-84.333
-74.143
-65.2
-57.34
-50.418
-44.315
-38.916
-34.091
-29.692
-25.565
-21.577
-17.648
-13.742
-9.837
-5.916
-1.961
2.031
6.037
10.001
13.869
17.591
21.125
24.432
27.458
30.14
32.417
34.234
35.575
36.454
36.899
36.955
36.674
36.117
35.361
34.496
33.608
32.779
32.086
31.602
31.406
31.581
32.208
33.367
35.127
37.545
40.665
44.515
49.112
54.464
60.565
67.396
74.933
83.139
91.98
101.427
111.446
122.01
133.089
144.636
156.604
168.936
181.579
194.496
207.662
221.051
234.653
248.467
262.511
276.83
291.46
306.406
321.656
337.166
352.883
368.76
384.751
400.81
416.881
432.875
448.687
464.207
479.307
493.839
507.622
520.429
532.038
542.279
551.029
558.223
563.815
567.76
570.016
570.55
569.352
566.446
561.875
555.685
547.936
538.706
528.128
516.395
503.714
490.245
476.091
461.299
445.906
429.971
413.565
396.766
379.637
362.235
344.627
326.901
309.166
291.536
274.074
256.787
239.674
222.758
206.118
189.887
174.176
159.074
144.644
130.932
117.992
105.87
94.572
84.063
74.274
65.108
56.512
48.469
40.962
33.969
27.429
21.246
15.348
9.688
4.228
-1.063
-6.22
-11.282
-16.247
-21.084
-25.741
-30.147
-34.261
-38.073
-41.57
-44.745
-47.583
-50.057
-52.162
-53.912
-55.32
-56.397
-57.155
-57.598
-57.754
-57.665
-57.38
-56.952
-56.423
-55.82
-55.171
-54.5
-53.829
-53.176
-52.552
-51.957
-51.396
-50.877
-50.406
-49.991
-49.637
-49.341
-49.101
-48.914
-48.778
-48.695
-48.662
-48.68
-48.747
-48.865
-49.035
-49.262
-49.546
-49.887
-50.281
-50.729
-51.226
-51.77
-52.357
-52.983
-53.645
-54.337
-55.057
-55.801
-56.565
-57.346
-58.142
-58.948
-59.762
-60.581
-61.402
-62.222
-63.038
-63.847
-64.647
-65.435
-66.208
-66.963
-67.699
-68.412
-69.099
-69.76
-70.39
-70.987
-71.55
-72.076
-72.564
-73.011
-73.417
-73.78
-74.101
-74.379
-74.614
-74.807
-74.957
-75.067
-75.136
-75.166
-75.158
-75.114
-75.035
-74.923
-74.78
-74.609
-74.413
-74.193
-73.952
-73.694
-73.421
-73.135
-72.84
-72.537
-72.23
-71.921
-71.612
-71.306
-71.006
-70.713
-70.43
-70.159
-69.901
-69.657
-69.429
-69.217
-69.022
-68.844
-68.682
-68.538
-68.41
-68.297
-68.199
-68.116
-68.044
-67.984
-67.932
-67.888
-67.848
-67.811
-67.773
-67.734
-67.69
-67.64
-67.58
-67.51
-67.427
-67.329
-67.215
-67.083
-66.931
-66.758
-66.564
-66.347
-66.106
-65.843
-65.556
-65.246
-64.914
-64.56
-64.186
-63.792
-63.379
-62.949
-62.504
-62.044
-61.572
-61.091
-60.601
-60.106
-59.609
-59.111
-58.616
-58.126
-57.643
-57.171
-56.71
-56.264
-55.835
-55.424
-55.034
-54.667
-54.324
-54.006
-53.714
-53.45
-53.214
-53.006
-52.825
-52.672
-52.546
-52.446
-52.372
-52.323
-52.297
-52.293
-52.31
-52.347
-52.401
-52.471
-52.553
-52.648
-52.75
-52.859
-52.972
-53.087
-53.2
-53.309
-53.413
-53.507
-53.59
-53.66
-53.713
-53.748
-53.763
-53.756
-53.725
-53.669
-53.587
-53.478
-53.34
-53.174
-52.98
-52.756
-52.504
-52.223
-51.914
-51.578
-51.215
-50.827
-50.415
-49.981
-49.526
-49.052
-48.561
-48.056
-47.54
-47.015
-46.484
-45.951
-45.418
-44.89
-44.37
-43.86
-43.365
-42.887
-42.429
-41.994
-41.586
-41.207
-40.859
-40.544
-40.266
-40.027
-39.827
-39.669
-39.553
-39.481
-39.452
-39.466
-39.524
-39.625
-39.767
-39.95
-40.17
-40.427
-40.717
-41.036
-41.379
-41.742
-42.118
-42.501
-42.883
-43.258
-43.615
-43.949
-44.252
-44.518
-44.737
-44.904
-45.01
-45.048
-45.013
-44.893
-44.678
-44.358
-43.922
-43.364
-42.676
-41.851
-40.883
-39.765
-38.495
-37.071
-35.493
-33.757
-31.852
-29.769
-27.508
-25.078
-22.495
-19.775
-16.928
-13.97
-10.922
-7.812
-4.661
-1.48
1.737
4.996
8.291
11.602
14.896
18.141
21.319
24.43
27.476
30.45
33.342
36.149
38.888
41.584
44.237
46.812
49.238
51.446
53.396
55.07
56.465
57.574
58.37
58.815
58.878
58.549
57.813
56.645
54.997
52.82
50.113
46.939
43.404
39.613
35.634
31.515
27.3
23.046
18.826
14.718
10.777
7.045
3.574
0.43
-2.317
-4.616
-6.48
-7.996
-9.28
-10.428
-11.521
-12.639
-13.873
-15.338
-17.155
-19.408
-22.191
-25.644
-29.847
-34.816
-40.444
-46.392
-52.253
-57.636
-62.057
-64.993
-66.097
-65.15
-62.302
-58.301
-53.898
-49.787
-46.736
-45.277
-45.707
-48.143
-51.926
-55.372
-56.618
-53.475
-43.626
-25.335
3.282
44.022
97.597
163.738
240.642
324.156
409.597
492.386
568.848
638.031
699.275
750.448
786.048
796.488
770.69
699.802
581.901
421.785
231.876
29.826
-165.899
-336.109
-467.216
-552.056
-591.001
-593.201
-568.744
-529.841
-486.806
-443.946
-405.475
-370.642
-335.51
-299.348
-261.126
-223.058
-190.687
-166.47
-151.283
-143.981
-141.081
-140.464
-140.603
-140.046
-138.025
-133.64
-126.465
-116.948
-105.744
-93.557
-81.281
-69.681
-59.527
-51.667
-46.385
-43.53
-42.828
-43.841
-46.176
-49.53
-53.471
-57.484
-61.265
-64.629
-67.478
-69.812
-71.551
-72.611
-72.992
-72.74
-71.931
-70.643
-68.933
-66.841
-64.427
-61.755
-58.902
-55.953
-52.965
-50
-47.122
-44.397
-41.917
-39.747
-37.916
-36.431
-35.277
-34.427
-33.86
-33.547
-33.443
-33.508
-33.703
-33.993
-34.356
-34.76
-35.169
-35.543
-35.83
-35.989
-35.993
-35.821
-35.457
-34.89
-34.109
-33.11
-31.898
-30.475
-28.842
-26.994
-24.926
-22.637
-20.127
-17.402
-14.466
-11.326
-7.986
-4.452
-0.733
3.165
7.233
11.464
15.854
20.394
25.072
29.879
34.8
39.823
44.935
50.121
55.366
60.654
65.97
71.3
76.63
81.943
87.224
92.459
97.633
102.73
107.736
112.636
117.417
122.064
126.563
130.901
135.067
139.047
142.829
146.402
149.756
152.88
155.765
158.402
160.782
162.897
164.742
166.309
167.596
168.597
169.307
169.723
169.844
169.669
169.203
168.443
167.388
166.048
164.435
162.559
160.433
158.057
155.429
152.566
149.491
146.187
142.648
138.87
134.842
130.597
126.189
121.61
116.836
111.986
107.195
102.41
97.652
92.963
88.097
83.774
80.694
77.897
75.103
70.536
62.065
52.078
42.175
34.724
32.976
34.078
35.614
35.927
32.278
26.64
21.011
15.84
12.347
9.83
7.386
5.19
3.127
1.257
-0.237
-1.48
-2.571
-3.485
-4.222
-4.804
-5.236
-5.524
-5.674
-5.683
-5.542
-5.274
-4.903
-4.437
-3.893
-3.286
-2.631
-1.948
-1.255
-0.567
0.103
0.739
1.324
1.845
2.288
2.646
2.909
3.068
3.11
3.021
2.793
2.426
1.921
1.283
0.519
-0.359
-1.33
-2.358
-3.408
-4.449
-5.453
-6.4
-7.265
-8.017
-8.618
-9.029
-9.219
-9.169
-8.863
-8.282
-7.421
-6.29
-4.923
-3.392
-1.774
-0.143
1.437
2.913
4.234
5.341
6.159
6.606
6.605
6.088
5.013
3.314
0.898
-2.249
-6.04
-10.247
-14.466
-18.273
-21.322
-23.217
-23.5
-21.872
-18.163
-12.544
-5.725
1.495
8.407
14.256
18.365
20.332
20.018
17.975
15.798
15.422
18.855
28.359
46.142
74.12
113.819
164.818
224.31
289.177
356.643
426.038
498.016
569.825
633.837
677.456
688.06
660.439
598.703
514.387
418.618
315.546
203.606
79.806
-53.069
-183.712
-298.778
-388.921
-453.457
-500.751
-540.083
-577.189
-613.028
-643.916
-667.574
-684.518
-696.691
-707.297
-717.754
-727.603
-736.163
-742.4
-745.448
-744.819
-739.845
-729.924
-715.072
-695.69
-672.354
-645.786
-616.639
-585.525
-553.17
-520.298
-487.419
-454.861
-422.821
-391.433
-360.891
-331.398
-303.116
-276.159
-250.605
-226.526
-204.002
-183.098
-163.855
-146.274
-130.292
-115.824
-102.781
-91.07
-80.62
-71.333
-63.074
-55.713
-49.121
-43.172
-37.775
-32.836
-28.25
-23.92
-19.758
-15.674
-11.632
-7.626
-3.657
0.257
4.098
7.843
11.444
14.845
18.002
20.871
23.427
25.654
27.519
28.993
30.054
30.672
30.85
30.62
30.02
29.105
27.939
26.588
25.13
23.657
22.252
20.991
19.946
19.179
18.759
18.758
19.243
20.282
21.931
24.233
27.23
30.958
35.444
40.699
46.724
53.503
61.017
69.241
78.141
87.669
97.777
108.416
119.541
131.115
143.101
155.452
168.116
181.028
194.133
207.393
220.779
234.268
247.851
261.528
275.323
289.295
303.492
317.939
332.64
347.56
362.655
377.882
393.199
408.563
423.924
439.196
454.282
469.083
483.478
497.332
510.464
522.637
533.619
543.211
551.256
557.647
562.308
565.169
566.168
565.258
562.405
557.621
550.933
542.375
532.001
519.886
506.159
491.031
474.733
457.483
439.475
420.865
401.793
382.412
362.876
343.341
323.963
304.865
286.16
267.967
250.4
233.574
217.563
202.369
187.966
174.32
161.405
149.212
137.735
126.936
116.762
107.15
98.021
89.321
81.004
73.008
65.272
57.718
50.287
42.963
35.752
28.665
21.711
14.89
8.203
1.68
-4.642
-10.716
-16.484
-21.914
-26.981
-31.66
-35.926
-39.752
-43.117
-46.026
-48.497
-50.549
-52.203
-53.476
-54.387
-54.973
-55.275
-55.338
-55.212
-54.935
-54.537
-54.05
-53.501
-52.915
-52.314
-51.712
-51.113
-50.526
-49.961
-49.427
-48.935
-48.486
-48.084
-47.728
-47.418
-47.157
-46.945
-46.784
-46.675
-46.62
-46.621
-46.681
-46.805
-46.993
-47.244
-47.557
-47.93
-48.358
-48.839
-49.369
-49.942
-50.554
-51.2
-51.877
-52.581
-53.309
-54.055
-54.818
-55.592
-56.375
-57.163
-57.954
-58.745
-59.533
-60.316
-61.091
-61.855
-62.607
-63.342
-64.059
-64.754
-65.426
-66.069
-66.684
-67.267
-67.816
-68.33
-68.807
-69.248
-69.651
-70.016
-70.345
-70.637
-70.893
-71.115
-71.302
-71.457
-71.581
-71.674
-71.738
-71.774
-71.783
-71.766
-71.724
-71.658
-71.571
-71.464
-71.338
-71.195
-71.038
-70.869
-70.69
-70.504
-70.314
-70.122
-69.931
-69.744
-69.563
-69.391
-69.229
-69.08
-68.945
-68.826
-68.722
-68.636
-68.565
-68.511
-68.473
-68.451
-68.443
-68.448
-68.466
-68.496
-68.537
-68.587
-68.646
-68.711
-68.781
-68.855
-68.931
-69.007
-69.081
-69.15
-69.213
-69.267
-69.31
-69.34
-69.353
-69.349
-69.323
-69.275
-69.202
-69.102
-68.974
-68.818
-68.632
-68.418
-68.174
-67.903
-67.604
-67.28
-66.932
-66.561
-66.169
-65.759
-65.333
-64.892
-64.439
-63.976
-63.506
-63.033
-62.557
-62.083
-61.611
-61.146
-60.69
-60.244
-59.812
-59.397
-58.999
-58.622
-58.269
-57.94
-57.639
-57.366
-57.123
-56.91
-56.728
-56.577
-56.455
-56.363
-56.298
-56.26
-56.245
-56.253
-56.281
-56.327
-56.387
-56.459
-56.539
-56.625
-56.712
-56.797
-56.877
-56.949
-57.009
-57.054
-57.082
-57.089
-57.072
-57.03
-56.958
-56.856
-56.72
-56.548
-56.339
-56.09
-55.802
-55.473
-55.103
-54.692
-54.241
-53.751
-53.222
-52.657
-52.057
-51.425
-50.763
-50.075
-49.363
-48.632
-47.885
-47.129
-46.366
-45.602
-44.842
-44.091
-43.353
-42.633
-41.935
-41.265
-40.626
-40.023
-39.46
-38.941
-38.469
-38.049
-37.682
-37.371
-37.118
-36.925
-36.793
-36.722
-36.713
-36.766
-36.879
-37.052
-37.282
-37.567
-37.903
-38.286
-38.712
-39.174
-39.666
-40.182
-40.713
-41.251
-41.787
-42.313
-42.818
-43.293
-43.727
-44.109
-44.43
-44.678
-44.842
-44.913
-44.881
-44.734
-44.465
-44.064
-43.522
-42.831
-41.984
-40.974
-39.794
-38.439
-36.904
-35.186
-33.282
-31.19
-28.91
-26.444
-23.793
-20.964
-17.96
-14.788
-11.46
-7.984
-4.373
-0.641
3.197
7.122
11.115
15.156
19.222
23.29
27.337
31.337
35.267
39.102
42.819
46.395
49.808
53.033
56.049
58.832
61.359
63.609
65.562
67.202
68.51
69.475
70.09
70.35
70.25
69.785
68.946
67.727
66.128
64.153
61.811
59.118
56.098
52.786
49.23
45.479
41.581
37.58
33.511
29.414
25.33
21.311
17.415
13.702
10.22
7.012
4.114
1.545
-0.71
-2.692
-4.485
-6.171
-7.817
-9.488
-11.254
-13.194
-15.402
-17.986
-21.03
-24.642
-28.963
-34.045
-39.865
-46.264
-52.848
-59.149
-64.694
-68.949
-71.375
-71.667
-69.678
-65.624
-60.32
-54.678
-49.629
-46.105
-44.668
-45.592
-48.996
-54.232
-59.63
-62.227
-57.852
-42.978
-15.799
22.075
67.044
117.334
173.646
241.527
326.68
429.511
545.597
662.704
767.631
849.77
898.977
910.774
880.187
803.013
681.328
517.764
323.161
115.292
-87.911
-264.828
-401.012
-492.851
-543.252
-562.654
-559.985
-539.003
-502.072
-452.369
-397.612
-347.77
-310.099
-285.349
-267.252
-249.272
-228.242
-205.345
-185.993
-173.552
-167.855
-167.298
-168.687
-169.78
-170.001
-168.75
-165.565
-160.478
-153.68
-145.469
-136.436
-127.146
-118.033
-109.796
-103.188
-98.472
-95.597
-94.351
-94.35
-95.308
-97.036
-99.196
-101.363
-103.28
-104.818
-105.963
-106.793
-107.323
-107.498
-107.285
-106.701
-105.794
-104.622
-103.237
-101.656
-99.893
-97.98
-95.96
-93.893
-91.825
-89.775
-87.744
-85.744
-83.804
-81.971
-80.308
-78.843
-77.576
-76.499
-75.596
-74.854
-74.261
-73.793
-73.412
-73.085
-72.786
-72.496
-72.208
-71.901
-71.547
-71.109
-70.543
-69.818
-68.913
-67.811
-66.495
-64.955
-63.181
-61.173
-58.938
-56.48
-53.798
-50.893
-47.76
-44.403
-40.828
-37.041
-33.053
-28.873
-24.512
-19.98
-15.289
-10.452
-5.478
-0.379
4.838
10.161
15.579
21.078
26.646
32.266
37.927
43.613
49.308
54.997
60.667
66.302
71.89
77.415
82.865
88.225
93.483
98.624
103.634
108.502
113.212
117.754
122.114
126.282
130.245
133.993
137.517
140.806
143.852
146.647
149.181
151.448
153.439
155.15
156.574
157.705
158.541
159.078
159.313
159.245
158.874
158.2
157.224
155.948
154.376
152.511
150.358
147.924
145.216
142.242
139.012
135.535
131.825
127.891
123.748
119.408
114.886
110.197
105.356
100.378
95.281
90.082
84.799
79.448
74.05
68.621
63.18
57.746
52.335
46.965
41.654
36.418
31.273
26.235
21.32
16.542
11.915
7.452
3.164
-0.937
-4.841
-8.54
-12.026
-15.292
-18.332
-21.141
-23.715
-26.052
-28.15
-30.01
-31.633
-33.021
-34.18
-35.115
-35.834
-36.347
-36.665
-36.799
-36.761
-36.566
-36.227
-35.76
-35.18
-34.501
-33.739
-32.91
-32.031
-31.119
-30.191
-29.263
-28.352
-27.476
-26.652
-25.894
-25.217
-24.629
-24.139
-23.757
-23.495
-23.363
-23.371
-23.52
-23.81
-24.24
-24.802
-25.483
-26.261
-27.096
-27.952
-28.795
-29.591
-30.319
-30.95
-31.451
-31.785
-31.915
-31.804
-31.43
-30.771
-29.802
-28.519
-26.934
-25.083
-23.051
-20.925
-18.784
-16.7
-14.731
-12.935
-11.397
-10.214
-9.487
-9.32
-9.784
-10.959
-12.975
-15.872
-19.594
-23.955
-28.536
-32.888
-36.628
-39.336
-40.6
-40.154
-37.829
-33.814
-28.845
-23.663
-19.034
-15.659
-13.814
-13.835
-16.055
-19.766
-23.437
-24.686
-19.788
-6.637
15.273
45.724
82.304
124.898
175.205
234.856
306.99
390.885
482.61
575.946
659.663
722.973
755.622
748.689
701.334
616.357
499.757
363.515
216.868
69.945
-64.793
-182.648
-281.241
-362.499
-435.63
-504.951
-571.062
-632.499
-683.494
-721.701
-748.683
-766.604
-778.891
-787.68
-793.477
-796.86
-798.034
-797.001
-793.675
-787.703
-778.712
-766.45
-750.768
-731.55
-708.957
-683.411
-655.47
-625.801
-595.052
-563.784
-532.473
-501.53
-471.176
-441.486
-412.511
-384.27
-356.769
-330.019
-303.989
-278.613
-253.864
-229.736
-206.217
-183.316
-161.029
-139.353
-118.368
-98.199
-78.987
-60.885
-43.987
-28.335
-13.989
-1.003
10.579
20.701
29.329
36.432
41.962
45.901
48.262
49.094
48.512
46.67
43.733
39.886
35.286
30.066
24.368
18.323
12.056
5.719
-0.53
-6.507
-12.011
-16.88
-20.996
-24.275
-26.681
-28.195
-28.82
-28.586
-27.522
-25.653
-23.005
-19.588
-15.426
-10.573
-5.11
0.843
7.159
13.748
20.546
27.517
34.648
41.936
49.4
57.08
65.016
73.24
81.77
90.602
99.738
109.192
118.987
129.17
139.787
150.856
162.394
174.4
186.853
199.721
212.947
226.456
240.191
254.108
268.166
282.352
296.654
311.072
325.628
340.334
355.18
370.147
385.185
400.239
415.264
430.218
445.066
459.776
474.283
488.507
502.369
515.77
528.592
540.676
551.81
561.783
570.422
577.6
583.232
587.254
589.609
590.242
589.11
586.189
581.479
574.984
566.713
556.689
544.965
531.664
516.978
501.125
484.298
466.648
448.31
429.414
410.096
390.49
370.731
350.943
331.258
311.84
292.849
274.445
256.77
239.9
223.857
208.636
194.232
180.657
167.921
156.017
144.924
134.624
125.085
116.273
108.125
100.53
93.378
86.564
79.981
73.568
67.287
61.11
55.024
49.021
43.093
37.248
31.499
25.85
20.318
14.923
9.7
4.721
0.044
-4.283
-8.216
-11.732
-14.819
-17.468
-19.689
-21.504
-22.934
-24.009
-24.758
-25.203
-25.375
-25.308
-25.039
-24.62
-24.094
-23.494
-22.853
-22.194
-21.539
-20.907
-20.31
-19.749
-19.229
-18.754
-18.329
-17.959
-17.65
-17.402
-17.216
-17.091
-17.026
-17.022
-17.079
-17.197
-17.376
-17.615
-17.916
-18.278
-18.701
-19.184
-19.722
-20.312
-20.948
-21.628
-22.345
-23.096
-23.874
-24.677
-25.5
-26.34
-27.194
-28.058
-28.929
-29.804
-30.681
-31.556
-32.429
-33.295
-34.154
-35.004
-35.842
-36.667
-37.477
-38.272
-39.05
-39.809
-40.549
-41.27
-41.972
-42.654
-43.318
-43.963
-44.592
-45.206
-45.805
-46.391
-46.965
-47.528
-48.081
-48.625
-49.161
-49.688
-50.207
-50.717
-51.218
-51.711
-52.195
-52.669
-53.133
-53.587
-54.03
-54.462
-54.882
-55.291
-55.687
-56.07
-56.44
-56.797
-57.14
-57.47
-57.784
-58.083
-58.367
-58.633
-58.882
-59.113
-59.324
-59.515
-59.685
-59.835
-59.963
-60.071
-60.157
-60.223
-60.268
-60.295
-60.303
-60.294
-60.269
-60.229
-60.175
-60.109
-60.033
-59.948
-59.855
-59.755
-59.65
-59.542
-59.43
-59.317
-59.202
-59.088
-58.975
-58.863
-58.755
-58.649
-58.549
-58.453
-58.364
-58.281
-58.205
-58.137
-58.076
-58.024
-57.979
-57.943
-57.913
-57.89
-57.874
-57.863
-57.857
-57.854
-57.853
-57.853
-57.853
-57.851
-57.845
-57.836
-57.82
-57.798
-57.768
-57.728
-57.679
-57.618
-57.546
-57.46
-57.361
-57.247
-57.119
-56.974
-56.814
-56.637
-56.443
-56.231
-56.002
-55.754
-55.488
-55.204
-54.9
-54.578
-54.238
-53.88
-53.504
-53.111
-52.702
-52.277
-51.838
-51.385
-50.92
-50.443
-49.955
-49.458
-48.954
-48.443
-47.928
-47.411
-46.894
-46.378
-45.867
-45.361
-44.864
-44.375
-43.898
-43.434
-42.985
-42.553
-42.14
-41.747
-41.377
-41.033
-40.717
-40.431
-40.176
-39.954
-39.766
-39.615
-39.502
-39.427
-39.393
-39.399
-39.448
-39.54
-39.676
-39.854
-40.074
-40.333
-40.63
-40.961
-41.32
-41.702
-42.102
-42.517
-42.941
-43.37
-43.798
-44.222
-44.639
-45.045
-45.434
-45.799
-46.131
-46.42
-46.657
-46.833
-46.936
-46.954
-46.876
-46.693
-46.4
-45.991
-45.456
-44.784
-43.958
-42.966
-41.807
-40.478
-38.981
-37.317
-35.497
-33.539
-31.477
-29.342
-27.155
-24.923
-22.64
-20.307
-17.925
-15.495
-13.022
-10.493
-7.892
-5.211
-2.45
0.393
3.331
6.405
9.676
13.195
16.982
21.029
25.301
29.767
34.382
39.089
43.807
48.428
52.85
56.996
60.806
64.221
67.172
69.555
71.245
72.136
72.16
71.282
69.496
66.798
63.216
58.808
53.68
47.98
41.853
35.411
28.749
21.956
15.129
8.395
1.896
-4.247
-9.926
-15.058
-19.579
-23.427
-26.571
-29.025
-30.856
-32.192
-33.179
-33.934
-34.563
-35.163
-35.843
-36.74
-38.006
-39.784
-42.187
-45.325
-49.345
-54.317
-60.246
-67.011
-74.242
-81.472
-88.258
-94.086
-98.417
-100.894
-101.204
-99.325
-95.9
-91.67
-87.33
-83.654
-81.241
-80.523
-81.961
-85.494
-88.951
-88.975
-82.612
-66.75
-41.81
-11.464
24.015
65.163
116.011
186.656
280.235
394.83
524.047
650.616
760.636
844.619
894.183
909.38
889.748
831.691
733.207
591.815
410.001
199.723
-19.239
-222.849
-389.426
-506.405
-574.163
-602.522
-603.297
-585.119
-551.434
-502.6
-442.572
-380.999
-327.117
-287.573
-262.186
-242.941
-224.124
-203.587
-182.769
-167.331
-159.525
-158.182
-161.069
-164.35
-165.793
-164.82
-160.891
-154.236
-145.445
-135.027
-123.813
-112.728
-102.468
-93.728
-87.161
-82.967
-81.009
-81.005
-82.505
-85.084
-88.413
-92.088
-95.666
-98.861
-101.506
-103.503
-104.834
-105.471
-105.381
-104.589
-103.17
-101.202
-98.763
-95.928
-92.753
-89.305
-85.657
-81.881
-78.054
-74.253
-70.549
-67.019
-63.746
-60.793
-58.199
-55.985
-54.141
-52.649
-51.487
-50.621
-50.011
-49.619
-49.409
-49.349
-49.412
-49.564
-49.769
-49.987
-50.169
-50.276
-50.276
-50.145
-49.866
-49.423
-48.806
-48.007
-47.026
-45.863
-44.511
-42.967
-41.22
-39.264
-37.097
-34.718
-32.129
-29.33
-26.324
-23.113
-19.7
-16.09
-12.288
-8.298
-4.123
0.231
4.755
9.439
14.273
19.245
24.343
29.554
34.863
40.257
45.721
51.241
56.802
62.392
67.994
73.594
79.176
84.726
90.228
95.667
101.027
106.294
111.451
116.484
121.378
126.119
130.692
135.083
139.28
143.27
147.04
150.579
153.877
156.923
159.708
162.223
164.461
166.415
168.079
169.449
170.521
171.291
171.758
171.92
171.778
171.332
170.584
169.537
168.194
166.561
164.643
162.448
159.984
157.26
154.286
151.073
147.633
143.979
140.125
136.083
131.871
127.502
122.993
118.36
113.62
108.79
103.888
98.931
93.936
88.92
83.902
78.898
73.924
68.996
64.131
59.343
54.647
50.058
45.588
41.252
37.06
33.024
29.154
25.46
21.95
18.631
15.511
12.593
9.883
7.385
5.1
3.03
1.175
-0.466
-1.896
-3.117
-4.136
-4.958
-5.591
-6.045
-6.33
-6.458
-6.441
-6.292
-6.024
-5.652
-5.191
-4.653
-4.053
-3.406
-2.725
-2.027
-1.327
-0.64
0.019
0.634
1.191
1.676
2.079
2.394
2.613
2.729
2.736
2.621
2.377
2.003
1.495
0.856
0.093
-0.782
-1.743
-2.752
-3.774
-4.773
-5.715
-6.577
-7.332
-7.944
-8.382
-8.605
-8.575
-8.27
-7.658
-6.712
-5.432
-3.83
-1.953
0.107
2.26
4.425
6.525
8.493
10.25
11.694
12.723
13.225
13.107
12.276
10.581
7.928
4.32
-0.118
-5.044
-10.023
-14.666
-18.528
-21.121
-22.132
-21.372
-18.946
-15.517
-11.817
-8.552
-6.521
-6.261
-7.991
-11.771
-16.953
-21.93
-24.852
-23.45
-15.277
1.397
28.214
66.772
117.529
179.807
251.08
326.383
400.877
471.337
537.045
598.814
654.733
698.081
717.069
700.471
643.996
552.03
437.685
314.799
191.877
72.366
-45.14
-161.623
-274.668
-380.43
-474.788
-555.133
-620.923
-673.021
-712.655
-740.924
-759.233
-768.857
-771.035
-767.595
-760.322
-750.4
-739
-726.855
-714.221
-701.746
-689.76
-677.733
-664.949
-650.624
-633.801
-614.108
-591.471
-565.472
-536.066
-503.731
-469.074
-433.046
-396.769
-360.882
-325.869
-292.307
-260.493
-230.6
-202.741
-176.748
-152.375
-129.574
-108.341
-88.699
-70.738
-54.476
-39.937
-27.207
-16.35
-7.391
-0.302
4.988
8.539
10.428
10.769
9.687
7.341
3.912
-0.441
-5.533
-11.155
-17.139
-23.314
-29.517
-35.624
-41.482
-46.935
-51.846
-56.069
-59.493
-62.075
-63.779
-64.595
-64.547
-63.661
-62.002
-59.68
-56.772
-53.34
-49.454
-45.165
-40.558
-35.758
-30.862
-25.957
-21.111
-16.347
-11.682
-7.127
-2.657
1.765
6.199
10.735
15.443
20.38
25.62
31.224
37.269
43.856
51.056
58.915
67.468
76.715
86.64
97.23
108.447
120.242
132.575
145.383
158.604
172.18
186.032
200.091
214.306
228.613
242.966
257.347
271.745
286.181
300.712
315.368
330.163
345.099
360.137
375.247
390.399
405.554
420.68
435.716
450.569
465.141
479.329
492.996
505.994
518.129
529.154
538.878
547.153
553.869
558.982
562.447
564.216
564.272
562.603
559.225
554.194
547.569
539.409
529.814
518.895
506.808
493.78
479.985
465.553
450.585
435.115
419.189
402.872
386.21
369.25
352.048
334.64
317.079
299.444
281.796
264.205
246.732
229.377
212.169
195.17
178.456
162.16
146.398
131.254
116.816
103.157
90.323
78.363
67.3
57.11
47.763
39.202
31.35
24.171
17.623
11.648
6.184
1.133
-3.597
-8.067
-12.33
-16.436
-20.419
-24.314
-28.147
-31.904
-35.563
-39.086
-42.414
-45.52
-48.385
-50.988
-53.316
-55.346
-57.059
-58.46
-59.563
-60.381
-60.93
-61.224
-61.277
-61.122
-60.799
-60.349
-59.824
-59.259
-58.681
-58.12
-57.594
-57.123
-56.721
-56.393
-56.137
-55.952
-55.84
-55.803
-55.844
-55.96
-56.145
-56.395
-56.703
-57.065
-57.477
-57.934
-58.432
-58.967
-59.538
-60.143
-60.781
-61.45
-62.145
-62.864
-63.6
-64.348
-65.103
-65.86
-66.611
-67.351
-68.075
-68.779
-69.459
-70.111
-70.733
-71.323
-71.878
-72.398
-72.882
-73.328
-73.737
-74.108
-74.442
-74.738
-74.998
-75.221
-75.408
-75.559
-75.675
-75.758
-75.806
-75.821
-75.805
-75.759
-75.683
-75.58
-75.453
-75.303
-75.133
-74.946
-74.746
-74.535
-74.317
-74.095
-73.871
-73.649
-73.43
-73.217
-73.013
-72.818
-72.634
-72.463
-72.306
-72.163
-72.036
-71.926
-71.832
-71.757
-71.7
-71.662
-71.643
-71.644
-71.665
-71.706
-71.766
-71.847
-71.946
-72.064
-72.198
-72.349
-72.514
-72.692
-72.88
-73.077
-73.281
-73.489
-73.698
-73.908
-74.115
-74.318
-74.514
-74.704
-74.884
-75.054
-75.213
-75.359
-75.492
-75.612
-75.716
-75.805
-75.879
-75.936
-75.976
-75.998
-76.004
-75.992
-75.962
-75.915
-75.851
-75.771
-75.674
-75.562
-75.436
-75.296
-75.144
-74.98
-74.806
-74.623
-74.433
-74.237
-74.035
-73.829
-73.619
-73.406
-73.191
-72.974
-72.755
-72.534
-72.31
-72.084
-71.855
-71.624
-71.389
-71.151
-70.909
-70.662
-70.41
-70.152
-69.888
-69.617
-69.338
-69.052
-68.758
-68.456
-68.146
-67.829
-67.505
-67.174
-66.837
-66.495
-66.146
-65.793
-65.436
-65.075
-64.712
-64.346
-63.978
-63.611
-63.246
-62.884
-62.527
-62.177
-61.834
-61.501
-61.18
-60.872
-60.579
-60.301
-60.042
-59.802
-59.583
-59.386
-59.21
-59.057
-58.924
-58.81
-58.713
-58.627
-58.549
-58.474
-58.397
-58.314
-58.219
-58.108
-57.977
-57.823
-57.643
-57.432
-57.186
-56.896
-56.555
-56.156
-55.69
-55.149
-54.522
-53.8
-52.973
-52.038
-50.99
-49.822
-48.523
-47.081
-45.486
-43.739
-41.839
-39.791
-37.602
-35.282
-32.852
-30.345
-27.792
-25.22
-22.65
-20.087
-17.534
-14.996
-12.479
-9.991
-7.536
-5.105
-2.676
-0.233
2.211
4.641
7.077
9.555
12.139
14.896
17.807
20.801
23.957
27.376
30.942
34.612
38.331
41.719
45.408
50.037
54.54
58.555
60.166
57.059
51.57
45.264
40.526
40.684
42.847
44.558
44.185
39.013
31.168
22.852
14.643
7.871
1.907
-4.1
-9.87
-15.364
-20.395
-24.702
-28.382
-31.575
-34.286
-36.484
-38.228
-39.68
-41.117
-42.88
-45.149
-47.884
-51.024
-54.641
-58.816
-63.455
-68.143
-72.244
-75.264
-77.114
-77.947
-77.691
-76.121
-73.246
-69.476
-65.642
-62.653
-60.901
-60.392
-61.345
-64.027
-68.499
-74.521
-81.154
-86.98
-89.981
-87.401
-76.694
-56.33
-27.286
7.853
48.053
95.558
155.886
233.303
327.115
429.852
530.216
621.019
698.306
760.959
807.083
826.224
805.366
733.161
604.159
425.521
214.137
-6.44
-211.085
-379.249
-499.645
-572.591
-606.086
-612.27
-601.306
-578.76
-548.531
-512.575
-473.72
-434.545
-394.802
-354.807
-314.606
-275.778
-242.566
-217.168
-200.204
-190.502
-184.925
-181.566
-179.067
-176.137
-172.093
-166.129
-157.92
-148.021
-137.133
-125.875
-114.975
-105.032
-96.684
-90.712
-87.372
-86.464
-87.643
-90.406
-94.31
-99.025
-104.092
-108.945
-113.19
-116.565
-118.943
-120.366
-120.847
-120.386
-119.041
-116.898
-114.071
-110.695
-106.885
-102.734
-98.329
-93.752
-89.107
-84.522
-80.121
-76.024
-72.311
-69.018
-66.174
-63.793
-61.872
-60.392
-59.311
-58.568
-58.111
-57.893
-57.875
-58.022
-58.289
-58.622
-58.967
-59.268
-59.482
-59.58
-59.533
-59.317
-58.913
-58.308
-57.499
-56.487
-55.272
-53.847
-52.206
-50.343
-48.254
-45.939
-43.396
-40.627
-37.634
-34.419
-30.985
-27.336
-23.478
-19.415
-15.152
-10.693
-6.047
-1.221
3.774
8.926
14.223
19.65
25.196
30.843
36.577
42.383
48.246
54.15
60.08
66.02
71.955
77.87
83.749
89.577
95.338
101.019
106.604
112.079
117.43
122.643
127.705
132.603
137.326
141.861
146.198
150.325
154.234
157.913
161.355
164.55
167.491
170.172
172.586
174.727
176.592
178.176
179.478
180.495
181.225
181.669
181.825
181.696
181.283
180.588
179.614
178.367
176.851
175.072
173.038
170.755
168.232
165.479
162.505
159.321
155.937
152.366
148.62
144.712
140.655
136.464
132.154
127.737
123.23
118.647
114.003
109.312
104.589
99.848
95.104
90.37
85.66
80.989
76.369
71.814
67.336
62.948
58.662
54.488
50.437
46.52
42.744
39.119
35.653
32.353
29.225
26.275
23.507
20.926
18.534
16.334
14.326
12.511
10.888
9.456
8.215
7.161
6.292
5.605
5.096
4.76
4.591
4.584
4.732
5.026
5.458
6.019
6.696
7.48
8.356
9.314
10.34
11.419
12.54
13.688
14.851
16.018
17.175
18.31
19.409
20.46
21.45
22.367
23.198
23.934
24.562
25.077
25.473
25.745
25.89
25.901
25.768
25.483
25.046
24.455
23.716
22.841
21.843
20.751
19.604
18.438
17.292
16.198
15.177
14.258
13.47
12.842
12.42
12.24
12.325
12.703
13.383
14.351
15.592
17.046
18.615
20.206
21.724
23.089
24.25
25.135
25.664
25.749
25.281
24.194
22.423
19.864
16.491
12.352
7.594
2.564
-2.321
-6.732
-10.319
-12.727
-13.712
-13.098
-11.071
-8.222
-5.151
-2.357
-0.035
1.663
2.296
1.615
0.182
-0.058
3.817
14.108
31.385
53.582
77.994
103.974
132.729
169.38
219.541
284.67
363.904
450.04
531.349
598.138
640.459
651.286
629.908
576.411
493.894
391.675
278.373
164.273
60.479
-29.552
-104.749
-166.944
-221.508
-271.812
-321.515
-373.295
-429.849
-491.994
-556.11
-617.445
-665.752
-692.407
-696.285
-679.147
-652.052
-628.02
-613.183
-611.354
-617.952
-623.594
-623.181
-612.611
-592.13
-566.381
-537.886
-508.495
-479.108
-448.769
-417.504
-386.055
-355.023
-325.13
-296.758
-269.92
-244.64
-221.017
-199.113
-178.957
-160.582
-144.03
-129.335
-116.502
-105.476
-96.122
-88.284
-81.837
-76.658
-72.617
-69.556
-67.306
-65.695
-64.58
-63.839
-63.328
-62.899
-62.401
-61.688
-60.679
-59.343
-57.677
-55.701
-53.431
-50.882
-48.093
-45.126
-42.043
-38.907
-35.769
-32.664
-29.653
-26.803
-24.185
-21.867
-19.877
-18.208
-16.838
-15.729
-14.837
-14.115
-13.498
-12.909
-12.281
-11.548
-10.653
-9.544
-8.159
-6.431
-4.296
-1.688
1.441
5.124
9.391
14.259
19.736
25.829
32.536
39.853
47.782
56.32
65.456
75.178
85.466
96.289
107.615
119.396
131.575
144.099
156.916
169.985
183.271
196.732
210.32
223.981
237.661
251.32
264.936
278.485
291.948
305.32
318.61
331.853
345.102
358.388
371.714
385.063
398.399
411.695
424.926
438.064
451.063
463.847
476.319
488.388
499.957
510.906
521.087
530.31
538.381
545.156
550.54
554.473
556.916
557.826
557.166
554.92
551.106
545.769
538.971
530.765
521.208
510.39
498.435
485.514
471.798
457.402
442.396
426.834
410.771
394.275
377.419
360.259
342.843
325.217
307.436
289.585
271.757
254.035
236.488
219.157
202.084
185.354
169.083
153.379
138.339
124.034
110.522
97.862
86.101
75.264
65.354
56.333
48.146
40.727
33.993
27.879
22.321
17.232
12.515
8.08
3.851
-0.231
-4.206
-8.119
-12.002
-15.873
-19.735
-23.57
-27.346
-31.019
-34.533
-37.843
-40.918
-43.722
-46.226
-48.408
-50.255
-51.766
-52.957
-53.841
-54.431
-54.748
-54.814
-54.66
-54.324
-53.847
-53.274
-52.644
-51.987
-51.33
-50.694
-50.095
-49.548
-49.057
-48.622
-48.244
-47.924
-47.665
-47.471
-47.341
-47.273
-47.267
-47.317
-47.423
-47.583
-47.797
-48.063
-48.38
-48.748
-49.167
-49.639
-50.163
-50.736
-51.356
-52.017
-52.715
-53.446
-54.205
-54.985
-55.782
-56.591
-57.408
-58.23
-59.054
-59.876
-60.695
-61.508
-62.312
-63.105
-63.885
-64.65
-65.398
-66.126
-66.832
-67.515
-68.172
-68.803
-69.404
-69.975
-70.513
-71.018
-71.487
-71.921
-72.319
-72.68
-73.006
-73.297
-73.554
-73.778
-73.972
-74.137
-74.274
-74.387
-74.475
-74.54
-74.584
-74.608
-74.612
-74.599
-74.569
-74.523
-74.462
-74.388
-74.302
-74.204
-74.097
-73.981
-73.858
-73.728
-73.593
-73.455
-73.314
-73.173
-73.031
-72.892
-72.756
-72.623
-72.494
-72.37
-72.251
-72.137
-72.027
-71.922
-71.821
-71.724
-71.632
-71.544
-71.46
-71.38
-71.305
-71.234
-71.167
-71.105
-71.047
-70.993
-70.944
-70.9
-70.861
-70.828
-70.801
-70.78
-70.765
-70.756
-70.752
-70.754
-70.761
-70.772
-70.787
-70.806
-70.828
-70.854
-70.884
-70.916
-70.953
-70.993
-71.036
-71.083
-71.133
-71.185
-71.241
-71.299
-71.36
-71.424
-71.49
-71.559
-71.631
-71.705
-71.78
-71.855
-71.931
-72.006
-72.079
-72.151
-72.221
-72.29
-72.357
-72.425
-72.492
-72.562
-72.633
-72.707
-72.785
-72.866
-72.951
-73.042
-73.139
-73.242
-73.354
-73.474
-73.603
-73.744
-73.894
-74.056
-74.229
-74.411
-74.603
-74.805
-75.017
-75.237
-75.467
-75.705
-75.951
-76.205
-76.464
-76.728
-76.992
-77.253
-77.508
-77.75
-77.975
-78.176
-78.347
-78.483
-78.579
-78.63
-78.631
-78.574
-78.457
-78.272
-78.011
-77.666
-77.228
-76.685
-76.029
-75.252
-74.347
-73.307
-72.127
-70.803
-69.332
-67.711
-65.937
-64.002
-61.894
-59.604
-57.133
-54.488
-51.681
-48.732
-45.659
-42.481
-39.228
-35.921
-32.573
-29.19
-25.761
-22.274
-18.734
-15.153
-11.558
-7.977
-4.419
-0.89
2.606
6.086
9.558
13.038
16.566
20.161
23.808
27.476
31.091
34.56
37.823
40.831
43.548
45.952
48.006
49.668
50.91
51.683
51.932
51.6
50.596
48.858
46.374
43.168
39.319
34.949
30.165
25.059
19.723
14.231
8.656
3.079
-2.437
-7.821
-12.978
-17.815
-22.216
-26.074
-29.339
-31.995
-34.078
-35.7
-36.986
-38.057
-39.046
-40.055
-41.178
-42.538
-44.237
-46.379
-49.092
-52.457
-56.568
-61.562
-67.464
-74.217
-81.65
-89.324
-96.715
-103.386
-108.81
-112.439
-113.932
-112.972
-109.517
-104.152
-97.602
-90.507
-83.548
-77.367
-72.377
-68.945
-67.144
-64.982
-59.066
-46.779
-25.529
3.904
37.057
73.351
114.089
164.052
233.294
324.096
432.76
551.59
665.042
762.943
838.482
883.53
895.237
866.688
790.744
667.875
499.021
295.418
77.81
-134.187
-316.222
-451.92
-541.034
-587.67
-604.387
-604.489
-589.025
-559.71
-519.248
-468.467
-416.369
-369.152
-325.779
-286.812
-250.004
-214.759
-185.578
-164.698
-152.57
-148.102
-148.067
-150.05
-152.568
-154.496
-155.099
-153.626
-149.896
-144.373
-137.574
-130.217
-123.035
-116.589
-111.606
-108.746
-108.128
-109.534
-112.604
-116.83
-121.774
-127.035
-132.063
-136.346
-139.603
-141.711
-142.697
-142.661
-141.653
-139.728
-136.998
-133.604
-129.695
-125.399
-120.811
-116.012
-111.101
-106.208
-101.488
-97.062
-93.002
-89.351
-86.121
-83.321
-80.964
-79.034
-77.489
-76.283
-75.364
-74.689
-74.225
-73.932
-73.758
-73.647
-73.535
-73.371
-73.123
-72.762
-72.269
-71.626
-70.814
-69.827
-68.667
-67.332
-65.821
-64.125
-62.236
-60.147
-57.859
-55.372
-52.686
-49.801
-46.716
-43.433
-39.954
-36.28
-32.416
-28.361
-24.12
-19.696
-15.096
-10.33
-5.407
-0.339
4.864
10.188
15.62
21.145
26.75
32.422
38.147
43.911
49.7
55.5
61.296
67.074
72.82
78.52
84.158
89.72
95.192
100.561
105.813
110.933
115.909
120.728
125.377
129.843
134.116
138.183
142.034
145.657
149.044
152.184
155.071
157.695
160.049
162.129
163.927
165.44
166.663
167.592
168.225
168.56
168.595
168.33
167.767
166.905
165.75
164.302
162.569
160.554
158.266
155.71
152.896
149.833
146.531
143.002
139.257
135.31
131.173
126.862
122.391
117.776
113.033
108.177
103.225
98.193
93.099
87.958
82.788
77.605
72.427
67.269
62.149
57.082
52.084
47.17
42.353
37.649
33.07
28.628
24.335
20.202
16.238
12.454
8.856
5.452
2.249
-0.75
-3.54
-6.118
-8.484
-10.637
-12.577
-14.304
-15.822
-17.133
-18.241
-19.151
-19.87
-20.404
-20.762
-20.953
-20.988
-20.882
-20.645
-20.29
-19.832
-19.285
-18.665
-17.992
-17.28
-16.544
-15.799
-15.06
-14.343
-13.664
-13.035
-12.468
-11.972
-11.559
-11.24
-11.029
-10.934
-10.953
-11.084
-11.321
-11.663
-12.118
-12.689
-13.37
-14.157
-15.038
-16.004
-17.049
-18.152
-19.277
-20.381
-21.408
-22.321
-23.101
-23.737
-24.233
-24.565
-24.679
-24.521
-24.037
-23.19
-21.993
-20.44
-18.485
-16.182
-13.653
-11.111
-8.916
-7.273
-6.175
-5.621
-5.57
-5.92
-6.66
-7.551
-7.999
-7.734
-6.783
-5.236
-3.472
-1.807
-0.188
1.17
1.613
0.863
-1.167
-4.531
-8.771
-13.5
-18.848
-24.644
-30.115
-34.917
-38.744
-40.734
-40.396
-36.346
-25.62
-6.974
19.44
52.79
90.156
131.604
179.773
236.966
306.399
386.748
473.181
559.729
636.885
696.084
729.296
729.258
694.421
626.478
530.019
413.024
282.685
147.019
15.873
-103.505
-206.806
-294.016
-370.677
-442.027
-509.98
-573.462
-628.526
-672.476
-705.727
-730.286
-749.003
-763.613
-774.732
-782.872
-787.878
-789.462
-787.286
-780.63
-769.223
-753.413
-733.36
-709.038
-680.927
-649.761
-616.504
-582.55
-548.649
-514.775
-481.147
-448.111
-415.783
-384.312
-353.624
-323.241
-293.178
-263.966
-235.884
-209.122
-183.815
-159.883
-137.401
-116.636
-97.601
-80.087
-63.97
-49.14
-35.564
-23.321
-12.388
-2.663
5.888
13.254
19.398
24.262
27.827
30.136
31.236
31.169
30.006
27.819
24.717
20.859
16.387
11.419
6.062
0.412
-5.423
-11.294
-17.033
-22.482
-27.477
-31.89
-35.623
-38.586
-40.726
-42.017
-42.456
-42.088
-40.96
-39.101
-36.542
-33.32
-29.477
-25.099
-20.299
-15.171
-9.814
-4.306
1.31
6.992
12.719
18.495
24.344
30.314
36.469
42.864
49.54
56.546
63.925
71.744
80.082
88.989
98.5
108.623
119.347
130.661
142.552
154.992
167.936
181.326
195.09
209.157
223.466
237.965
252.603
267.321
282.067
296.81
311.549
326.314
341.134
356.012
370.938
385.887
400.828
415.737
430.581
445.315
459.886
474.22
488.231
501.836
514.93
527.383
539.04
549.712
559.209
567.383
574.105
579.276
582.824
584.679
584.791
583.141
579.709
574.504
567.561
558.927
548.671
536.896
523.719
509.288
493.775
477.339
460.131
442.302
423.972
405.275
386.344
367.299
348.282
329.419
310.806
292.529
274.666
257.277
240.435
224.204
208.606
193.661
179.377
165.754
152.807
140.534
128.909
117.888
107.404
97.4
87.845
78.719
69.999
61.66
53.654
45.931
38.471
31.263
24.298
17.575
11.079
4.809
-1.209
-6.931
-12.299
-17.272
-21.832
-25.976
-29.701
-33.002
-35.867
-38.287
-40.274
-41.846
-43.017
-43.804
-44.222
-44.292
-44.055
-43.563
-42.871
-42.026
-41.063
-40.009
-38.892
-37.738
-36.571
-35.41
-34.262
-33.139
-32.054
-31.019
-30.047
-29.149
-28.328
-27.582
-26.911
-26.315
-25.794
-25.35
-24.981
-24.688
-24.472
-24.334
-24.28
-24.309
-24.42
-24.611
-24.878
-25.219
-25.628
-26.102
-26.634
-27.219
-27.852
-28.529
-29.245
-29.995
-30.774
-31.578
-32.403
-33.243
-34.096
-34.956
-35.821
-36.688
-37.554
-38.416
-39.272
-40.12
-40.959
-41.787
-42.602
-43.402
-44.187
-44.953
-45.7
-46.425
-47.128
-47.806
-48.459
-49.086
-49.684
-50.255
-50.797
-51.31
-51.793
-52.246
-52.668
-53.059
-53.42
-53.749
-54.047
-54.315
-54.551
-54.757
-54.932
-55.077
-55.192
-55.278
-55.334
-55.36
-55.358
-55.328
-55.269
-55.184
-55.072
-54.934
-54.773
-54.589
-54.384
-54.159
-53.917
-53.659
-53.388
-53.104
-52.811
-52.51
-52.203
-51.892
-51.579
-51.265
-50.951
-50.639
-50.33
-50.025
-49.725
-49.431
-49.144
-48.863
-48.591
-48.327
-48.072
-47.826
-47.59
-47.363
-47.146
-46.938
-46.741
-46.552
-46.373
-46.201
-46.038
-45.881
-45.729
-45.583
-45.44
-45.299
-45.159
-45.019
-44.878
-44.735
-44.59
-44.441
-44.289
-44.133
-43.973
-43.809
-43.641
-43.469
-43.293
-43.113
-42.929
-42.742
-42.552
-42.36
-42.165
-41.968
-41.769
-41.569
-41.368
-41.167
-40.966
-40.764
-40.564
-40.364
-40.167
-39.971
-39.779
-39.589
-39.404
-39.223
-39.045
-38.873
-38.704
-38.539
-38.378
-38.22
-38.064
-37.91
-37.757
-37.605
-37.454
-37.304
-37.154
-37.005
-36.856
-36.708
-36.561
-36.416
-36.274
-36.134
-35.999
-35.868
-35.743
-35.625
-35.516
-35.418
-35.33
-35.254
-35.193
-35.146
-35.117
-35.105
-35.112
-35.139
-35.189
-35.262
-35.36
-35.484
-35.634
-35.812
-36.018
-36.251
-36.512
-36.797
-37.104
-37.433
-37.779
-38.139
-38.509
-38.883
-39.255
-39.622
-39.978
-40.316
-40.629
-40.911
-41.154
-41.353
-41.499
-41.583
-41.595
-41.525
-41.365
-41.106
-40.742
-40.264
-39.664
-38.934
-38.069
-37.068
-35.924
-34.63
-33.176
-31.553
-29.759
-27.809
-25.708
-23.463
-21.081
-18.572
-15.95
-13.24
-10.452
-7.585
-4.637
-1.607
1.492
4.632
7.787
10.928
14.04
17.126
20.174
23.162
26.081
28.929
31.708
34.438
37.097
39.625
41.97
44.078
45.914
47.474
48.74
49.692
50.311
50.568
50.445
49.946
49.041
47.693
45.864
43.503
40.615
37.266
33.518
29.439
25.098
20.538
15.817
11.006
6.155
1.314
-3.468
-8.154
-12.674
-16.94
-20.878
-24.408
-27.489
-30.149
-32.429
-34.393
-36.146
-37.78
-39.383
-41.056
-42.888
-44.962
-47.377
-50.24
-53.628
-57.643
-62.411
-67.984
-74.363
-81.412
-88.763
-95.95
-102.517
-107.958
-111.757
-113.548
-113.046
-110.268
-105.835
-100.593
-95.34
-90.831
-87.736
-86.59
-87.795
-91.189
-94.617
-94.541
-87.91
-72.607
-49.734
-22.322
9.603
48.945
102.037
175.939
271.007
381.439
497.01
605.083
697.19
767.342
808.984
817.388
786.087
709.969
590.466
430.876
240.42
33.879
-172.747
-359.994
-511.507
-617.11
-674.834
-690.11
-670.359
-626.981
-569.019
-505.59
-448.94
-403.427
-370.526
-347.447
-324.34
-297.701
-268.013
-237.592
-213.276
-197.521
-188.756
-185.319
-183.828
-182.06
-179.734
-176.303
-171.321
-164.945
-157.395
-148.963
-140.295
-131.983
-124.446
-118.312
-114.181
-112.178
-112.152
-113.815
-116.722
-120.515
-124.871
-129.317
-133.353
-136.635
-138.983
-140.365
-140.839
-140.443
-139.205
-137.195
-134.534
-131.349
-127.763
-123.875
-119.748
-115.443
-111.057
-106.706
-102.512
-98.592
-95.02
-91.83
-89.047
-86.684
-84.739
-83.197
-82.018
-81.148
-80.536
-80.142
-79.928
-79.864
-79.909
-80.014
-80.127
-80.195
-80.179
-80.052
-79.789
-79.369
-78.776
-78
-77.038
-75.893
-74.564
-73.047
-71.337
-69.427
-67.314
-64.997
-62.478
-59.757
-56.836
-53.718
-50.405
-46.902
-43.212
-39.34
-35.292
-31.07
-26.681
-22.133
-17.435
-12.597
-7.631
-2.548
2.641
7.924
13.287
18.719
24.207
29.739
35.303
40.884
46.471
52.049
57.604
63.123
68.592
73.996
79.323
84.558
89.688
94.699
99.579
104.314
108.894
113.306
117.538
121.58
125.421
129.053
132.464
135.647
138.594
141.296
143.745
145.937
147.864
149.52
150.902
152.004
152.824
153.359
153.607
153.568
153.242
152.631
151.737
150.566
149.122
147.41
145.439
143.215
140.749
138.048
135.125
131.99
128.654
125.131
121.434
117.577
113.572
109.435
105.181
100.824
96.379
91.863
87.29
82.677
78.039
73.394
68.756
64.142
59.568
55.049
50.6
46.235
41.968
37.811
33.776
29.874
26.116
22.511
19.067
15.793
12.695
9.78
7.052
4.517
2.177
0.034
-1.908
-3.651
-5.193
-6.535
-7.679
-8.627
-9.381
-9.945
-10.325
-10.525
-10.554
-10.418
-10.128
-9.692
-9.122
-8.431
-7.632
-6.737
-5.761
-4.719
-3.624
-2.493
-1.337
-0.172
0.99
2.134
3.249
4.32
5.334
6.278
7.139
7.905
8.564
9.105
9.523
9.812
9.967
9.984
9.858
9.578
9.14
8.541
7.78
6.861
5.796
4.6
3.302
1.941
0.557
-0.811
-2.129
-3.369
-4.496
-5.478
-6.28
-6.851
-7.153
-7.153
-6.816
-6.123
-5.075
-3.688
-2.023
-0.175
1.763
3.696
5.547
7.25
8.711
9.833
10.511
10.633
10.127
8.897
6.799
3.779
-0.121
-4.716
-9.595
-14.328
-18.59
-21.987
-24.086
-24.608
-23.399
-20.72
-17.301
-13.827
-10.796
-8.599
-7.542
-7.823
-9.367
-11.284
-11.844
-9.151
-1.49
12.641
34.774
66.458
109.04
161.604
220.603
282.472
343.605
403.965
467.17
532.235
594.969
645.576
667.097
650.494
593.2
498.529
382.591
258.805
137.75
31.255
-58.72
-133.116
-193.458
-247.639
-301.914
-357.856
-416.369
-474.497
-526.133
-569.371
-603.409
-627.625
-645.357
-658.454
-667.496
-674.233
-678.362
-679.247
-677.285
-672.423
-664.705
-654.447
-641.453
-625.288
-605.974
-583.756
-558.904
-531.865
-503.061
-472.817
-441.626
-410.062
-378.464
-347.064
-316.019
-285.394
-255.344
-226.046
-197.609
-170.137
-143.729
-118.493
-94.586
-72.176
-51.391
-32.34
-15.066
0.416
14.051
25.804
35.648
43.578
49.661
53.969
56.561
57.534
57.003
55.107
52.047
48.033
43.278
38.006
32.388
26.576
20.742
15.04
9.622
4.626
0.139
-3.757
-6.964
-9.414
-11.064
-11.895
-11.944
-11.273
-9.953
-8.079
-5.721
-2.942
0.184
3.581
7.168
10.879
14.68
18.54
22.417
26.277
30.106
33.9
37.699
41.554
45.521
49.667
54.055
58.749
63.824
69.365
75.453
82.147
89.477
97.464
106.126
115.47
125.485
136.135
147.367
159.125
171.362
184.038
197.099
210.481
224.106
237.886
251.744
265.63
279.5
293.317
307.058
320.71
334.289
347.847
361.416
375.006
388.603
402.163
415.656
429.057
442.336
455.461
468.371
480.978
493.203
504.963
516.15
526.641
536.273
544.848
552.215
558.26
562.893
566.06
567.696
567.738
566.15
562.912
558.046
551.595
543.602
534.116
523.229
511.047
497.718
483.419
468.274
452.397
435.901
418.884
401.474
383.808
366.007
348.192
330.461
312.892
295.574
278.577
261.943
245.714
229.913
214.552
199.693
185.385
171.659
158.552
146.055
134.144
122.792
111.947
101.562
91.608
82.056
72.889
64.109
55.702
47.659
39.967
32.575
25.45
18.566
11.894
5.437
-0.792
-6.771
-12.449
-17.781
-22.742
-27.315
-31.498
-35.302
-38.732
-41.793
-44.5
-46.848
-48.841
-50.487
-51.79
-52.767
-53.447
-53.864
-54.069
-54.111
-54.028
-53.853
-53.611
-53.321
-53.002
-52.671
-52.333
-52.002
-51.689
-51.406
-51.168
-50.984
-50.859
-50.797
-50.796
-50.853
-50.967
-51.137
-51.361
-51.638
-51.968
-52.351
-52.79
-53.285
-53.837
-54.441
-55.096
-55.797
-56.54
-57.32
-58.132
-58.972
-59.833
-60.713
-61.606
-62.508
-63.415
-64.322
-65.225
-66.119
-66.999
-67.862
-68.705
-69.524
-70.315
-71.076
-71.806
-72.501
-73.161
-73.784
-74.37
-74.916
-75.424
-75.894
-76.325
-76.717
-77.072
-77.39
-77.672
-77.92
-78.135
-78.318
-78.47
-78.594
-78.69
-78.76
-78.805
-78.828
-78.829
-78.81
-78.772
-78.718
-78.649
-78.566
-78.472
-78.368
-78.257
-78.139
-78.017
-77.893
-77.768
-77.644
-77.522
-77.403
-77.289
-77.179
-77.075
-76.976
-76.883
-76.795
-76.713
-76.636
-76.564
-76.497
-76.434
-76.376
-76.322
-76.272
-76.226
-76.183
-76.145
-76.11
-76.079
-76.051
-76.027
-76.006
-75.988
-75.973
-75.96
-75.948
-75.937
-75.926
-75.914
-75.899
-75.881
-75.858
-75.831
-75.797
-75.756
-75.708
-75.652
-75.588
-75.516
-75.435
-75.346
-75.248
-75.142
-75.028
-74.904
-74.772
-74.631
-74.48
-74.32
-74.151
-73.971
-73.78
-73.578
-73.365
-73.14
-72.902
-72.652
-72.389
-72.114
-71.827
-71.528
-71.219
-70.899
-70.571
-70.234
-69.889
-69.538
-69.181
-68.819
-68.452
-68.082
-67.707
-67.331
-66.951
-66.57
-66.187
-65.803
-65.418
-65.033
-64.647
-64.262
-63.877
-63.493
-63.111
-62.732
-62.355
-61.981
-61.612
-61.248
-60.888
-60.534
-60.185
-59.841
-59.503
-59.169
-58.841
-58.518
-58.2
-57.888
-57.584
-57.287
-56.998
-56.718
-56.447
-56.187
-55.937
-55.698
-55.472
-55.258
-55.058
-54.872
-54.702
-54.548
-54.413
-54.296
-54.198
-54.12
-54.062
-54.025
-54.009
-54.014
-54.041
-54.089
-54.16
-54.254
-54.37
-54.508
-54.666
-54.841
-55.032
-55.234
-55.441
-55.648
-55.85
-56.042
-56.218
-56.374
-56.503
-56.601
-56.667
-56.695
-56.679
-56.612
-56.485
-56.289
-56.016
-55.655
-55.196
-54.629
-53.944
-53.136
-52.201
-51.135
-49.93
-48.578
-47.064
-45.38
-43.527
-41.503
-39.309
-36.955
-34.454
-31.832
-29.131
-26.381
-23.599
-20.797
-17.973
-15.128
-12.269
-9.398
-6.514
-3.618
-0.705
2.222
5.15
8.085
11.046
14.075
17.24
20.579
24.097
27.784
31.607
35.518
39.468
43.383
47.164
50.73
54.008
56.943
59.504
61.634
63.25
64.257
64.534
63.995
62.603
60.337
57.207
53.265
48.587
43.293
37.547
31.482
25.206
18.815
12.375
5.977
-0.258
-6.216
-11.773
-16.819
-21.287
-25.121
-28.295
-30.853
-32.894
-34.557
-36.019
-37.423
-38.869
-40.472
-42.334
-44.565
-47.308
-50.648
-54.665
-59.482
-65.154
-71.671
-78.913
-86.477
-93.802
-100.368
-105.606
-108.943
-109.991
-108.439
-104.289
-98.21
-91.182
-84.17
-78.075
-73.67
-71.548
-72.13
-75.232
-78.626
-78.543
-71.642
-55.572
-31.14
-1.216
34.221
78.167
136.657
216.291
317.109
432.898
553.382
666.039
762.271
835.812
879.825
889.711
858.92
781.997
660.142
494.889
295.068
78.763
-135.09
-321.624
-460.631
-548.331
-590.144
-600.513
-595.793
-580.783
-553.003
-510.765
-454.215
-390.052
-330.374
-280.956
-241.676
-211.016
-184.371
-160.693
-143.466
-133.618
-131.087
-134.803
-141.155
-147.632
-153.1
-156.38
-156.923
-154.889
-150.586
-144.482
-137.424
-130.191
-123.364
-117.683
-113.787
-111.793
-111.534
-112.684
-114.735
-117.241
-119.852
-122.122
-123.641
-124.213
-123.776
-122.378
-120.152
-117.189
-113.569
-109.415
-104.864
-100.035
-95.051
-90.011
-85.002
-80.138
-75.521
-71.239
-67.364
-63.933
-60.964
-58.461
-56.414
-54.806
-53.611
-52.792
-52.309
-52.127
-52.2
-52.483
-52.926
-53.469
-54.061
-54.66
-55.229
-55.74
-56.169
-56.496
-56.707
-56.792
-56.741
-56.544
-56.191
-55.669
-54.966
-54.074
-52.986
-51.7
-50.211
-48.513
-46.602
-44.475
-42.129
-39.563
-36.774
-33.759
-30.519
-27.056
-23.376
-19.482
-15.384
-11.088
-6.604
-1.943
2.884
7.866
12.991
18.246
23.618
29.094
34.66
40.302
46.005
51.755
57.538
63.338
69.14
74.93
80.693
86.415
92.08
97.674
103.181
108.588
113.879
119.041
124.059
128.919
133.606
138.108
142.41
146.501
150.367
153.996
157.377
160.5
163.353
165.929
168.218
170.212
171.906
173.292
174.365
175.123
175.562
175.679
175.474
174.947
174.099
172.932
171.451
169.659
167.562
165.167
162.482
159.516
156.278
152.781
149.036
145.056
140.857
136.452
131.859
127.095
122.176
117.123
111.953
106.686
101.342
95.941
90.501
85.042
79.584
74.145
68.745
63.4
58.13
52.951
47.879
42.93
38.118
33.459
28.963
24.644
20.513
16.578
12.849
9.335
6.04
2.972
0.134
-2.471
-4.843
-6.981
-8.888
-10.568
-12.024
-13.265
-14.299
-15.136
-15.788
-16.267
-16.587
-16.762
-16.807
-16.738
-16.569
-16.315
-15.991
-15.613
-15.197
-14.758
-14.311
-13.874
-13.462
-13.087
-12.765
-12.504
-12.312
-12.195
-12.158
-12.209
-12.359
-12.613
-12.977
-13.453
-14.04
-14.73
-15.512
-16.357
-17.227
-18.087
-18.898
-19.627
-20.25
-20.734
-21.049
-21.163
-21.031
-20.614
-19.882
-18.793
-17.327
-15.478
-13.258
-10.727
-7.981
-5.114
-2.219
0.624
3.353
5.875
8.088
9.881
11.13
11.75
11.623
10.563
8.476
5.387
1.492
-2.745
-6.807
-10.302
-12.772
-13.703
-12.793
-9.929
-5.516
-0.585
3.831
6.933
8.093
6.862
3.047
-3.148
-10.477
-16.583
-18.845
-14.795
-2.307
20.54
55.52
103.86
164.515
233.993
308.397
384.258
460.974
539.081
615.121
681.342
725.23
735.173
708.129
648.328
565.862
468.733
357.17
230.346
88.645
-59.676
-197.694
-313.136
-400.579
-464.398
-517.663
-568.474
-619.198
-667.858
-708.117
-737.297
-756.548
-767.703
-773.738
-776.444
-775.843
-771.877
-764.811
-755.171
-743.647
-731.057
-717.812
-703.857
-689.259
-674.038
-657.785
-639.939
-620.003
-597.398
-571.938
-543.898
-513.555
-481.313
-447.862
-413.997
-380.459
-347.948
-316.892
-287.447
-259.717
-233.708
-209.311
-186.38
-164.801
-144.505
-125.496
-107.824
-91.538
-76.68
-63.269
-51.305
-40.726
-31.434
-23.329
-16.292
-10.2
-4.942
-0.403
3.539
6.986
10.05
12.851
15.472
17.982
20.434
22.845
25.221
27.553
29.812
31.97
34
35.866
37.541
39.002
40.22
41.174
41.836
42.169
42.165
41.841
41.227
40.375
39.346
38.2
37.014
35.874
34.856
34.039
33.493
33.28
33.467
34.122
35.307
37.091
39.529
42.664
46.535
51.169
56.576
62.762
69.715
77.412
85.824
94.916
104.637
114.941
125.781
137.11
148.892
161.084
173.636
186.496
199.601
212.893
226.335
239.898
253.554
267.291
281.111
295.031
309.102
323.369
337.846
352.53
367.389
382.377
397.454
412.576
427.689
442.736
457.633
472.277
486.575
500.409
513.639
526.097
537.57
547.842
556.745
564.148
569.955
574.107
576.545
577.225
576.137
573.281
568.671
562.346
554.336
544.678
533.457
520.786
506.82
491.757
475.757
458.955
441.48
423.431
404.912
386.043
366.907
347.591
328.203
308.845
289.645
270.763
252.315
234.397
217.096
200.436
184.458
169.214
154.735
141.064
128.231
116.239
105.101
94.831
85.402
76.772
68.87
61.57
54.777
48.407
42.367
36.607
31.081
25.733
20.533
15.459
10.487
5.612
0.83
-3.876
-8.497
-13.007
-17.372
-21.517
-25.39
-28.955
-32.169
-35.015
-37.484
-39.565
-41.27
-42.621
-43.641
-44.355
-44.792
-44.971
-44.92
-44.677
-44.279
-43.777
-43.213
-42.619
-42.023
-41.451
-40.919
-40.443
-40.033
-39.685
-39.401
-39.183
-39.03
-38.947
-38.934
-38.989
-39.11
-39.292
-39.532
-39.827
-40.176
-40.575
-41.022
-41.514
-42.05
-42.629
-43.249
-43.905
-44.593
-45.308
-46.045
-46.798
-47.563
-48.333
-49.103
-49.87
-50.63
-51.378
-52.112
-52.828
-53.525
-54.2
-54.85
-55.475
-56.072
-56.642
-57.182
-57.694
-58.175
-58.627
-59.048
-59.441
-59.804
-60.139
-60.446
-60.727
-60.984
-61.218
-61.431
-61.626
-61.805
-61.971
-62.128
-62.277
-62.421
-62.563
-62.706
-62.852
-63.003
-63.161
-63.327
-63.505
-63.694
-63.897
-64.115
-64.35
-64.602
-64.872
-65.161
-65.469
-65.797
-66.145
-66.513
-66.9
-67.306
-67.73
-68.171
-68.628
-69.099
-69.584
-70.078
-70.582
-71.091
-71.603
-72.116
-72.627
-73.134
-73.633
-74.122
-74.599
-75.061
-75.506
-75.932
-76.335
-76.714
-77.066
-77.389
-77.681
-77.94
-78.163
-78.35
-78.498
-78.605
-78.672
-78.696
-78.677
-78.614
-78.505
-78.352
-78.154
-77.91
-77.622
-77.29
-76.915
-76.498
-76.04
-75.543
-75.008
-74.437
-73.83
-73.189
-72.517
-71.813
-71.081
-70.321
-69.536
-68.726
-67.895
-67.043
-66.173
-65.287
-64.386
-63.472
-62.547
-61.613
-60.672
-59.725
-58.774
-57.82
-56.866
-55.913
-54.962
-54.014
-53.072
-52.136
-51.206
-50.285
-49.373
-48.471
-47.579
-46.7
-45.833
-44.98
-44.141
-43.318
-42.512
-41.723
-40.951
-40.198
-39.463
-38.748
-38.052
-37.375
-36.718
-36.081
-35.463
-34.865
-34.287
-33.729
-33.19
-32.67
-32.168
-31.685
-31.22
-30.771
-30.339
-29.922
-29.521
-29.134
-28.761
-28.401
-28.053
-27.717
-27.391
-27.074
-26.765
-26.463
-26.166
-25.875
-25.589
-25.307
-25.028
-24.755
-24.486
-24.222
-23.964
-23.712
-23.466
-23.227
-22.994
-22.769
-22.552
-22.342
-22.141
-21.95
-21.769
-21.599
-21.442
-21.297
-21.166
-21.049
-20.948
-20.862
-20.792
-20.738
-20.702
-20.684
-20.684
-20.704
-20.742
-20.798
-20.871
-20.958
-21.056
-21.162
-21.269
-21.374
-21.47
-21.553
-21.619
-21.662
-21.677
-21.662
-21.615
-21.532
-21.408
-21.236
-21.009
-20.72
-20.361
-19.923
-19.396
-18.773
-18.045
-17.207
-16.258
-15.195
-14.013
-12.703
-11.253
-9.657
-7.918
-6.035
-4.012
-1.859
0.409
2.764
5.165
7.582
9.995
12.393
14.776
17.141
19.482
21.798
24.088
26.35
28.592
30.81
32.994
35.152
37.303
39.486
41.772
44.198
46.77
49.482
52.303
55.19
58.101
60.968
63.703
66.235
68.496
70.439
72.036
73.231
73.953
74.116
73.606
72.348
70.314
67.492
63.908
59.623
54.713
49.293
43.516
37.502
31.358
25.173
19.017
12.988
7.196
1.751
-3.229
-7.651
-11.459
-14.624
-17.169
-19.181
-20.765
-22.057
-23.198
-24.305
-25.495
-26.882
-28.584
-30.726
-33.4
-36.713
-40.811
-45.756
-51.507
-57.876
-64.415
-70.592
-75.947
-79.941
-82.002
-81.782
-79.14
-74.318
-68.129
-61.493
-55.179
-50
-46.722
-45.682
-46.809
-49.315
-51.392
-50.796
-45.306
-32.622
-10.293
23.713
70.83
131.781
204.943
286.302
371.35
454.857
532.891
604.891
670.096
725.94
766.577
781.63
758.733
688.275
567.567
399.939
198.78
-14.275
-217.061
-385.686
-505.107
-574.877
-601.546
-598.814
-579.432
-548.255
-508.743
-464.602
-419.334
-378.232
-343.555
-312.144
-281.318
-249.987
-219.459
-194.415
-177.653
-168.727
-165.778
-165.802
-166.289
-166.076
-164.326
-160.328
-153.962
-145.576
-135.734
-125.141
-114.618
-104.827
-96.44
-90.233
-86.455
-84.953
-85.461
-87.529
-90.731
-94.764
-99.215
-103.567
-107.493
-110.785
-113.299
-115.051
-116.037
-116.227
-115.672
-114.45
-112.639
-110.34
-107.641
-104.602
-101.296
-97.791
-94.154
-90.488
-86.885
-83.433
-80.233
-77.341
-74.795
-72.627
-70.837
-69.41
-68.323
-67.535
-66.995
-66.665
-66.506
-66.483
-66.568
-66.721
-66.901
-67.065
-67.163
-67.157
-67.02
-66.725
-66.254
-65.596
-64.741
-63.687
-62.438
-60.995
-59.357
-57.521
-55.483
-53.24
-50.793
-48.145
-45.299
-42.261
-39.033
-35.621
-32.03
-28.268
-24.339
-20.25
-16.006
-11.613
-7.08
-2.417
2.365
7.254
12.24
17.31
22.45
27.649
32.893
38.171
43.47
48.779
54.085
59.377
64.641
69.865
75.038
80.148
85.183
90.13
94.978
99.715
104.33
108.812
113.15
117.334
121.353
125.197
128.856
132.323
135.587
138.64
141.474
144.082
146.456
148.59
150.479
152.115
153.496
154.616
155.472
156.06
156.378
156.424
156.197
155.697
154.924
153.879
152.566
150.988
149.148
147.053
144.709
142.122
139.301
136.255
132.993
129.526
125.864
122.02
118.006
113.836
109.522
105.079
100.522
95.866
91.127
86.32
81.461
76.567
71.653
66.736
61.833
56.958
52.13
47.362
42.671
38.071
33.578
29.204
24.965
20.871
16.935
13.166
9.576
6.172
2.962
-0.046
-2.847
-5.437
-7.811
-9.967
-11.903
-13.62
-15.119
-16.403
-17.475
-18.341
-19.009
-19.487
-19.785
-19.913
-19.884
-19.709
-19.403
-18.98
-18.452
-17.836
-17.146
-16.399
-15.612
-14.801
-13.982
-13.173
-12.391
-11.652
-10.972
-10.364
-9.835
-9.397
-9.057
-8.826
-8.716
-8.738
-8.891
-9.179
-9.602
-10.151
-10.82
-11.587
-12.415
-13.269
-14.114
-14.917
-15.657
-16.305
-16.824
-17.178
-17.325
-17.225
-16.858
-16.198
-15.217
-13.914
-12.291
-10.386
-8.296
-6.116
-3.937
-1.847
0.103
1.841
3.255
4.241
4.695
4.527
3.704
2.13
-0.363
-3.833
-8.205
-13.24
-18.489
-23.533
-28.047
-31.583
-33.566
-33.59
-31.571
-27.834
-23.023
-17.91
-13.226
-9.705
-8.36
-9.01
-9.867
-9.219
-5.82
-1.013
2.142
4.185
10.449
31.099
75.444
144.28
231.053
323.133
410.734
492.637
567.748
634.975
687.385
709.945
695.248
643.137
559.697
460.095
353.263
241.838
129.766
16.338
-95.619
-199.279
-294.148
-379.192
-454.528
-523.032
-582.946
-633.035
-673.728
-704.75
-727.915
-745.167
-757.247
-765.243
-770.11
-772.222
-771.893
-769.178
-763.851
-755.729
-744.683
-730.456
-712.685
-691.381
-666.864
-639.581
-610.173
-579.246
-547.308
-514.938
-482.729
-451.057
-420.154
-390.192
-361.214
-333.275
-306.453
-280.747
-256.146
-232.671
-210.338
-189.172
-169.208
-150.447
-132.884
-116.541
-101.425
-87.549
-74.903
-63.43
-53.081
-43.81
-35.569
-28.315
-21.982
-16.477
-11.718
-7.631
-4.135
-1.148
1.427
3.712
5.797
7.748
9.606
11.383
13.089
14.74
16.338
17.878
19.349
20.725
21.992
23.149
24.182
25.074
25.796
26.307
26.593
26.673
26.578
26.357
26.064
25.752
25.487
25.346
25.4
25.718
26.364
27.386
28.84
30.787
33.29
36.418
40.228
44.756
50.025
56.047
62.821
70.339
78.577
87.491
97.029
107.144
117.793
128.938
140.549
152.584
164.999
177.743
190.757
203.991
217.405
230.963
244.636
258.409
272.281
286.272
300.432
314.793
329.376
344.183
359.19
374.362
389.662
405.04
420.444
435.813
451.076
466.149
480.938
495.326
509.178
522.33
534.586
545.756
555.661
564.148
571.094
576.406
580.014
581.866
581.934
580.197
576.636
571.261
564.109
555.24
544.742
532.728
519.33
504.707
489.039
472.494
455.239
437.417
419.15
400.562
381.776
362.925
344.163
325.617
307.382
289.552
272.201
255.405
239.25
223.779
208.998
194.91
181.505
168.783
156.761
145.426
134.746
124.667
115.104
105.997
97.315
89.018
81.07
73.421
65.998
58.763
51.709
44.829
38.125
31.593
25.213
18.995
12.976
7.199
1.727
-3.4
-8.17
-12.566
-16.574
-20.179
-23.356
-26.099
-28.429
-30.36
-31.908
-33.092
-33.92
-34.419
-34.636
-34.615
-34.409
-34.06
-33.595
-33.045
-32.434
-31.788
-31.128
-30.469
-29.814
-29.172
-28.552
-27.963
-27.417
-26.918
-26.466
-26.058
-25.693
-25.37
-25.089
-24.851
-24.653
-24.495
-24.38
-24.308
-24.284
-24.308
-24.379
-24.496
-24.654
-24.853
-25.088
-25.356
-25.653
-25.975
-26.319
-26.681
-27.06
-27.452
-27.855
-28.267
-28.684
-29.106
-29.529
-29.953
-30.377
-30.799
-31.219
-31.636
-32.05
-32.46
-32.867
-33.27
-33.67
-34.064
-34.455
-34.84
-35.22
-35.594
-35.963
-36.327
-36.684
-37.035
-37.381
-37.721
-38.055
-38.384
-38.706
-39.023
-39.334
-39.637
-39.934
-40.223
-40.504
-40.777
-41.041
-41.296
-41.541
-41.777
-42.001
-42.216
-42.419
-42.61
-42.79
-42.958
-43.114
-43.258
-43.39
-43.51
-43.618
-43.715
-43.801
-43.876
-43.942
-43.999
-44.047
-44.088
-44.124
-44.154
-44.181
-44.206
-44.229
-44.254
-44.28
-44.31
-44.345
-44.386
-44.435
-44.492
-44.558
-44.635
-44.724
-44.825
-44.939
-45.066
-45.208
-45.364
-45.536
-45.724
-45.928
-46.148
-46.384
-46.637
-46.907
-47.193
-47.494
-47.812
-48.144
-48.49
-48.849
-49.219
-49.6
-49.989
-50.387
-50.789
-51.196
-51.606
-52.017
-52.427
-52.834
-53.239
-53.639
-54.033
-54.419
-54.798
-55.167
-55.527
-55.875
-56.212
-56.536
-56.847
-57.144
-57.426
-57.694
-57.946
-58.183
-58.403
-58.608
-58.797
-58.97
-59.128
-59.273
-59.404
-59.523
-59.631
-59.729
-59.82
-59.903
-59.981
-60.055
-60.126
-60.195
-60.264
-60.332
-60.402
-60.473
-60.546
-60.623
-60.703
-60.786
-60.874
-60.967
-61.063
-61.164
-61.27
-61.38
-61.494
-61.612
-61.734
-61.858
-61.984
-62.111
-62.237
-62.362
-62.483
-62.599
-62.707
-62.807
-62.896
-62.972
-63.035
-63.084
-63.116
-63.133
-63.134
-63.118
-63.086
-63.038
-62.974
-62.895
-62.801
-62.694
-62.574
-62.443
-62.301
-62.151
-61.993
-61.829
-61.661
-61.49
-61.32
-61.152
-60.989
-60.832
-60.686
-60.553
-60.436
-60.339
-60.264
-60.214
-60.19
-60.196
-60.231
-60.296
-60.39
-60.509
-60.652
-60.817
-60.998
-61.193
-61.398
-61.608
-61.821
-62.034
-62.242
-62.442
-62.627
-62.792
-62.929
-63.03
-63.086
-63.088
-63.024
-62.883
-62.655
-62.331
-61.898
-61.348
-60.67
-59.846
-58.865
-57.721
-56.407
-54.927
-53.292
-51.501
-49.567
-47.511
-45.351
-43.117
-40.843
-38.532
-36.18
-33.823
-31.49
-29.21
-27.013
-24.863
-22.701
-20.525
-18.348
-16.03
-13.399
-10.474
-7.195
-3.499
0.356
5.134
11.561
18.549
25.738
31.137
32.343
31.843
31.245
32.986
40.47
50.478
60.251
67.841
70.128
69.133
66.94
63.982
61.56
58.913
55.083
50.31
44.572
38.067
31.152
23.874
16.281
8.555
0.862
-6.63
-13.735
-20.286
-26.154
-31.237
-35.459
-38.797
-41.259
-42.881
-43.755
-44.017
-43.845
-43.443
-43.007
-42.723
-42.763
-43.343
-44.728
-47.107
-50.564
-55.017
-60.2
-65.837
-71.721
-77.555
-82.911
-87.423
-90.837
-93.228
-95.103
-96.936
-98.996
-101.433
-104.374
-107.861
-111.691
-115.132
-116.922
-115.808
-110.639
-100.442
-83.354
-56.633
-18.447
31.566
90.052
151.583
212.827
273.716
339.789
417.533
509.547
613.248
717.775
810.144
877.608
908.101
894.748
832.547
721.024
565.473
375.086
165.233
-46.704
-242.113
-403.682
-521.696
-594.428
-628.725
-637.713
-632.7
-617.802
-592.787
-553.552
-496.868
-428.87
-357.249
-290.323
-236.89
-196.721
-168.091
-149.437
-136.823
-130.408
-130.275
-134.8
-142.757
-151.24
-157.574
-160.466
-159.415
-154.993
-148.074
-139.412
-130.04
-120.98
-113.226
-107.763
-104.895
-104.44
-106.078
-109.296
-113.594
-118.521
-123.488
-127.891
-131.369
-133.76
-135.046
-135.332
-134.691
-133.167
-130.866
-127.914
-124.436
-120.551
-116.341
-111.87
-107.206
-102.444
-97.703
-93.111
-88.788
-84.815
-81.239
-78.084
-75.366
-73.088
-71.235
-69.776
-68.661
-67.844
-67.289
-66.959
-66.827
-66.852
-66.988
-67.181
-67.379
-67.541
-67.637
-67.644
-67.539
-67.306
-66.932
-66.413
-65.75
-64.941
-63.979
-62.855
-61.561
-60.087
-58.431
-56.588
-54.555
-52.328
-49.906
-47.286
-44.467
-41.45
-38.233
-34.817
-31.2
-27.386
-23.377
-19.18
-14.803
-10.253
-5.539
-0.671
4.338
9.478
14.737
20.103
25.565
31.111
36.727
42.401
48.119
53.868
59.634
65.402
71.157
76.883
82.565
88.186
93.732
99.184
104.528
109.748
114.827
119.749
124.5
129.063
133.423
137.568
141.481
145.15
148.563
151.708
154.572
157.148
159.424
161.394
163.049
164.383
165.389
166.063
166.4
166.398
166.056
165.372
164.348
162.988
161.295
159.274
156.934
154.282
151.328
148.083
144.56
140.773
136.734
132.462
127.971
123.281
118.409
113.375
108.199
102.902
97.503
92.025
86.489
80.915
75.324
69.738
64.177
58.662
53.214
47.851
42.594
37.461
32.471
27.64
22.984
18.518
14.255
10.206
6.384
2.796
-0.548
-3.642
-6.481
-9.061
-11.38
-13.435
-15.229
-16.764
-18.044
-19.075
-19.863
-20.418
-20.75
-20.873
-20.797
-20.538
-20.11
-19.53
-18.814
-17.979
-17.041
-16.017
-14.924
-13.781
-12.606
-11.417
-10.232
-9.069
-7.947
-6.882
-5.889
-4.98
-4.164
-3.448
-2.838
-2.346
-1.983
-1.759
-1.677
-1.74
-1.944
-2.282
-2.741
-3.292
-3.894
-4.509
-5.094
-5.62
-6.065
-6.396
-6.584
-6.596
-6.383
-5.91
-5.151
-4.073
-2.659
-0.906
1.169
3.501
5.985
8.517
10.998
13.35
15.516
17.412
18.943
20.004
20.476
20.293
19.369
17.557
14.787
11.087
6.642
1.895
-2.628
-6.529
-9.367
-10.634
-10.018
-7.404
-3.121
1.933
6.753
10.644
13.073
13.303
10.978
6.413
0.61
-3.548
-2.898
3.96
18.915
42.377
74.296
117.206
170.224
232.842
304.613
381.572
463.939
547.744
624.957
687.625
720.97
716.11
671.19
588.889
483.182
368.22
256.136
155.923
67.12
-14.282
-94.434
-178.073
-264.569
-350.786
-431.299
-501.751
-560.849
-608.646
-646.733
-676.669
-698.994
-714.336
-723.459
-727.417
-727.685
-725.418
-721.149
-715.071
-707.196
-697.328
-685.262
-670.698
-653.174
-632.583
-609.166
-583.299
-555.533
-526.457
-496.573
-466.411
-436.521
-407.227
-378.733
-351.199
-324.667
-299.189
-274.814
-251.526
-229.307
-208.162
-188.096
-169.113
-151.222
-134.397
-118.624
-103.922
-90.295
-77.748
-66.255
-55.751
-46.175
-37.483
-29.631
-22.569
-16.227
-10.53
-5.415
-0.83
3.276
6.966
10.325
13.436
16.351
19.107
21.714
24.167
26.468
28.616
30.604
32.419
34.039
35.45
36.652
37.649
38.44
39.013
39.341
39.417
39.266
38.921
38.435
37.86
37.248
36.664
36.183
35.877
35.816
36.06
36.659
37.669
39.147
41.153
43.75
46.98
50.875
55.463
60.764
66.798
73.572
81.078
89.294
98.197
107.759
117.949
128.728
140.037
151.822
164.033
176.618
189.536
202.739
216.165
229.758
243.459
257.224
271.023
284.832
298.623
312.392
326.143
339.896
353.689
367.536
381.422
395.324
409.202
423.019
436.747
450.338
463.727
476.838
489.576
501.84
513.523
524.484
534.552
543.554
551.305
557.661
562.528
565.824
567.496
567.505
565.818
562.441
557.412
550.784
542.621
533.016
522.069
509.931
496.797
482.858
468.307
453.31
437.992
422.474
406.866
391.258
375.728
360.336
345.114
330.1
315.333
300.833
286.61
272.647
258.892
245.31
231.871
218.56
205.383
192.346
179.459
166.746
154.24
141.977
129.999
118.338
107.017
96.062
85.506
75.383
65.739
56.607
48.007
39.955
32.455
25.509
19.114
13.259
7.92
3.076
-1.295
-5.214
-8.7
-11.774
-14.46
-16.785
-18.776
-20.459
-21.857
-22.995
-23.899
-24.591
-25.096
-25.435
-25.626
-25.689
-25.646
-25.515
-25.317
-25.071
-24.792
-24.498
-24.204
-23.924
-23.67
-23.452
-23.279
-23.158
-23.095
-23.095
-23.162
-23.297
-23.502
-23.777
-24.122
-24.534
-25.013
-25.556
-26.159
-26.82
-27.535
-28.3
-29.109
-29.96
-30.845
-31.76
-32.7
-33.659
-34.632
-35.613
-36.596
-37.577
-38.551
-39.513
-40.458
-41.382
-42.282
-43.154
-43.997
-44.807
-45.584
-46.325
-47.032
-47.705
-48.342
-48.946
-49.518
-50.059
-50.569
-51.051
-51.507
-51.938
-52.347
-52.734
-53.103
-53.454
-53.792
-54.117
-54.431
-54.738
-55.038
-55.335
-55.629
-55.923
-56.219
-56.519
-56.824
-57.136
-57.457
-57.787
-58.129
-58.482
-58.848
-59.227
-59.619
-60.023
-60.439
-60.866
-61.304
-61.752
-62.209
-62.673
-63.144
-63.621
-64.102
-64.586
-65.071
-65.558
-66.044
-66.529
-67.011
-67.488
-67.961
-68.427
-68.886
-69.337
-69.777
-70.207
-70.624
-71.028
-71.416
-71.789
-72.144
-72.48
-72.797
-73.093
-73.368
-73.621
-73.852
-74.06
-74.246
-74.408
-74.548
-74.664
-74.757
-74.827
-74.875
-74.9
-74.902
-74.883
-74.842
-74.779
-74.696
-74.592
-74.469
-74.326
-74.164
-73.984
-73.788
-73.576
-73.35
-73.11
-72.858
-72.596
-72.326
-72.048
-71.765
-71.477
-71.188
-70.897
-70.607
-70.319
-70.033
-69.752
-69.476
-69.207
-68.944
-68.69
-68.444
-68.207
-67.981
-67.764
-67.558
-67.363
-67.179
-67.006
-66.843
-66.69
-66.547
-66.412
-66.285
-66.164
-66.048
-65.935
-65.823
-65.71
-65.594
-65.473
-65.344
-65.204
-65.051
-64.883
-64.697
-64.491
-64.263
-64.011
-63.733
-63.428
-63.093
-62.728
-62.331
-61.901
-61.438
-60.941
-60.409
-59.844
-59.245
-58.612
-57.947
-57.251
-56.525
-55.772
-54.993
-54.19
-53.368
-52.529
-51.677
-50.817
-49.952
-49.087
-48.227
-47.376
-46.54
-45.723
-44.93
-44.165
-43.433
-42.738
-42.084
-41.474
-40.912
-40.401
-39.945
-39.544
-39.201
-38.917
-38.693
-38.529
-38.426
-38.381
-38.394
-38.463
-38.585
-38.758
-38.978
-39.239
-39.537
-39.866
-40.217
-40.585
-40.96
-41.333
-41.696
-42.038
-42.35
-42.622
-42.845
-43.008
-43.101
-43.115
-43.039
-42.864
-42.582
-42.183
-41.66
-41.004
-40.21
-39.272
-38.184
-36.943
-35.545
-33.987
-32.269
-30.39
-28.351
-26.154
-23.802
-21.301
-18.658
-15.882
-12.983
-9.974
-6.869
-3.685
-0.439
2.851
6.166
9.484
12.785
16.049
19.254
22.381
25.406
28.31
31.07
33.664
36.071
38.27
40.239
41.96
43.415
44.589
45.473
46.057
46.334
46.294
45.924
45.216
44.168
42.783
41.063
39.022
36.674
34.051
31.2
28.165
24.991
21.718
18.376
15.003
11.639
8.326
5.12
2.058
-0.829
-3.508
-5.955
-8.156
-10.115
-11.886
-13.559
-15.224
-16.964
-18.844
-20.919
-23.277
-26.008
-29.208
-32.978
-37.362
-42.407
-48.208
-54.772
-62.04
-69.833
-77.712
-85.152
-91.719
-96.923
-100.265
-101.454
-100.255
-96.738
-91.589
-85.65
-79.677
-74.426
-70.548
-68.379
-68.139
-69.686
-70.971
-68.642
-59.87
-41.664
-14.155
18.673
55.716
96.726
144.574
208.396
291.241
391.9
505.513
617.022
714.388
787.332
824.423
823.172
780.321
693.865
568.636
406.415
215.972
14.014
-182.561
-350.251
-472.053
-545.964
-577.496
-582.295
-576.435
-565.01
-548.14
-522.751
-485.001
-437.093
-384.341
-331.267
-282.176
-239.846
-205.092
-178.135
-158.896
-146.391
-139.191
-136.452
-137.088
-139.385
-141.997
-143.617
-143.043
-140.182
-135.46
-129.117
-121.687
-113.954
-106.579
-100.42
-96.292
-94.352
-94.429
-96.248
-99.379
-103.412
-107.952
-112.492
-116.515
-119.71
-121.949
-123.226
-123.624
-123.206
-122.025
-120.162
-117.736
-114.865
-111.649
-108.177
-104.51
-100.706
-96.861
-93.077
-89.455
-86.105
-83.089
-80.437
-78.17
-76.294
-74.797
-73.668
-72.873
-72.362
-72.093
-72.025
-72.123
-72.359
-72.693
-73.078
-73.466
-73.806
-74.057
-74.194
-74.191
-74.029
-73.694
-73.175
-72.465
-71.57
-70.486
-69.212
-67.741
-66.067
-64.186
-62.099
-59.807
-57.312
-54.617
-51.723
-48.636
-45.358
-41.896
-38.253
-34.434
-30.444
-26.288
-21.974
-17.511
-12.912
-8.186
-3.345
1.597
6.628
11.733
16.9
22.116
27.368
32.642
37.925
43.205
48.468
53.701
58.891
64.026
69.094
74.081
78.976
83.767
88.443
92.993
97.406
101.671
105.779
109.719
113.482
117.058
120.438
123.613
126.575
129.316
131.829
134.106
136.141
137.93
139.466
140.747
141.767
142.525
143.017
143.243
143.201
142.893
142.318
141.479
140.378
139.019
137.405
135.542
133.436
131.093
128.52
125.725
122.717
119.506
116.101
112.513
108.754
104.837
100.775
96.581
92.27
87.856
83.357
78.786
74.162
69.499
64.815
60.126
55.447
50.796
46.187
41.635
37.157
32.765
28.473
24.294
20.242
16.326
12.559
8.951
5.51
2.245
-0.836
-3.725
-6.418
-8.907
-11.19
-13.263
-15.122
-16.768
-18.201
-19.421
-20.433
-21.242
-21.852
-22.275
-22.518
-22.592
-22.51
-22.283
-21.925
-21.451
-20.873
-20.207
-19.465
-18.662
-17.814
-16.937
-16.044
-15.151
-14.273
-13.424
-12.62
-11.877
-11.206
-10.617
-10.118
-9.721
-9.435
-9.275
-9.251
-9.365
-9.619
-10.014
-10.542
-11.193
-11.948
-12.766
-13.608
-14.431
-15.197
-15.874
-16.428
-16.818
-17.006
-16.945
-16.601
-15.953
-14.98
-13.663
-12.001
-10.011
-7.735
-5.266
-2.718
-0.197
2.18
4.32
6.149
7.571
8.481
8.783
8.376
7.193
5.195
2.309
-1.563
-6.411
-12.084
-18.241
-24.331
-29.825
-34.304
-37.299
-38.264
-36.858
-33.063
-27.262
-20.42
-13.518
-7.146
-1.895
1.604
3.198
3.341
3.175
4.904
10.991
23.311
43.811
74.6
116.175
167.297
226.251
289.681
356.206
427.757
502.325
574.837
636.028
671.164
672.692
641.307
581.972
505.515
418.107
319.378
211.291
96.313
-20.286
-129.046
-226.424
-313.728
-392.723
-467.254
-536.994
-597.916
-648.253
-686.771
-714.274
-734.036
-748.078
-757.868
-764.93
-769.68
-772.284
-773.025
-771.61
-767.532
-760.406
-749.626
-734.557
-715.102
-691.512
-664.19
-633.794
-601.013
-566.474
-530.921
-495.122
-459.579
-424.618
-390.476
-357.293
-325.23
-294.459
-265.063
-237.078
-210.565
-185.58
-162.184
-140.449
-120.388
-101.972
-85.179
-69.954
-56.239
-43.985
-33.098
-23.45
-14.926
-7.42
-0.842
4.874
9.81
14.066
17.731
20.909
23.695
26.165
28.408
30.481
32.395
34.155
35.727
37.04
38.048
38.728
39.07
39.11
38.891
38.431
37.752
36.861
35.75
34.429
32.894
31.163
29.298
27.381
25.52
23.868
22.551
21.661
21.271
21.399
22.032
23.181
24.861
27.088
29.898
33.322
37.392
42.154
47.629
53.814
60.676
68.145
76.153
84.659
93.632
103.066
112.97
123.338
134.156
145.423
157.126
169.244
181.739
194.552
207.609
220.866
234.311
247.947
261.778
275.805
290.027
304.453
319.115
334.023
349.164
364.495
379.947
395.466
411.008
426.541
442.029
457.408
472.571
487.407
501.809
515.645
528.771
540.993
552.078
561.842
570.166
576.976
582.24
585.908
587.924
588.246
586.857
583.769
579.025
572.669
564.74
555.318
544.528
532.552
519.617
505.893
491.479
476.429
460.791
444.642
428.079
411.191
394.049
376.72
359.288
341.863
324.559
307.448
290.565
273.89
257.399
241.113
225.105
209.488
194.354
179.757
165.738
152.334
139.581
127.493
116.041
105.146
94.739
84.783
75.267
66.215
57.633
49.496
41.76
34.359
27.241
20.38
13.746
7.312
1.06
-5.008
-10.854
-16.402
-21.598
-26.413
-30.834
-34.871
-38.526
-41.79
-44.657
-47.126
-49.2
-50.887
-52.195
-53.127
-53.697
-53.934
-53.879
-53.594
-53.126
-52.511
-51.779
-50.951
-50.049
-49.096
-48.105
-47.085
-46.045
-44.996
-43.951
-42.925
-41.928
-40.968
-40.047
-39.165
-38.324
-37.527
-36.776
-36.075
-35.427
-34.835
-34.304
-33.841
-33.449
-33.13
-32.886
-32.713
-32.612
-32.579
-32.613
-32.708
-32.862
-33.07
-33.33
-33.638
-33.99
-34.384
-34.814
-35.279
-35.774
-36.296
-36.84
-37.404
-37.983
-38.574
-39.173
-39.777
-40.381
-40.983
-41.579
-42.166
-42.74
-43.299
-43.84
-44.36
-44.856
-45.327
-45.771
-46.188
-46.576
-46.935
-47.266
-47.569
-47.845
-48.094
-48.317
-48.514
-48.686
-48.834
-48.959
-49.061
-49.142
-49.202
-49.244
-49.267
-49.273
-49.264
-49.24
-49.204
-49.157
-49.099
-49.034
-48.961
-48.883
-48.801
-48.716
-48.629
-48.54
-48.451
-48.361
-48.271
-48.179
-48.087
-47.992
-47.895
-47.795
-47.691
-47.582
-47.467
-47.346
-47.217
-47.081
-46.937
-46.784
-46.622
-46.45
-46.269
-46.078
-45.878
-45.667
-45.447
-45.216
-44.975
-44.724
-44.462
-44.19
-43.909
-43.617
-43.317
-43.008
-42.692
-42.369
-42.042
-41.712
-41.38
-41.048
-40.718
-40.393
-40.073
-39.762
-39.461
-39.172
-38.897
-38.637
-38.393
-38.168
-37.961
-37.774
-37.607
-37.461
-37.337
-37.234
-37.152
-37.093
-37.055
-37.039
-37.045
-37.073
-37.122
-37.191
-37.281
-37.391
-37.518
-37.663
-37.823
-37.997
-38.182
-38.378
-38.581
-38.789
-39.001
-39.212
-39.423
-39.629
-39.829
-40.021
-40.202
-40.372
-40.529
-40.67
-40.796
-40.904
-40.995
-41.068
-41.122
-41.156
-41.171
-41.167
-41.143
-41.099
-41.036
-40.954
-40.853
-40.735
-40.601
-40.452
-40.29
-40.118
-39.939
-39.755
-39.57
-39.386
-39.207
-39.037
-38.878
-38.733
-38.606
-38.5
-38.417
-38.361
-38.334
-38.339
-38.379
-38.455
-38.57
-38.724
-38.919
-39.155
-39.434
-39.755
-40.12
-40.527
-40.976
-41.468
-42.001
-42.572
-43.179
-43.818
-44.485
-45.173
-45.877
-46.589
-47.3
-48.003
-48.691
-49.354
-49.987
-50.581
-51.131
-51.628
-52.066
-52.436
-52.729
-52.932
-53.036
-53.029
-52.9
-52.64
-52.24
-51.694
-50.995
-50.142
-49.128
-47.95
-46.6
-45.065
-43.34
-41.422
-39.317
-37.031
-34.583
-31.995
-29.296
-26.515
-23.677
-20.8
-17.894
-14.956
-11.986
-8.981
-5.947
-2.906
0.124
3.127
6.091
9.012
11.897
14.769
17.654
20.59
23.595
26.669
29.783
32.885
35.905
38.763
41.39
43.743
45.782
47.478
48.797
49.703
50.142
50.056
49.375
48.017
45.925
43.073
39.475
35.195
30.332
25.016
19.361
13.464
7.404
1.254
-4.913
-11.021
-16.978
-22.698
-28.084
-33.022
-37.42
-41.215
-44.393
-47.003
-49.154
-50.973
-52.574
-54.069
-55.555
-57.138
-58.936
-61.064
-63.633
-66.748
-70.549
-75.136
-80.534
-86.665
-93.253
-99.903
-106.161
-111.512
-115.409
-117.459
-117.416
-115.281
-111.507
-106.769
-101.848
-97.617
-94.775
-93.798
-95.008
-98.215
-102.441
-105.371
-103.548
-93.867
-74.181
-45.1
-8.97
33.996
85.525
150.264
233.365
334.071
446.809
562.4
669.418
760.198
828.697
867.743
872.315
835.798
753.18
626.01
456.611
254.209
35.471
-181.137
-371.682
-517.709
-613.179
-661.114
-673.801
-663.084
-634.534
-590.676
-534.274
-472.621
-415.705
-371.327
-340.739
-317.664
-295.348
-270.327
-243.546
-220.601
-205.005
-196.577
-193.608
-192.574
-191.033
-188.456
-184.368
-178.453
-170.877
-161.894
-151.892
-141.623
-131.734
-122.651
-114.988
-109.35
-105.889
-104.501
-104.934
-106.741
-109.556
-113.083
-116.881
-120.504
-123.668
-126.193
-127.999
-129.076
-129.395
-128.944
-127.775
-125.981
-123.657
-120.884
-117.727
-114.246
-110.508
-106.598
-102.603
-98.597
-94.648
-90.824
-87.191
-83.832
-80.803
-78.13
-75.812
-73.834
-72.169
-70.794
-69.676
-68.77
-68.033
-67.427
-66.915
-66.472
-66.066
-65.659
-65.211
-64.674
-64.013
-63.2
-62.216
-61.048
-59.684
-58.115
-56.338
-54.357
-52.176
-49.792
-47.204
-44.406
-41.397
-38.178
-34.754
-31.131
-27.314
-23.309
-19.123
-14.766
-10.245
-5.571
-0.751
4.208
9.294
14.498
19.805
25.203
30.677
36.214
41.8
47.419
53.056
58.698
64.329
69.938
75.509
81.03
86.487
91.866
97.154
102.339
107.407
112.346
117.141
121.782
126.256
130.552
134.658
138.564
142.26
145.738
148.988
152.002
154.774
157.295
159.561
161.565
163.302
164.768
165.96
166.874
167.508
167.86
167.929
167.715
167.218
166.438
165.377
164.037
162.422
160.536
158.383
155.969
153.301
150.388
147.237
143.859
140.264
136.463
132.468
128.292
123.947
119.448
114.808
110.042
105.166
100.195
95.145
90.032
84.873
79.684
74.482
69.282
64.101
58.956
53.863
48.837
43.894
39.051
34.321
29.719
25.259
20.953
16.815
12.854
9.081
5.506
2.137
-1.02
-3.958
-6.673
-9.161
-11.419
-13.447
-15.245
-16.815
-18.161
-19.287
-20.201
-20.911
-21.426
-21.757
-21.915
-21.912
-21.763
-21.479
-21.075
-20.564
-19.961
-19.282
-18.543
-17.76
-16.951
-16.134
-15.324
-14.539
-13.793
-13.099
-12.466
-11.907
-11.428
-11.041
-10.761
-10.597
-10.555
-10.642
-10.854
-11.185
-11.625
-12.15
-12.723
-13.312
-13.883
-14.403
-14.855
-15.207
-15.433
-15.5
-15.363
-14.986
-14.342
-13.404
-12.156
-10.608
-8.77
-6.698
-4.489
-2.234
-0.024
2.067
3.985
5.653
6.972
7.844
8.156
7.834
6.793
4.899
2.082
-1.627
-6.068
-10.87
-15.6
-19.899
-23.364
-25.533
-26.055
-24.732
-21.775
-17.851
-13.693
-9.944
-7.128
-5.736
-6.226
-8.718
-12.369
-15.534
-16.255
-12.356
-1.919
16.967
46.645
88.165
139.86
199.071
262.557
328.644
400.022
477.827
558.004
631.866
684.218
700.287
674.698
608.284
508.508
389.924
263.458
139.704
30.043
-63.392
-141.086
-206.992
-270.757
-335.893
-401.652
-465.341
-520.897
-565.795
-601.005
-628.014
-649.352
-666.47
-679.68
-689.59
-696.504
-700.586
-702.034
-700.809
-696.783
-689.859
-679.819
-666.307
-649.306
-629.099
-606.08
-580.796
-553.784
-525.499
-496.501
-467.395
-438.548
-410.164
-382.364
-355.171
-328.685
-303.023
-278.219
-254.268
-231.163
-208.905
-187.53
-167.084
-147.567
-128.975
-111.301
-94.554
-78.811
-64.146
-50.615
-38.259
-27.059
-16.994
-8.053
-0.207
6.58
12.351
17.166
21.075
24.112
26.335
27.808
28.605
28.842
28.625
28.06
27.265
26.316
25.273
24.187
23.081
21.966
20.865
19.799
18.794
17.883
17.082
16.411
15.9
15.566
15.416
15.438
15.59
15.849
16.225
16.742
17.444
18.378
19.577
21.076
22.916
25.139
27.78
30.862
34.384
38.349
42.777
47.721
53.249
59.41
66.224
73.693
81.805
90.546
99.895
109.804
120.214
131.067
142.321
153.952
165.943
178.265
190.872
203.691
216.655
229.72
242.848
256.008
269.181
282.352
295.536
308.785
322.136
335.603
349.17
362.788
376.413
390.011
403.543
416.968
430.222
443.21
455.849
468.058
479.727
490.734
500.916
510.064
518.021
524.676
529.946
533.79
536.16
537.004
536.297
534.039
530.256
524.994
518.283
510.143
500.637
489.854
477.929
465.042
451.31
436.822
421.66
405.889
389.595
372.875
355.811
338.465
320.906
303.214
285.503
267.909
250.549
233.517
216.87
200.649
184.941
169.84
155.424
141.767
128.914
116.892
105.732
95.466
86.098
77.598
69.904
62.921
56.549
50.706
45.325
40.34
35.662
31.207
26.906
22.703
18.568
14.474
10.391
6.297
2.184
-1.929
-6.006
-9.996
-13.836
-17.48
-20.897
-24.051
-26.91
-29.451
-31.659
-33.536
-35.098
-36.358
-37.329
-38.025
-38.467
-38.687
-38.72
-38.607
-38.391
-38.103
-37.775
-37.436
-37.098
-36.77
-36.46
-36.162
-35.879
-35.625
-35.39
-35.161
-34.967
-34.825
-34.746
-34.752
-34.819
-34.904
-35.029
-35.231
-35.408
-35.436
-35.39
-35.264
-35.038
-34.978
-34.371
-32.521
-30.419
-28.365
-28.184
-32.058
-37.569
-43.105
-46.268
-43.763
-38.507
-32.97
-28.849
-28.943
-31.254
-33.756
-36.002
-36.759
-36.745
-36.887
-37.009
-37.231
-37.494
-37.611
-37.705
-37.876
-38.09
-38.341
-38.641
-38.986
-39.369
-39.787
-40.22
-40.649
-41.08
-41.522
-41.972
-42.43
-42.894
-43.364
-43.84
-44.325
-44.815
-45.309
-45.806
-46.303
-46.799
-47.293
-47.785
-48.272
-48.753
-49.228
-49.696
-50.157
-50.608
-51.052
-51.486
-51.912
-52.331
-52.742
-53.146
-53.544
-53.938
-54.328
-54.714
-55.098
-55.478
-55.856
-56.233
-56.611
-56.988
-57.366
-57.741
-58.116
-58.494
-58.868
-59.232
-59.58
-59.904
-60.21
-60.508
-60.789
-61.041
-61.29
-61.554
-61.846
-62.187
-62.56
-62.928
-63.303
-63.719
-64.066
-64.215
-64.243
-64.156
-63.919
-63.78
-63.062
-61.102
-58.891
-56.749
-56.449
-60.097
-65.34
-70.636
-73.523
-70.636
-64.917
-58.79
-53.898
-53.265
-54.196
-53.986
-53.216
-50.983
-49.867
-53.017
-57.786
-62.64
-65.063
-61.495
-55.049
-48.36
-43.137
-42.245
-43.649
-45.269
-46.641
-46.497
-45.559
-44.756
-43.919
-43.18
-42.476
-41.618
-40.735
-39.927
-39.166
-38.449
-37.786
-37.176
-36.612
-36.089
-35.59
-35.093
-34.606
-34.137
-33.682
-33.241
-32.813
-32.395
-31.988
-31.594
-31.211
-30.837
-30.472
-30.114
-29.765
-29.424
-29.092
-28.77
-28.456
-28.152
-27.858
-27.573
-27.299
-27.034
-26.78
-26.536
-26.304
-26.086
-25.881
-25.693
-25.523
-25.373
-25.244
-25.139
-25.06
-25.009
-24.988
-25
-25.046
-25.13
-25.253
-25.417
-25.624
-25.874
-26.167
-26.503
-26.88
-27.295
-27.744
-28.223
-28.73
-29.26
-29.81
-30.376
-30.954
-31.542
-32.139
-32.738
-33.336
-33.924
-34.493
-35.035
-35.541
-35.997
-36.395
-36.722
-36.971
-37.132
-37.203
-37.173
-37.035
-36.777
-36.381
-35.838
-35.143
-34.29
-33.282
-32.125
-30.832
-29.43
-27.948
-26.406
-24.815
-23.181
-21.494
-19.752
-17.952
-16.084
-14.158
-12.175
-10.137
-8.053
-5.928
-3.748
-1.493
0.88
3.426
6.165
9.1
12.216
15.464
18.789
22.127
25.381
28.483
31.373
33.991
36.3
38.26
39.803
40.856
41.335
41.128
40.174
38.438
35.901
32.607
28.628
24.058
19.038
13.69
8.104
2.374
-3.426
-9.227
-14.93
-20.441
-25.673
-30.515
-34.879
-38.716
-41.983
-44.708
-46.989
-48.942
-50.722
-52.478
-54.306
-56.309
-58.601
-61.282
-64.477
-68.29
-72.755
-77.937
-83.928
-90.737
-98.325
-106.482
-114.718
-122.514
-129.412
-134.905
-138.507
-139.831
-138.534
-134.642
-128.805
-121.772
-114.197
-106.865
-100.456
-95.474
-92.516
-90.734
-87.337
-79.87
-65.992
-45.733
-22.333
3.626
34.114
74.664
134.111
215.361
315.129
425.632
535.062
635.538
722.62
789.512
828.816
831.635
788.327
698.359
567.628
403.374
219.02
27.118
-159.827
-323.535
-451.329
-537.805
-582.999
-595.855
-586.019
-558.751
-519.411
-473.586
-425.982
-382.175
-344.367
-309.401
-274.996
-240.771
-208.657
-183.547
-168.233
-162.058
-162.846
-167.473
-173.251
-178.678
-182.549
-183.716
-181.708
-176.703
-169.168
-159.759
-149.292
-138.48
-128.149
-119.289
-112.341
-107.303
-103.998
-102.025
-101.026
-100.748
-100.824
-100.812
-100.479
-99.747
-98.629
-97.259
-95.716
-94.031
-92.259
-90.458
-88.655
-86.843
-85.017
-83.165
-81.29
-79.413
-77.55
-75.724
-73.948
-72.227
-70.56
-68.935
-67.343
-65.769
-64.213
-62.681
-61.194
-59.792
-58.5
-57.326
-56.274
-55.333
-54.493
-53.745
-53.072
-52.45
-51.861
-51.291
-50.726
-50.162
-49.58
-48.958
-48.264
-47.459
-46.509
-45.393
-44.091
-42.589
-40.877
-38.945
-36.792
-34.424
-31.844
-29.054
-26.055
-22.845
-19.427
-15.808
-11.997
-8.005
-3.842
0.481
4.953
9.562
14.297
19.147
24.103
29.156
34.297
39.514
44.794
50.126
55.494
60.887
66.29
71.688
77.066
82.41
87.707
92.942
98.103
103.176
108.147
113.003
117.73
122.317
126.751
131.02
135.113
139.018
142.725
146.224
149.507
152.563
155.384
157.963
160.292
162.363
164.169
165.706
166.968
167.949
168.647
169.059
169.182
169.015
168.559
167.813
166.781
165.463
163.865
161.99
159.843
157.433
154.765
151.848
148.691
145.304
141.697
137.882
133.869
129.671
125.3
120.771
116.096
111.29
106.367
101.344
96.234
91.056
85.823
80.554
75.264
69.968
64.684
59.427
54.212
49.056
43.972
38.975
34.08
29.299
24.646
20.132
15.768
11.564
7.529
3.673
0.003
-3.475
-6.754
-9.829
-12.696
-15.352
-17.795
-20.023
-22.038
-23.841
-25.435
-26.825
-28.017
-29.018
-29.839
-30.489
-30.979
-31.323
-31.532
-31.622
-31.605
-31.495
-31.306
-31.052
-30.749
-30.412
-30.057
-29.7
-29.357
-29.044
-28.774
-28.563
-28.421
-28.354
-28.371
-28.478
-28.683
-28.998
-29.432
-29.986
-30.663
-31.461
-32.369
-33.376
-34.456
-35.567
-36.673
-37.737
-38.725
-39.616
-40.381
-40.984
-41.393
-41.56
-41.446
-41.027
-40.272
-39.157
-37.683
-35.86
-33.743
-31.427
-29.004
-26.556
-24.159
-21.872
-19.777
-17.984
-16.601
-15.751
-15.531
-16.029
-17.388
-19.681
-22.875
-26.822
-31.149
-35.399
-39.189
-42.11
-43.736
-43.82
-42.212
-39.067
-35.09
-30.985
-27.433
-25.056
-24.081
-24.72
-27.182
-30.757
-33.942
-34.409
-28.729
-15.042
7.173
37.601
74.082
116.992
167.907
227.991
299.577
381.107
468.654
557.013
636.97
698.953
732.749
729.783
687.282
607.409
498.388
370.466
233.471
97.166
-32.671
-151.526
-257.491
-352.836
-438.567
-516.193
-585.467
-643.117
-688.191
-720.653
-742.025
-756.202
-765.845
-772.705
-778.263
-782.664
-785.71
-787.402
-787.183
-784.28
-778.122
-767.993
-753.304
-734.109
-710.805
-683.916
-654.188
-622.353
-589.046
-554.994
-520.883
-487.082
-453.793
-421.11
-389.052
-357.738
-327.306
-297.812
-269.278
-241.723
-215.18
-189.725
-165.441
-142.35
-120.451
-99.739
-80.226
-61.999
-45.147
-29.726
-15.748
-3.157
8.107
18.071
26.752
34.17
40.378
45.455
49.471
52.461
54.447
55.471
55.615
55.019
53.817
52.114
49.981
47.457
44.594
41.47
38.182
34.824
31.455
28.128
24.907
21.881
19.166
16.848
14.968
13.536
12.558
12.053
12.061
12.621
13.743
15.415
17.605
20.267
23.387
26.955
30.95
35.341
40.072
45.107
50.443
56.098
62.092
68.438
75.138
82.193
89.635
97.508
105.864
114.766
124.246
134.313
144.981
156.253
168.131
180.605
193.631
207.138
221.064
235.35
249.94
264.785
279.807
294.915
310.018
325.023
339.855
354.466
368.807
382.839
396.546
409.929
423.008
435.827
448.399
460.717
472.774
484.545
496.019
507.196
518.058
528.577
538.718
548.421
557.615
566.217
574.098
581.098
587.055
591.791
595.177
597.117
597.508
596.27
593.326
588.604
582.07
573.714
563.519
551.503
537.722
522.261
505.276
486.976
467.574
447.295
426.342
404.902
383.185
361.405
339.775
318.493
297.727
277.635
258.389
240.142
223
207.034
192.252
178.613
166.071
154.576
144.071
134.491
125.746
117.722
110.3
103.381
96.88
90.71
84.767
78.956
73.208
67.483
61.775
56.098
50.464
44.886
39.383
33.988
28.746
23.716
18.962
14.524
10.433
6.719
3.413
0.54
-1.887
-3.876
-5.452
-6.64
-7.465
-7.953
-8.133
-8.045
-7.732
-7.242
-6.626
-5.922
-5.165
-4.384
-3.609
-2.861
-2.16
-1.516
-0.933
-0.416
0.029
0.395
0.679
0.88
0.999
1.04
1.005
0.899
0.724
0.482
0.176
-0.192
-0.619
-1.105
-1.649
-2.249
-2.901
-3.602
-4.344
-5.124
-5.936
-6.773
-7.631
-8.502
-9.382
-10.267
-11.153
-12.035
-12.909
-13.773
-14.624
-15.457
-16.273
-17.068
-17.841
-18.592
-19.321
-20.027
-20.711
-21.374
-22.015
-22.636
-23.238
-23.821
-24.387
-24.935
-25.469
-25.989
-26.498
-26.996
-27.486
-27.97
-28.449
-28.927
-29.404
-29.882
-30.364
-30.85
-31.342
-31.842
-32.349
-32.864
-33.389
-33.922
-34.464
-35.015
-35.575
-36.141
-36.714
-37.292
-37.875
-38.46
-39.048
-39.637
-40.226
-40.814
-41.401
-41.985
-42.566
-43.142
-43.714
-44.281
-44.842
-45.395
-45.942
-46.481
-47.011
-47.532
-48.044
-48.546
-49.037
-49.518
-49.989
-50.449
-50.898
-51.337
-51.767
-52.187
-52.599
-53.003
-53.4
-53.792
-54.18
-54.563
-54.943
-55.321
-55.696
-56.07
-56.443
-56.813
-57.182
-57.548
-57.912
-58.273
-58.63
-58.983
-59.331
-59.674
-60.01
-60.339
-60.662
-60.976
-61.282
-61.579
-61.867
-62.145
-62.413
-62.67
-62.915
-63.148
-63.368
-63.573
-63.764
-63.939
-64.098
-64.239
-64.363
-64.469
-64.557
-64.627
-64.679
-64.715
-64.735
-64.74
-64.731
-64.71
-64.678
-64.637
-64.587
-64.531
-64.47
-64.405
-64.337
-64.269
-64.2
-64.133
-64.068
-64.006
-63.948
-63.895
-63.848
-63.807
-63.774
-63.748
-63.732
-63.727
-63.732
-63.749
-63.779
-63.822
-63.878
-63.948
-64.031
-64.126
-64.234
-64.354
-64.485
-64.627
-64.778
-64.94
-65.11
-65.29
-65.479
-65.676
-65.882
-66.095
-66.317
-66.546
-66.783
-67.027
-67.279
-67.539
-67.807
-68.084
-68.37
-68.664
-68.968
-69.28
-69.6
-69.928
-70.264
-70.606
-70.955
-71.311
-71.672
-72.038
-72.411
-72.787
-73.166
-73.545
-73.923
-74.295
-74.659
-75.007
-75.336
-75.64
-75.915
-76.156
-76.359
-76.517
-76.629
-76.691
-76.699
-76.648
-76.532
-76.343
-76.073
-75.714
-75.259
-74.698
-74.023
-73.226
-72.303
-71.253
-70.073
-68.757
-67.298
-65.685
-63.913
-61.984
-59.9
-57.664
-55.288
-52.787
-50.189
-47.535
-44.856
-42.169
-39.487
-36.81
-34.138
-31.478
-28.834
-26.206
-23.596
-20.997
-18.414
-15.858
-13.324
-10.795
-8.23
-5.562
-2.752
0.205
3.302
6.506
9.775
13.066
16.312
19.422
22.323
24.944
27.239
29.185
30.735
31.821
32.354
32.214
31.325
29.654
27.18
23.914
19.896
15.188
9.902
4.194
-1.804
-7.983
-14.257
-20.564
-26.822
-32.919
-38.735
-44.136
-49.013
-53.295
-56.913
-59.825
-62.041
-63.612
-64.66
-65.347
-65.8
-66.125
-66.428
-66.808
-67.391
-68.319
-69.684
-71.597
-74.201
-77.566
-81.729
-86.592
-91.804
-96.967
-101.716
-105.595
-108.138
-109.016
-107.937
-104.982
-100.869
-96.296
-91.818
-88.175
-85.966
-85.632
-87.794
-91.446
-93.532
-91.623
-83.395
-69.03
-52.173
-33.227
-9.819
23.888
77.368
154.086
250.933
360.093
469.456
569.508
654.544
719.097
757.11
762.733
729.609
654.518
540.577
392.221
217.385
27.918
-163.72
-340.775
-486.541
-590.27
-648.965
-669.016
-662.721
-642.311
-614.595
-581.232
-541.042
-492.431
-437.672
-381.336
-327.949
-281.747
-244.535
-216.317
-196.765
-184.655
-178.354
-176.426
-177.264
-179.242
-181.124
-181.756
-180.124
-176.019
-169.802
-161.983
-153.283
-144.442
-136.061
-128.879
-123.652
-120.635
-119.72
-120.623
-122.898
-126.142
-129.999
-134.001
-137.64
-140.584
-142.645
-143.769
-144.017
-143.432
-142.058
-139.977
-137.301
-134.141
-130.598
-126.759
-122.685
-118.438
-114.099
-109.758
-105.506
-101.438
-97.641
-94.172
-91.065
-88.34
-85.992
-84.007
-82.366
-81.031
-79.956
-79.1
-78.425
-77.896
-77.487
-77.159
-76.871
-76.58
-76.239
-75.814
-75.279
-74.613
-73.8
-72.83
-71.693
-70.388
-68.92
-67.288
-65.491
-63.528
-61.391
-59.079
-56.593
-53.934
-51.105
-48.11
-44.95
-41.63
-38.153
-34.525
-30.75
-26.831
-22.774
-18.582
-14.265
-9.83
-5.288
-0.648
4.079
8.882
13.749
18.669
23.63
28.62
33.63
38.648
43.664
48.665
53.642
58.582
63.476
68.312
73.08
77.768
82.366
86.863
91.249
95.513
99.644
103.634
107.471
111.147
114.653
117.979
121.117
124.06
126.8
129.331
131.645
133.738
135.604
137.239
138.638
139.8
140.72
141.396
141.828
142.013
141.951
141.643
141.089
140.291
139.251
137.972
136.457
134.713
132.743
130.554
128.154
125.55
122.751
119.767
116.607
113.282
109.804
106.183
102.433
98.566
94.594
90.53
86.388
82.18
77.92
73.621
69.297
64.961
60.626
56.305
52.012
47.758
43.556
39.419
35.359
31.386
27.513
23.751
20.11
16.599
13.228
10.005
6.938
4.033
1.297
-1.265
-3.65
-5.854
-7.875
-9.71
-11.36
-12.823
-14.101
-15.197
-16.113
-16.853
-17.42
-17.822
-18.065
-18.158
-18.109
-17.928
-17.626
-17.213
-16.701
-16.102
-15.426
-14.684
-13.888
-13.05
-12.183
-11.3
-10.414
-9.54
-8.687
-7.868
-7.093
-6.371
-5.706
-5.103
-4.565
-4.1
-3.719
-3.431
-3.239
-3.147
-3.151
-3.244
-3.413
-3.636
-3.879
-4.107
-4.287
-4.389
-4.391
-4.266
-3.983
-3.505
-2.787
-1.789
-0.481
1.163
3.157
5.497
8.156
11.077
14.164
17.323
20.472
23.517
26.376
28.946
31.107
32.737
33.734
33.995
33.398
31.884
29.456
26.223
22.471
18.544
14.758
11.445
8.973
7.595
7.446
8.441
10.093
11.819
13.234
14.095
14.139
13.123
10.978
8.086
6.399
9.021
18.334
35.358
58.18
83.294
109.334
137.813
174.786
227.069
297.404
384.536
479.733
570.443
645.639
693.935
707.824
686.102
628.684
539.657
429.562
307.561
185.649
77.608
-12.678
-84.783
-143.33
-200.057
-259.97
-323.311
-387.63
-445.614
-493.643
-532.277
-562.777
-587.651
-608.285
-624.488
-636.356
-644.397
-649.088
-650.767
-649.612
-645.641
-638.831
-629.279
-616.958
-601.607
-583.245
-562.16
-538.702
-513.372
-486.655
-458.943
-430.708
-402.448
-374.48
-346.997
-320.143
-293.992
-268.633
-244.167
-220.609
-197.952
-176.217
-155.433
-135.646
-116.904
-99.227
-82.623
-67.124
-52.774
-39.615
-27.675
-16.941
-7.368
1.086
8.458
14.783
20.112
24.522
28.102
30.934
33.103
34.695
35.819
36.607
37.176
37.613
37.985
38.325
38.655
38.998
39.368
39.77
40.198
40.636
41.072
41.505
41.923
42.308
42.626
42.826
42.884
42.805
42.607
42.325
42.001
41.679
41.415
41.276
41.325
41.624
42.229
43.185
44.545
46.365
48.701
51.617
55.16
59.365
64.265
69.874
76.194
83.224
90.945
99.326
108.333
117.927
128.054
138.671
149.733
161.196
173.022
185.165
197.567
210.174
222.934
235.804
248.761
261.782
274.849
287.964
301.142
314.412
327.82
341.381
355.081
368.9
382.796
396.732
410.68
424.589
438.394
452.017
465.363
478.331
490.815
502.665
513.695
523.715
532.528
539.989
546.012
550.516
553.447
554.766
554.447
552.504
548.981
543.915
537.345
529.33
519.953
509.358
497.751
485.33
472.281
458.75
444.833
430.634
416.246
401.736
387.143
372.473
357.735
342.981
328.3
313.765
299.414
285.239
271.184
257.212
243.314
229.504
215.811
202.254
188.857
175.678
162.815
150.377
138.439
127.017
116.072
105.575
95.53
85.959
76.906
68.388
60.402
52.945
46.023
39.644
33.803
28.464
23.555
19
14.755
10.817
7.22
3.984
1.108
-1.419
-3.61
-5.466
-6.988
-8.191
-9.11
-9.781
-10.228
-10.46
-10.47
-10.252
-9.818
-9.196
-8.426
-7.542
-6.57
-5.535
-4.465
-3.389
-2.334
-1.311
-0.324
0.627
1.534
2.387
3.172
3.88
4.503
5.04
5.489
5.847
6.113
6.289
6.377
6.382
6.307
6.153
5.92
5.609
5.222
4.763
4.235
3.642
2.987
2.276
1.516
0.71
-0.134
-1.013
-1.922
-2.857
-3.814
-4.789
-5.779
-6.782
-7.795
-8.814
-9.838
-10.863
-11.888
-12.909
-13.926
-14.935
-15.935
-16.925
-17.902
-18.865
-19.814
-20.747
-21.664
-22.562
-23.442
-24.303
-25.144
-25.965
-26.766
-27.546
-28.305
-29.043
-29.761
-30.458
-31.134
-31.787
-32.418
-33.026
-33.61
-34.169
-34.702
-35.208
-35.687
-36.138
-36.561
-36.956
-37.321
-37.659
-37.967
-38.247
-38.498
-38.721
-38.916
-39.084
-39.225
-39.339
-39.429
-39.493
-39.533
-39.549
-39.543
-39.515
-39.465
-39.395
-39.305
-39.196
-39.069
-38.926
-38.768
-38.596
-38.412
-38.217
-38.012
-37.8
-37.581
-37.358
-37.13
-36.9
-36.668
-36.435
-36.202
-35.971
-35.741
-35.513
-35.288
-35.067
-34.849
-34.635
-34.425
-34.219
-34.018
-33.82
-33.627
-33.438
-33.254
-33.075
-32.901
-32.732
-32.569
-32.41
-32.257
-32.108
-31.964
-31.825
-31.69
-31.559
-31.432
-31.308
-31.188
-31.072
-30.958
-30.848
-30.741
-30.636
-30.534
-30.435
-30.339
-30.246
-30.157
-30.071
-29.989
-29.911
-29.838
-29.77
-29.707
-29.65
-29.597
-29.549
-29.506
-29.468
-29.434
-29.404
-29.378
-29.355
-29.335
-29.319
-29.306
-29.295
-29.288
-29.283
-29.282
-29.283
-29.287
-29.294
-29.303
-29.316
-29.332
-29.35
-29.372
-29.396
-29.422
-29.45
-29.48
-29.511
-29.543
-29.575
-29.607
-29.64
-29.673
-29.708
-29.746
-29.787
-29.833
-29.885
-29.945
-30.014
-30.093
-30.183
-30.285
-30.4
-30.529
-30.671
-30.828
-31.001
-31.189
-31.394
-31.615
-31.854
-32.11
-32.383
-32.675
-32.985
-33.315
-33.663
-34.032
-34.421
-34.831
-35.264
-35.717
-36.189
-36.68
-37.187
-37.707
-38.235
-38.765
-39.292
-39.811
-40.315
-40.8
-41.26
-41.691
-42.087
-42.448
-42.77
-43.048
-43.275
-43.445
-43.55
-43.584
-43.537
-43.401
-43.168
-42.828
-42.377
-41.815
-41.135
-40.333
-39.4
-38.322
-37.092
-35.713
-34.184
-32.508
-30.695
-28.757
-26.723
-24.633
-22.516
-20.391
-18.269
-16.15
-14.038
-11.941
-9.864
-7.808
-5.775
-3.759
-1.762
0.203
2.143
4.076
6.042
8.107
10.305
12.639
15.095
17.642
20.235
22.834
25.371
27.759
29.926
31.805
33.349
34.527
35.281
35.536
35.204
34.17
32.362
29.756
26.346
22.156
17.249
11.695
5.604
-0.878
-7.635
-14.568
-21.593
-28.639
-35.609
-42.385
-48.853
-54.891
-60.407
-65.353
-69.712
-73.507
-76.82
-79.746
-82.397
-84.918
-87.437
-90.065
-92.922
-96.134
-99.791
-104.018
-108.982
-114.739
-121.281
-128.469
-135.904
-143.134
-149.778
-155.351
-159.339
-161.461
-161.486
-159.538
-156.44
-152.979
-149.767
-147.385
-146.242
-146.6
-148.716
-152.373
-155.204
-153.674
-145.138
-127.191
-101.063
-71.287
-38.21
-0.502
46.598
113.378
202.15
309.732
429.899
547.449
651.634
735.384
788.385
805.96
783.452
715.398
605.959
461.982
291.283
106.271
-84.25
-270.918
-440.331
-579.878
-676.996
-725.812
-729.25
-698.504
-650.296
-596.21
-543.507
-491.913
-434.412
-368.715
-294.75
-216.376
