Name,Criss Capps
Date of Birth,"Feb 5, 1952"
Recorded Date,2022-09-05 16:15:42 -0400
Classification,Sinus Rhythm
Symptoms,
Software Version,1.90
Device,"Watch5,4"
Sample Rate,512.844 hertz


Lead,Lead I
Unit,µV

301.799
417.877
488.993
502.484
466.537
400.705
331.319
272.966
227.29
190.73
154.706
115.426
74.892
36.192
3.308
-22.581
-43.281
-61.243
-78.525
-95.897
-113.307
-130.708
-148.231
-165.811
-182.88
-198.418
-211.609
-222.141
-230.022
-235.43
-238.471
-239.277
-238.233
-235.894
-232.791
-229.343
-225.837
-222.475
-219.457
-216.948
-215.027
-213.708
-212.967
-212.76
-213.042
-213.743
-214.757
-215.964
-217.233
-218.458
-219.537
-220.347
-220.758
-220.645
-219.914
-218.523
-216.467
-213.743
-210.361
-206.362
-201.807
-196.809
-191.512
-186.046
-180.532
-175.076
-169.743
-164.603
-159.712
-155.095
-150.756
-146.663
-142.742
-138.94
-135.206
-131.455
-127.602
-123.507
-118.978
-113.841
-107.925
-101.07
-93.181
-84.193
-74.069
-62.84
-50.57
-37.358
-23.356
-8.699
6.479
22.018
37.757
53.49
68.948
83.856
97.927
110.88
122.5
132.623
141.127
147.961
153.132
156.691
158.742
159.399
158.77
156.979
154.155
150.46
146.115
141.37
136.493
131.746
127.336
123.43
120.157
117.578
115.684
114.408
113.641
113.271
113.217
113.394
113.695
113.99
114.102
113.848
113.067
111.578
109.195
105.831
101.518
96.475
91.171
86.117
81.746
78.563
77.089
77.651
80.361
84.886
90.375
95.966
100.974
104.685
106.417
105.817
102.978
98.927
95.682
95.467
100.482
113.154
135.953
170.949
219.801
281.848
353.558
431.082
509.881
586.662
661.988
734.818
800.385
851.328
874.117
855.121
789.766
679.172
531.473
363.475
190.077
26.193
-110.124
-209.913
-271.017
-295.135
-294.859
-280.54
-255.453
-225.84
-192.448
-155.731
-122.193
-91.41
-63.517
-40.587
-20.696
-6.158
1.227
2.655
-1.577
-9.191
-17.728
-25.635
-31.156
-33.603
-33.067
-29.88
-24.792
-18.509
-11.676
-5.293
-0.425
2.29
2.599
0.632
-3.207
-8.537
-14.991
-22.101
-29.329
-36.263
-42.643
-48.327
-53.306
-57.59
-61.165
-64.046
-66.279
-67.903
-68.961
-69.52
-69.629
-69.36
-68.812
-68.075
-67.251
-66.46
-65.792
-65.325
-65.117
-65.195
-65.575
-66.276
-67.305
-68.653
-70.305
-72.233
-74.409
-76.811
-79.409
-82.168
-85.047
-87.995
-90.974
-93.957
-96.921
-99.852
-102.738
-105.564
-108.323
-111.017
-113.642
-116.198
-118.678
-121.076
-123.387
-125.608
-127.74
-129.785
-131.741
-133.608
-135.384
-137.069
-138.663
-140.167
-141.58
-142.902
-144.132
-145.274
-146.332
-147.312
-148.219
-149.058
-149.837
-150.563
-151.242
-151.88
-152.485
-153.061
-153.613
-154.146
-154.666
-155.178
-155.685
-156.191
-156.7
-157.215
-157.741
-158.278
-158.829
-159.394
-159.976
-160.574
-161.188
-161.818
-162.461
-163.117
-163.782
-164.453
-165.128
-165.801
-166.467
-167.122
-167.76
-168.373
-168.957
-169.505
-170.009
-170.462
-170.859
-171.194
-171.458
-171.647
-171.754
-171.773
-171.697
-171.522
-171.242
-170.85
-170.341
-169.711
-168.953
-168.064
-167.039
-165.872
-164.561
-163.101
-161.489
-159.721
-157.794
-155.706
-153.455
-151.038
-148.454
-145.703
-142.783
-139.694
-136.436
-133.009
-129.414
-125.652
-121.724
-117.63
-113.373
-108.953
-104.373
-99.634
-94.74
-89.692
-84.494
-79.147
-73.657
-68.025
-62.257
-56.355
-50.325
-44.172
-37.9
-31.515
-25.024
-18.432
-11.746
-4.973
1.88
8.806
15.796
22.842
29.937
37.072
44.239
51.427
58.629
65.834
73.033
80.217
87.375
94.498
101.575
108.596
115.551
122.431
129.224
135.921
142.512
148.988
155.337
161.553
167.624
173.544
179.304
184.898
190.317
195.557
200.612
205.476
210.147
214.62
218.893
222.964
226.833
230.498
233.96
237.222
240.285
243.153
245.829
248.318
250.626
252.759
254.724
256.529
258.182
259.692
261.07
262.326
263.471
264.517
265.477
266.363
267.188
267.966
268.709
269.431
270.144
270.863
271.599
272.365
273.174
274.037
274.965
275.97
277.06
278.246
279.535
280.934
282.45
284.089
285.855
287.751
289.779
291.941
294.236
296.664
299.222
301.905
304.708
307.625
310.647
313.765
316.965
320.234
323.558
326.92
330.304
333.692
337.066
340.408
343.702
346.932
350.081
353.133
356.071
358.877
361.535
364.03
366.348
368.478
370.406
372.123
373.627
374.915
375.984
376.828
377.436
377.793
377.896
377.74
377.325
376.66
375.755
374.629
373.318
371.859
370.287
368.639
366.937
365.206
363.484
361.811
360.245
358.841
357.635
356.666
355.968
355.538
355.363
355.394
355.546
355.75
355.941
356.03
355.933
355.554
354.792
353.587
351.827
349.333
345.99
341.78
336.87
331.643
326.482
321.696
317.735
315.158
314.405
315.641
318.359
321.584
324.489
326.254
325.945
322.61
315.373
305.26
295.759
290.047
290.029
293.951
297.629
301.62
312.12
340.851
399.728
491.116
606.872
729.801
841.037
928.953
990.223
1029.465
1053.567
1064.668
1058.559
1025.06
953.108
836.757
680.714
501.778
322.431
166.978
52.419
-18.523
-51.102
-57.639
-51.578
-38.062
-18.832
6.583
40.585
80.828
122.501
161.297
192.264
212.72
222.897
223.94
217.675
206.342
192.026
176.619
162.429
151.642
145.306
143.688
146.518
152.942
162
172.805
184.049
194.326
202.846
209.196
213.316
215.52
216.103
215.335
213.671
211.58
209.322
207.04
204.739
202.321
199.766
197.089
194.31
191.496
188.727
186.097
183.699
181.584
179.772
178.253
176.996
175.977
175.177
174.567
174.137
173.886
173.798
173.859
174.029
174.231
174.396
174.469
174.407
174.196
173.833
173.314
172.657
171.89
171.039
170.136
169.203
168.247
167.286
166.342
165.445
164.639
163.962
163.442
163.105
162.971
163.056
163.373
163.927
164.713
165.728
166.968
168.431
170.12
172.033
174.165
176.51
179.057
181.799
184.726
187.829
191.093
194.506
198.055
201.726
205.507
209.384
213.339
217.356
221.416
225.499
229.586
233.657
237.692
241.67
245.57
249.373
253.06
256.611
260.007
263.231
266.264
269.088
271.689
274.05
276.157
277.996
279.553
280.817
281.778
282.427
282.754
282.754
282.422
281.754
280.749
279.406
277.725
275.711
273.367
270.7
267.716
264.423
260.833
256.955
252.804
248.393
243.737
238.851
233.752
228.458
222.988
217.36
211.595
205.712
199.732
193.676
187.566
181.422
175.266
169.12
163.003
156.936
150.94
145.032
139.232
133.557
128.023
122.646
117.44
112.418
107.593
102.975
98.573
94.395
90.448
86.737
83.265
80.036
77.05
74.306
71.804
69.54
67.51
65.71
64.132
62.768
61.611
60.651
59.877
59.279
58.845
58.562
58.418
58.4
58.493
58.686
58.963
59.311
59.717
60.166
60.647
61.145
61.648
62.145
62.624
63.073
63.482
63.842
64.144
64.378
64.537
64.616
64.606
64.504
64.306
64.007
63.605
63.098
62.485
61.765
60.938
60.006
58.97
57.832
56.596
55.264
53.84
52.329
50.735
49.064
47.32
45.509
43.637
41.711
39.735
37.718
35.666
33.586
31.485
29.371
27.251
25.132
23.022
20.928
18.857
16.816
14.812
12.852
10.943
9.092
7.305
5.589
3.95
2.393
0.925
-0.451
-1.728
-2.903
-3.97
-4.927
-5.768
-6.491
-7.091
-7.566
-7.913
-8.13
-8.216
-8.169
-7.99
-7.68
-7.24
-6.673
-5.98
-5.166
-4.236
-3.194
-2.047
-0.802
0.533
1.948
3.433
4.978
6.569
8.193
9.837
11.485
13.123
14.734
16.303
17.812
19.247
20.59
21.827
22.941
23.916
24.735
25.381
25.84
26.096
26.136
25.947
25.52
24.847
23.925
22.752
21.328
19.651
17.713
15.513
13.053
10.336
7.37
4.168
0.748
-2.864
-6.631
-10.519
-14.494
-18.526
-22.593
-26.668
-30.723
-34.717
-38.606
-42.343
-45.891
-49.213
-52.275
-55.057
-57.564
-59.825
-61.902
-63.851
-65.713
-67.523
-69.323
-71.168
-73.13
-75.297
-77.734
-80.531
-83.827
-87.692
-92.138
-97.048
-102.091
-106.854
-110.954
-113.935
-115.297
-114.74
-112.141
-107.718
-102.264
-96.723
-91.968
-88.941
-88.509
-91.131
-96.85
-104.999
-113.764
-120.741
-123.409
-119.041
-104.766
-78.124
-37.335
18.698
88.408
167.549
251.917
336.53
417.696
495.382
567.146
627.02
667.018
674.962
641.204
564.798
449.967
305.455
143.946
-23.268
-183.969
-321.952
-423.872
-482.945
-499.952
-486.638
-458.793
-426.708
-395.715
-365.262
-331.769
-296.099
-261.571
-232.207
-212.057
-201.624
-199.249
-203.012
-210.245
-218.635
-226.391
-231.457
-232.59
-229.633
-222.826
-212.919
-201.036
-188.229
-175.623
-164.523
-155.697
-149.38
-145.611
-144.108
-144.477
-146.368
-149.289
-152.641
-156.042
-159.286
-162.212
-164.762
-166.849
-168.337
-169.185
-169.412
-169.021
-168.018
-166.408
-164.184
-161.394
-158.134
-154.498
-150.581
-146.464
-142.208
-137.898
-133.64
-129.52
-125.613
-121.964
-118.591
-115.512
-112.742
-110.282
-108.117
-106.219
-104.55
-103.075
-101.769
-100.6
-99.539
-98.547
-97.573
-96.58
-95.537
-94.422
-93.215
-91.899
-90.456
-88.875
-87.155
-85.292
-83.283
-81.126
-78.809
-76.33
-73.687
-70.881
-67.914
-64.79
-61.508
-58.071
-54.484
-50.753
-46.883
-42.881
-38.753
-34.507
-30.156
-25.711
-21.188
-16.603
-11.972
-7.312
-2.641
2.02
6.655
11.243
15.767
20.208
24.548
28.767
32.848
36.773
40.526
44.088
47.446
50.582
53.483
56.136
58.528
60.649
62.488
64.035
65.285
66.23
66.867
67.192
67.204
66.905
66.296
65.381
64.167
62.659
60.866
58.798
56.467
53.886
51.067
48.026
44.778
41.339
37.726
33.958
30.052
26.027
21.901
17.695
13.427
9.118
4.787
0.453
-3.864
-8.145
-12.371
-16.524
-20.587
-24.544
-28.378
-32.076
-35.624
-39.009
-42.221
-45.25
-48.087
-50.727
-53.163
-55.392
-57.41
-59.217
-60.813
-62.198
-63.376
-64.35
-65.124
-65.703
-66.094
-66.304
-66.34
-66.211
-65.926
-65.495
-64.927
-64.234
-63.426
-62.515
-61.512
-60.428
-59.276
-58.065
-56.808
-55.515
-54.197
-52.865
-51.527
-50.194
-48.873
-47.572
-46.299
-45.059
-43.858
-42.701
-41.591
-40.532
-39.526
-38.575
-37.681
-36.845
-36.067
-35.349
-34.69
-34.089
-33.547
-33.06
-32.629
-32.252
-31.927
-31.652
-31.425
-31.244
-31.106
-31.01
-30.952
-30.931
-30.943
-30.986
-31.057
-31.153
-31.273
-31.415
-31.576
-31.756
-31.954
-32.168
-32.399
-32.646
-32.907
-33.184
-33.474
-33.778
-34.095
-34.424
-34.764
-35.114
-35.471
-35.836
-36.205
-36.575
-36.945
-37.31
-37.668
-38.014
-38.345
-38.656
-38.942
-39.201
-39.428
-39.619
-39.769
-39.874
-39.931
-39.933
-39.878
-39.758
-39.571
-39.309
-38.97
-38.548
-38.04
-37.441
-36.748
-35.959
-35.071
-34.082
-32.993
-31.804
-30.514
-29.128
-27.648
-26.079
-24.428
-22.702
-20.91
-19.062
-17.171
-15.249
-13.309
-11.365
-9.431
-7.522
-5.652
-3.836
-2.087
-0.42
1.151
2.609
3.938
5.123
6.147
6.996
7.658
8.119
8.369
8.405
8.223
7.817
7.184
6.312
5.194
3.83
2.22
0.37
-1.711
-4.006
-6.49
-9.125
-11.873
-14.702
-17.583
-20.497
-23.423
-26.331
-29.186
-31.945
-34.569
-37.026
-39.293
-41.338
-43.15
-44.745
-46.167
-47.494
-48.802
-50.14
-51.551
-53.082
-54.79
-56.753
-59.063
-61.772
-64.941
-68.659
-72.97
-77.863
-83.208
-88.655
-93.744
-98.064
-101.204
-102.743
-102.418
-100.102
-95.985
-90.803
-85.535
-81.018
-77.915
-76.888
-78.432
-82.74
-89.399
-96.046
-98.853
-94.607
-81.357
-60.544
-35.576
-7.606
25.354
70.632
136.062
224.939
334.994
454.21
567.77
660.812
718.476
734.1
705.63
635.884
534.604
409.277
264.985
107.85
-55.912
-213.392
-345.453
-438.776
-488.575
-502.084
-495.054
-477.379
-451.886
-414.475
-361.473
-298.701
-236.349
-187.096
-157.004
-141.713
-135.421
-130.917
-125.465
-122.385
-123.054
-127.96
-135.748
-142.476
-145.985
-145.906
-142.547
-137.037
-130.343
-122.986
-115.667
-109.25
-104.481
-101.679
-100.725
-101.254
-102.791
-104.951
-107.44
-109.897
-111.933
-113.297
-113.845
-113.542
-112.467
-110.689
-108.242
-105.188
-101.614
-97.618
-93.34
-88.927
-84.486
-80.107
-75.852
-71.765
-67.892
-64.279
-60.959
-57.947
-55.237
-52.82
-50.69
-48.846
-47.274
-45.94
-44.787
-43.747
-42.766
-41.804
-40.828
-39.812
-38.727
-37.548
-36.259
-34.854
-33.327
-31.667
-29.86
-27.889
-25.742
-23.412
-20.897
-18.197
-15.309
-12.23
-8.958
-5.496
-1.843
1.998
6.029
10.249
14.657
19.245
24.007
28.93
34.004
39.216
44.549
49.988
55.514
61.11
66.756
72.435
78.126
83.808
89.462
95.067
100.602
106.046
111.379
116.578
121.624
126.497
131.178
135.647
139.887
143.88
147.611
151.064
154.227
157.086
159.629
161.848
163.732
165.276
166.473
167.319
167.813
167.954
167.742
167.181
166.275
165.03
163.451
161.548
159.33
156.806
153.988
150.889
147.522
143.901
140.042
135.96
131.673
127.198
122.553
117.757
112.828
107.785
102.649
97.438
92.172
86.87
81.551
76.233
70.935
65.673
60.466
55.328
50.274
45.32
40.479
35.761
31.18
26.744
22.464
18.347
14.4
10.631
7.043
3.642
0.43
-2.59
-5.416
-8.049
-10.488
-12.736
-14.794
-16.665
-18.355
-19.868
-21.209
-22.385
-23.403
-24.269
-24.992
-25.58
-26.039
-26.38
-26.61
-26.737
-26.771
-26.719
-26.59
-26.392
-26.132
-25.82
-25.461
-25.064
-24.634
-24.18
-23.707
-23.221
-22.728
-22.234
-21.744
-21.264
-20.798
-20.35
-19.924
-19.524
-19.153
-18.813
-18.506
-18.235
-18
-17.804
-17.648
-17.532
-17.458
-17.428
-17.441
-17.501
-17.607
-17.761
-17.962
-18.212
-18.51
-18.858
-19.254
-19.701
-20.198
-20.745
-21.344
-21.995
-22.698
-23.454
-24.263
-25.123
-26.036
-27
-28.015
-29.08
-30.195
-31.359
-32.572
-33.832
-35.139
-36.491
-37.884
-39.316
-40.782
-42.277
-43.796
-45.329
-46.872
-48.416
-49.956
-51.484
-52.995
-54.48
-55.934
-57.352
-58.727
-60.051
-61.314
-62.504
-63.61
-64.621
-65.524
-66.308
-66.958
-67.465
-67.818
-68.012
-68.041
-67.895
-67.561
-67.024
-66.277
-65.317
-64.144
-62.759
-61.17
-59.392
-57.45
-55.383
-53.221
-50.979
-48.668
-46.286
-43.831
-41.31
-38.719
-36.057
-33.322
-30.505
-27.607
-24.638
-21.59
-18.446
-15.167
-11.685
-7.964
-3.997
0.213
4.639
9.246
13.991
18.806
23.602
28.306
32.854
37.198
41.318
45.171
48.71
51.876
54.58
56.767
58.415
59.505
60.047
60.078
59.651
58.872
57.878
56.773
55.642
54.549
53.525
52.609
51.811
51.121
50.549
50.093
49.759
49.559
49.459
49.396
49.272
48.957
48.329
47.258
45.59
43.255
40.284
36.856
33.38
30.311
28.022
26.963
27.597
30.213
34.912
41.328
48.601
55.794
62.066
66.597
68.604
67.604
63.653
57.767
51.882
48.408
49.948
59.075
78.407
110.107
155.462
214.62
286.251
367.577
453.861
538.769
615.561
678.615
726.144
758.388
774.765
772.767
743.927
679.522
575.892
434.256
267.561
94.454
-67.115
-199.089
-292.664
-347.427
-366.025
-355.511
-322.443
-271.6
-210.824
-150.074
-98.359
-62.323
-41.959
-30.606
-21.807
-11.781
-0.965
5.877
6.141
0.579
-8.1
-15.195
-17.982
-16.297
-10.522
-1.711
8.989
20.809
32.647
43.022
51.105
56.616
59.476
60.019
58.666
55.756
51.836
47.544
43.248
39.185
35.534
32.326
29.644
27.583
26.131
25.265
24.98
25.261
26.107
27.502
29.372
31.628
34.183
36.954
39.877
42.873
45.84
48.693
51.361
53.798
55.988
57.913
59.558
60.926
62.03
62.899
63.576
64.099
64.494
64.798
65.045
65.278
65.549
65.897
66.351
66.938
67.675
68.579
69.668
70.952
72.43
74.104
75.974
78.044
80.319
82.8
85.484
88.369
91.448
94.715
98.167
101.797
105.597
109.558
113.67
117.924
122.311
126.82
131.435
136.141
140.92
145.754
150.625
155.513
160.396
165.252
170.061
174.803
179.455
183.999
188.411
192.673
196.765
200.666
204.359
207.825
211.047
214.007
216.692
219.087
221.179
222.957
224.411
225.532
226.313
226.748
226.833
226.566
225.946
224.973
223.649
221.978
219.966
217.62
214.947
211.958
208.664
205.079
201.215
197.087
192.712
188.107
183.289
178.276
173.089
167.746
162.269
156.677
150.993
145.237
139.431
133.595
127.749
121.914
116.11
110.354
104.666
99.063
93.561
88.176
82.924
77.818
72.871
68.094
63.498
59.093
54.886
50.884
47.092
43.514
40.153
37.011
34.087
31.382
28.893
26.616
24.546
22.68
21.009
19.527
18.225
17.095
16.127
15.312
14.639
14.099
13.681
13.374
13.169
13.054
13.02
13.055
13.148
13.291
13.473
13.685
13.916
14.159
14.404
14.644
14.872
15.08
15.262
15.412
15.525
15.597
15.622
15.598
15.523
15.394
15.209
14.967
14.669
14.312
13.898
13.425
12.894
12.306
11.659
10.956
10.194
9.376
8.501
7.57
6.582
5.539
4.44
3.287
2.079
0.816
-0.501
-1.871
-3.294
-4.771
-6.301
-7.883
-9.518
-11.206
-12.947
-14.74
-16.587
-18.487
-20.441
-22.447
-24.507
-26.618
-28.78
-30.991
-33.249
-35.551
-37.895
-40.276
-42.69
-45.132
-47.596
-50.077
-52.568
-55.06
-57.547
-60.021
-62.473
-64.895
-67.279
-69.615
-71.894
-74.107
-76.246
-78.3
-80.261
-82.118
-83.864
-85.487
-86.981
-88.336
-89.545
-90.601
-91.497
-92.228
-92.789
-93.177
-93.391
-93.428
-93.29
-92.978
-92.497
-91.852
-91.049
-90.098
-89.009
-87.795
-86.47
-85.051
-83.554
-81.997
-80.398
-78.778
-77.156
-75.55
-73.981
-72.467
-71.029
-69.688
-68.466
-67.386
-66.468
-65.733
-65.2
-64.888
-64.814
-64.986
-65.413
-66.105
-67.072
-68.329
-69.889
-71.759
-73.94
-76.433
-79.231
-82.318
-85.671
-89.249
-93.01
-96.915
-100.93
-105.026
-109.176
-113.344
-117.485
-121.552
-125.498
-129.286
-132.887
-136.265
-139.41
-142.34
-145.102
-147.785
-150.475
-153.228
-156.106
-159.176
-162.517
-166.225
-170.397
-175.085
-180.376
-186.389
-193.176
-200.719
-208.825
-217.065
-224.954
-232.047
-237.849
-241.831
-243.612
-243.013
-240.342
-236.474
-232.408
-229.021
-227.083
-227.327
-230.223
-235.733
-242.864
-249.529
-253.175
-251.31
-241.486
-221.047
-187.578
-139.377
-77.122
-4.164
75.645
158.908
245.109
334.445
422.503
500.002
551.655
563.008
529.914
457.1
357.381
242.859
115.479
-25.895
-180.504
-340.316
-484.703
-593.218
-656.794
-675.59
-661.481
-629.381
-583.987
-530.626
-474.744
-419.038
-373.825
-343.349
-323.369
-311.881
-302.685
-293.025
-287.499
-287.542
-293.515
-304.496
-315.661
-323.697
-327.791
-327.749
-324.389
-318.766
-311.491
-303.266
-295.294
-288.762
-284.214
-281.806
-281.356
-282.357
-284.398
-287.12
-290.016
-292.607
-294.62
-295.905
-296.417
-296.202
-295.283
-293.679
-291.45
-288.667
-285.405
-281.738
-277.764
-273.605
-269.383
-265.207
-261.155
-257.27
-253.592
-250.153
-246.979
-244.092
-241.5
-239.198
-237.187
-235.472
-234.042
-232.875
-231.926
-231.129
-230.429
-229.785
-229.157
-228.522
-227.853
-227.126
-226.326
-225.447
-224.478
-223.408
-222.221
-220.896
-219.419
-217.778
-215.964
-213.974
-211.804
-209.446
-206.896
-204.15
-201.205
-198.057
-194.703
-191.136
-187.355
-183.36
-179.156
-174.748
-170.144
-165.353
-160.387
-155.257
-149.979
-144.566
-139.033
-133.396
-127.67
-121.874
-116.023
-110.138
-104.234
-98.333
-92.451
-86.608
-80.824
-75.116
-69.504
-64.004
-58.636
-53.415
-48.359
-43.482
-38.799
-34.325
-30.072
-26.052
-22.276
-18.753
-15.491
-12.496
-9.772
-7.324
-5.153
-3.26
-1.642
-0.299
0.772
1.577
2.119
2.406
2.445
2.244
1.813
1.163
0.303
-0.753
-1.993
-3.404
-4.97
-6.679
-8.513
-10.459
-12.5
-14.62
-16.803
-19.033
-21.293
-23.568
-25.842
-28.1
-30.328
-32.512
-34.641
-36.7
-38.68
-40.57
-42.36
-44.041
-45.607
-47.049
-48.363
-49.542
-50.582
-51.481
-52.235
-52.844
-53.307
-53.625
-53.799
-53.83
-53.723
-53.48
-53.107
-52.608
-51.989
-51.257
-50.419
-49.482
-48.454
-47.342
-46.155
-44.901
-43.587
-42.221
-40.811
-39.363
-37.884
-36.382
-34.861
-33.329
-31.79
-30.25
-28.714
-27.186
-25.669
-24.169
-22.687
-21.226
-19.789
-18.378
-16.993
-15.637
-14.311
-13.014
-11.747
-10.511
-9.305
-8.128
-6.981
-5.862
-4.771
-3.708
-2.673
-1.666
-0.687
0.262
1.181
2.067
2.92
3.736
4.513
5.248
5.939
6.581
7.172
7.707
8.183
8.595
8.94
9.214
9.411
9.529
9.563
9.51
9.367
9.131
8.798
8.368
7.837
7.205
6.471
5.635
4.699
3.664
2.533
1.311
0.002
-1.387
-2.849
-4.376
-5.957
-7.582
-9.241
-10.921
-12.609
-14.293
-15.959
-17.592
-19.178
-20.701
-22.147
-23.5
-24.746
-25.868
-26.853
-27.685
-28.353
-28.841
-29.139
-29.234
-29.116
-28.774
-28.201
-27.39
-26.336
-25.034
-23.485
-21.687
-19.645
-17.363
-14.849
-12.111
-9.162
-6.016
-2.689
0.803
4.44
8.202
12.067
16.014
20.02
24.062
28.116
32.158
36.162
40.103
43.957
47.697
51.298
54.737
57.991
61.04
63.869
66.461
68.802
70.878
72.669
74.162
75.35
76.227
76.793
77.052
77.017
76.71
76.168
75.425
74.517
73.477
72.33
71.109
69.848
68.588
67.381
66.272
65.294
64.485
63.874
63.477
63.295
63.286
63.375
63.49
63.561
63.536
63.372
62.996
62.327
61.275
59.738
57.671
55.023
51.702
47.691
43.052
37.954
32.8
28.07
24.125
21.358
20.191
20.888
23.64
28.35
34.385
40.981
47.551
53.63
58.712
62.323
64.12
64.318
65.105
70.053
82.053
102.62
129.577
158.887
189.286
223.052
268.334
334.052
424.091
536.316
658.809
776.634
874.526
938.313
961.307
938.981
873.039
769.79
634.075
477.33
310.447
145.961
2.402
-110.71
-188.972
-234.62
-260.76
-275.027
-280.182
-276.111
-256.925
-221.66
-174.349
-120.008
-65.483
-15.44
27.858
62.475
87.402
102.631
108.802
107.366
100.25
89.397
76.947
65.105
55.737
49.828
47.495
48.327
51.603
56.525
62.168
67.42
71.223
73.047
72.909
71.133
68.2
64.539
60.524
56.618
53.339
51.012
49.753
49.546
50.256
51.779
54.062
57.019
60.513
64.409
68.554
72.804
77.068
81.275
85.355
89.249
92.894
96.238
99.262
101.97
104.371
106.471
108.271
109.773
111.003
112.002
112.824
113.527
114.155
114.74
115.315
115.906
116.542
117.242
118.015
118.861
119.786
120.798
121.91
123.136
124.484
125.957
127.559
129.294
131.167
133.181
135.34
137.645
140.098
142.704
145.467
148.389
151.472
154.713
158.109
161.653
165.339
169.156
173.094
177.14
181.281
185.502
189.789
194.126
198.497
202.888
207.279
211.651
215.985
220.262
224.464
228.576
232.574
236.433
240.146
243.702
247.089
250.3
253.308
256.079
258.611
260.905
262.908
264.581
265.888
266.786
267.293
267.457
267.24
266.582
265.629
264.554
263.254
261.739
260.046
257.803
256.034
255.739
255.51
254.927
251.4
241.826
229.666
217.236
207.972
206.595
208.963
211.569
212.02
206.342
197.41
188.139
179.193
172.357
166.628
160.713
154.884
148.992
143.147
137.634
132.297
127.014
121.846
116.82
111.933
107.2
102.645
98.281
94.143
90.269
86.652
83.285
80.175
77.324
74.731
72.398
70.319
68.485
66.895
65.542
64.419
63.517
62.825
62.332
62.026
61.893
61.92
62.093
62.396
62.815
63.334
63.939
64.615
65.346
66.118
66.917
67.729
68.541
69.34
70.113
70.85
71.54
72.174
72.742
73.237
73.652
73.979
74.215
74.354
74.393
74.328
74.159
73.885
73.504
73.019
72.43
71.739
70.95
70.065
69.087
68.022
66.871
65.64
64.334
62.955
61.509
59.999
58.43
56.806
55.13
53.407
51.638
49.829
47.98
46.096
44.178
42.228
40.249
38.242
36.208
34.148
32.065
29.957
27.826
25.672
23.496
21.297
19.075
16.831
14.565
12.278
9.971
7.644
5.3
2.939
0.565
-1.82
-4.212
-6.607
-9
-11.387
-13.761
-16.117
-18.446
-20.744
-23.002
-25.213
-27.369
-29.463
-31.486
-33.431
-35.289
-37.051
-38.711
-40.258
-41.686
-42.988
-44.157
-45.186
-46.069
-46.804
-47.384
-47.807
-48.071
-48.173
-48.113
-47.894
-47.517
-46.988
-46.312
-45.496
-44.552
-43.491
-42.326
-41.072
-39.741
-38.351
-36.919
-35.465
-34.009
-32.572
-31.172
-29.829
-28.565
-27.4
-26.355
-25.45
-24.698
-24.115
-23.717
-23.52
-23.543
-23.792
-24.271
-24.979
-25.915
-27.084
-28.492
-30.135
-32.007
-34.101
-36.407
-38.916
-41.614
-44.473
-47.461
-50.54
-53.667
-56.815
-59.966
-63.112
-66.254
-69.369
-72.415
-75.35
-78.122
-80.685
-83.047
-85.199
-87.111
-88.855
-90.53
-92.311
-94.519
-97.315
-100.677
-104.571
-108.895
-113.448
-118.13
-122.643
-126.34
-128.909
-130.238
-130.245
-129.2
-127.358
-124.681
-121.353
-117.929
-114.719
-112.264
-111.137
-111.255
-112.765
-116.156
-121.786
-129.955
-139.535
-147.333
-150.781
-148.749
-142.995
-137.188
-130.523
-116.691
-85.569
-28.401
56.077
160.184
272.276
384.7
491.157
586.895
664.601
708.422
707.201
658.417
569.345
457.97
338.586
216.212
88.119
-49.779
-195.573
-337.933
-457.711
-540.97
-580.173
-576.847
-544.865
-498.098
-451.567
-417.324
-396.538
-385.36
-374.423
-354.605
-323.653
-284.841
-246.073
-213.653
-190.024
-174.757
-164.87
-158.89
-156.679
-157.462
-160.632
-164.972
-168.703
-171.089
-172.021
-171.299
-169.085
-165.852
-162.087
-158.61
-156.33
-155.54
-156.18
-158.067
-160.813
-164.052
-167.45
-170.545
-172.879
-174.216
-174.478
-173.697
-171.996
-169.466
-166.193
-162.3
-157.924
-153.204
-148.261
-143.218
-138.199
-133.3
-128.597
-124.156
-120.01
-116.188
-112.732
-109.635
-106.85
-104.377
-102.248
-100.481
-99.105
-98.083
-97.293
-96.662
-96.212
-95.809
-95.114
-94.028
-92.612
-90.805
-88.915
-86.329
-81.178
-73.868
-66.102
-60.706
-62.988
-72.593
-84.185
-92.439
-89.798
-75.813
-57.622
-40.743
-31.144
-29.846
-31.512
-32.876
-31.698
-27.317
-21.922
-16.505
-11.008
-5.521
0.269
6.425
12.633
18.786
24.915
30.989
36.976
42.866
48.649
54.33
59.939
65.468
70.873
76.125
81.204
86.09
90.764
95.207
99.393
103.303
106.926
110.247
113.253
115.934
118.279
120.277
121.921
123.206
124.127
124.682
124.869
124.689
124.144
123.238
121.976
120.367
118.417
116.137
113.537
110.63
107.43
103.951
100.21
96.222
92.007
87.582
82.969
78.188
73.259
68.204
63.043
57.799
52.493
47.145
41.777
36.41
31.062
25.754
20.505
15.332
10.255
5.288
0.448
-4.25
-8.793
-13.168
-17.364
-21.372
-25.181
-28.785
-32.177
-35.351
-38.303
-41.031
-43.534
-45.81
-47.862
-49.692
-51.302
-52.699
-53.886
-54.872
-55.662
-56.265
-56.69
-56.945
-57.04
-56.984
-56.787
-56.46
-56.014
-55.457
-54.802
-54.058
-53.237
-52.348
-51.402
-50.409
-49.379
-48.321
-47.244
-46.157
-45.069
-43.987
-42.919
-41.871
-40.85
-39.863
-38.913
-38.006
-37.144
-36.332
-35.572
-34.864
-34.21
-33.611
-33.068
-32.58
-32.147
-31.769
-31.445
-31.175
-30.958
-30.794
-30.682
-30.62
-30.607
-30.641
-30.722
-30.846
-31.012
-31.218
-31.463
-31.743
-32.059
-32.407
-32.786
-33.193
-33.627
-34.086
-34.568
-35.071
-35.595
-36.138
-36.699
-37.278
-37.875
-38.489
-39.121
-39.769
-40.432
-41.108
-41.796
-42.491
-43.191
-43.891
-44.586
-45.272
-45.946
-46.602
-47.238
-47.85
-48.435
-48.991
-49.514
-49.998
-50.438
-50.826
-51.155
-51.415
-51.599
-51.7
-51.711
-51.626
-51.441
-51.154
-50.762
-50.257
-49.63
-48.871
-47.97
-46.924
-45.734
-44.407
-42.956
-41.402
-39.767
-38.08
-36.359
-34.618
-32.862
-31.082
-29.272
-27.422
-25.534
-23.621
-21.697
-19.769
-17.842
-15.912
-13.962
-11.964
-9.88
-7.667
-5.301
-2.775
-0.11
2.644
5.425
8.154
10.769
13.235
15.518
17.588
19.412
20.948
22.141
22.934
23.256
23.021
22.172
20.682
18.572
15.912
12.8
9.356
5.684
1.863
-2.039
-5.952
-9.805
-13.526
-17.032
-20.262
-23.138
-25.551
-27.437
-28.774
-29.596
-30.009
-30.141
-30.101
-29.996
-29.943
-30.048
-30.446
-31.267
-32.576
-34.465
-37.05
-40.383
-44.476
-49.178
-54.067
-58.645
-62.497
-65.197
-66.285
-65.456
-62.594
-58.034
-52.685
-47.664
-43.787
-41.495
-41.442
-44.222
-49.652
-56.825
-63.015
-63.709
-56.493
-40.669
-16.538
13.085
49.222
95.64
155.098
231.679
323.869
425.906
531.426
628.946
707.107
754.434
758.99
716.808
630.224
506.994
360.285
202.15
44.258
-101.009
-224.304
-319.54
-387.159
-434.145
-466.011
-486.237
-492.747
-479.813
-449.951
-408.311
-362.966
-324.113
-291.506
-263.387
-238.88
-215.066
-194.825
-180.583
-171.746
-168.477
-169.106
-171.688
-175.29
-178.555
-180.271
-180.013
-177.843
-174.069
-169.04
-163.145
-156.875
-150.913
-146.201
-143.263
-142.077
-142.442
-143.97
-146.252
-149.004
-151.853
-154.292
-155.987
-156.783
-156.618
-155.586
-153.781
-151.23
-148.01
-144.228
-139.975
-135.372
-130.535
-125.563
-120.58
-115.69
-110.967
-106.489
-102.316
-98.487
-95.028
-91.939
-89.198
-86.79
-84.701
-82.91
-81.39
-80.099
-78.984
-77.992
-77.063
-76.149
-75.209
-74.203
-73.099
-71.871
-70.499
-68.97
-67.279
-65.415
-63.365
-61.117
-58.658
-55.98
-53.079
-49.95
-46.59
-43
-39.178
-35.125
-30.844
-26.336
-21.606
-16.658
-11.496
-6.128
-0.567
5.174
11.08
17.132
23.31
29.595
35.964
42.394
48.862
55.346
61.821
68.264
74.652
80.961
87.166
93.243
99.17
104.923
110.479
115.817
120.915
125.754
130.314
134.578
138.529
142.154
145.437
148.368
150.936
153.133
154.952
156.389
157.44
158.107
158.389
158.29
157.815
156.971
155.767
154.211
152.315
150.092
147.554
144.716
141.594
138.203
134.563
130.691
126.607
122.33
117.882
113.283
108.555
103.72
98.799
93.815
88.789
83.743
78.698
73.675
68.693
63.772
58.931
54.187
49.556
45.054
40.695
36.491
32.454
28.595
24.921
21.442
18.164
15.093
12.232
9.585
7.153
4.938
2.938
1.152
-0.424
-1.792
-2.959
-3.929
-4.712
-5.312
-5.74
-6.005
-6.116
-6.082
-5.916
-5.628
-5.228
-4.729
-4.142
-3.477
-2.746
-1.961
-1.13
-0.264
0.627
1.534
2.448
3.362
4.267
5.156
6.023
6.862
7.667
8.435
9.16
9.84
10.472
11.054
11.585
12.064
12.49
12.865
13.187
13.458
13.679
13.852
13.978
14.06
14.1
14.1
14.064
13.993
13.892
13.761
13.603
13.421
13.217
12.992
12.748
12.486
12.208
11.913
11.603
11.278
10.937
10.581
10.207
9.814
9.402
8.969
8.512
8.03
7.522
6.986
6.421
5.825
5.198
4.54
3.849
3.126
2.37
1.583
0.764
-0.084
-0.962
-1.866
-2.794
-3.743
-4.708
-5.685
-6.671
-7.657
-8.639
-9.61
-10.561
-11.486
-12.376
-13.22
-14.011
-14.736
-15.387
-15.953
-16.422
-16.786
-17.033
-17.154
-17.141
-16.985
-16.678
-16.214
-15.587
-14.79
-13.82
-12.674
-11.348
-9.843
-8.156
-6.29
-4.248
-2.033
0.348
2.89
5.584
8.417
11.377
14.45
17.619
20.868
24.178
27.529
30.9
34.274
37.631
40.951
44.213
47.396
50.476
53.432
56.245
58.894
61.361
63.629
65.682
67.513
69.114
70.479
71.595
72.444
73.006
73.276
73.247
72.917
72.294
71.387
70.215
68.818
67.234
65.501
63.653
61.711
59.698
57.654
55.624
53.668
51.846
50.19
48.732
47.505
46.508
45.723
45.101
44.546
43.98
43.336
42.531
41.49
40.119
38.298
35.939
32.92
29.066
24.308
18.656
12.251
5.48
-1.212
-7.421
-12.633
-16.304
-18.099
-17.881
-15.988
-13.314
-10.86
-9.5
-9.975
-12.869
-18.45
-26.513
-35.912
-44.479
-49.501
-48.257
-38.421
-17.678
15.947
63.741
126.147
200.908
283.305
368.821
452.598
532.515
609.986
681.987
742.886
781.862
783.248
741.447
657.867
542.237
410.185
267.491
119.112
-29.884
-172.475
-289.767
-368.414
-404.349
-401.617
-377.484
-345.21
-310.692
-276.429
-239.126
-198.955
-160.122
-126.837
-103.502
-91.43
-89.297
-95.108
-105.945
-119.018
-131.946
-142.243
-148.4
-150.008
-147.102
-140.337
-130.829
-119.728
-108.356
-98.224
-90.222
-84.638
-81.499
-80.444
-80.999
-82.751
-85.158
-87.587
-89.644
-91.133
-91.973
-92.244
-91.99
-91.198
-89.89
-88.086
-85.801
-83.075
-79.952
-76.482
-72.762
-68.896
-64.984
-61.14
-57.443
-53.948
-50.69
-47.677
-44.909
-42.396
-40.144
-38.173
-36.49
-35.088
-33.949
-33.044
-32.328
-31.758
-31.293
-30.882
-30.485
-30.074
-29.623
-29.122
-28.562
-27.932
-27.217
-26.401
-25.465
-24.396
-23.18
-21.806
-20.267
-18.553
-16.661
-14.589
-12.336
-9.899
-7.275
-4.463
-1.46
1.735
5.119
8.689
12.441
16.365
20.454
24.695
29.076
33.581
38.197
42.907
47.694
52.541
57.429
62.339
67.252
72.147
77.004
81.804
86.526
91.15
95.656
100.024
104.235
108.271
112.115
115.748
119.155
122.321
125.231
127.872
130.233
132.303
134.071
135.53
136.672
137.491
137.982
138.145
137.977
137.479
136.653
135.504
134.036
132.257
130.174
127.797
125.136
122.204
119.012
115.576
111.909
108.028
103.95
99.691
95.271
90.706
86.016
81.221
76.339
71.391
66.394
61.37
56.336
51.313
46.319
41.372
36.491
31.693
26.994
22.41
17.956
13.646
9.49
5.502
1.69
-1.938
-5.373
-8.61
-11.645
-14.472
-17.091
-19.499
-21.697
-23.686
-25.468
-27.046
-28.426
-29.611
-30.608
-31.424
-32.065
-32.541
-32.859
-33.029
-33.061
-32.964
-32.749
-32.427
-32.009
-31.507
-30.931
-30.293
-29.603
-28.871
-28.108
-27.323
-26.523
-25.718
-24.915
-24.121
-23.343
-22.586
-21.855
-21.156
-20.491
-19.865
-19.281
-18.74
-18.243
-17.793
-17.391
-17.036
-16.729
-16.47
-16.258
-16.093
-15.974
-15.898
-15.864
-15.87
-15.914
-15.992
-16.103
-16.243
-16.411
-16.606
-16.824
-17.065
-17.327
-17.609
-17.911
-18.233
-18.573
-18.933
-19.311
-19.709
-20.127
-20.565
-21.026
-21.508
-22.014
-22.544
-23.098
-23.677
-24.281
-24.909
-25.561
-26.237
-26.936
-27.657
-28.399
-29.161
-29.941
-30.737
-31.547
-32.368
-33.197
-34.03
-34.862
-35.689
-36.504
-37.301
-38.074
-38.816
-39.52
-40.177
-40.781
-41.324
-41.796
-42.191
-42.498
-42.712
-42.823
-42.825
-42.709
-42.47
-42.102
-41.6
-40.96
-40.177
-39.25
-38.175
-36.952
-35.581
-34.063
-32.399
-30.592
-28.647
-26.57
-24.367
-22.047
-19.619
-17.097
-14.493
-11.822
-9.102
-6.348
-3.579
-0.815
1.927
4.626
7.265
9.826
12.29
14.638
16.852
18.91
20.795
22.491
23.982
25.254
26.294
27.092
27.644
27.95
28.004
27.802
27.331
26.581
25.55
24.24
22.654
20.806
18.713
16.398
13.901
11.264
8.523
5.719
2.877
0.028
-2.79
-5.526
-8.123
-10.52
-12.673
-14.548
-16.11
-17.355
-18.291
-18.954
-19.415
-19.74
-20.002
-20.286
-20.676
-21.266
-22.17
-23.481
-25.324
-27.864
-31.153
-35.159
-39.75
-44.58
-49.308
-53.626
-57.101
-59.288
-59.968
-59.03
-56.729
-53.851
-51.052
-48.926
-48.09
-48.759
-51.01
-54.934
-59.843
-64.145
-65.376
-59.873
-44.503
-18.193
16.8
56.304
97.462
140.981
194.249
265.215
357.352
467.839
583.172
688.223
769.4
815.765
824.298
792.504
721.708
616.564
480.357
322.271
151.853
-19.053
-173.393
-298.761
-385.999
-433.33
-447.357
-434.067
-399.723
-349.315
-288.02
-226.405
-175.031
-141.072
-125.613
-121.344
-120.364
-117.954
-113.708
-112.009
-115.3
-122.904
-132.161
-138.6
-139.931
-136.193
-128.014
-116.774
-103.821
-90.081
-76.817
-65.385
-56.454
-50.26
-46.778
-45.666
-46.524
-48.967
-52.439
-56.3
-60.173
-63.837
-67.127
-70.008
-72.401
-74.181
-75.319
-75.829
-75.699
-74.938
-73.553
-71.537
-68.952
-65.894
-62.455
-58.752
-54.883
-50.93
-47.005
-43.197
-39.577
-36.212
-33.139
-30.375
-27.939
-25.833
-24.041
-22.549
-21.324
-20.327
-19.523
-18.869
-18.323
-17.84
-17.368
-16.863
-16.292
-15.624
-14.835
-13.909
-12.825
-11.57
-10.139
-8.525
-6.718
-4.714
-2.504
-0.079
2.561
5.419
8.492
11.781
15.284
18.999
22.924
27.053
31.382
35.902
40.609
45.492
50.54
55.736
61.066
66.51
72.05
77.666
83.336
89.039
94.751
100.451
106.116
111.725
117.253
122.677
127.974
133.122
138.098
142.879
147.445
151.772
155.843
159.636
163.136
166.324
169.187
171.708
173.878
175.683
177.117
178.171
178.841
179.122
179.014
178.516
177.632
176.366
174.723
172.711
170.341
167.622
164.568
161.193
157.511
153.54
149.296
144.8
140.071
135.131
130.001
124.703
119.262
113.701
108.043
102.314
96.537
90.735
84.933
79.153
73.418
67.749
62.167
56.691
51.341
46.133
41.084
36.208
31.519
27.029
22.747
18.683
14.845
11.237
7.865
4.731
1.836
-0.819
-3.236
-5.418
-7.37
-9.098
-10.608
-11.909
-13.009
-13.92
-14.651
-15.213
-15.62
-15.883
-16.014
-16.028
-15.935
-15.75
-15.485
-15.152
-14.764
-14.331
-13.865
-13.376
-12.875
-12.37
-11.87
-11.383
-10.915
-10.473
-10.064
-9.69
-9.357
-9.067
-8.823
-8.625
-8.475
-8.372
-8.316
-8.305
-8.337
-8.41
-8.522
-8.669
-8.849
-9.057
-9.291
-9.547
-9.822
-10.112
-10.414
-10.725
-11.043
-11.366
-11.691
-12.017
-12.343
-12.668
-12.992
-13.316
-13.638
-13.96
-14.283
-14.608
-14.938
-15.274
-15.619
-15.976
-16.348
-16.739
-17.151
-17.589
-18.055
-18.552
-19.084
-19.653
-20.261
-20.911
-21.605
-22.343
-23.127
-23.956
-24.831
-25.752
-26.715
-27.719
-28.762
-29.839
-30.945
-32.078
-33.229
-34.394
-35.567
-36.739
-37.905
-39.056
-40.184
-41.28
-42.335
-43.341
-44.287
-45.165
-45.965
-46.678
-47.296
-47.811
-48.216
-48.503
-48.666
-48.699
-48.599
-48.361
-47.983
-47.462
-46.798
-45.992
-45.047
-43.966
-42.754
-41.418
-39.966
-38.408
-36.757
-35.025
-33.225
-31.374
-29.486
-27.579
-25.67
-23.775
-21.912
-20.097
-18.35
-16.688
-15.133
-13.703
-12.417
-11.292
-10.345
-9.593
-9.047
-8.718
-8.611
-8.735
-9.099
-9.719
-10.604
-11.759
-13.187
-14.885
-16.844
-19.051
-21.481
-24.094
-26.854
-29.722
-32.665
-35.657
-38.67
-41.669
-44.61
-47.443
-50.123
-52.613
-54.886
-56.915
-58.695
-60.246
-61.616
-62.895
-64.172
-65.52
-67.009
-68.715
-70.715
-73.113
-76.021
-79.508
-83.657
-88.568
-94.264
-100.719
-107.794
-115.123
-122.268
-128.835
-134.376
-138.427
-140.69
-140.948
-139.275
-136.311
-132.817
-129.403
-126.621
-125.034
-125.107
-127.171
-131.016
-134.351
-133.629
-126.192
-110.316
-87.491
-61.154
-31.141
5.459
54.603
123.398
212.226
315.942
425.609
529.429
618.309
684.01
718.326
714.157
665.052
570.035
432.765
262.852
77.53
-105.602
-267.074
-390.758
-473.725
-519.227
-536.323
-538.279
-528.529
-506.573
-475.192
-433.665
-387.594
-346.602
-311.415
-283.889
-264.422
-248.976
-239.215
-236.107
-237.965
-244.275
-252.24
-258.638
-261.89
-261.08
-256.229
-247.984
-237.202
-224.937
-212.183
-200.103
-189.842
-181.928
-176.555
-173.67
-172.885
-173.819
-176.108
-179.218
-182.643
-186.111
-189.434
-192.515
-195.321
-197.705
-199.553
-200.845
-201.583
-201.793
-201.493
-200.677
-199.366
-197.634
-195.572
-193.279
-190.824
-188.234
-185.554
-182.839
-180.168
-177.654
-175.368
-173.344
-171.609
-170.174
-169.045
-168.229
-167.701
-167.412
-167.313
-167.359
-167.521
-167.786
-168.116
-168.464
-168.781
-169.003
-169.099
-169.058
-168.835
-168.388
-167.731
-166.872
-165.822
-164.616
-163.224
-161.584
-159.721
-157.682
-155.316
-152.448
-149.185
-145.516
-141.414
-137.253
-132.036
-124.795
-116.936
-108.889
-103.23
-103.035
-104.924
-106.651
-104.865
-94.959
-81.05
-66.631
-54.105
-47.429
-43.821
-40.459
-36.738
-30.95
-24.128
-17.597
-11.136
-4.937
1.061
7.093
12.963
18.51
23.756
28.69
33.274
37.493
41.339
44.801
47.888
50.618
52.967
54.912
56.452
57.58
58.292
58.589
58.469
57.931
56.984
55.638
53.896
51.768
49.264
46.398
43.19
39.657
35.804
31.657
27.257
22.641
17.852
12.912
7.811
2.569
-2.756
-8.167
-13.713
-19.429
-25.357
-31.478
-37.671
-43.886
-50.204
-56.492
-62.352
-67.693
-72.602
-77.011
-81.313
-84.713
-84.874
-82.35
-79.229
-79.069
-88.477
-106.867
-127.637
-144.147
-146.982
-135.78
-119.392
-104.644
-98.981
-103.517
-111.625
-119.298
-123.733
-124.169
-123.323
-122.389
-121.295
-120.137
-118.513
-116.343
-114.002
-111.606
-109.106
-106.525
-103.89
-101.2
-98.452
-95.625
-92.667
-89.572
-86.382
-83.117
-79.785
-76.397
-72.961
-69.489
-65.998
-62.499
-58.997
-55.498
-52.011
-48.543
-45.101
-41.695
-38.331
-35.015
-31.756
-28.558
-25.429
-22.375
-19.4
-16.509
-13.708
-11
-8.389
-5.879
-3.472
-1.172
1.021
3.105
5.079
6.942
8.695
10.338
11.872
13.298
14.617
15.83
16.938
17.944
18.85
19.658
20.372
20.996
21.533
21.988
22.368
22.677
22.923
23.111
23.248
23.343
23.402
23.435
23.448
23.452
23.454
23.465
23.493
23.547
23.637
23.772
23.959
24.208
24.526
24.921
25.402
25.977
26.654
27.439
28.341
29.366
30.521
31.812
33.243
34.818
36.54
38.412
40.435
42.61
44.937
47.413
50.037
52.804
55.711
58.749
61.913
65.192
68.578
72.058
75.62
79.25
82.932
86.652
90.393
94.139
97.872
101.574
105.23
108.821
112.331
115.743
119.036
122.195
125.2
128.034
130.681
133.128
135.359
137.364
139.137
140.672
141.965
143.009
143.793
144.31
144.557
144.535
144.246
143.7
142.911
141.902
140.708
139.364
137.905
136.363
134.762
133.129
131.496
129.904
128.398
127.024
125.817
124.808
124.026
123.484
123.169
123.045
123.034
123.059
123.061
122.981
122.752
122.306
121.549
120.368
118.699
116.467
113.557
109.93
105.588
100.636
95.422
90.388
85.906
82.39
80.312
79.964
81.55
85
89.63
94.557
99.102
102.702
104.632
104.308
101.583
96.714
92.009
91.523
97.156
109.851
129.488
152.893
182.548
224.334
280.985
357.203
449.884
548.998
649.691
744.05
824.723
886.698
917.47
907.297
853.365
757.488
629.48
479.993
318.568
155.544
3.354
-122.451
-211.948
-262.434
-280.103
-279.242
-268.54
-251.274
-227.707
-194.081
-151.348
-104.824
-59.203
-19.628
10.417
30.619
41.749
45.09
42.75
37.081
29.83
22.876
18.465
17.691
20.793
27.634
37.189
48.188
59.771
70.846
80.099
86.872
90.884
92.102
91.021
88.162
83.917
78.846
73.519
68.303
63.494
59.274
55.68
52.764
50.564
49.054
48.211
48.01
48.418
49.4
50.896
52.822
55.088
57.59
60.239
62.945
65.596
68.102
70.39
72.402
74.117
75.524
76.61
77.38
77.853
78.055
78.029
77.818
77.455
76.98
76.436
75.869
75.335
74.877
74.528
74.316
74.261
74.38
74.69
75.203
75.92
76.843
77.975
79.318
80.879
82.659
84.659
86.874
89.298
91.928
94.759
97.786
101.001
104.395
107.959
111.684
115.56
119.576
123.717
127.967
132.306
136.718
141.181
145.676
150.18
154.671
159.127
163.525
167.845
172.064
176.16
180.113
183.902
187.506
190.906
194.083
197.02
199.699
202.105
204.223
206.041
207.546
208.727
209.577
210.086
210.249
210.061
209.519
208.622
207.369
205.762
203.804
201.5
198.856
195.879
192.579
188.967
185.055
180.856
176.385
171.658
166.69
161.499
156.102
150.52
144.769
138.872
132.846
126.713
120.493
114.205
107.87
101.508
95.138
88.779
82.449
76.167
69.949
63.812
57.773
51.846
46.046
40.386
34.878
29.534
24.364
19.376
14.578
9.977
5.577
1.382
-2.606
-6.384
-9.954
-13.317
-16.474
-19.429
-22.186
-24.751
-27.129
-29.328
-31.353
-33.212
-34.914
-36.468
-37.88
-39.161
-40.319
-41.364
-42.304
-43.148
-43.907
-44.589
-45.204
-45.761
-46.268
-46.735
-47.169
-47.578
-47.97
-48.352
-48.73
-49.11
-49.497
-49.896
-50.311
-50.745
-51.201
-51.68
-52.186
-52.718
-53.278
-53.867
-54.484
-55.131
-55.806
-56.51
-57.243
-58.006
-58.796
-59.616
-60.463
-61.338
-62.24
-63.169
-64.124
-65.105
-66.111
-67.141
-68.194
-69.271
-70.37
-71.492
-72.635
-73.8
-74.986
-76.193
-77.422
-78.673
-79.947
-81.244
-82.565
-83.91
-85.281
-86.678
-88.1
-89.548
-91.021
-92.518
-94.038
-95.579
-97.139
-98.715
-100.304
-101.904
-103.51
-105.118
-106.725
-108.324
-109.912
-111.482
-113.029
-114.547
-116.03
-117.471
-118.865
-120.204
-121.482
-122.692
-123.827
-124.88
-125.842
-126.708
-127.469
-128.118
-128.649
-129.054
-129.329
-129.468
-129.467
-129.321
-129.028
-128.585
-127.992
-127.248
-126.355
-125.313
-124.127
-122.801
-121.339
-119.749
-118.039
-116.216
-114.293
-112.282
-110.195
-108.046
-105.849
-103.619
-101.371
-99.12
-96.882
-94.67
-92.499
-90.384
-88.344
-86.395
-84.552
-82.831
-81.244
-79.804
-78.523
-77.41
-76.468
-75.697
-75.103
-74.69
-74.469
-74.45
-74.633
-75.015
-75.59
-76.344
-77.263
-78.327
-79.496
-80.736
-82.012
-83.294
-84.564
-85.802
-86.97
-88.026
-88.917
-89.589
-90.012
-90.163
-90.012
-89.556
-88.809
-87.808
-86.629
-85.334
-83.975
-82.613
-81.311
-80.139
-79.208
-78.597
-78.416
-78.832
-79.903
-81.616
-83.88
-86.385
-88.794
-90.827
-92.061
-92.009
-90.427
-87.176
-82.441
-76.98
-71.459
-66.425
-62.572
-60.432
-60.318
-62.372
-65.974
-69.491
-71.17
-69.13
-61.312
-45.799
-20.509
16.441
66.167
127.68
197.976
273.775
351.134
428.04
505.747
582.866
654.577
711.927
738.64
722.345
661.247
560.065
433.89
297.286
153.914
8.267
-135.894
-271.092
-378.46
-446.061
-471.212
-459.369
-427.945
-389.88
-351.029
-313.344
-273.371
-231.206
-190.596
-155.598
-130.678
-117.052
-113.127
-116.862
-125.594
-136.766
-148.435
-158.384
-164.665
-166.536
-164.017
-157.662
-148.538
-137.789
-126.444
-115.75
-106.885
-100.393
-96.42
-94.815
-95.131
-96.94
-99.841
-103.292
-106.767
-109.939
-112.62
-114.744
-116.329
-117.337
-117.726
-117.508
-116.71
-115.371
-113.524
-111.191
-108.405
-105.232
-101.769
-98.121
-94.398
-90.698
-87.096
-83.652
-80.418
-77.443
-74.757
-72.378
-70.31
-68.541
-67.06
-65.85
-64.888
-64.143
-63.575
-63.139
-62.785
-62.463
-62.132
-61.757
-61.31
-60.764
-60.097
-59.29
-58.331
-57.212
-55.924
-54.454
-52.792
-50.928
-48.854
-46.564
-44.056
-41.328
-38.379
-35.208
-31.815
-28.201
-24.367
-20.317
-16.056
-11.586
-6.917
-2.057
2.98
8.18
13.525
19
24.585
30.26
36.003
41.793
47.609
53.429
59.23
64.991
70.687
76.297
81.797
87.166
92.379
97.415
102.251
106.867
111.242
115.356
119.192
122.731
125.958
128.858
131.418
133.628
135.478
136.96
138.068
138.8
139.153
139.127
138.725
137.95
136.809
135.308
133.458
131.268
128.751
125.919
122.787
119.37
115.686
111.752
107.586
103.21
98.642
93.906
89.023
84.016
78.909
73.724
68.486
63.216
57.939
52.677
47.452
42.285
37.195
32.204
27.327
22.584
17.989
13.557
9.3
5.231
1.359
-2.307
-5.76
-8.993
-12.002
-14.784
-17.335
-19.656
-21.745
-23.606
-25.24
-26.652
-27.846
-28.828
-29.607
-30.189
-30.585
-30.804
-30.856
-30.752
-30.505
-30.124
-29.624
-29.015
-28.31
-27.52
-26.658
-25.734
-24.76
-23.746
-22.702
-21.636
-20.559
-19.478
-18.401
-17.336
-16.289
-15.266
-14.272
-13.314
-12.394
-11.516
-10.685
-9.901
-9.168
-8.487
-7.859
-7.284
-6.762
-6.292
-5.872
-5.502
-5.18
-4.901
-4.665
-4.468
-4.308
-4.181
-4.087
-4.021
-3.983
-3.969
-3.979
-4.009
-4.059
-4.126
-4.208
-4.304
-4.413
-4.534
-4.666
-4.809
-4.962
-5.125
-5.298
-5.482
-5.674
-5.875
-6.086
-6.305
-6.533
-6.772
-7.02
-7.279
-7.55
-7.833
-8.128
-8.436
-8.754
-9.081
-9.415
-9.754
-10.093
-10.428
-10.755
-11.071
-11.371
-11.654
-11.915
-12.15
-12.356
-12.528
-12.662
-12.752
-12.789
-12.765
-12.67
-12.498
-12.242
-11.898
-11.459
-10.919
-10.275
-9.524
-8.665
-7.692
-6.597
-5.365
-3.99
-2.478
-0.838
0.915
2.764
4.696
6.692
8.723
10.77
12.82
14.874
16.95
19.05
21.169
23.289
25.377
27.414
29.401
31.338
33.233
35.092
36.913
38.718
40.547
42.411
44.299
46.17
47.939
49.55
50.97
52.169
53.138
53.859
54.29
54.402
54.18
53.6
52.656
51.322
49.538
47.291
44.607
41.539
38.204
34.689
31.055
27.378
23.715
20.125
16.684
13.443
10.42
7.639
5.083
2.731
0.597
-1.343
-3.127
-4.813
-6.525
-8.376
-10.469
-12.922
-15.809
-19.239
-23.378
-28.295
-33.943
-40.115
-46.347
-52.147
-57.137
-60.858
-62.808
-62.647
-60.195
-55.832
-50.56
-45.426
-41.348
-39.107
-39.315
-42.367
-48.244
-55.829
-62.846
-66.64
-64.527
-53.93
-32.398
2.266
51.964
116.196
191.367
273.689
358.869
444.457
531.735
618.808
699.372
764.365
799.151
791.259
737.612
639.205
503.79
346.695
180.465
20.259
-116.357
-222.177
-295.062
-340.15
-370.992
-393.673
-406.503
-403.704
-378.624
-334.259
-283.635
-241.255
-215.769
-205.862
-201.738
-193.803
-178.132
-156.449
-134.695
-117.555
-106.409
-100.716
-98.463
-98.245
-99.702
-102.56
-106.49
-110.798
-114.699
-117.667
-119.421
-119.986
-119.572
-118.452
-117.068
-115.932
-115.294
-115.206
-115.649
-116.469
-117.493
-118.544
-119.31
-119.452
-118.818
-117.389
-115.219
-112.427
-109.104
-105.334
-101.273
-97.115
-93.006
-89.051
-85.294
-81.739
-78.41
-75.345
-72.583
-70.139
-68.007
-66.166
-64.602
-63.312
-62.279
-61.474
-60.843
-60.323
-59.865
-59.434
-59.003
-58.548
-58.044
-57.465
-56.792
-56.013
-55.117
-54.091
-52.918
-51.582
-50.067
-48.364
-46.468
-44.378
-42.088
-39.594
-36.891
-33.978
-30.855
-27.52
-23.972
-20.209
-16.233
-12.048
-7.661
-3.082
1.681
6.615
11.706
16.941
22.3
27.769
33.327
38.956
44.635
50.342
56.056
61.754
67.412
73.007
78.516
83.915
89.182
94.295
99.232
103.972
108.495
112.783
116.817
120.58
124.056
127.232
130.092
132.625
134.82
136.666
138.156
139.282
140.041
140.427
140.441
140.08
139.349
138.249
136.787
134.968
132.802
130.298
127.469
124.328
120.89
117.169
113.185
108.953
104.494
99.826
94.97
89.946
84.775
79.478
74.078
68.594
63.05
57.466
51.864
46.264
40.688
35.155
29.686
24.298
19.011
13.842
8.806
3.92
-0.803
-5.349
-9.708
-13.868
-17.823
-21.563
-25.083
-28.379
-31.448
-34.288
-36.898
-39.279
-41.432
-43.362
-45.071
-46.564
-47.847
-48.926
-49.808
-50.501
-51.014
-51.356
-51.534
-51.56
-51.443
-51.193
-50.821
-50.337
-49.751
-49.073
-48.315
-47.486
-46.595
-45.654
-44.671
-43.654
-42.613
-41.554
-40.487
-39.417
-38.351
-37.295
-36.254
-35.234
-34.239
-33.274
-32.341
-31.446
-30.591
-29.778
-29.011
-28.291
-27.621
-27.002
-26.436
-25.924
-25.468
-25.069
-24.728
-24.447
-24.225
-24.064
-23.965
-23.929
-23.955
-24.043
-24.195
-24.409
-24.687
-25.027
-25.429
-25.894
-26.419
-27.004
-27.649
-28.351
-29.109
-29.921
-30.783
-31.694
-32.649
-33.646
-34.681
-35.748
-36.844
-37.964
-39.102
-40.252
-41.408
-42.563
-43.71
-44.841
-45.949
-47.024
-48.058
-49.042
-49.969
-50.829
-51.614
-52.316
-52.925
-53.434
-53.835
-54.12
-54.281
-54.312
-54.206
-53.958
-53.562
-53.016
-52.314
-51.456
-50.439
-49.263
-47.927
-46.434
-44.784
-42.983
-41.033
-38.941
-36.714
-34.362
-31.892
-29.318
-26.65
-23.905
-21.097
-18.244
-15.362
-12.469
-9.585
-6.728
-3.918
-1.172
1.492
4.057
6.504
8.816
10.974
12.961
14.76
16.357
17.737
18.888
19.799
20.466
20.884
21.051
20.962
20.608
19.982
19.081
17.906
16.46
14.754
12.805
10.639
8.293
5.808
3.222
0.572
-2.11
-4.797
-7.452
-10.035
-12.498
-14.792
-16.876
-18.719
-20.288
-21.572
-22.589
-23.38
-24.023
-24.601
-25.177
-25.819
-26.607
-27.619
-28.952
-30.713
-32.971
-35.825
-39.412
-43.787
-48.936
-54.699
-60.688
-66.469
-71.645
-75.769
-78.361
-79.076
-77.739
-74.624
-70.522
-66.319
-62.832
-60.632
-60.171
-61.989
-66.124
-71.594
-76.777
-78.414
-73.276
-60.305
-37.431
-5.099
35.454
87.194
149.27
222.727
309.077
401.144
494.578
581.066
649.245
695.998
714.917
703.491
662.711
588.881
483.426
347.689
186.547
13.737
-154.605
-297.947
-400.435
-457.886
-474.935
-465.796
-445.176
-420.338
-393.911
-363.861
-327.127
-285.631
-243.11
-203.608
-171.84
-149.662
-136.469
-131.097
-131.497
-135.476
-141.626
-148.545
-154.243
-157.081
-156.286
-151.743
-144.101
-134.388
-123.37
-111.79
-100.715
-91.181
-83.787
-78.727
-75.792
-74.538
-74.609
-75.712
-77.469
-79.455
-81.384
-83.093
-84.493
-85.593
-86.366
-86.728
-86.648
-86.136
-85.201
-83.876
-82.205
-80.209
-77.938
-75.458
-72.804
-70.02
-67.135
-64.169
-61.168
-58.183
-55.267
-52.488
-49.9
-47.531
-45.402
-43.509
-41.832
-40.352
-39.038
-37.852
-36.762
-35.742
-34.768
-33.826
-32.892
-31.937
-30.926
-29.813
-28.562
-27.143
-25.53
-23.704
-21.651
-19.36
-16.827
-14.055
-11.045
-7.797
-4.309
-0.579
3.395
7.607
12.051
16.716
21.592
26.666
31.924
37.35
42.928
48.64
54.47
60.399
66.41
72.481
78.59
84.713
90.826
96.904
102.922
108.854
114.673
120.355
125.873
131.205
136.326
141.213
145.845
150.2
154.259
158.003
161.415
164.481
167.185
169.516
171.462
173.016
174.172
174.924
175.27
175.21
174.746
173.881
172.622
170.975
168.949
166.555
163.806
160.715
157.299
153.573
149.558
145.271
140.735
135.97
131
125.848
120.537
115.091
109.536
103.895
98.193
92.455
86.703
80.963
75.256
69.604
64.03
58.552
53.191
47.963
42.884
37.971
33.235
28.69
24.346
20.211
16.295
12.602
9.138
5.907
2.911
0.149
-2.378
-4.672
-6.738
-8.58
-10.203
-11.614
-12.822
-13.835
-14.662
-15.313
-15.799
-16.131
-16.322
-16.381
-16.322
-16.155
-15.894
-15.549
-15.132
-14.654
-14.124
-13.553
-12.951
-12.326
-11.687
-11.041
-10.396
-9.759
-9.136
-8.532
-7.952
-7.402
-6.884
-6.402
-5.958
-5.555
-5.194
-4.875
-4.6
-4.369
-4.18
-4.034
-3.93
-3.867
-3.843
-3.856
-3.907
-3.992
-4.11
-4.26
-4.44
-4.649
-4.887
-5.153
-5.446
-5.765
-6.111
-6.483
-6.881
-7.305
-7.755
-8.23
-8.732
-9.26
-9.815
-10.397
-11.007
-11.646
-12.313
-13.01
-13.735
-14.49
-15.274
-16.086
-16.926
-17.793
-18.687
-19.605
-20.547
-21.509
-22.491
-23.488
-24.496
-25.513
-26.532
-27.55
-28.559
-29.556
-30.532
-31.483
-32.403
-33.284
-34.119
-34.903
-35.628
-36.286
-36.871
-37.375
-37.792
-38.114
-38.335
-38.45
-38.452
-38.337
-38.1
-37.737
-37.245
-36.621
-35.863
-34.97
-33.942
-32.78
-31.486
-30.065
-28.522
-26.862
-25.093
-23.227
-21.274
-19.246
-17.155
-15.015
-12.841
-10.649
-8.453
-6.268
-4.11
-1.994
0.063
2.045
3.934
5.712
7.364
8.872
10.224
11.404
12.403
13.211
13.822
14.231
14.428
14.401
14.14
13.638
12.895
11.912
10.698
9.268
7.642
5.857
3.946
1.943
-0.12
-2.22
-4.333
-6.431
-8.475
-10.418
-12.217
-13.833
-15.24
-16.415
-17.349
-18.062
-18.596
-19.027
-19.435
-19.883
-20.43
-21.141
-22.086
-23.345
-25.018
-27.173
-29.91
-33.365
-37.581
-42.533
-48.072
-53.84
-59.444
-64.512
-68.568
-71.089
-71.741
-70.337
-67.068
-62.655
-57.778
-53.093
-49.354
-47.21
-47.148
-49.353
-53.17
-57.002
-59.055
-57.208
-49.164
-32.88
-6.076
33.14
85.468
150.623
226.187
307.367
389.453
467.135
537.774
602.796
659.834
704.992
729.586
717.703
661.916
561.198
420.448
257.252
87.057
-76.942
-218.418
-328.68
-404.01
-443.599
-456.045
-451.969
-436.954
-414.719
-385.377
-346.435
-299.843
-249.804
-200.438
-156.892
-122.275
-97.457
-82.43
-76.049
-76.555
-82.192
-91.174
-101.438
-110.877
-117.667
-120.794
-120.156
-116.209
-109.734
-101.575
-92.669
-84.161
-77.205
-72.453
-70.025
-69.742
-71.159
-73.829
-77.361
-81.222
-84.851
-87.901
-90.167
-91.587
-92.232
-92.142
-91.332
-89.869
-87.827
-85.279
-82.309
-78.98
-75.353
-71.52
-67.572
-63.619
-59.756
-56.05
-52.562
-49.333
-46.384
-43.73
-41.374
-39.305
-37.512
-35.979
-34.671
-33.563
-32.617
-31.79
-31.041
-30.317
-29.571
-28.77
-27.884
-26.892
-25.778
-24.526
-23.125
-21.571
-19.858
-17.976
-15.921
-13.684
-11.258
-8.639
-5.826
-2.818
0.383
3.779
7.369
11.152
15.128
19.293
23.643
28.176
32.885
37.76
42.791
47.962
53.26
58.667
64.166
69.739
75.364
81.022
86.692
92.355
97.988
103.57
109.08
114.495
119.794
124.955
129.956
134.777
139.397
143.794
147.95
151.845
155.461
158.782
161.79
164.47
166.809
168.794
170.414
171.661
172.527
173.007
173.097
172.797
172.107
171.029
169.567
167.728
165.52
162.952
160.034
156.781
153.205
149.322
145.149
140.702
136.002
131.067
125.918
120.577
115.064
109.404
103.618
97.731
91.765
85.745
79.695
73.638
67.597
61.594
55.651
49.79
44.03
38.391
32.89
27.544
22.368
17.375
12.579
7.99
3.616
-0.534
-4.454
-8.141
-11.592
-14.804
-17.778
-20.515
-23.017
-25.288
-27.332
-29.154
-30.762
-32.163
-33.365
-34.378
-35.211
-35.874
-36.378
-36.734
-36.953
-37.046
-37.025
-36.901
-36.686
-36.39
-36.024
-35.6
-35.126
-34.612
-34.068
-33.502
-32.92
-32.329
-31.737
-31.147
-30.565
-29.995
-29.439
-28.902
-28.385
-27.891
-27.42
-26.974
-26.554
-26.16
-25.791
-25.449
-25.132
-24.841
-24.574
-24.333
-24.117
-23.925
-23.757
-23.614
-23.495
-23.401
-23.331
-23.286
-23.267
-23.275
-23.309
-23.372
-23.465
-23.59
-23.748
-23.942
-24.173
-24.443
-24.754
-25.109
-25.509
-25.957
-26.453
-26.999
-27.596
-28.245
-28.946
-29.699
-30.503
-31.356
-32.258
-33.204
-34.192
-35.219
-36.278
-37.366
-38.477
-39.604
-40.741
-41.879
-43.011
-44.128
-45.223
-46.285
-47.307
-48.277
-49.188
-50.029
-50.791
-51.464
-52.038
-52.506
-52.856
-53.082
-53.176
-53.131
-52.939
-52.596
-52.097
-51.439
-50.618
-49.635
-48.488
-47.179
-45.712
-44.09
-42.319
-40.407
-38.364
-36.199
-33.926
-31.561
-29.119
-26.616
-24.071
-21.503
-18.932
-16.377
-13.858
-11.392
-9.001
-6.702
-4.517
-2.468
-0.575
1.142
2.664
3.975
5.057
5.897
6.489
6.826
6.903
6.71
6.237
5.472
4.41
3.051
1.397
-0.543
-2.75
-5.197
-7.842
-10.644
-13.564
-16.564
-19.617
-22.695
-25.763
-28.775
-31.682
-34.43
-36.974
-39.279
-41.305
-43.038
-44.496
-45.723
-46.801
-47.811
-48.81
-49.855
-51.018
-52.369
-54.003
-56.018
-58.477
-61.493
-65.21
-69.681
-74.882
-80.612
-86.431
-91.875
-96.508
-99.819
-101.326
-100.734
-97.939
-93.361
-87.939
-82.639
-78.346
-75.816
-75.484
-77.488
-81.751
-87.144
-91.52
-92.597
-86.867
-71.283
-44.917
-6.092
44.159
103.479
173.084
250.505
334.023
422.911
509.951
591.572
664.468
722.236
761.475
774.916
752.102
685.757
572.153
412.576
219.885
15.872
-175.894
-328.978
-427.699
-474.323
-478.086
-456.429
-424.974
-385.502
-339.753
-290.118
-238.129
-193.998
-163.211
-143.048
-132.041
-124.44
-117.068
-113.625
-115.191
-121.793
-132.521
-142.973
-150.049
-153.044
-151.855
-147.263
-140.328
-131.768
-122.344
-113.278
-105.767
-100.334
-97.114
-95.938
-96.312
-97.831
-100.145
-102.712
-105.018
-106.794
-107.886
-108.271
-108.027
-107.141
-105.605
-103.471
-100.794
-97.645
-94.105
-90.245
-86.169
-81.996
-77.836
-73.79
-69.929
-66.287
-62.896
-59.775
-56.932
-54.387
-52.147
-50.206
-48.568
-47.221
-46.14
-45.292
-44.619
-44.063
-43.576
-43.112
-42.636
-42.123
-41.546
-40.889
-40.14
-39.287
-38.313
-37.204
-35.939
-34.501
-32.875
-31.05
-29.018
-26.775
-24.314
-21.631
-18.722
-15.584
-12.214
-8.61
-4.769
-0.69
3.624
8.168
12.934
17.911
23.087
28.448
33.978
39.657
45.469
51.393
57.409
63.497
69.634
75.799
81.967
88.117
94.223
100.263
106.211
112.044
117.737
123.268
128.612
133.749
138.656
143.312
147.699
151.798
155.591
159.062
162.198
164.984
167.41
169.466
171.144
172.439
173.348
173.869
174.003
173.752
173.12
172.112
170.737
169.002
166.917
164.494
161.747
158.69
155.339
151.711
147.824
143.698
139.354
134.812
130.093
125.221
120.218
115.107
109.911
104.654
99.36
94.051
88.75
83.481
78.263
73.118
68.065
63.123
58.308
53.636
49.122
44.78
40.621
36.656
32.896
29.346
26.016
22.908
20.028
17.376
14.955
12.763
10.799
9.06
7.541
6.238
5.144
4.252
3.554
3.04
2.7
2.523
2.498
2.614
2.858
3.218
3.683
4.24
4.877
5.584
6.349
7.161
8.01
8.886
9.778
10.679
11.579
12.471
13.348
14.202
15.029
15.822
16.577
17.29
17.957
18.574
19.139
19.65
20.105
20.502
20.842
21.124
21.348
21.516
21.628
21.686
21.692
21.645
21.549
21.404
21.211
20.972
20.689
20.362
19.992
19.581
19.13
18.639
18.11
17.542
16.937
16.294
15.615
14.899
14.147
13.361
12.54
11.686
10.801
9.885
8.941
7.97
6.974
5.955
4.914
3.855
2.78
1.692
0.594
-0.51
-1.616
-2.718
-3.812
-4.892
-5.952
-6.987
-7.989
-8.952
-9.869
-10.734
-11.538
-12.275
-12.936
-13.515
-14.003
-14.395
-14.682
-14.858
-14.917
-14.853
-14.662
-14.338
-13.879
-13.28
-12.538
-11.653
-10.623
-9.447
-8.128
-6.665
-5.064
-3.328
-1.464
0.523
2.623
4.826
7.121
9.492
11.926
14.407
16.918
19.441
21.96
24.454
26.908
29.304
31.625
33.851
35.962
37.938
39.76
41.409
42.868
44.122
45.155
45.954
46.512
46.823
46.881
46.676
46.191
45.413
44.334
42.954
41.274
39.307
37.064
34.57
31.86
28.972
25.941
22.803
19.58
16.301
13
9.724
6.534
3.49
0.635
-1.991
-4.364
-6.48
-8.344
-9.991
-11.49
-12.896
-14.275
-15.705
-17.25
-19.006
-21.079
-23.555
-26.569
-30.298
-34.825
-40.144
-46.123
-52.424
-58.712
-64.725
-70.067
-74.293
-77.137
-78.472
-78.513
-77.967
-77.461
-77.324
-77.957
-79.65
-82.376
-86.051
-90.017
-92.694
-92.495
-88.043
-77.695
-60.069
-34.145
1.584
48.08
105.013
172.078
247.413
326.707
406.404
482.806
553.224
619.109
679.832
730.448
763.143
765.046
725.039
640.909
516.186
359.96
186.678
9.426
-157.575
-297.273
-398.332
-456.189
-473.76
-463.807
-439.799
-409.334
-376.121
-339.044
-295.865
-248.973
-202.505
-160.962
-128.879
-107.766
-96.798
-94.495
-98.585
-106.765
-117.19
-127.852
-136.712
-142.25
-143.774
-141.419
-135.909
-128.239
-119.366
-110.272
-102.016
-95.565
-91.427
-89.629
-89.885
-91.69
-94.52
-97.923
-101.436
-104.606
-107.163
-108.971
-109.953
-110.145
-109.596
-108.333
-106.428
-103.962
-100.986
-97.575
-93.831
-89.859
-85.805
-81.792
-77.893
-74.174
-70.68
-67.452
-64.541
-61.971
-59.736
-57.829
-56.239
-54.959
-53.983
-53.286
-52.814
-52.509
-52.306
-52.15
-52.005
-51.834
-51.606
-51.294
-50.873
-50.328
-49.654
-48.841
-47.873
-46.735
-45.409
-43.883
-42.153
-40.214
-38.062
-35.694
-33.106
-30.297
-27.266
-24.014
-20.539
-16.842
-12.922
-8.784
-4.436
0.112
4.849
9.759
14.828
20.037
25.367
30.796
36.305
41.871
47.472
53.085
58.687
64.255
69.764
75.192
80.514
85.706
90.746
95.61
100.276
104.722
108.928
112.874
116.54
119.908
122.964
125.69
128.073
130.101
131.762
133.047
133.95
134.466
134.589
134.321
133.66
132.611
131.177
129.365
127.184
124.642
121.752
118.524
114.974
111.116
106.966
102.543
97.864
92.948
87.817
82.491
76.992
71.341
65.561
59.675
53.706
47.677
41.611
35.53
29.458
23.417
17.429
11.515
5.694
-0.013
-5.589
-11.017
-16.281
-21.367
-26.262
-30.954
-35.434
-39.692
-43.721
-47.515
-51.07
-54.381
-57.448
-60.269
-62.844
-65.176
-67.268
-69.122
-70.744
-72.14
-73.315
-74.278
-75.036
-75.599
-75.976
-76.177
-76.213
-76.095
-75.835
-75.446
-74.938
-74.324
-73.615
-72.824
-71.961
-71.037
-70.064
-69.051
-68.01
-66.948
-65.875
-64.8
-63.73
-62.673
-61.635
-60.622
-59.641
-58.696
-57.791
-56.932
-56.123
-55.366
-54.665
-54.024
-53.444
-52.927
-52.476
-52.09
-51.77
-51.516
-51.329
-51.208
-51.152
-51.159
-51.23
-51.363
-51.555
-51.806
-52.114
-52.476
-52.891
-53.356
-53.869
-54.428
-55.03
-55.675
-56.358
-57.079
-57.834
-58.621
-59.438
-60.28
-61.144
-62.026
-62.922
-63.828
-64.739
-65.65
-66.555
-67.451
-68.33
-69.188
-70.018
-70.814
-71.57
-72.279
-72.934
-73.529
-74.056
-74.511
-74.885
-75.172
-75.367
-75.463
-75.453
-75.331
-75.092
-74.729
-74.237
-73.61
-72.844
-71.934
-70.877
-69.671
-68.313
-66.803
-65.141
-63.327
-61.364
-59.254
-57.002
-54.613
-52.095
-49.454
-46.702
-43.848
-40.906
-37.889
-34.812
-31.692
-28.543
-25.384
-22.231
-19.103
-16.016
-12.986
-10.033
-7.173
-4.426
-1.81
0.656
2.955
5.069
6.984
8.685
10.159
11.399
12.399
13.151
13.649
13.882
13.84
13.521
12.926
12.059
10.931
9.557
7.961
6.178
4.243
2.193
0.06
-2.13
-4.347
-6.559
-8.723
-10.79
-12.714
-14.455
-15.987
-17.284
-18.336
-19.158
-19.785
-20.288
-20.742
-21.209
-21.754
-22.446
-23.353
-24.568
-26.197
-28.302
-30.967
-34.301
-38.31
-42.971
-48.175
-53.591
-58.866
-63.69
-67.651
-70.332
-71.492
-70.864
-68.45
-64.811
-60.489
-55.947
-51.715
-48.252
-45.959
-45.395
-46.81
-48.316
-46.822
-40.015
-25.277
-3.619
20.1
45.566
73.501
107.804
160.088
234.916
332.318
449.895
572.711
685.254
772.491
816.757
810.706
754.942
655.936
526.615
376.45
212.909
43.911
-119.976
-261.348
-366.689
-430.235
-456.338
-460.428
-453.854
-441.46
-422.945
-392.901
-350.877
-301.4
-249.854
-202.275
-162.14
-130.267
-107.024
-92.054
-84.297
-82.299
-84.378
-89.068
-94.847
-100.409
-104.653
-106.527
-105.793
-102.884
-98.325
-92.708
-86.73
-80.942
-75.976
-72.592
-71.016
-71.075
-72.49
-74.8
-77.613
-80.672
-83.61
-85.985
-87.557
-88.218
-87.959
-86.908
-85.142
-82.702
-79.68
-76.182
-72.33
-68.255
-64.078
-59.902
-55.814
-51.883
-48.175
-44.754
-41.662
-38.926
-36.548
-34.508
-32.791
-31.383
-30.264
-29.408
-28.771
-28.302
-27.947
-27.649
-27.36
-27.044
-26.665
-26.189
-25.591
-24.85
-23.955
-22.901
-21.679
-20.277
-18.684
-16.888
-14.883
-12.665
-10.231
-7.579
-4.708
-1.617
1.691
5.215
8.953
12.901
17.056
21.414
25.967
30.706
35.618
40.689
45.903
51.243
56.69
62.223
67.822
73.463
79.126
84.788
90.426
96.016
101.537
106.964
112.275
117.447
122.456
127.282
131.902
136.295
140.442
144.324
147.922
151.22
154.204
156.859
159.173
161.134
162.735
163.966
164.821
165.296
165.389
165.097
164.423
163.368
161.937
160.137
157.976
155.464
152.61
149.428
145.931
142.133
138.052
133.702
129.104
124.274
119.234
114.004
108.606
103.061
97.391
91.62
85.77
79.863
73.922
67.969
62.026
56.115
50.256
44.471
38.779
33.2
27.751
22.451
17.314
12.356
7.589
3.027
-1.321
-5.445
-9.337
-12.991
-16.401
-19.562
-22.473
-25.132
-27.538
-29.693
-31.599
-33.261
-34.682
-35.87
-36.83
-37.571
-38.101
-38.428
-38.564
-38.517
-38.299
-37.921
-37.395
-36.732
-35.946
-35.048
-34.051
-32.967
-31.807
-30.585
-29.309
-27.992
-26.643
-25.272
-23.889
-22.502
-21.119
-19.749
-18.399
-17.075
-15.784
-14.53
-13.318
-12.152
-11.035
-9.97
-8.959
-8.004
-7.107
-6.269
-5.491
-4.775
-4.121
-3.528
-2.997
-2.527
-2.117
-1.766
-1.472
-1.234
-1.052
-0.924
-0.85
-0.829
-0.86
-0.944
-1.08
-1.267
-1.504
-1.792
-2.128
-2.514
-2.949
-3.432
-3.965
-4.548
-5.18
-5.861
-6.592
-7.371
-8.197
-9.067
-9.979
-10.93
-11.916
-12.934
-13.979
-15.047
-16.135
-17.239
-18.357
-19.484
-20.616
-21.748
-22.877
-23.994
-25.092
-26.161
-27.191
-28.171
-29.094
-29.95
-30.733
-31.433
-32.043
-32.559
-32.975
-33.284
-33.475
-33.534
-33.447
-33.214
-32.835
-32.32
-31.685
-30.942
-30.105
-29.199
-28.238
-27.23
-26.175
-25.056
-23.855
-22.57
-21.207
-19.786
-18.33
-16.841
-15.317
-13.757
-12.142
-10.456
-8.677
-6.761
-4.684
-2.455
-0.103
2.303
4.682
6.977
9.145
11.158
12.996
14.629
16.02
17.145
17.959
18.408
18.43
17.932
16.85
15.169
12.908
10.136
6.961
3.475
-0.243
-4.114
-8.079
-12.08
-16.057
-19.96
-23.726
-27.27
-30.492
-33.284
-35.549
-37.237
-38.347
-38.924
-39.068
-38.899
-38.52
-38.035
-37.547
-37.145
-36.928
-37.008
-37.471
-38.434
-40.069
-42.487
-45.72
-49.7
-54.136
-58.625
-62.756
-66.036
-67.911
-68.009
-66.145
-62.472
-57.666
-52.61
-48.221
-45.345
-44.701
-46.927
-52.132
-59.559
-67.774
-73.58
-73.471
-65.785
-48.063
-20.307
16.538
66.441
130.7
210.631
306.243
406.802
502.217
583.369
643.832
688.335
719.378
736.135
731.847
690.216
601.259
461.945
281.049
81.837
-111.718
-276.603
-396.968
-468.766
-495.025
-483.408
-443.45
-385.863
-320.92
-260.24
-213.85
-184.637
-170.177
-162.237
-152.794
-139.661
-124.663
-113.185
-108.853
-111.252
-118.015
-125.22
-130.092
-131.596
-129.53
-124.504
-117.215
-108.263
-98.385
-88.38
-79.11
-71.484
-66.008
-62.781
-61.679
-62.345
-64.401
-67.499
-71.228
-75.144
-78.922
-82.343
-85.265
-87.646
-89.456
-90.67
-91.297
-91.361
-90.886
-89.901
-88.449
-86.583
-84.373
-81.892
-79.209
-76.391
-73.516
-70.683
-67.971
-65.446
-63.147
-61.086
-59.278
-57.736
-56.454
-55.413
-54.583
-53.923
-53.397
-52.981
-52.641
-52.342
-52.042
-51.688
-51.24
-50.669
-49.948
-49.06
-47.984
-46.703
-45.206
-43.492
-41.559
-39.405
-37.027
-34.417
-31.572
-28.494
-25.185
-21.65
-17.894
-13.918
-9.728
-5.331
-0.737
4.048
9.012
14.148
19.444
24.885
30.455
36.137
41.912
47.76
53.66
59.591
65.529
71.452
77.339
83.166
88.912
94.553
100.069
105.436
110.635
115.645
120.445
125.016
129.34
133.4
137.178
140.659
143.829
146.676
149.186
151.351
153.161
154.609
155.69
156.401
156.738
156.702
156.295
155.52
154.383
152.89
151.05
148.874
146.374
143.563
140.456
137.069
133.42
129.526
125.408
121.083
116.574
111.902
107.087
102.153
97.122
92.016
86.858
81.67
76.474
71.292
66.146
61.055
56.04
51.12
46.313
41.636
37.105
32.735
28.539
24.53
20.719
17.114
13.723
10.552
7.606
4.889
2.4
0.142
-1.888
-3.693
-5.275
-6.64
-7.794
-8.745
-9.5
-10.068
-10.459
-10.683
-10.751
-10.674
-10.463
-10.129
-9.685
-9.142
-8.51
-7.803
-7.031
-6.206
-5.338
-4.437
-3.514
-2.579
-1.641
-0.708
0.213
1.113
1.987
2.829
3.633
4.396
5.114
5.785
6.406
6.975
7.492
7.957
8.37
8.732
9.044
9.307
9.524
9.696
9.826
9.914
9.962
9.973
9.947
9.887
9.793
9.667
9.51
9.324
9.109
8.868
8.602
8.312
7.999
7.664
7.306
6.928
6.529
6.109
5.669
5.208
4.726
4.224
3.701
3.156
2.59
2.001
1.39
0.755
0.097
-0.583
-1.286
-2.01
-2.751
-3.508
-4.277
-5.053
-5.832
-6.608
-7.375
-8.129
-8.863
-9.574
-10.258
-10.908
-11.521
-12.092
-12.617
-13.088
-13.498
-13.838
-14.099
-14.273
-14.355
-14.338
-14.218
-13.988
-13.645
-13.188
-12.615
-11.923
-11.104
-10.145
-9.041
-7.799
-6.428
-4.946
-3.372
-1.717
-0.003
1.742
3.496
5.245
6.988
8.743
10.511
12.285
14.044
15.756
17.403
18.987
20.511
21.982
23.406
24.784
26.137
27.509
28.911
30.331
31.726
33.012
34.137
35.074
35.804
36.32
36.598
36.592
36.273
35.623
34.613
33.228
31.424
29.133
26.348
23.103
19.466
15.56
11.468
7.244
2.957
-1.33
-5.538
-9.572
-13.372
-16.903
-20.114
-22.975
-25.444
-27.473
-29.086
-30.337
-31.307
-32.126
-32.902
-33.732
-34.742
-36.041
-37.765
-40.111
-43.17
-46.938
-51.322
-56.024
-60.723
-65.153
-68.889
-71.409
-72.363
-71.522
-69.03
-65.636
-62.07
-58.974
-57.145
-57.242
-59.699
-64.725
-71.687
-78.847
-84.231
-85.568
-80.277
-65.995
-40.428
-1.71
51.016
117.35
195.652
283.088
374.915
464.659
546.715
616.289
670.219
708.2
726.52
719.496
682.168
608.574
499.797
362.286
204.54
40.736
-115.784
-251.732
-355.013
-422.901
-456.448
-461.52
-447.113
-415.327
-370.89
-320.634
-269.018
-226.1
-195.883
-174.646
-160.711
-149.308
-138.77
-133.214
-133.668
-140.107
-151.278
-162.955
-172.214
-177.658
-178.545
-175.307
-168.678
-159.316
-148.094
-136.092
-124.439
-114.174
-105.899
-99.756
-95.606
-93.132
-91.989
-91.822
-92.247
-92.891
-93.539
-94.129
-94.662
-95.196
-95.732
-96.203
-96.543
-96.687
-96.577
-96.18
-95.479
-94.466
-93.165
-91.618
-89.86
-87.92
-85.815
-83.543
-81.109
-78.515
-75.787
-72.968
-70.124
-67.335
-64.66
-62.132
-59.769
-57.571
-55.527
-53.621
-51.828
-50.114
-48.456
-46.838
-45.249
-43.68
-42.116
-40.527
-38.878
-37.124
-35.227
-33.16
-30.899
-28.427
-25.733
-22.809
-19.655
-16.28
-12.689
-8.884
-4.867
-0.637
3.803
8.445
13.279
18.294
23.475
28.81
34.282
39.875
45.57
51.353
57.204
63.109
69.051
75.008
80.962
86.889
92.768
98.576
104.291
109.889
115.347
120.643
125.755
130.663
135.348
139.79
143.972
147.876
151.488
154.793
157.777
160.428
162.737
164.694
166.291
167.524
168.388
168.881
169.003
168.756
168.142
167.165
165.833
164.152
162.132
159.785
157.121
154.155
150.902
147.378
143.601
139.59
135.364
130.944
126.349
121.603
116.726
111.74
106.667
101.531
96.353
91.154
85.958
80.784
75.654
70.587
65.602
60.717
55.948
51.313
46.824
42.496
38.34
34.367
30.587
27.007
23.635
20.474
17.529
14.802
12.293
10.002
7.926
6.063
4.408
2.956
1.699
0.63
-0.259
-0.978
-1.537
-1.948
-2.22
-2.367
-2.399
-2.33
-2.17
-1.933
-1.628
-1.269
-0.866
-0.431
0.027
0.497
0.969
1.436
1.89
2.322
2.727
3.098
3.432
3.723
3.968
4.165
4.311
4.406
4.447
4.436
4.373
4.259
4.096
3.888
3.635
3.342
3.011
2.646
2.249
1.824
1.374
0.902
0.409
-0.1
-0.624
-1.159
-1.703
-2.255
-2.813
-3.376
-3.943
-4.514
-5.089
-5.669
-6.254
-6.845
-7.444
-8.05
-8.666
-9.292
-9.931
-10.585
-11.255
-11.944
-12.653
-13.386
-14.143
-14.926
-15.735
-16.57
-17.43
-18.314
-19.221
-20.145
-21.084
-22.034
-22.993
-23.958
-24.925
-25.888
-26.845
-27.79
-28.718
-29.622
-30.492
-31.317
-32.088
-32.794
-33.427
-33.98
-34.444
-34.81
-35.072
-35.227
-35.269
-35.192
-34.984
-34.628
-34.115
-33.448
-32.63
-31.677
-30.601
-29.41
-28.121
-26.758
-25.338
-23.871
-22.354
-20.767
-19.104
-17.372
-15.589
-13.789
-11.991
-10.194
-8.397
-6.597
-4.785
-2.965
-1.116
0.8
2.791
4.839
6.894
8.867
10.691
12.331
13.761
14.972
15.944
16.632
17
17.021
16.661
15.894
14.665
12.891
10.541
7.635
4.246
0.496
-3.516
-7.728
-12.08
-16.52
-20.985
-25.397
-29.685
-33.81
-37.72
-41.358
-44.646
-47.485
-49.827
-51.7
-53.198
-54.455
-55.588
-56.672
-57.778
-59.006
-60.463
-62.273
-64.539
-67.287
-70.552
-74.428
-78.979
-84.232
-90.069
-96.087
-101.791
-106.781
-110.621
-112.829
-113.037
-110.92
-106.505
-100.509
-93.763
-86.899
-80.692
-76.047
-73.704
-74.25
-76.617
-77.492
-73.719
-63.701
-48.836
-32.183
-14.288
9.716
49.654
113.443
203.089
311.71
425.441
533.767
629.757
709.952
771.888
806.539
802.693
751.371
649.537
503.806
327.61
137.02
-51.233
-221.277
-361.148
-460.805
-516.007
-530.483
-510.387
-469.046
-420.668
-373.698
-335.732
-305.712
-277.142
-247.366
-213.827
-178.977
-150.001
-130.101
-120.453
-119.831
-123.973
-130.433
-137.724
-144.281
-149.325
-151.898
-151.439
-148.339
-143.245
-136.795
-129.738
-122.763
-116.629
-112.204
-109.848
-109.461
-110.756
-113.281
-116.649
-120.545
-124.536
-128.135
-131.025
-133.044
-134.168
-134.479
-134.023
-132.816
-130.911
-128.388
-125.349
-121.894
-118.103
-114.052
-109.817
-105.492
-101.195
-97.028
-93.073
-89.39
-86.005
-82.929
-80.179
-77.758
-75.653
-73.849
-72.311
-71.003
-69.899
-68.964
-68.16
-67.443
-66.757
-66.053
-65.295
-64.455
-63.51
-62.443
-61.233
-59.866
-58.337
-56.638
-54.761
-52.698
-50.436
-47.965
-45.281
-42.38
-39.262
-35.927
-32.373
-28.6
-24.609
-20.405
-15.99
-11.37
-6.55
-1.536
3.66
9.025
14.543
20.198
25.971
31.844
37.795
43.802
49.843
55.895
61.937
67.944
73.893
79.761
85.523
91.156
96.636
101.941
107.047
111.931
116.573
120.952
125.05
128.848
132.33
135.479
138.284
140.73
142.809
144.511
145.828
146.757
147.292
147.433
147.181
146.536
145.504
144.089
142.299
140.142
137.63
134.774
131.586
128.082
124.276
120.186
115.83
111.226
106.396
101.36
96.139
90.757
85.236
79.598
73.869
68.069
62.224
56.355
50.485
44.637
38.831
33.088
27.429
21.872
16.435
11.137
5.992
1.015
-3.779
-8.378
-12.771
-16.948
-20.901
-24.621
-28.102
-31.341
-34.334
-37.08
-39.577
-41.826
-43.831
-45.595
-47.122
-48.418
-49.491
-50.349
-50.999
-51.453
-51.719
-51.809
-51.734
-51.505
-51.134
-50.633
-50.013
-49.288
-48.468
-47.567
-46.594
-45.563
-44.484
-43.369
-42.228
-41.071
-39.909
-38.751
-37.605
-36.48
-35.382
-34.32
-33.298
-32.322
-31.397
-30.527
-29.715
-28.963
-28.273
-27.646
-27.083
-26.584
-26.149
-25.777
-25.467
-25.219
-25.031
-24.901
-24.829
-24.812
-24.85
-24.94
-25.082
-25.272
-25.51
-25.792
-26.118
-26.486
-26.892
-27.337
-27.816
-28.33
-28.875
-29.452
-30.056
-30.688
-31.345
-32.025
-32.728
-33.451
-34.193
-34.952
-35.727
-36.516
-37.317
-38.127
-38.943
-39.763
-40.582
-41.395
-42.2
-42.989
-43.756
-44.497
-45.205
-45.873
-46.495
-47.064
-47.573
-48.016
-48.384
-48.671
-48.87
-48.974
-48.975
-48.869
-48.647
-48.306
-47.84
-47.244
-46.514
-45.646
-44.638
-43.487
-42.191
-40.751
-39.165
-37.438
-35.57
-33.568
-31.438
-29.187
-26.826
-24.365
-21.818
-19.2
-16.524
-13.808
-11.068
-8.322
-5.589
-2.884
-0.226
2.366
4.875
7.28
9.563
11.704
13.685
15.486
17.092
18.485
19.654
20.59
21.283
21.725
21.909
21.819
21.447
20.79
19.844
18.614
17.109
15.343
13.345
11.157
8.818
6.37
3.846
1.274
-1.316
-3.89
-6.408
-8.822
-11.09
-13.178
-15.058
-16.703
-18.105
-19.273
-20.266
-21.173
-22.089
-23.097
-24.248
-25.595
-27.211
-29.176
-31.587
-34.528
-38.042
-42.203
-47.12
-52.827
-59.251
-66.146
-73.013
-79.322
-84.637
-88.461
-90.273
-89.721
-86.651
-81.403
-74.873
-68.012
-61.619
-56.447
-53.205
-52.341
-53.873
-56.862
-59.331
-58.961
-53.418
-40.316
-17.168
18.266
67.798
131.083
204.976
285.522
367.986
449.459
530.011
608.563
681.933
742.489
777.631
774.147
721.952
618.236
466.664
279.638
77.457
-118.518
-283.697
-400.24
-465.649
-485.931
-477.734
-459.619
-439.121
-418.129
-393.772
-360.79
-320.461
-277.261
-235.42
-199.786
-172.245
-152.231
-139.104
-131.489
-127.705
-126.615
-127.272
-128.434
-129.172
-128.762
-126.405
-122.055
-116.203
-109.272
-101.74
-94.192
-87.078
-80.965
-76.57
-74.104
-73.422
-74.29
-76.297
-79.098
-82.424
-85.867
-88.951
-91.361
-92.93
-93.618
-93.497
-92.607
-90.958
-88.604
-85.633
-82.158
-78.294
-74.131
-69.754
-65.24
-60.688
-56.22
-51.942
-47.938
-44.265
-40.947
-37.991
-35.408
-33.196
-31.336
-29.803
-28.553
-27.542
-26.737
-26.097
-25.578
-25.133
-24.699
-24.225
-23.673
-23.009
-22.209
-21.256
-20.125
-18.803
-17.281
-15.553
-13.61
-11.446
-9.048
-6.408
-3.521
-0.386
2.996
6.624
10.498
14.617
18.977
23.573
28.398
33.444
38.704
44.166
49.817
55.639
61.614
67.72
73.938
80.243
86.611
93.017
99.436
105.841
112.208
118.511
124.722
130.816
136.766
142.548
148.136
153.505
158.632
163.494
168.069
172.336
176.277
179.874
183.109
185.97
188.442
190.515
192.181
193.431
194.262
194.669
194.654
194.216
193.36
192.092
190.418
188.348
185.893
183.066
179.882
176.356
172.504
168.347
163.902
159.191
154.235
149.057
143.68
138.127
132.423
126.593
120.661
114.651
108.59
102.501
96.408
90.334
84.304
78.338
72.457
66.683
61.034
55.527
50.179
45.006
40.02
35.235
30.66
26.305
22.178
18.285
14.632
11.221
8.055
5.134
2.459
0.026
-2.167
-4.124
-5.851
-7.355
-8.643
-9.723
-10.605
-11.298
-11.813
-12.161
-12.352
-12.399
-12.313
-12.106
-11.788
-11.373
-10.871
-10.293
-9.65
-8.952
-8.209
-7.429
-6.622
-5.796
-4.959
-4.116
-3.276
-2.443
-1.624
-0.822
-0.042
0.713
1.439
2.136
2.8
3.431
4.028
4.591
5.119
5.613
6.074
6.503
6.9
7.267
7.606
7.918
8.205
8.467
8.706
8.923
9.119
9.293
9.447
9.581
9.694
9.786
9.857
9.906
9.933
9.937
9.917
9.872
9.801
9.702
9.575
9.417
9.229
9.008
8.755
8.469
8.15
7.797
7.41
6.989
6.536
6.05
5.533
4.985
4.41
3.809
3.186
2.545
1.888
1.222
0.552
-0.117
-0.778
-1.427
-2.056
-2.658
-3.228
-3.758
-4.24
-4.668
-5.035
-5.333
-5.556
-5.698
-5.751
-5.713
-5.577
-5.341
-4.999
-4.55
-3.992
-3.323
-2.543
-1.652
-0.652
0.456
1.668
2.977
4.379
5.865
7.426
9.051
10.728
12.443
14.182
15.931
17.674
19.395
21.078
22.709
24.272
25.754
27.139
28.411
29.553
30.55
31.389
32.054
32.536
32.821
32.901
32.775
32.438
31.889
31.124
30.132
28.904
27.44
25.741
23.812
21.667
19.324
16.812
14.175
11.457
8.699
5.94
3.205
0.523
-2.069
-4.531
-6.814
-8.869
-10.669
-12.188
-13.401
-14.311
-14.951
-15.379
-15.702
-16.018
-16.398
-16.921
-17.664
-18.706
-20.156
-22.1
-24.605
-27.773
-31.703
-36.432
-41.917
-47.929
-54.043
-59.811
-64.779
-68.436
-70.299
-70.006
-67.424
-62.923
-57.302
-51.415
-46.073
-42.045
-39.912
-40.019
-42.465
-46.269
-49.554
-50.488
-45.761
-32.077
-8.229
27.95
75.181
129.19
190.485
257.659
332.009
418.979
514.586
612.573
700.917
760.074
777.91
745.978
664.667
544.328
394.001
226.121
52.656
-115.379
-261.168
-371.692
-441.199
-470.517
-470.946
-455.754
-432.158
-404.12
-371.407
-331.759
-287.573
-242.89
-201.625
-168.752
-146.512
-134.257
-130.59
-133.119
-139.235
-147.307
-155.881
-162.889
-166.604
-166.247
-161.737
-153.797
-143.596
-131.993
-119.779
-108.092
-98.036
-90.242
-84.937
-81.921
-80.719
-80.963
-82.359
-84.498
-86.94
-89.386
-91.645
-93.653
-95.484
-97.055
-98.142
-98.588
-98.239
-97.102
-95.439
-93.365
-90.815
-87.977
-85.184
-82.783
-81.302
-80.784
-80.669
-80.693
-80.847
-80.923
-80.73
-79.919
-77.787
-74.299
-70.16
-65.782
-61.396
-57.265
-53.454
-50.237
-48.23
-47.492
-47.522
-47.98
-48.568
-49.071
-49.507
-49.737
-49.429
-48.511
-47.144
-45.446
-43.557
-41.533
-39.292
-36.821
-34.173
-31.354
-28.345
-25.129
-21.669
-17.966
-14.059
-9.978
-5.744
-1.375
3.126
7.751
12.484
17.313
22.224
27.202
32.233
37.301
42.388
47.477
52.55
57.587
62.572
67.487
72.317
77.044
81.648
86.108
90.407
94.527
98.453
102.169
105.661
108.914
111.915
114.653
117.119
119.302
121.195
122.791
124.084
125.072
125.751
126.121
126.182
125.935
125.382
124.527
123.374
121.93
120.201
118.196
115.925
113.397
110.625
107.622
104.401
100.977
97.363
93.575
89.631
85.546
81.338
77.024
72.623
68.153
63.631
59.076
54.505
49.936
45.385
40.868
36.403
32.003
27.684
23.46
19.343
15.348
11.485
7.767
4.202
0.8
-2.43
-5.483
-8.351
-11.03
-13.517
-15.808
-17.903
-19.801
-21.503
-23.01
-24.326
-25.454
-26.4
-27.168
-27.767
-28.202
-28.482
-28.615
-28.609
-28.475
-28.222
-27.858
-27.395
-26.841
-26.207
-25.503
-24.739
-23.925
-23.071
-22.186
-21.28
-20.363
-19.442
-18.526
-17.622
-16.739
-15.882
-15.058
-14.271
-13.526
-12.828
-12.179
-11.583
-11.041
-10.555
-10.125
-9.753
-9.439
-9.181
-8.979
-8.832
-8.739
-8.697
-8.707
-8.765
-8.87
-9.021
-9.214
-9.45
-9.724
-10.036
-10.382
-10.763
-11.174
-11.615
-12.083
-12.578
-13.099
-13.644
-14.213
-14.805
-15.42
-16.059
-16.72
-17.404
-18.111
-18.841
-19.594
-20.369
-21.166
-21.984
-22.824
-23.683
-24.561
-25.455
-26.363
-27.282
-28.208
-29.138
-30.068
-30.991
-31.903
-32.797
-33.669
-34.511
-35.318
-36.081
-36.794
-37.448
-38.035
-38.548
-38.977
-39.313
-39.549
-39.676
-39.686
-39.572
-39.327
-38.945
-38.419
-37.745
-36.92
-35.939
-34.802
-33.507
-32.055
-30.449
-28.692
-26.789
-24.747
-22.576
-20.285
-17.887
-15.396
-12.827
-10.195
-7.519
-4.816
-2.106
0.594
3.265
5.887
8.441
10.904
13.256
15.475
17.54
19.431
21.13
22.618
23.881
24.909
25.693
26.226
26.499
26.498
26.211
25.633
24.763
23.6
22.152
20.435
18.47
16.297
13.954
11.479
8.905
6.261
3.575
0.882
-1.773
-4.341
-6.77
-9.02
-11.056
-12.84
-14.354
-15.612
-16.653
-17.555
-18.398
-19.237
-20.128
-21.138
-22.338
-23.828
-25.704
-28.028
-30.899
-34.45
-38.747
-43.796
-49.432
-55.254
-60.807
-65.656
-69.302
-71.236
-71.075
-68.591
-64.065
-58.326
-52.314
-46.939
-42.993
-41.133
-41.843
-45.206
-50.296
-55.165
-57.393
-54.401
-43.741
-22.978
10.183
57.71
119.464
192.51
273.251
357.373
442.495
529.754
617.665
700.607
768.748
805.201
796.284
739.355
638.898
509.622
368.258
220.638
69.6
-82.605
-233.47
-368.919
-471.188
-530.003
-539.229
-504.044
-440.77
-364.534
-291.336
-233.258
-191.532
-163.115
-141.304
-119.802
-98.48
-80.358
-69.968
-69.816
-78.477
-92.586
-107.686
-120.436
-129.172
-133.304
-133.284
-129.886
-123.979
-116.598
-108.83
-101.798
-96.536
-93.559
-92.872
-94.162
-96.854
-100.397
-104.351
-108.254
-111.674
-114.342
-116.095
-116.891
-116.812
-115.935
-114.318
-112.036
-109.16
-105.773
-101.993
-97.945
-93.764
-89.572
-85.446
-81.45
-77.638
-74.059
-70.765
-67.787
-65.127
-62.776
-60.733
-58.995
-57.562
-56.414
-55.503
-54.769
-54.149
-53.591
-53.059
-52.52
-51.939
-51.29
-50.547
-49.697
-48.733
-47.647
-46.423
-45.045
-43.493
-41.755
-39.824
-37.695
-35.363
-32.822
-30.067
-27.093
-23.9
-20.485
-16.846
-12.979
-8.882
-4.559
-0.014
4.745
9.707
14.861
20.193
25.685
31.318
37.074
42.932
48.87
54.866
60.896
66.937
72.964
78.954
84.88
90.718
96.443
102.03
107.454
112.693
117.721
122.517
127.058
131.324
135.294
138.951
142.277
145.256
147.875
150.119
151.979
153.447
154.514
155.178
155.433
155.282
154.725
153.766
152.411
150.669
148.548
146.06
143.218
140.036
136.529
132.715
128.611
124.237
119.612
114.76
109.7
104.457
99.052
93.511
87.857
82.114
76.307
70.46
64.596
58.74
52.914
47.14
41.441
35.836
30.347
24.991
19.785
14.746
9.888
5.224
0.765
-3.479
-7.499
-11.289
-14.843
-18.157
-21.228
-24.054
-26.637
-28.976
-31.075
-32.938
-34.568
-35.973
-37.16
-38.136
-38.91
-39.492
-39.892
-40.12
-40.188
-40.107
-39.89
-39.548
-39.093
-38.538
-37.895
-37.177
-36.394
-35.559
-34.682
-33.774
-32.845
-31.904
-30.959
-30.021
-29.095
-28.191
-27.314
-26.472
-25.668
-24.91
-24.2
-23.543
-22.941
-22.398
-21.915
-21.494
-21.136
-20.842
-20.612
-20.447
-20.346
-20.309
-20.334
-20.421
-20.567
-20.771
-21.032
-21.347
-21.714
-22.132
-22.599
-23.113
-23.672
-24.273
-24.916
-25.597
-26.314
-27.066
-27.849
-28.661
-29.5
-30.363
-31.249
-32.153
-33.074
-34.01
-34.956
-35.91
-36.868
-37.827
-38.782
-39.731
-40.669
-41.592
-42.496
-43.377
-44.23
-45.051
-45.834
-46.575
-47.268
-47.907
-48.485
-48.996
-49.435
-49.796
-50.071
-50.256
-50.345
-50.332
-50.211
-49.977
-49.626
-49.152
-48.55
-47.816
-46.948
-45.942
-44.797
-43.51
-42.082
-40.513
-38.804
-36.957
-34.974
-32.858
-30.614
-28.246
-25.762
-23.167
-20.472
-17.685
-14.819
-11.887
-8.904
-5.885
-2.847
0.193
3.217
6.208
9.146
12.016
14.801
17.483
20.046
22.47
24.737
26.829
28.729
30.421
31.891
33.124
34.11
34.845
35.325
35.547
35.503
35.183
34.577
33.681
32.493
31.017
29.261
27.243
24.99
22.543
19.947
17.242
14.468
11.653
8.826
6.025
3.295
0.685
-1.752
-3.978
-5.961
-7.666
-9.083
-10.233
-11.166
-11.981
-12.773
-13.613
-14.576
-15.74
-17.193
-19.055
-21.431
-24.376
-27.991
-32.411
-37.694
-43.844
-50.662
-57.674
-64.41
-70.47
-75.342
-78.484
-79.5
-78.149
-74.782
-70.408
-65.928
-61.935
-59.223
-58.673
-60.708
-65.506
-71.209
-73.697
-70.757
-61.302
-45.569
-26.283
-0.745
37.668
94.338
175.273
277.563
388.878
496.871
588.412
656.733
705.237
737.626
755.332
755.452
726.429
657.91
546.64
395.936
220.575
38.37
-134.251
-281.636
-395.796
-472.519
-511.144
-516.344
-493.324
-448.365
-390.181
-327.761
-268.811
-220.836
-185.924
-160.648
-142.696
-128.41
-116.52
-110.331
-110.488
-116.228
-125.88
-134.979
-140.29
-140.856
-136.496
-128.072
-116.889
-103.979
-90.351
-77.371
-66.351
-57.946
-52.403
-49.626
-49.138
-50.48
-53.224
-56.779
-60.57
-64.25
-67.571
-70.365
-72.58
-74.147
-75.012
-75.205
-74.763
-73.708
-72.066
-69.869
-67.165
-64.043
-60.596
-56.907
-53.051
-49.103
-45.149
-41.3
-37.652
-34.268
-31.186
-28.42
-25.981
-23.877
-22.101
-20.621
-19.395
-18.376
-17.526
-16.814
-16.206
-15.662
-15.135
-14.573
-13.931
-13.178
-12.288
-11.238
-10.009
-8.58
-6.94
-5.088
-3.023
-0.741
1.764
4.5
7.47
10.675
14.112
17.777
21.667
25.778
30.105
34.64
39.373
44.293
49.391
54.656
60.073
65.625
71.296
77.064
82.907
88.806
94.735
100.672
106.591
112.468
118.28
124.001
129.609
135.079
140.386
145.507
150.421
155.103
159.534
163.692
167.557
171.112
174.34
177.225
179.752
181.909
183.684
185.068
186.053
186.634
186.808
186.572
185.926
184.874
183.419
181.569
179.329
176.711
173.726
170.385
166.705
162.7
158.387
153.784
148.911
143.789
138.438
132.882
127.142
121.242
115.207
109.061
102.828
96.533
90.201
83.855
77.521
71.222
64.981
58.821
52.762
46.826
41.03
35.394
29.934
24.664
19.599
14.75
10.129
5.744
1.603
-2.287
-5.923
-9.299
-12.416
-15.272
-17.869
-20.209
-22.297
-24.138
-25.738
-27.105
-28.247
-29.174
-29.896
-30.423
-30.769
-30.943
-30.961
-30.834
-30.576
-30.201
-29.722
-29.151
-28.502
-27.788
-27.021
-26.211
-25.371
-24.51
-23.639
-22.767
-21.903
-21.054
-20.229
-19.434
-18.674
-17.955
-17.281
-16.656
-16.083
-15.564
-15.102
-14.698
-14.352
-14.066
-13.84
-13.674
-13.566
-13.517
-13.526
-13.59
-13.709
-13.881
-14.105
-14.38
-14.703
-15.074
-15.493
-15.958
-16.469
-17.027
-17.629
-18.278
-18.972
-19.711
-20.498
-21.331
-22.211
-23.14
-24.119
-25.147
-26.225
-27.354
-28.533
-29.762
-31.039
-32.363
-33.733
-35.144
-36.595
-38.082
-39.602
-41.15
-42.721
-44.31
-45.91
-47.516
-49.121
-50.715
-52.292
-53.841
-55.355
-56.822
-58.235
-59.583
-60.856
-62.043
-63.133
-64.116
-64.981
-65.719
-66.318
-66.769
-67.063
-67.193
-67.151
-66.933
-66.533
-65.948
-65.175
-64.213
-63.065
-61.732
-60.218
-58.527
-56.667
-54.647
-52.477
-50.167
-47.731
-45.181
-42.535
-39.811
-37.03
-34.216
-31.392
-28.58
-25.808
-23.098
-20.472
-17.953
-15.561
-13.313
-11.231
-9.338
-7.653
-6.201
-4.999
-4.059
-3.39
-2.991
-2.857
-2.985
-3.37
-4.01
-4.915
-6.089
-7.539
-9.275
-11.298
-13.601
-16.168
-18.959
-21.932
-25.054
-28.306
-31.692
-35.211
-38.828
-42.494
-46.139
-49.686
-53.101
-56.316
-59.212
-61.759
-63.978
-66.011
-68.169
-70.604
-73.275
-76.143
-79.132
-82.1
-84.976
-87.414
-88.798
-89.028
-88.363
-87.169
-86.009
-85.151
-84.554
-84.563
-85.75
-87.991
-90.879
-93.856
-96.255
-98.336
-100.891
-104.341
-108.993
-115.477
-124.274
-135.697
-149.466
-163.678
-175.565
-182.097
-179.889
-165.475
-135.468
-88.111
-24.225
54.112
143.467
242.763
353.905
473.452
593.415
698.681
766.712
785.227
753.288
678.572
578.963
463.41
329.583
176.948
6.08
-169.517
-322.806
-436.079
-503.09
-530.841
-538.352
-534.81
-519.58
-489.495
-441.608
-384.536
-331.879
-293.799
-274.105
-266.591
-266.109
-268.487
-268.455
-265.085
-252.559
-226.327
-193.01
-160.435
-138.218
-134.778
-145.009
-158.646
-168.214
-167.082
-156.452
-142.835
-129.539
-119.011
-112.076
-107.103
-103.662
-101.941
-101.692
-102.928
-105.517
-108.979
-112.844
-116.655
-120.007
-122.623
-124.428
-125.475
-125.791
-125.414
-124.398
-122.79
-120.676
-118.155
-115.298
-112.15
-108.758
-105.164
-101.442
-97.697
-94.028
-90.53
-87.263
-84.255
-81.525
-79.082
-76.918
-75.018
-73.346
-71.854
-70.501
-69.254
-68.083
-66.962
-65.855
-64.716
-63.498
-62.15
-60.632
-58.918
-56.983
-54.806
-52.373
-49.675
-46.709
-43.482
-39.996
-36.249
-32.241
-27.969
-23.437
-18.648
-13.612
-8.338
-2.836
2.881
8.8
14.906
21.183
27.614
34.183
40.872
47.664
54.537
61.469
68.435
75.412
82.374
89.297
96.154
102.92
109.569
116.076
122.418
128.571
134.512
140.218
145.667
150.838
155.711
160.268
164.49
168.362
171.867
174.992
177.726
180.059
181.982
183.491
184.579
185.246
185.491
185.314
184.72
183.714
182.301
180.492
178.295
175.722
172.787
169.503
165.888
161.957
157.73
153.224
148.46
143.458
138.241
132.83
127.248
121.519
115.666
109.713
103.685
97.605
91.496
85.383
79.287
73.231
67.236
61.322
55.51
49.816
44.258
38.853
33.615
28.557
23.693
19.033
14.587
10.362
6.367
2.607
-0.913
-4.191
-7.224
-10.011
-12.553
-14.852
-16.91
-18.732
-20.322
-21.687
-22.833
-23.769
-24.502
-25.042
-25.399
-25.582
-25.601
-25.467
-25.19
-24.781
-24.251
-23.609
-22.867
-22.034
-21.119
-20.133
-19.084
-17.98
-16.831
-15.644
-14.426
-13.185
-11.927
-10.658
-9.384
-8.11
-6.84
-5.579
-4.329
-3.095
-1.878
-0.68
0.497
1.652
2.784
3.893
4.978
6.039
7.077
8.092
9.084
10.054
11.001
11.927
12.83
13.712
14.571
15.409
16.224
17.016
17.785
18.529
19.248
19.942
20.609
21.247
21.857
22.435
22.982
23.496
23.974
24.417
24.823
25.189
25.516
25.802
26.045
26.246
26.402
26.515
26.582
26.606
26.585
26.522
26.418
26.274
26.094
25.881
25.638
25.369
25.079
24.772
24.452
24.127
23.8
23.48
23.171
22.881
22.617
22.385
22.192
22.044
21.949
21.911
21.937
22.033
22.203
22.451
22.782
23.198
23.703
24.299
24.985
25.763
26.629
27.582
28.617
29.729
30.911
32.153
33.447
34.782
36.145
37.524
38.907
40.278
41.625
42.935
44.193
45.384
46.494
47.506
48.405
49.176
49.804
50.276
50.579
50.703
50.644
50.397
49.958
49.322
48.479
47.421
46.145
44.652
42.943
41.026
38.914
36.632
34.214
31.7
29.124
26.517
23.905
21.313
18.772
16.32
14
11.854
9.915
8.211
6.776
5.622
4.735
4.071
3.549
3.09
2.636
2.127
1.497
0.672
-0.44
-1.932
-3.858
-6.308
-9.401
-13.206
-17.737
-22.845
-28.155
-33.219
-37.591
-40.769
-42.236
-41.581
-38.552
-33.395
-26.917
-20.119
-14.027
-9.578
-7.599
-8.72
-13.138
-20.032
-27.471
-32.9
-33.508
-26.462
-8.899
21.8
67.903
129.315
202.793
284.431
369.571
455.805
544.557
633.994
717.813
784.566
816.521
801.337
736.584
627.727
488.316
330.15
160.976
-10.196
-172.51
-309.843
-406.028
-454.459
-458.9
-433.434
-394.999
-353.615
-313.107
-271.946
-227.475
-181.689
-138.872
-103.97
-80.829
-69.463
-67.918
-73.821
-84.172
-96.497
-108.642
-118.005
-123.025
-123.377
-119.245
-111.543
-101.57
-90.441
-79.41
-69.944
-62.85
-58.375
-56.504
-56.768
-58.598
-61.496
-64.847
-68.038
-70.745
-72.816
-74.191
-74.924
-75.011
-74.434
-73.25
-71.526
-69.307
-66.631
-63.528
-60.056
-56.336
-52.529
-48.771
-45.155
-41.733
-38.536
-35.596
-32.95
-30.628
-28.631
-26.948
-25.574
-24.503
-23.735
-23.253
-23.019
-22.971
-23.04
-23.17
-23.316
-23.446
-23.529
-23.539
-23.451
-23.249
-22.924
-22.468
-21.864
-21.096
-20.143
-18.992
-17.633
-16.063
-14.279
-12.277
-10.055
-7.61
-4.942
-2.052
1.06
4.396
7.955
11.736
15.731
19.933
24.33
28.911
33.66
38.563
43.601
48.755
54.006
59.334
64.718
70.136
75.566
80.984
86.369
91.695
96.941
102.081
107.093
111.954
116.643
121.136
125.415
129.458
133.247
136.763
139.991
142.915
145.521
147.794
149.723
151.299
152.512
153.356
153.825
153.917
153.628
152.96
151.915
150.496
148.708
146.558
144.055
141.207
138.027
134.528
130.723
126.629
122.262
117.639
112.78
107.703
102.43
96.98
91.374
85.635
79.784
73.844
67.837
61.784
55.707
49.629
43.57
37.552
31.593
25.714
19.932
14.266
8.733
3.348
-1.875
-6.921
-11.779
-16.436
-20.885
-25.117
-29.124
-32.902
-36.447
-39.756
-42.827
-45.661
-48.258
-50.621
-52.753
-54.658
-56.341
-57.809
-59.069
-60.129
-60.996
-61.68
-62.189
-62.534
-62.724
-62.768
-62.678
-62.462
-62.133
-61.7
-61.174
-60.566
-59.886
-59.145
-58.352
-57.517
-56.649
-55.756
-54.847
-53.928
-53.007
-52.089
-51.182
-50.289
-49.416
-48.567
-47.746
-46.954
-46.195
-45.47
-44.781
-44.13
-43.516
-42.943
-42.41
-41.92
-41.473
-41.071
-40.716
-40.409
-40.149
-39.939
-39.777
-39.665
-39.602
-39.587
-39.621
-39.703
-39.834
-40.012
-40.238
-40.513
-40.836
-41.206
-41.624
-42.09
-42.605
-43.168
-43.78
-44.442
-45.155
-45.92
-46.737
-47.607
-48.528
-49.501
-50.521
-51.586
-52.693
-53.833
-55.002
-56.193
-57.399
-58.615
-59.833
-61.048
-62.254
-63.445
-64.616
-65.762
-66.876
-67.946
-68.965
-69.923
-70.81
-71.616
-72.329
-72.936
-73.427
-73.797
-74.035
-74.133
-74.079
-73.854
-73.447
-72.854
-72.073
-71.106
-69.958
-68.634
-67.153
-65.543
-63.834
-62.053
-60.215
-58.318
-56.368
-54.373
-52.34
-50.284
-48.202
-46.072
-43.878
-41.613
-39.264
-36.822
-34.253
-31.496
-28.506
-25.257
-21.745
-18.007
-14.076
-9.979
-5.761
-1.475
2.798
6.944
10.871
14.51
17.79
20.642
22.975
24.663
25.611
25.758
25.08
23.595
21.335
18.325
14.615
10.299
5.495
0.355
-4.981
-10.428
-15.91
-21.323
-26.567
-31.563
-36.224
-40.498
-44.355
-47.742
-50.637
-53.099
-55.171
-56.788
-57.936
-58.945
-60.18
-61.922
-64.583
-67.216
-68.895
-70.78
-73.031
-77.644
-86.61
-95.782
-102.624
-103.795
-94.989
-80.624
-64.491
-49.546
-40.954
-37.546
-37.461
-40.455
-44.817
-50.791
-58.74
-67.787
-76.826
-83.756
-86.83
-83.996
-71.983
-50.161
-19.284
18.775
58.879
101.417
151.68
214.695
296.061
391.151
486.706
570.604
633.874
677.816
708.87
729.121
731.653
700.766
622.372
489.889
314.308
121.217
-62.413
-210.422
-313.304
-377.742
-414.003
-435.806
-446.016
-437.757
-407.078
-354.104
-290.08
-232.126
-191.528
-171.007
-163.394
-159.025
-152.442
-143.691
-137.894
-138.34
-144.65
-154.196
-162.16
-165.844
-165.12
-160.313
-152.477
-142.734
-131.815
-120.828
-111.229
-103.796
-98.74
-96.083
-95.498
-96.575
-98.978
-102.15
-105.369
-108.22
-110.515
-112.157
-113.21
-113.669
-113.44
-112.526
-110.986
-108.854
-106.186
-103.01
-99.326
-95.202
-90.761
-86.137
-81.491
-76.928
-72.497
-68.247
-64.214
-60.433
-56.949
-53.777
-50.905
-48.325
-46.029
-44.008
-42.257
-40.743
-39.417
-38.22
-37.09
-35.981
-34.862
-33.706
-32.486
-31.183
-29.775
-28.249
-26.604
-24.831
-22.918
-20.85
-18.614
-16.199
-13.605
-10.83
-7.873
-4.734
-1.411
2.094
5.779
9.642
13.681
17.894
22.278
26.829
31.537
36.392
41.381
46.491
51.707
57.012
62.388
67.817
73.279
78.756
84.227
89.674
95.074
100.407
105.653
110.791
115.799
120.657
125.343
129.838
134.122
138.176
141.982
145.522
148.781
151.744
154.397
156.728
158.725
160.378
161.679
162.621
163.199
163.41
163.251
162.722
161.826
160.564
158.943
156.969
154.649
151.994
149.014
145.721
142.13
138.254
134.11
129.715
125.088
120.248
115.216
110.012
104.659
99.179
93.594
87.928
82.204
76.445
70.674
64.913
59.186
53.514
47.918
42.418
37.034
31.785
26.688
21.76
17.015
12.469
8.132
4.016
0.131
-3.515
-6.916
-10.066
-12.962
-15.602
-17.985
-20.113
-21.987
-23.611
-24.99
-26.131
-27.041
-27.728
-28.203
-28.477
-28.56
-28.464
-28.203
-27.79
-27.237
-26.559
-25.77
-24.884
-23.914
-22.875
-21.78
-20.643
-19.476
-18.293
-17.105
-15.924
-14.76
-13.623
-12.523
-11.468
-10.466
-9.523
-8.646
-7.84
-7.109
-6.458
-5.888
-5.403
-5.003
-4.689
-4.461
-4.318
-4.259
-4.282
-4.386
-4.567
-4.823
-5.149
-5.544
-6.003
-6.521
-7.097
-7.724
-8.399
-9.119
-9.878
-10.673
-11.501
-12.356
-13.236
-14.138
-15.058
-15.994
-16.942
-17.9
-18.865
-19.835
-20.808
-21.782
-22.753
-23.72
-24.681
-25.634
-26.576
-27.505
-28.418
-29.315
-30.191
-31.045
-31.874
-32.675
-33.444
-34.18
-34.877
-35.533
-36.144
-36.705
-37.213
-37.663
-38.052
-38.374
-38.626
-38.803
-38.899
-38.912
-38.836
-38.667
-38.4
-38.032
-37.56
-36.981
-36.293
-35.494
-34.583
-33.56
-32.425
-31.18
-29.826
-28.367
-26.806
-25.147
-23.396
-21.561
-19.648
-17.667
-15.627
-13.542
-11.425
-9.289
-7.15
-5.023
-2.924
-0.87
1.122
3.038
4.864
6.585
8.185
9.648
10.957
12.098
13.058
13.824
14.386
14.733
14.856
14.757
14.433
13.885
13.108
12.09
10.824
9.31
7.549
5.548
3.32
0.882
-1.741
-4.507
-7.373
-10.295
-13.234
-16.161
-19.044
-21.84
-24.498
-26.958
-29.161
-31.074
-32.663
-33.898
-34.785
-35.342
-35.623
-35.725
-35.733
-35.723
-35.796
-36.045
-36.571
-37.492
-38.878
-40.819
-43.473
-46.921
-51.164
-56.073
-61.312
-66.53
-71.454
-75.709
-78.772
-80.207
-79.739
-77.545
-74.267
-70.469
-66.677
-63.472
-61.581
-62.03
-64.497
-66.69
-66.344
-61.12
-51.817
-42.983
-35.166
-25.474
-6.03
35.939
105.705
201.335
315.649
436.842
556.505
667.188
759.324
820.204
836.784
804.62
727.197
617.33
489.34
347.167
194.292
34.351
-124.125
-260.166
-359.12
-415.865
-434.826
-433.095
-422.291
-406.447
-386.234
-357.156
-319.114
-276.864
-234.827
-197.906
-169.275
-149.387
-137.656
-132.756
-132.803
-135.901
-140.631
-145.698
-149.425
-150.468
-148.291
-142.937
-135.132
-125.893
-115.933
-105.933
-96.847
-89.587
-84.669
-82.233
-82.012
-83.517
-86.334
-90.075
-94.286
-98.474
-102.252
-105.375
-107.713
-109.258
-110.025
-110.013
-109.246
-107.775
-105.647
-102.922
-99.687
-96.016
-91.993
-87.73
-83.316
-78.857
-74.472
-70.256
-66.284
-62.616
-59.271
-56.261
-53.6
-51.287
-49.306
-47.635
-46.234
-45.066
-44.102
-43.306
-42.637
-42.051
-41.489
-40.907
-40.272
-39.555
-38.734
-37.788
-36.696
-35.443
-34.022
-32.424
-30.64
-28.659
-26.468
-24.056
-21.415
-18.542
-15.435
-12.091
-8.507
-4.68
-0.614
3.692
8.231
13.001
17.997
23.212
28.634
34.25
40.045
46.003
52.104
58.33
64.657
71.063
77.525
84.018
90.518
97
103.439
109.806
116.077
122.224
128.221
134.041
139.658
145.045
150.178
155.032
159.585
163.815
167.703
171.228
174.374
177.127
179.473
181.401
182.902
183.968
184.594
184.779
184.521
183.823
182.689
181.125
179.14
176.743
173.948
170.769
167.22
163.319
159.085
154.538
149.7
144.594
139.244
133.675
127.913
121.986
115.92
109.744
103.484
97.168
90.824
84.479
78.158
71.888
65.694
59.598
53.624
47.794
42.126
36.64
31.351
26.275
21.425
16.813
12.446
8.334
4.482
0.895
-2.425
-5.476
-8.26
-10.778
-13.034
-15.033
-16.783
-18.291
-19.567
-20.62
-21.463
-22.107
-22.565
-22.851
-22.979
-22.964
-22.82
-22.561
-22.204
-21.763
-21.253
-20.688
-20.082
-19.447
-18.798
-18.145
-17.499
-16.869
-16.266
-15.697
-15.169
-14.69
-14.264
-13.896
-13.59
-13.349
-13.176
-13.071
-13.035
-13.068
-13.17
-13.338
-13.571
-13.867
-14.223
-14.635
-15.101
-15.615
-16.175
-16.775
-17.411
-18.079
-18.773
-19.49
-20.225
-20.975
-21.734
-22.501
-23.273
-24.046
-24.819
-25.59
-26.357
-27.119
-27.876
-28.627
-29.371
-30.108
-30.838
-31.56
-32.275
-32.983
-33.683
-34.375
-35.058
-35.732
-36.396
-37.049
-37.689
-38.315
-38.926
-39.519
-40.092
-40.642
-41.166
-41.661
-42.123
-42.548
-42.932
-43.268
-43.553
-43.781
-43.945
-44.04
-44.059
-43.997
-43.846
-43.602
-43.257
-42.806
-42.244
-41.567
-40.77
-39.85
-38.804
-37.631
-36.331
-34.902
-33.348
-31.669
-29.871
-27.956
-25.933
-23.807
-21.588
-19.285
-16.91
-14.476
-11.998
-9.491
-6.971
-4.456
-1.963
0.49
2.887
5.209
7.441
9.565
11.562
13.413
15.101
16.609
17.921
19.023
19.899
20.541
20.943
21.101
21.012
20.672
20.07
19.198
18.057
16.648
14.976
13.054
10.899
8.539
6.013
3.365
0.632
-2.148
-4.952
-7.749
-10.504
-13.175
-15.712
-18.064
-20.198
-22.086
-23.696
-25.023
-26.086
-26.933
-27.653
-28.335
-29.034
-29.813
-30.734
-31.862
-33.297
-35.14
-37.448
-40.305
-43.819
-48.029
-52.91
-58.286
-63.738
-68.777
-72.987
-75.938
-77.165
-76.35
-73.374
-68.546
-62.72
-56.956
-52.045
-48.461
-46.904
-48.003
-51.693
-57.222
-62.031
-61.803
-54.238
-38.58
-15.133
13.098
47.158
91.291
148.97
225.039
318.603
422.387
527.914
624.022
699.231
745.266
755.44
724.513
653.879
547.603
409.334
248.301
74.34
-100.279
-255.322
-374.518
-450.08
-482.355
-484.402
-472.369
-454.863
-435.217
-411.325
-378.493
-337.598
-292.842
-248.84
-210.945
-181.853
-161.787
-150.161
-145.434
-145.792
-149.631
-155.362
-161.21
-165.431
-166.593
-164.011
-157.817
-148.641
-137.34
-124.797
-111.956
-99.872
-89.568
-81.613
-76.123
-72.925
-71.657
-71.946
-73.434
-75.69
-78.251
-80.819
-83.212
-85.3
-87.026
-88.303
-89.048
-89.244
-88.902
-88.036
-86.662
-84.805
-82.499
-79.803
-76.791
-73.515
-70.025
-66.361
-62.577
-58.752
-54.972
-51.326
-47.878
-44.665
-41.717
-39.046
-36.65
-34.514
-32.606
-30.885
-29.312
-27.859
-26.498
-25.21
-23.964
-22.726
-21.455
-20.104
-18.636
-17.022
-15.236
-13.258
-11.073
-8.672
-6.051
-3.216
-0.168
3.096
6.574
10.273
14.19
18.324
22.669
27.218
31.96
36.888
41.989
47.251
52.66
58.202
63.861
69.625
75.477
81.397
87.366
93.361
99.359
105.338
111.273
117.14
122.914
128.571
134.088
139.442
144.611
149.572
154.305
158.789
163.004
166.931
170.553
173.855
176.82
179.436
181.691
183.574
185.078
186.196
186.923
187.257
187.196
186.744
185.901
184.675
183.07
181.097
178.766
176.089
173.081
169.757
166.133
162.228
158.062
153.653
149.023
144.193
139.185
134.022
128.726
123.32
117.827
112.271
106.674
101.058
95.445
89.858
84.316
78.84
73.447
68.157
62.985
57.947
53.058
48.331
43.776
39.404
35.224
31.243
27.465
23.897
20.539
17.394
14.462
11.742
9.231
6.926
4.823
2.918
1.203
-0.327
-1.681
-2.866
-3.891
-4.764
-5.495
-6.094
-6.57
-6.932
-7.191
-7.355
-7.435
-7.439
-7.377
-7.258
-7.089
-6.88
-6.637
-6.368
-6.079
-5.777
-5.467
-5.154
-4.842
-4.537
-4.241
-3.957
-3.689
-3.439
-3.208
-2.999
-2.813
-2.652
-2.516
-2.406
-2.322
-2.266
-2.237
-2.236
-2.263
-2.318
-2.402
-2.515
-2.657
-2.828
-3.028
-3.257
-3.516
-3.805
-4.124
-4.472
-4.85
-5.258
-5.696
-6.164
-6.662
-7.191
-7.751
-8.341
-8.961
-9.612
-10.291
-10.999
-11.735
-12.498
-13.287
-14.099
-14.934
-15.789
-16.662
-17.551
-18.452
-19.363
-20.28
-21.198
-22.114
-23.022
-23.919
-24.798
-25.655
-26.484
-27.281
-28.038
-28.752
-29.416
-30.023
-30.569
-31.048
-31.453
-31.779
-32.02
-32.17
-32.224
-32.178
-32.028
-31.767
-31.395
-30.905
-30.297
-29.568
-28.717
-27.741
-26.642
-25.421
-24.079
-22.62
-21.049
-19.371
-17.593
-15.725
-13.776
-11.755
-9.675
-7.548
-5.387
-3.206
-1.018
1.164
3.325
5.449
7.52
9.523
11.44
13.256
14.953
16.514
17.922
19.162
20.22
21.087
21.751
22.202
22.429
22.417
22.156
21.644
20.877
19.857
18.589
17.084
15.364
13.466
11.425
9.275
7.049
4.768
2.463
0.166
-2.086
-4.25
-6.293
-8.196
-9.933
-11.486
-12.851
-14.033
-15.077
-16.073
-17.104
-18.254
-19.601
-21.186
-23.075
-25.354
-28.095
-31.387
-35.289
-39.813
-45.011
-50.959
-57.644
-64.975
-72.685
-80.278
-87.282
-93.282
-97.793
-100.324
-100.474
-97.995
-93.1
-86.479
-78.902
-71.099
-63.778
-57.633
-53.242
-50.84
-49.834
-48.755
-45.724
-38.757
-25.772
-4.479
27.309
71.504
128.031
194.201
266.676
341.461
416.527
492.715
569.148
642.408
703.985
740.247
737.981
687.506
587.124
441.765
262.737
68.285
-122.711
-288.537
-411.274
-487.097
-520.751
-525.711
-517.267
-498.337
-465.407
-414.746
-345.772
-270.342
-205.013
-160.118
-138.3
-131.706
-129.354
-125.426
-119.769
-116.762
-119.639
-127.93
-138.304
-146.229
-149.598
-148.543
-143.895
-136.998
-128.845
-120.102
-111.967
-105.666
-101.721
-100.205
-100.817
-102.986
-106.219
-110.106
-114.118
-117.716
-120.583
-122.528
-123.496
-123.562
-122.776
-121.177
-118.842
-115.852
-112.285
-108.245
-103.842
-99.194
-94.449
-89.727
-85.117
-80.695
-76.523
-72.657
-69.146
-66.009
-63.243
-60.838
-58.787
-57.086
-55.721
-54.655
-53.836
-53.205
-52.697
-52.262
-51.861
-51.455
-51.012
-50.505
-49.909
-49.211
-48.404
-47.477
-46.414
-45.198
-43.81
-42.242
-40.484
-38.53
-36.376
-34.013
-31.435
-28.64
-25.623
-22.38
-18.907
-15.201
-11.259
-7.083
-2.677
1.951
6.792
11.836
17.068
22.474
28.036
33.736
39.555
45.474
51.471
57.525
63.612
69.708
75.789
81.831
87.809
93.696
99.467
105.099
110.565
115.842
120.906
125.733
130.303
134.592
138.582
142.254
145.589
148.573
151.189
153.427
155.275
156.724
157.767
158.399
158.617
158.42
157.81
156.788
155.359
153.53
151.309
148.706
145.733
142.404
138.735
134.742
130.443
125.858
121.007
115.913
110.598
105.085
99.398
93.562
87.602
81.543
75.411
69.23
63.027
56.825
50.65
44.524
38.472
32.514
26.672
20.966
15.416
10.039
4.851
-0.132
-4.897
-9.432
-13.727
-17.772
-21.562
-25.092
-28.357
-31.356
-34.089
-36.557
-38.763
-40.71
-42.405
-43.852
-45.06
-46.038
-46.794
-47.339
-47.685
-47.843
-47.826
-47.645
-47.315
-46.848
-46.259
-45.561
-44.768
-43.893
-42.95
-41.953
-40.915
-39.848
-38.765
-37.678
-36.596
-35.531
-34.49
-33.481
-32.513
-31.591
-30.721
-29.907
-29.153
-28.464
-27.841
-27.287
-26.803
-26.39
-26.049
-25.779
-25.581
-25.453
-25.394
-25.402
-25.477
-25.616
-25.816
-26.075
-26.391
-26.761
-27.18
-27.647
-28.156
-28.705
-29.289
-29.907
-30.554
-31.227
-31.925
-32.645
-33.386
-34.145
-34.921
-35.713
-36.52
-37.339
-38.17
-39.01
-39.858
-40.713
-41.571
-42.431
-43.289
-44.144
-44.992
-45.829
-46.65
-47.452
-48.23
-48.979
-49.693
-50.367
-50.995
-51.574
-52.096
-52.558
-52.953
-53.275
-53.519
-53.678
-53.746
-53.716
-53.582
-53.336
-52.973
-52.487
-51.871
-51.121
-50.233
-49.201
-48.024
-46.698
-45.223
-43.598
-41.824
-39.903
-37.839
-35.636
-33.302
-30.845
-28.273
-25.597
-22.832
-19.991
-17.09
-14.143
-11.169
-8.185
-5.21
-2.263
0.64
3.478
6.234
8.888
11.418
13.803
16.023
18.055
19.882
21.485
22.846
23.953
24.795
25.365
25.656
25.66
25.363
24.756
23.833
22.592
21.037
19.175
17.024
14.61
11.971
9.144
6.168
3.077
-0.104
-3.342
-6.606
-9.854
-13.03
-16.088
-18.981
-21.664
-24.103
-26.277
-28.192
-29.883
-31.419
-32.86
-34.256
-35.667
-37.148
-38.782
-40.659
-42.876
-45.517
-48.697
-52.572
-57.204
-62.567
-68.492
-74.596
-80.484
-85.778
-89.998
-92.658
-93.518
-92.495
-89.887
-86.534
-83.144
-80.364
-79.006
-79.484
-81.735
-85.693
-90.59
-94.551
-95.988
-92.004
-78.341
-53.709
-17.826
28.045
78.891
135.128
200.333
275.399
363.273
459.13
551.88
636.714
707.904
761.089
794.639
798.29
760.004
675.126
543.504
374.085
185.787
-4.297
-179.551
-323.22
-427.986
-491.775
-516.45
-510.351
-480.651
-432.862
-375.153
-316.452
-265.04
-227.609
-204.345
-189.297
-177.081
-164.58
-152.321
-144.782
-144.285
-149.717
-158.414
-166.036
-169.485
-168.198
-162.492
-153.241
-141.635
-128.674
-115.332
-102.898
-92.528
-84.753
-79.737
-77.34
-77.117
-78.629
-81.435
-84.966
-88.715
-92.371
-95.724
-98.644
-101.031
-102.781
-103.828
-104.167
-103.828
-102.83
-101.181
-98.904
-96.055
-92.718
-88.998
-84.992
-80.762
-76.372
-71.898
-67.431
-63.093
-58.97
-55.111
-51.547
-48.293
-45.36
-42.757
-40.469
-38.452
-36.662
-35.059
-33.606
-32.283
-31.061
-29.9
-28.759
-27.586
-26.342
-24.999
-23.533
-21.921
-20.145
-18.185
-16.035
-13.696
-11.168
-8.447
-5.528
-2.404
0.929
4.469
8.213
12.159
16.302
20.639
25.163
29.865
34.735
39.765
44.944
50.261
55.704
61.258
66.905
72.627
78.403
84.214
90.038
95.851
101.632
107.356
113.001
118.545
123.963
129.234
134.335
139.243
143.938
148.398
152.603
156.535
160.175
163.506
166.514
169.183
171.501
173.456
175.039
176.241
177.057
177.481
177.511
177.145
176.384
175.232
173.693
171.772
169.478
166.821
163.812
160.464
156.791
152.811
148.54
143.996
139.2
134.171
128.932
123.504
117.91
112.173
106.318
100.369
94.349
88.282
82.194
76.106
70.044
64.03
58.085
52.232
46.49
40.879
35.418
30.124
25.012
20.097
15.391
10.907
6.654
2.641
-1.126
-4.641
-7.902
-10.905
-13.65
-16.139
-18.373
-20.357
-22.096
-23.595
-24.862
-25.906
-26.735
-27.361
-27.792
-28.042
-28.123
-28.045
-27.824
-27.471
-27
-26.424
-25.756
-25.01
-24.198
-23.332
-22.425
-21.488
-20.532
-19.566
-18.6
-17.643
-16.703
-15.786
-14.901
-14.051
-13.242
-12.477
-11.76
-11.093
-10.477
-9.914
-9.403
-8.946
-8.541
-8.188
-7.885
-7.631
-7.426
-7.267
-7.151
-7.077
-7.042
-7.042
-7.076
-7.14
-7.231
-7.347
-7.486
-7.646
-7.825
-8.023
-8.237
-8.467
-8.712
-8.971
-9.243
-9.53
-9.83
-10.144
-10.473
-10.819
-11.182
-11.563
-11.963
-12.383
-12.821
-13.277
-13.751
-14.238
-14.736
-15.242
-15.753
-16.268
-16.782
-17.294
-17.802
-18.304
-18.8
-19.284
-19.754
-20.202
-20.622
-21.005
-21.344
-21.628
-21.847
-21.995
-22.062
-22.043
-21.935
-21.731
-21.424
-21.004
-20.455
-19.77
-18.947
-17.981
-16.876
-15.641
-14.293
-12.858
-11.369
-9.843
-8.295
-6.728
-5.134
-3.508
-1.846
-0.139
1.606
3.385
5.199
7.038
8.898
10.793
12.742
14.792
17.002
19.398
21.986
24.756
27.66
30.65
33.667
36.623
39.454
42.105
44.517
46.663
48.518
50.028
51.136
51.753
51.761
51.09
49.702
47.572
44.732
41.228
37.13
32.564
27.657
22.511
17.226
11.873
6.496
1.182
-3.975
-8.865
-13.335
-17.269
-20.591
-23.229
-25.159
-26.396
-26.982
-27.027
-26.67
-26.032
-25.242
-24.417
-23.657
-23.092
-22.841
-23.05
-23.947
-25.668
-28.242
-31.597
-35.448
-39.47
-43.38
-46.75
-49.027
-49.852
-49.006
-46.621
-43.442
-40.166
-37.422
-35.957
-36.324
-38.856
-43.698
-50.19
-56.644
-61.168
-61.459
-55.015
-39.873
-13.832
25.214
78.168
145.114
224.154
310.341
398.757
484.768
565.249
641.383
712.406
772.84
813.586
820.121
779.973
690.618
556.54
388.725
203.917
16.823
-157.567
-301.999
-405.638
-464.324
-481.292
-469.741
-443.215
-409.531
-372.67
-331.572
-284.428
-234.279
-185.686
-143.583
-112.579
-93.543
-85.025
-85.119
-91.041
-99.994
-109.791
-117.982
-122.389
-122.143
-117.244
-108.306
-96.55
-83.3
-69.715
-57.135
-46.849
-39.463
-35.143
-33.735
-34.725
-37.576
-41.816
-46.856
-52.106
-57.204
-61.879
-65.919
-69.26
-71.838
-73.596
-74.562
-74.766
-74.22
-72.961
-71.039
-68.511
-65.473
-62.026
-58.251
-54.246
-50.101
-45.922
-41.844
-37.966
-34.35
-31.04
-28.051
-25.398
-23.093
-21.122
-19.446
-18.023
-16.811
-15.771
-14.877
-14.094
-13.376
-12.678
-11.945
-11.137
-10.224
-9.182
-7.991
-6.632
-5.09
-3.356
-1.435
0.675
2.976
5.472
8.173
11.079
14.19
17.502
21.013
24.718
28.614
32.695
36.951
41.375
45.956
50.685
55.553
60.546
65.65
70.848
76.12
81.448
86.812
92.19
97.56
102.898
108.181
113.388
118.495
123.48
128.318
132.988
137.467
141.732
145.763
149.537
153.036
156.24
159.132
161.694
163.913
165.775
167.268
168.381
169.108
169.44
169.374
168.907
168.037
166.766
165.095
163.029
160.575
157.74
154.534
150.968
147.055
142.811
138.251
133.392
128.252
122.853
117.213
111.357
105.306
99.083
92.714
86.223
79.636
72.977
66.272
59.546
52.824
46.129
39.486
32.918
26.446
20.091
13.874
7.813
1.925
-3.772
-9.264
-14.537
-19.579
-24.38
-28.931
-33.223
-37.251
-41.011
-44.5
-47.716
-50.66
-53.334
-55.74
-57.884
-59.771
-61.409
-62.805
-63.97
-64.914
-65.648
-66.184
-66.535
-66.714
-66.735
-66.611
-66.356
-65.984
-65.509
-64.944
-64.303
-63.599
-62.843
-62.05
-61.23
-60.394
-59.555
-58.72
-57.901
-57.105
-56.342
-55.617
-54.938
-54.31
-53.738
-53.228
-52.782
-52.404
-52.095
-51.858
-51.694
-51.602
-51.583
-51.635
-51.758
-51.949
-52.208
-52.53
-52.915
-53.359
-53.86
-54.415
-55.021
-55.676
-56.377
-57.122
-57.906
-58.728
-59.585
-60.474
-61.392
-62.336
-63.305
-64.295
-65.304
-66.33
-67.369
-68.42
-69.479
-70.543
-71.61
-72.676
-73.738
-74.794
-75.839
-76.872
-77.889
-78.886
-79.86
-80.808
-81.725
-82.608
-83.45
-84.249
-84.998
-85.691
-86.324
-86.891
-87.387
-87.805
-88.142
-88.39
-88.546
-88.602
-88.555
-88.4
-88.132
-87.746
-87.238
-86.606
-85.847
-84.961
-83.944
-82.797
-81.52
-80.113
-78.579
-76.92
-75.139
-73.24
-71.229
-69.111
-66.895
-64.59
-62.205
-59.752
-57.245
-54.697
-52.126
-49.545
-46.973
-44.426
-41.922
-39.478
-37.11
-34.836
-32.671
-30.63
-28.733
-26.997
-25.437
-24.069
-22.907
-21.963
-21.251
-20.778
-20.55
-20.567
-20.833
-21.351
-22.132
-23.183
-24.505
-26.092
-27.94
-30.035
-32.36
-34.886
-37.571
-40.372
-43.247
-46.16
-49.085
-51.995
-54.851
-57.607
-60.212
-62.615
-64.787
-66.705
-68.337
-69.671
-70.732
-71.566
-72.275
-72.955
-73.661
-74.454
-75.399
-76.567
-78.077
-80.034
-82.483
-85.497
-89.165
-93.521
-98.579
-104.178
-109.878
-115.215
-119.8
-123.203
-125.013
-124.91
-122.65
-118.468
-113.233
-107.841
-102.878
-98.969
-96.841
-97.016
-99.886
-103.774
-104.74
-99.741
-87.309
-69.829
-51.807
-32.97
-7.833
34.273
102.922
196.858
306.209
414.63
508.62
585.737
645.952
689.797
712.322
700.068
645.204
547.238
412.152
253.27
83.561
-86.003
-241.217
-366.474
-452.487
-496.024
-503.821
-492.125
-471.596
-447.293
-420.269
-385.916
-344.244
-299.528
-255.825
-218.229
-189.431
-169.294
-157.017
-151.06
-149.612
-151.172
-154.396
-157.873
-160.266
-160.454
-157.965
-153.028
-146.232
-138.31
-129.927
-121.707
-114.39
-108.777
-105.284
-103.896
-104.35
-106.181
-108.926
-112.226
-115.664
-118.776
-121.251
-122.897
-123.623
-123.472
-122.492
-120.703
-118.165
-114.961
-111.164
-106.871
-102.193
-97.234
-92.125
-86.999
-81.956
-77.079
-72.437
-68.085
-64.066
-60.401
-57.087
-54.11
-51.458
-49.119
-47.075
-45.296
-43.735
-42.342
-41.061
-39.835
-38.617
-37.365
-36.043
-34.624
-33.084
-31.406
-29.582
-27.604
-25.462
-23.146
-20.643
-17.943
-15.038
-11.925
-8.598
-5.057
-1.302
2.668
6.851
11.246
15.85
20.662
25.676
30.89
36.294
41.88
47.634
53.543
59.588
65.753
72.018
78.363
84.765
91.202
97.654
104.096
110.507
116.862
123.14
129.315
135.365
141.266
146.996
152.531
157.849
162.929
167.749
172.291
176.536
180.468
184.07
187.329
190.231
192.766
194.924
196.699
198.083
199.074
199.669
199.868
199.673
199.088
198.119
196.772
195.058
192.985
190.566
187.814
184.743
181.368
177.706
173.774
169.591
165.177
160.551
155.736
150.753
145.625
140.373
135.021
129.592
124.107
118.59
113.062
107.544
102.059
96.625
91.263
85.991
80.826
75.785
70.884
66.135
61.551
57.144
52.923
48.897
45.072
41.456
38.052
34.864
31.894
29.144
26.612
24.297
22.196
20.305
18.619
17.132
15.836
14.724
13.787
13.016
12.402
11.935
11.604
11.398
11.307
11.319
11.424
11.61
11.867
12.185
12.553
12.963
13.404
13.87
14.351
14.841
15.331
15.816
16.29
16.747
17.182
17.591
17.97
18.317
18.628
18.904
19.142
19.341
19.503
19.626
19.712
19.76
19.772
19.748
19.691
19.601
19.481
19.331
19.153
18.949
18.72
18.468
18.193
17.895
17.575
17.233
16.868
16.482
16.073
15.641
15.185
14.706
14.202
13.673
13.118
12.535
11.922
11.279
10.605
9.897
9.156
8.38
7.569
6.723
5.844
4.931
3.985
3.008
2.003
0.972
-0.08
-1.152
-2.241
-3.341
-4.447
-5.554
-6.655
-7.745
-8.817
-9.863
-10.872
-11.835
-12.744
-13.591
-14.368
-15.066
-15.676
-16.19
-16.601
-16.906
-17.097
-17.165
-17.098
-16.883
-16.519
-16.012
-15.368
-14.586
-13.672
-12.63
-11.47
-10.211
-8.858
-7.406
-5.848
-4.178
-2.404
-0.551
1.362
3.31
5.282
7.284
9.309
11.338
13.365
15.392
17.422
19.479
21.544
23.559
25.474
27.237
28.814
30.203
31.385
32.342
33.055
33.492
33.636
33.488
33.017
32.182
30.941
29.236
27.067
24.495
21.575
18.367
14.933
11.31
7.547
3.706
-0.171
-4.044
-7.875
-11.634
-15.259
-18.665
-21.776
-24.514
-26.835
-28.764
-30.344
-31.636
-32.736
-33.728
-34.679
-35.673
-36.785
-38.076
-39.631
-41.535
-43.852
-46.702
-50.247
-54.571
-59.669
-65.35
-71.178
-76.665
-81.365
-84.768
-86.347
-85.742
-82.814
-77.938
-72.064
-66.265
-61.488
-58.51
-57.978
-60.257
-65.215
-71.787
-77.87
-80.739
-77.684
-66.439
-44.657
-10.206
38.245
101.299
177.102
260.901
347.975
433.635
514.321
590.458
660.999
721.084
763.839
777.134
748.95
675.489
558.04
404.049
228.788
46.758
-126.243
-271.328
-377
-438.957
-460.48
-455.421
-437.553
-414.037
-387.514
-355.501
-314.706
-267.128
-217.144
-169.574
-129.531
-99.291
-79.08
-68.418
-65.796
-69.446
-77.731
-88.803
-100.526
-110.932
-118.431
-122.262
-122.55
-119.828
-114.797
-108.248
-101.117
-94.46
-89.282
-86.079
-84.786
-85.079
-86.513
-88.679
-91.235
-93.77
-95.809
-97.044
-97.365
-96.783
-95.41
-93.349
-90.639
-87.345
-83.582
-79.466
-75.129
-70.711
-66.297
-61.958
-57.762
-53.76
-50.006
-46.556
-43.431
-40.632
-38.155
-35.987
-34.123
-32.564
-31.288
-30.254
-29.408
-28.689
-28.048
-27.448
-26.853
-26.233
-25.555
-24.792
-23.926
-22.951
-21.856
-20.628
-19.249
-17.7
-15.968
-14.045
-11.925
-9.602
-7.07
-4.323
-1.356
1.833
5.246
8.885
12.754
16.854
21.184
25.74
30.514
35.498
40.681
46.05
51.592
57.29
63.126
69.083
75.142
81.283
87.487
93.73
99.992
106.25
112.483
118.666
124.776
130.792
136.689
142.445
148.038
153.446
158.648
163.623
168.352
172.816
176.999
180.884
184.455
187.699
190.604
193.158
195.354
197.181
198.635
199.71
200.404
200.715
200.643
200.189
199.357
198.152
196.579
194.646
192.361
189.735
186.779
183.507
179.931
176.069
171.935
167.547
162.925
158.086
153.052
147.841
142.475
136.974
131.36
125.654
119.876
114.048
108.19
102.323
96.467
90.642
84.866
79.159
73.537
68.018
62.617
57.349
52.228
47.266
42.476
37.866
33.448
29.227
25.211
21.405
17.811
14.433
11.272
8.325
5.593
3.072
0.758
-1.353
-3.266
-4.989
-6.527
-7.888
-9.08
-10.113
-10.996
-11.737
-12.348
-12.839
-13.22
-13.502
-13.695
-13.811
-13.859
-13.849
-13.793
-13.701
-13.581
-13.443
-13.297
-13.15
-13.01
-12.884
-12.777
-12.696
-12.644
-12.626
-12.644
-12.702
-12.803
-12.948
-13.139
-13.376
-13.662
-13.996
-14.379
-14.81
-15.29
-15.816
-16.387
-17.002
-17.659
-18.357
-19.096
-19.871
-20.684
-21.531
-22.412
-23.327
-24.269
-25.237
-26.225
-27.231
-28.255
-29.298
-30.358
-31.436
-32.531
-33.644
-34.775
-35.922
-37.082
-38.253
-39.437
-40.629
-41.833
-43.045
-44.267
-45.51
-46.762
-47.997
-49.178
-50.265
-51.252
-52.159
-53.002
-53.768
-54.459
-55.113
-55.848
-56.776
-57.864
-59.017
-60.081
-60.977
-61.732
-62.162
-62.001
-61.215
-59.99
-58.683
-57.017
-53.589
-47.371
-39.226
-33.594
-36.597
-51.493
-75.664
-98.239
-107.649
-97.479
-69.33
-36.686
-11.843
-1.972
-8.767
-22.229
-34.393
-41.271
-39.968
-35.181
-30.407
-26.105
-23.692
-21.89
-19.496
-17.129
-14.793
-12.589
-10.858
-9.388
-7.963
-6.582
-5.169
-3.631
-1.962
-0.193
1.645
3.469
5.175
6.721
8.07
9.183
10.038
10.609
10.863
10.75
10.221
9.218
7.682
5.601
2.976
-0.165
-3.776
-7.817
-12.195
-16.807
-21.55
-26.304
-30.985
-35.548
-39.915
-43.953
-47.611
-50.886
-53.896
-56.957
-60.214
-63.61
-67.089
-70.567
-73.936
-77.147
-79.874
-81.439
-81.613
-80.639
-78.931
-77.181
-75.856
-74.991
-74.923
-76.331
-79.309
-83.438
-87.991
-91.815
-94.342
-95.88
-96.6
-96.504
-95.884
-95.045
-94.649
-95.688
-97.974
-100.17
-99.725
-92.837
-77.421
-52.505
-18.591
21.434
68.386
124.931
193.687
278.975
378.915
486.134
592.063
685.062
753.885
790.509
788.854
744.854
661.002
543.201
396.595
231.512
58.74
-110.212
-257.071
-367.976
-437.327
-466.28
-466.595
-452.224
-430.555
-404.801
-374.242
-336.197
-292.515
-247.614
-205.798
-171.81
-147.893
-133.672
-127.891
-128.668
-133.942
-141.877
-150.855
-158.88
-164.173
-166.017
-164.402
-159.855
-153.281
-145.528
-137.32
-129.678
-123.628
-119.624
-117.721
-117.634
-118.833
-120.875
-123.401
-125.983
-128.168
-129.676
-130.359
-130.161
-129.154
-127.398
-124.926
-121.804
-118.127
-113.989
-109.507
-104.826
-100.057
-95.302
-90.665
-86.203
-81.97
-78.012
-74.357
-71.025
-68.031
-65.371
-63.038
-61.033
-59.342
-57.94
-56.786
-55.811
-54.956
-54.175
-53.422
-52.668
-51.881
-51.034
-50.109
-49.098
-47.99
-46.775
-45.44
-43.965
-42.332
-40.523
-38.527
-36.339
-33.956
-31.37
-28.579
-25.573
-22.347
-18.912
-15.259
-11.362
-7.206
-2.764
1.978
6.974
12.187
17.616
23.19
28.803
34.395
39.864
45.138
50.309
55.456
60.536
65.708
71.329
77.371
83.684
90.394
96.996
103.828
113.01
124.181
135.311
143.523
141.877
128.595
110.502
95.753
96.523
119.543
155.703
192.298
216.054
216.835
200.686
179.719
162.91
158.03
163.392
171.536
178.72
182.121
181.412
179.237
176.388
172.784
168.647
163.647
157.799
151.548
145.074
138.433
131.715
124.955
118.198
111.55
104.94
98.23
91.569
85.011
78.53
72.453
65.803
57.626
49.21
40.943
35.231
34.953
36.928
39.041
38.14
29.881
18.092
6.021
-4.11
-8.609
-10.098
-11.229
-12.562
-15.698
-19.662
-23.217
-26.582
-29.595
-32.337
-35.061
-37.615
-39.877
-41.892
-43.673
-45.206
-46.498
-47.569
-48.432
-49.125
-49.689
-50.127
-50.444
-50.656
-50.773
-50.806
-50.766
-50.653
-50.473
-50.233
-49.943
-49.61
-49.243
-48.85
-48.438
-48.014
-47.585
-47.158
-46.737
-46.326
-45.928
-45.547
-45.185
-44.845
-44.529
-44.238
-43.973
-43.736
-43.527
-43.347
-43.194
-43.069
-42.972
-42.902
-42.858
-42.84
-42.846
-42.878
-42.934
-43.014
-43.118
-43.248
-43.401
-43.58
-43.785
-44.015
-44.271
-44.553
-44.862
-45.198
-45.564
-45.959
-46.385
-46.842
-47.332
-47.856
-48.414
-49.006
-49.633
-50.293
-50.987
-51.713
-52.471
-53.259
-54.075
-54.917
-55.782
-56.667
-57.568
-58.48
-59.4
-60.322
-61.24
-62.147
-63.037
-63.902
-64.736
-65.529
-66.276
-66.965
-67.59
-68.141
-68.61
-68.986
-69.262
-69.428
-69.477
-69.399
-69.188
-68.838
-68.341
-67.692
-66.888
-65.924
-64.798
-63.508
-62.052
-60.433
-58.651
-56.71
-54.615
-52.371
-49.985
-47.467
-44.827
-42.077
-39.231
-36.305
-33.316
-30.281
-27.219
-24.152
-21.099
-18.081
-15.119
-12.231
-9.44
-6.765
-4.229
-1.854
0.34
2.334
4.11
5.652
6.944
7.975
8.738
9.227
9.438
9.363
8.99
8.308
7.315
6.011
4.4
2.497
0.316
-2.118
-4.77
-7.6
-10.572
-13.649
-16.804
-20.009
-23.225
-26.403
-29.484
-32.409
-35.129
-37.606
-39.807
-41.721
-43.353
-44.731
-45.918
-46.971
-47.951
-48.928
-49.966
-51.147
-52.569
-54.324
-56.53
-59.354
-62.886
-67.128
-71.98
-77.155
-82.322
-87.18
-91.317
-94.246
-95.626
-95.294
-93.414
-90.604
-87.521
-84.72
-82.796
-82.314
-83.648
-86.88
-91.449
-96.027
-98.941
-98.261
-92.004
-78.258
-54.873
-19.936
27.633
88.425
160.957
241.06
324.825
407.963
487.542
565.168
640.165
707.031
757.276
776.238
750.411
676.417
556.651
399.704
221.226
35.157
-143.222
-295.202
-409.06
-479.56
-508.143
-505.369
-481.838
-444.549
-400.276
-355.261
-314.727
-283.519
-261.693
-243.109
-222.619
-198.018
-170.953
-147.559
-131.87
-123.999
-122.331
-123.875
-126.322
-128.953
-131.129
-131.979
-131.122
-128.562
-124.479
-119.308
-113.585
-107.697
-102.229
-98.032
-95.463
-94.487
-94.928
-96.363
-98.424
-100.893
-103.424
-105.561
-107.02
-107.65
-107.41
-106.407
-104.713
-102.356
-99.411
-95.979
-92.165
-88.093
-83.874
-79.601
-75.375
-71.281
-67.384
-63.751
-60.434
-57.463
-54.854
-52.599
-50.68
-49.082
-47.787
-46.772
-46.003
-45.432
-45.008
-44.678
-44.383
-44.078
-43.722
-43.275
-42.704
-41.986
-41.098
-40.03
-38.772
-37.312
-35.637
-33.736
-31.597
-29.214
-26.583
-23.699
-20.563
-17.176
-13.538
-9.654
-5.526
-1.158
3.443
8.272
13.32
18.579
24.033
29.669
35.466
41.406
47.468
53.628
59.863
66.148
72.459
78.77
85.056
91.292
97.452
103.511
109.443
115.224
120.829
126.233
131.416
136.353
141.025
145.411
149.494
153.255
156.681
159.757
162.469
164.808
166.764
168.331
169.501
170.274
170.646
170.619
170.195
169.379
168.177
166.597
164.65
162.345
159.696
156.717
153.423
149.83
145.956
141.819
137.44
132.838
128.034
123.05
117.909
112.631
107.241
101.761
96.214
90.621
85.007
79.392
73.798
68.247
62.758
57.35
52.043
46.854
41.797
36.889
32.143
27.572
23.186
18.995
15.008
11.232
7.673
4.335
1.222
-1.665
-4.326
-6.76
-8.971
-10.96
-12.733
-14.294
-15.65
-16.808
-17.775
-18.561
-19.173
-19.623
-19.92
-20.075
-20.098
-20.002
-19.795
-19.49
-19.098
-18.627
-18.089
-17.494
-16.851
-16.168
-15.456
-14.721
-13.971
-13.213
-12.454
-11.7
-10.955
-10.225
-9.514
-8.824
-8.16
-7.523
-6.915
-6.337
-5.79
-5.274
-4.79
-4.336
-3.912
-3.516
-3.147
-2.804
-2.485
-2.189
-1.913
-1.657
-1.418
-1.195
-0.988
-0.794
-0.614
-0.446
-0.289
-0.145
-0.013
0.107
0.215
0.31
0.393
0.461
0.516
0.556
0.581
0.592
0.588
0.567
0.531
0.477
0.408
0.321
0.218
0.099
-0.035
-0.184
-0.346
-0.519
-0.702
-0.892
-1.087
-1.283
-1.479
-1.669
-1.85
-2.018
-2.169
-2.298
-2.397
-2.464
-2.491
-2.476
-2.411
-2.294
-2.119
-1.884
-1.589
-1.231
-0.809
-0.324
0.227
0.843
1.524
2.272
3.088
3.975
4.931
5.955
7.044
8.194
9.401
10.659
11.963
13.306
14.683
16.094
17.538
19.01
20.5
21.993
23.473
24.927
26.345
27.713
29.028
30.292
31.518
32.734
33.966
35.238
36.565
37.95
39.403
40.939
42.575
44.332
46.22
48.239
50.393
52.695
55.12
57.607
60.067
62.37
64.421
66.163
67.523
68.437
68.839
68.65
67.819
66.332
64.11
61.03
57.065
52.223
46.67
40.823
35.114
29.929
25.735
22.947
21.677
21.919
23.452
25.338
26.401
25.757
22.471
17.238
13.093
12.392
15.939
21.032
