Name,Criss Capps
Date of Birth,"Feb 5, 1952"
Recorded Date,2020-09-06 13:37:38 -0400
Classification,Sinus Rhythm
Symptoms,
Software Version,1.90
Device,"Watch5,4"
Sample Rate,512.844 hertz


Lead,Lead I
Unit,µV

-121.026
-130.922
-140.654
-150.064
-159.019
-167.392
-175.04
-181.845
-187.71
-192.569
-196.413
-199.264
-201.162
-202.18
-202.398
-201.9
-200.798
-199.207
-197.225
-194.945
-192.452
-189.825
-187.166
-184.565
-182.092
-179.802
-177.725
-175.868
-174.227
-172.77
-171.445
-170.208
-169.005
-167.789
-166.535
-165.221
-163.822
-162.315
-160.677
-158.889
-156.939
-154.812
-152.491
-149.978
-147.302
-144.521
-141.706
-138.913
-136.19
-133.575
-131.099
-128.797
-126.708
-124.863
-123.277
-121.963
-120.945
-120.257
-119.948
-120.046
-120.533
-121.358
-122.469
-123.829
-125.409
-127.183
-129.101
-131.102
-133.132
-135.146
-137.12
-139.028
-140.824
-142.439
-143.801
-144.847
-145.562
-145.964
-146.055
-145.832
-145.3
-144.481
-143.447
-142.296
-141.103
-139.916
-138.76
-137.666
-136.703
-135.953
-135.505
-135.446
-135.799
-136.594
-137.916
-139.741
-141.954
-144.33
-146.426
-147.828
-148.239
-147.281
-144.669
-140.432
-134.763
-128.172
-121.517
-115.429
-110.474
-107.391
-106.455
-107.288
-109.056
-110.283
-109.142
-104.072
-93.371
-75.028
-47.745
-11.38
33.176
84.029
138.641
194.095
246.74
291.992
325.47
344.075
345.828
329.638
295.392
244.099
178.281
102.315
21.353
-60.058
-137.687
-207.41
-265.594
-309.522
-338.184
-352.564
-354.663
-346.61
-330.806
-310.076
-287.698
-266.742
-248.946
-234.806
-224.291
-217.064
-212.781
-210.883
-209.906
-208.353
-205.629
-201.643
-196.589
-190.899
-184.657
-177.905
-171.422
-165.969
-161.865
-159.276
-158.033
-157.802
-158.539
-160.234
-162.544
-165.124
-167.674
-169.896
-171.734
-173.194
-174.188
-174.632
-174.462
-173.627
-172.144
-170.064
-167.409
-164.207
-160.49
-156.306
-151.745
-146.915
-141.926
-136.87
-131.799
-126.751
-121.757
-116.848
-112.063
-107.421
-102.919
-98.549
-94.304
-90.18
-86.18
-82.293
-78.492
-74.742
-71.009
-67.267
-63.505
-59.714
-55.887
-52.018
-48.105
-44.152
-40.17
-36.168
-32.152
-28.125
-24.091
-20.055
-16.029
-12.025
-8.053
-4.125
-0.251
3.56
7.295
10.945
14.5
17.953
21.295
24.52
27.618
30.578
33.392
36.05
38.544
40.865
43.003
44.953
46.707
48.26
49.608
50.749
51.678
52.396
52.901
53.195
53.278
53.153
52.824
52.294
51.571
50.659
49.568
48.303
46.876
45.297
43.575
41.722
39.75
37.671
35.497
33.242
30.918
28.538
26.116
23.664
21.195
18.723
16.26
13.817
11.406
9.038
6.721
4.466
2.281
0.174
-1.848
-3.78
-5.616
-7.351
-8.982
-10.506
-11.921
-13.227
-14.423
-15.51
-16.49
-17.365
-18.138
-18.813
-19.394
-19.886
-20.295
-20.627
-20.887
-21.082
-21.22
-21.307
-21.35
-21.357
-21.334
-21.289
-21.227
-21.156
-21.081
-21.01
-20.947
-20.897
-20.868
-20.862
-20.884
-20.938
-21.028
-21.156
-21.323
-21.533
-21.786
-22.082
-22.421
-22.804
-23.228
-23.692
-24.195
-24.733
-25.303
-25.901
-26.524
-27.166
-27.825
-28.494
-29.17
-29.849
-30.525
-31.196
-31.857
-32.504
-33.134
-33.743
-34.327
-34.884
-35.408
-35.899
-36.352
-36.767
-37.142
-37.474
-37.765
-38.012
-38.216
-38.378
-38.499
-38.578
-38.618
-38.621
-38.589
-38.526
-38.435
-38.321
-38.188
-38.039
-37.881
-37.716
-37.549
-37.382
-37.219
-37.062
-36.912
-36.771
-36.641
-36.524
-36.419
-36.33
-36.259
-36.205
-36.172
-36.158
-36.162
-36.181
-36.212
-36.248
-36.285
-36.315
-36.333
-36.334
-36.311
-36.259
-36.175
-36.052
-35.883
-35.657
-35.362
-34.985
-34.519
-33.958
-33.302
-32.554
-31.723
-30.819
-29.855
-28.837
-27.769
-26.646
-25.454
-24.181
-22.81
-21.335
-19.758
-18.081
-16.307
-14.432
-12.45
-10.347
-8.101
-5.685
-3.065
-0.223
2.846
6.128
9.583
13.162
16.806
20.463
24.099
27.679
31.17
34.542
37.758
40.777
43.545
45.999
48.067
49.691
50.839
51.504
51.706
51.487
50.905
50.01
48.851
47.467
45.887
44.141
42.262
40.293
38.296
36.34
34.504
32.854
31.436
30.281
29.408
28.814
28.484
28.396
28.522
28.847
29.379
30.115
31.046
32.136
33.31
34.505
35.667
36.748
37.732
38.58
39.236
39.667
39.84
39.737
39.398
38.795
37.843
36.58
35.12
33.722
32.856
32.87
33.974
36.453
40.496
46.062
52.975
60.599
67.922
74.154
78.635
80.846
80.81
78.976
76.167
74.002
74.504
79.592
91.239
110.931
139.185
175.693
219.266
267.697
318.155
367.232
410.935
445.563
468.092
476.415
469.468
446.906
409.31
358.714
298.377
232.08
163.87
97.399
35.918
-17.162
-59.144
-88.929
-106.702
-113.623
-111.597
-102.549
-88.593
-72.567
-57.087
-43.706
-33.144
-25.371
-19.876
-16.206
-13.781
-11.52
-8.36
-3.766
2.368
9.738
17.836
26.274
34.72
42.719
49.809
55.71
60.291
63.601
65.808
67.046
67.435
67.113
66.239
64.969
63.461
61.858
60.274
58.82
57.586
56.64
56.045
55.85
56.104
56.835
58.05
59.741
61.889
64.472
67.458
70.808
74.456
78.33
82.358
86.467
90.613
94.762
98.885
102.962
106.97
110.899
114.747
118.522
122.231
125.879
129.473
133.02
136.543
140.065
143.611
147.207
150.868
154.604
158.421
162.322
166.307
170.371
174.505
178.697
182.936
187.211
191.512
195.831
200.154
204.464
208.747
212.985
217.164
221.268
225.281
229.189
232.978
236.636
240.15
243.51
246.704
249.721
252.55
255.179
257.599
259.8
261.776
263.518
265.021
266.281
267.296
268.063
268.585
268.863
268.898
268.697
268.264
267.608
266.734
265.654
264.376
262.913
261.277
259.48
257.536
255.46
253.268
250.975
248.596
246.149
243.65
241.117
238.564
236.01
233.47
230.961
228.497
226.094
223.766
221.526
219.387
217.36
215.457
213.686
212.056
210.574
209.248
208.082
207.08
206.246
205.583
205.09
204.769
204.62
204.64
204.829
205.182
205.697
206.369
207.193
208.162
209.272
210.514
211.882
213.368
214.964
216.664
218.458
220.34
222.303
224.338
226.439
228.6
230.813
233.074
235.376
237.714
240.083
242.478
244.895
247.331
249.782
252.244
254.714
257.191
259.672
262.155
264.639
267.123
269.606
272.087
274.566
277.043
279.518
281.991
284.462
286.93
289.396
291.859
294.318
296.772
299.219
301.655
304.078
306.484
308.867
311.225
313.551
315.841
318.089
320.292
322.445
324.545
326.585
328.561
330.467
332.294
334.037
335.687
337.236
338.674
339.993
341.182
342.237
343.15
343.916
344.527
344.972
345.246
345.349
345.281
345.046
344.649
344.1
343.408
342.598
341.685
340.69
339.629
338.508
337.333
336.112
334.855
333.572
332.266
330.924
329.53
328.071
326.527
324.885
323.125
321.205
319.101
316.794
314.269
311.535
308.606
305.486
302.184
298.712
295.085
291.35
287.566
283.779
280.041
276.401
272.91
269.646
266.669
264.019
261.73
259.808
258.254
257.083
256.31
255.938
255.978
256.406
257.17
258.244
259.578
261.113
262.786
264.49
266.131
267.632
268.912
269.902
270.532
270.694
270.282
269.197
267.31
264.516
260.721
255.799
249.661
242.242
233.488
223.39
211.938
199.107
184.891
169.304
152.372
134.164
114.755
94.21
72.644
50.181
26.958
3.164
-21.044
-45.537
-70.176
-94.841
-119.403
-143.696
-167.581
-190.948
-213.695
-235.746
-257.018
-277.405
-296.846
-315.306
-332.773
-349.281
-364.846
-379.461
-393.156
-405.985
-418.024
-429.398
-440.208
-450.51
-460.377
-469.892
-479.15
-488.277
-497.377
-506.497
-515.697
-525.075
-534.644
-544.35
-554.028
-563.305
-571.807
-579.263
-585.331
-589.659
-592.211
-593.118
-592.79
-592.182
-592.1
-593.08
-595.834
-600.788
-607.591
-615.524
-623.256
-628.536
-629.353
-623.906
-610.044
-586.382
-552.853
-510.191
-460.198
-405.825
-350.211
-297.021
-250.784
-215.41
-193.484
-186.615
-195.371
-219.482
-257.951
-308.395
-366.911
-429.331
-492.085
-552.088
-606.529
-652.546
-687.801
-711.415
-724.058
-727.213
-722.4
-711.131
-695.209
-677.092
-659.258
-643.229
-629.529
-618.03
-608.446
-600.526
-593.864
-587.562
-580.556
-572.3
-562.742
-552.184
-541.061
-529.669
-518.245
-507.151
-496.817
-487.475
-479.17
-471.783
-465.087
-458.908
-453.125
-447.613
-442.233
-436.844
-431.329
-425.6
-419.625
-413.389
-406.88
-400.094
-393.031
-385.715
-378.189
-370.509
-362.731
-354.906
-347.08
-339.292
-331.588
-324.016
-316.623
-309.452
-302.533
-295.88
-289.503
-283.41
-277.602
-272.076
-266.818
-261.81
-257.037
-252.488
-248.153
-244.022
-240.082
-236.323
-232.73
-229.293
-226.003
-222.851
-219.828
-216.928
-214.144
-211.47
-208.904
-206.442
-204.079
-201.81
-199.632
-197.54
-195.529
-193.596
-191.739
-189.954
-188.241
-186.598
-185.025
-183.523
-182.093
-180.735
-179.45
-178.24
-177.105
-176.049
-175.072
-174.176
-173.362
-172.634
-171.992
-171.437
-170.972
-170.596
-170.311
-170.118
-170.015
-170.003
-170.081
-170.248
-170.503
-170.844
-171.268
-171.772
-172.353
-173.007
-173.729
-174.515
-175.359
-176.255
-177.196
-178.176
-179.187
-180.221
-181.272
-182.331
-183.389
-184.44
-185.473
-186.482
-187.457
-188.391
-189.275
-190.101
-190.861
-191.55
-192.158
-192.68
-193.11
-193.441
-193.669
-193.787
-193.792
-193.679
-193.444
-193.086
-192.601
-191.987
-191.242
-190.367
-189.361
-188.223
-186.954
-185.555
-184.028
-182.375
-180.597
-178.698
-176.68
-174.548
-172.305
-169.956
-167.505
-164.956
-162.315
-159.586
-156.776
-153.888
-150.928
-147.902
-144.814
-141.669
-138.473
-135.23
-131.945
-128.623
-125.268
-121.884
-118.476
-115.047
-111.6
-108.139
-104.668
-101.188
-97.705
-94.219
-90.735
-87.254
-83.779
-80.312
-76.855
-73.41
-69.978
-66.561
-63.161
-59.778
-56.415
-53.071
-49.75
-46.452
-43.178
-39.931
-36.712
-33.522
-30.364
-27.241
-24.153
-21.104
-18.096
-15.133
-12.217
-9.351
-6.539
-3.784
-1.088
1.544
4.109
6.606
9.03
11.379
13.65
15.84
17.948
19.969
21.903
23.747
25.498
27.157
28.721
30.189
31.562
32.838
34.018
35.103
36.094
36.993
37.802
38.525
39.164
39.724
40.209
40.625
40.977
41.27
41.512
41.709
41.867
41.995
42.098
42.184
42.261
42.336
42.416
42.509
42.622
42.761
42.934
43.147
43.405
43.715
44.082
44.51
45.004
45.568
46.205
46.916
47.704
48.569
49.511
50.53
51.622
52.785
54.016
55.309
56.659
58.06
59.505
60.986
62.494
64.021
65.556
67.089
68.609
70.104
71.563
72.973
74.322
75.599
76.791
77.888
78.88
79.76
80.518
81.147
81.638
81.985
82.182
82.224
82.104
81.815
81.356
80.727
79.933
78.978
77.866
76.601
75.183
73.616
71.912
70.077
68.118
66.048
63.88
61.645
59.383
57.135
54.936
52.815
50.794
48.902
47.171
45.633
44.319
43.248
42.43
41.886
41.638
41.689
42.03
42.616
43.357
44.179
45.018
45.814
46.544
47.162
47.59
47.765
47.614
47.09
46.216
44.981
43.31
41.246
38.933
36.643
34.916
34.238
34.794
36.738
40.206
45.079
51.201
58.192
65.009
70.645
74.76
77.33
78.745
79.937
81.678
84.979
91.933
104.703
124.578
152.231
187.221
228.084
273.583
321.954
369.8
413.192
448.504
472.426
483.022
479.433
460.511
426.019
377.776
318.8
252.937
184.591
117.412
54.695
0.386
-42.325
-72.006
-88.536
-93.123
-87.901
-74.915
-56.47
-35.689
-15.428
2.482
17.063
28.233
36.458
42.195
46.1
49.305
52.923
57.543
63.311
69.997
77.169
84.479
91.595
98.033
103.301
107.158
109.566
110.661
110.698
109.889
108.417
106.518
104.43
102.345
100.419
98.73
97.3
96.171
95.382
94.976
95.001
95.467
96.354
97.642
99.291
101.247
103.449
105.805
108.227
110.644
112.997
115.254
117.402
119.424
121.315
123.072
124.687
126.164
127.514
128.743
129.867
130.907
131.888
132.852
133.837
134.872
135.983
137.186
138.489
139.904
141.435
143.08
144.84
146.716
148.706
150.812
153.036
155.371
157.813
160.353
162.978
165.679
168.446
171.265
174.126
177.017
179.925
182.839
185.75
188.642
191.502
194.315
197.065
199.738
202.317
204.786
207.131
209.336
211.387
213.272
214.978
216.493
217.806
218.908
219.79
220.444
220.863
221.043
220.979
220.668
220.108
219.301
218.247
216.949
215.411
213.637
211.635
209.412
206.976
204.337
201.505
198.491
195.306
191.962
188.474
184.853
181.115
177.272
173.339
169.331
165.261
161.144
156.993
152.821
148.642
144.469
140.312
136.185
132.097
128.06
124.083
120.175
116.344
112.598
108.943
105.385
101.93
98.58
95.341
92.213
89.201
86.304
83.524
80.861
78.314
75.883
73.566
71.36
69.264
67.275
65.39
63.605
61.917
60.323
58.817
57.397
56.057
54.795
53.604
52.482
51.424
50.426
49.484
48.594
47.751
46.953
46.196
45.476
44.79
44.137
43.511
42.912
42.337
41.783
41.248
40.731
40.23
39.743
39.269
38.806
38.352
37.908
37.472
37.043
36.62
36.203
35.79
35.381
34.976
34.573
34.172
33.772
33.373
32.974
32.575
32.174
31.772
31.367
30.959
30.547
30.13
29.707
29.278
28.841
28.396
27.942
27.479
27.006
26.522
26.027
25.52
25.002
24.471
23.926
23.369
22.799
22.215
21.618
21.009
20.387
19.753
19.109
18.454
17.791
17.121
16.444
15.763
15.08
14.398
13.719
13.045
12.381
11.729
11.094
10.479
9.887
9.323
8.79
8.292
7.833
7.417
7.048
6.73
6.467
6.264
6.125
6.053
6.053
6.127
6.278
6.51
6.825
7.225
7.712
8.288
8.953
9.709
10.554
11.489
12.511
13.619
14.809
16.078
17.422
18.834
20.31
21.843
23.426
25.052
26.713
28.4
30.104
31.817
33.527
35.224
36.897
38.532
40.117
41.641
43.089
44.449
45.709
46.858
47.885
48.782
49.539
50.148
50.599
50.884
50.997
50.93
50.677
50.235
49.6
48.774
47.759
46.56
45.18
43.621
41.88
39.96
37.862
35.593
33.16
30.573
27.853
25.026
22.125
19.183
16.23
13.29
10.386
7.543
4.79
2.162
-0.308
-2.595
-4.673
-6.522
-8.127
-9.492
-10.652
-11.663
-12.591
-13.492
-14.403
-15.368
-16.448
-17.705
-19.214
-21.055
-23.258
-25.882
-29.023
-32.666
-36.715
-40.969
-45.03
-48.551
-51.283
-52.882
-53.075
-51.89
-49.506
-46.403
-43.408
-41.073
-39.822
-40.246
-42.533
-46.275
-50.687
-54.39
-55.603
-52.851
-44.639
-29.201
-5.407
26.855
66.85
112.931
162.682
213.259
261.227
302.364
332.536
348.723
348.827
331.506
296.814
246.258
182.566
110.058
34.012
-40.888
-110.14
-169.198
-215.097
-246.523
-263.319
-267.076
-260.589
-246.499
-227.959
-208.709
-191.234
-176.93
-166.564
-159.781
-155.711
-153.654
-152.433
-150.471
-146.966
-141.645
-134.555
-126.269
-117.337
-108.128
-99.199
-91.199
-84.496
-79.296
-75.635
-73.307
-72.14
-72.004
-72.714
-74.076
-75.9
-77.971
-80.085
-82.12
-83.986
-85.615
-86.963
-87.969
-88.574
-88.736
-88.444
-87.708
-86.546
-84.983
-83.042
-80.767
-78.23
-75.531
-72.782
-70.064
-67.423
-64.887
-62.475
-60.207
-58.105
-56.177
-54.412
-52.797
-51.325
-49.987
-48.78
-47.688
-46.679
-45.712
-44.743
-43.737
-42.675
-41.539
-40.317
-38.999
-37.575
-36.045
-34.415
-32.689
-30.868
-28.951
-26.937
-24.828
-22.632
-20.36
-18.021
-15.627
-13.187
-10.715
-8.222
-5.721
-3.223
-0.739
1.721
4.144
6.516
8.824
11.052
13.185
15.209
17.106
18.864
20.466
21.901
23.155
24.219
25.082
25.735
26.171
26.384
26.368
26.12
25.638
24.919
23.965
22.776
21.357
19.711
17.845
15.765
13.479
10.999
8.333
5.495
2.496
-0.65
-3.929
-7.324
-10.822
-14.404
-18.053
-21.753
-25.486
-29.234
-32.979
-36.704
-40.393
-44.029
-47.598
-51.083
-54.472
-57.751
-60.907
-63.931
-66.811
-69.538
-72.104
-74.501
-76.725
-78.769
-80.63
-82.306
-83.794
-85.095
-86.207
-87.133
-87.875
-88.436
-88.821
-89.034
-89.082
-88.971
-88.71
-88.306
-87.768
-87.106
-86.329
-85.447
-84.469
-83.407
-82.269
-81.067
-79.81
-78.507
-77.169
-75.804
-74.422
-73.03
-71.638
-70.253
-68.882
-67.532
-66.21
-64.921
-63.671
-62.465
-61.308
-60.204
-59.155
-58.167
-57.24
-56.377
-55.579
-54.848
-54.183
-53.585
-53.054
-52.588
-52.188
-51.852
-51.579
-51.367
-51.215
-51.121
-51.084
-51.103
-51.175
-51.299
-51.473
-51.697
-51.968
-52.285
-52.647
-53.053
-53.501
-53.99
-54.519
-55.086
-55.691
-56.332
-57.009
-57.719
-58.462
-59.237
-60.043
-60.879
-61.743
-62.634
-63.552
-64.494
-65.459
-66.446
-67.451
-68.474
-69.511
-70.559
-71.616
-72.677
-73.739
-74.799
-75.851
-76.891
-77.915
-78.917
-79.893
-80.838
-81.746
-82.613
-83.432
-84.199
-84.908
-85.555
-86.134
-86.639
-87.067
-87.413
-87.672
-87.841
-87.916
-87.893
-87.771
-87.547
-87.219
-86.787
-86.249
-85.606
-84.858
-84.008
-83.058
-82.01
-80.869
-79.639
-78.325
-76.934
-75.473
-73.947
-72.365
-70.735
-69.065
-67.365
-65.643
-63.91
-62.174
-60.448
-58.742
-57.069
-55.44
-53.866
-52.359
-50.928
-49.584
-48.335
-47.186
-46.145
-45.217
-44.408
-43.722
-43.166
-42.743
-42.454
-42.302
-42.285
-42.401
-42.643
-43.004
-43.477
-44.056
-44.737
-45.518
-46.396
-47.364
-48.414
-49.533
-50.703
-51.899
-53.094
-54.254
-55.35
-56.359
-57.255
-58.019
-58.623
-59.039
-59.241
-59.202
-58.893
-58.295
-57.389
-56.174
-54.678
-52.937
-50.997
-48.909
-46.702
-44.417
-42.111
-39.849
-37.708
-35.765
-34.067
-32.666
-31.64
-30.988
-30.625
-30.377
-29.951
-29.062
-27.52
-25.162
-21.839
-17.634
-12.834
-7.805
-3.05
1.022
4.212
6.428
7.629
8.279
9.32
11.692
16.363
24.202
35.896
52.123
73.63
100.493
131.839
166.686
204.005
242.429
280.209
315.082
344.11
364.575
374.84
373.457
358.994
331.065
290.464
239.098
180.347
118.293
56.461
-1.417
-51.243
-90.232
-116.977
-131.124
-133.91
-127.577
-114.28
-96.777
-78.458
-61.626
-47.63
-37.261
-30.291
-26.038
-23.922
-22.862
-21.386
-18.716
-14.551
-8.87
-2.141
5.189
12.822
20.25
26.883
32.384
36.558
39.371
40.998
41.568
41.187
40.011
38.203
35.929
33.372
30.694
28.024
25.464
23.087
20.958
19.135
17.673
16.627
16.023
15.865
16.154
16.876
18.016
19.558
21.451
23.623
25.99
28.464
30.985
33.523
36.048
38.539
40.976
43.338
45.623
47.841
49.994
52.089
54.127
56.109
58.052
59.984
61.934
63.934
66.007
68.162
70.409
72.753
75.195
77.734
80.364
83.069
85.841
88.671
91.552
94.479
97.439
100.418
103.402
106.374
109.318
112.22
115.064
117.836
120.521
123.105
125.578
127.929
130.145
132.214
134.124
135.863
137.417
138.778
139.933
140.874
141.592
142.08
142.333
142.346
142.118
141.647
140.932
139.975
138.777
137.343
135.678
133.786
131.675
129.354
126.831
124.117
121.225
118.166
114.954
111.603
108.128
104.543
100.865
97.107
93.287
89.42
85.523
81.61
77.697
73.801
69.935
66.115
62.354
58.665
55.06
51.551
48.147
44.858
41.692
38.657
35.76
33.007
30.401
27.947
25.647
23.504
21.517
19.686
18.01
16.486
15.112
13.882
12.792
11.838
11.013
10.31
9.722
9.243
8.864
8.579
8.378
8.254
8.198
8.203
8.261
8.363
8.503
8.673
8.866
9.074
9.293
9.514
9.733
9.943
10.14
10.319
10.476
10.607
10.71
10.781
10.819
10.823
10.792
10.725
10.624
10.489
10.321
10.122
9.893
9.637
9.356
9.053
8.73
8.389
8.034
7.667
7.291
6.908
6.521
6.131
5.742
5.355
4.972
4.594
4.224
3.862
3.51
3.167
2.836
2.516
2.206
1.907
1.616
1.333
1.056
0.783
0.51
0.234
-0.046
-0.336
-0.638
-0.957
-1.295
-1.657
-2.047
-2.468
-2.925
-3.419
-3.956
-4.536
-5.164
-5.84
-6.568
-7.347
-8.18
-9.066
-10.005
-10.998
-12.043
-13.14
-14.287
-15.482
-16.721
-18.002
-19.322
-20.674
-22.055
-23.459
-24.879
-26.309
-27.743
-29.174
-30.594
-31.997
-33.374
-34.719
-36.024
-37.282
-38.485
-39.627
-40.701
-41.702
-42.622
-43.459
-44.209
-44.866
-45.429
-45.897
-46.266
-46.538
-46.713
-46.79
-46.773
-46.662
-46.464
-46.181
-45.82
-45.387
-44.89
-44.339
-43.742
-43.11
-42.453
-41.782
-41.108
-40.444
-39.798
-39.183
-38.606
-38.08
-37.616
-37.225
-36.919
-36.705
-36.593
-36.592
-36.71
-36.959
-37.342
-37.861
-38.517
-39.311
-40.25
-41.34
-42.586
-43.983
-45.526
-47.206
-49.014
-50.942
-52.967
-55.055
-57.171
-59.28
-61.354
-63.381
-65.337
-67.196
-68.925
-70.489
-71.863
-73.044
-74.025
-74.798
-75.368
-75.747
-75.976
-76.131
-76.292
-76.537
-76.935
-77.528
-78.354
-79.452
-80.871
-82.676
-84.92
-87.612
-90.722
-94.194
-97.971
-102.04
-106.313
-110.527
-114.281
-117.142
-118.804
-119.209
-118.371
-116.1
-112.168
-106.639
-99.985
-92.987
-86.306
-79.989
-73.64
-67.16
-60.661
-53.888
-45.991
-35.471
-20.632
-0.708
23.993
53.199
86.556
122.937
160.358
195.705
224.917
244.568
252.441
246.504
225.334
188.896
138.402
76.655
8.139
-62.407
-130.742
-192.45
-243.652
-281.963
-306.239
-316.745
-315.327
-304.525
-287.016
-266.044
-244.764
-225.243
-208.744
-195.79
-186.069
-178.923
-173.569
-168.779
-163.283
-156.477
-148.204
-138.617
-128.182
-117.355
-106.573
-96.455
-87.623
-80.399
-74.886
-71.01
-68.562
-67.387
-67.358
-68.281
-69.922
-72.065
-74.519
-77.15
-79.87
-82.557
-85.055
-87.217
-88.925
-90.116
-90.771
-90.881
-90.44
-89.451
-87.937
-85.949
-83.551
-80.81
-77.785
-74.531
-71.1
-67.561
-63.998
-60.483
-57.065
-53.772
-50.611
-47.592
-44.721
-41.996
-39.403
-36.918
-34.517
-32.182
-29.901
-27.66
-25.439
-23.216
-20.961
-18.655
-16.288
-13.853
-11.351
-8.783
-6.149
-3.457
-0.722
2.044
4.828
7.62
10.414
13.199
15.962
18.69
21.369
23.986
26.53
28.99
31.354
33.611
35.75
37.764
39.643
41.381
42.968
44.397
45.657
46.742
47.646
48.361
48.881
49.202
49.32
49.231
48.936
48.432
47.72
46.8
45.676
44.349
42.823
41.105
39.198
37.111
34.85
32.426
29.848
27.125
24.27
21.294
18.209
15.03
11.769
8.441
5.06
1.641
-1.801
-5.25
-8.691
-12.109
-15.487
-18.811
-22.065
-25.234
-28.302
-31.256
-34.081
-36.763
-39.289
-41.646
-43.823
-45.809
-47.592
-49.163
-50.514
-51.638
-52.526
-53.175
-53.579
-53.736
-53.643
-53.299
-52.705
-51.862
-50.772
-49.439
-47.868
-46.065
-44.035
-41.787
-39.33
-36.673
-33.828
-30.804
-27.614
-24.272
-20.791
-17.185
-13.469
-9.657
-5.766
-1.812
2.191
6.225
10.275
14.325
18.361
22.366
26.327
30.23
34.062
37.809
41.461
45.007
48.436
51.739
54.909
57.937
60.819
63.547
66.119
68.531
70.78
72.865
74.785
76.542
78.135
79.567
80.841
81.961
82.932
83.758
84.447
85.003
85.434
85.748
85.951
86.051
86.057
85.976
85.815
85.583
85.287
84.935
84.532
84.086
83.603
83.088
82.548
81.987
81.409
80.819
80.221
79.617
79.011
78.404
77.8
77.199
76.603
76.013
75.43
74.853
74.282
73.717
73.157
72.603
72.052
71.504
70.957
70.412
69.868
69.323
68.777
68.229
67.681
67.132
66.582
66.034
65.487
64.944
64.407
63.878
63.359
62.853
62.364
61.892
61.443
61.018
60.621
60.256
59.925
59.631
59.378
59.17
59.008
58.895
58.834
58.827
58.875
58.98
59.144
59.365
59.644
59.979
60.371
60.816
61.311
61.853
62.437
63.058
63.709
64.384
65.073
65.769
66.463
67.144
67.805
68.435
69.024
69.562
70.04
70.45
70.783
71.029
71.178
71.22
71.148
70.955
70.632
70.17
69.56
68.797
67.881
66.812
65.588
64.207
62.661
60.95
59.081
57.06
54.896
52.595
50.168
47.634
45.025
42.376
39.716
37.067
34.441
31.855
29.333
26.906
24.605
22.448
20.438
18.582
16.895
15.386
14.05
12.858
11.747
10.65
9.519
8.32
7.034
5.645
4.127
2.427
0.507
-1.671
-4.128
-6.83
-9.78
-13.008
-16.437
-19.918
-23.192
-25.819
-27.414
-27.827
-26.923
-24.615
-21.065
-16.361
-10.79
-5.19
-0.337
3.37
5.714
6.978
7.918
8.945
10.729
14.846
22.881
36.247
56.044
82.138
113.57
149.727
189.342
229.841
268.233
300.921
324.198
335.833
334.416
318.308
287.15
242.295
186.045
122.237
55.639
-9.837
-70.391
-121.762
-161.182
-187.48
-200.451
-201.596
-193.507
-178.535
-159.594
-140.243
-122.833
-108.708
-98.64
-92.288
-88.862
-87.726
-87.717
-87.304
-85.691
-82.562
-77.903
-72.196
-65.884
-59.264
-52.828
-47.132
-42.474
-38.993
-36.69
-35.402
-35.008
-35.418
-36.498
-38.098
-40.066
-42.256
-44.531
-46.784
-48.937
-50.922
-52.691
-54.217
-55.478
-56.458
-57.148
-57.525
-57.573
-57.294
-56.692
-55.78
-54.597
-53.188
-51.62
-49.974
-48.305
-46.645
-45.018
-43.426
-41.873
-40.362
-38.89
-37.455
-36.057
-34.691
-33.356
-32.05
-30.76
-29.467
-28.144
-26.755
-25.272
-23.68
-21.965
-20.126
-18.16
-16.067
-13.852
-11.524
-9.092
-6.562
-3.94
-1.231
1.557
4.414
7.324
10.273
13.243
16.219
19.187
22.132
25.039
27.894
30.684
33.399
36.027
38.554
40.968
43.253
45.397
47.388
49.213
50.86
52.32
53.582
54.638
55.484
56.113
56.522
56.709
56.673
56.414
55.935
55.238
54.328
53.211
51.894
50.384
48.692
46.826
44.799
42.622
40.308
37.87
35.322
32.677
29.95
27.156
24.309
21.426
18.52
15.608
12.704
9.823
6.981
4.19
1.466
-1.18
-3.736
-6.19
-8.533
-10.755
-12.847
-14.804
-16.618
-18.285
-19.8
-21.162
-22.368
-23.417
-24.309
-25.046
-25.628
-26.059
-26.342
-26.48
-26.478
-26.341
-26.074
-25.685
-25.18
-24.566
-23.85
-23.041
-22.146
-21.174
-20.134
-19.034
-17.882
-16.689
-15.461
-14.209
-12.941
-11.663
-10.386
-9.115
-7.858
-6.622
-5.412
-4.234
-3.094
-1.995
-0.942
0.062
1.012
1.907
2.744
3.521
4.237
4.889
5.479
6.004
6.467
6.867
7.204
7.482
7.7
7.862
7.969
8.024
8.031
7.993
7.914
7.798
7.648
7.47
7.269
7.048
6.813
6.568
6.317
6.065
5.816
5.575
5.344
5.128
4.931
4.757
4.607
4.486
4.397
4.341
4.321
4.34
4.398
4.497
4.638
4.821
5.048
5.318
5.631
5.986
6.383
6.82
7.295
7.806
8.351
8.926
9.529
10.157
10.805
11.472
12.153
12.845
13.545
14.25
14.957
15.662
16.362
17.056
17.74
18.411
19.069
19.71
20.335
20.941
21.528
22.096
22.644
23.174
23.685
24.179
24.656
25.118
25.566
26.003
26.431
26.852
27.269
27.684
28.103
28.526
28.959
29.403
29.861
30.335
30.829
31.345
31.883
32.446
33.034
33.649
34.29
34.957
35.65
36.367
37.104
37.859
38.628
39.407
40.187
40.964
41.73
42.478
43.201
43.892
44.544
45.148
45.699
46.191
46.615
46.965
47.23
47.403
47.477
47.444
47.297
47.03
46.635
46.108
45.447
44.649
43.711
42.626
41.383
39.977
38.41
36.687
34.815
32.806
30.671
28.435
26.132
23.794
21.451
19.128
16.843
14.623
12.499
10.508
8.688
7.066
5.65
4.45
3.47
2.697
2.108
1.652
1.249
0.83
0.332
-0.306
-1.132
-2.21
-3.608
-5.387
-7.599
-10.268
-13.39
-16.942
-20.892
-25.163
-29.661
-34.267
-38.8
-43.078
-46.905
-50.053
-52.299
-53.432
-53.203
-51.314
-47.572
-41.922
-34.476
-25.587
-15.618
-4.823
6.475
17.858
29.16
40.518
52.448
66.071
82.429
102.056
125.353
152.439
182.646
214.616
246.177
273.983
294.618
305.34
303.647
287.787
257.431
213.444
158.026
95.063
29.062
-35.656
-94.595
-143.833
-180.941
-204.739
-215.323
-214.304
-204.139
-187.537
-167.802
-148.166
-130.756
-116.852
-107.033
-101.055
-98.267
-97.865
-98.556
-98.943
-98.32
-96.429
-93.306
-89.298
-84.736
-79.904
-75.287
-71.408
-68.509
-66.646
-65.721
-65.5
-65.825
-66.586
-67.622
-68.771
-69.878
-70.811
-71.508
-71.966
-72.175
-72.13
-71.824
-71.246
-70.422
-69.396
-68.208
-66.896
-65.489
-64.009
-62.487
-60.959
-59.465
-58.044
-56.717
-55.494
-54.38
-53.372
-52.468
-51.664
-50.941
-50.276
-49.647
-49.036
-48.431
-47.819
-47.186
-46.514
-45.79
-44.999
-44.13
-43.175
-42.126
-40.975
-39.718
-38.352
-36.877
-35.295
-33.608
-31.817
-29.924
-27.934
-25.849
-23.676
-21.421
-19.091
-16.694
-14.24
-11.74
-9.207
-6.653
-4.09
-1.533
1.004
3.507
5.962
8.354
10.67
12.896
15.016
17.019
18.892
20.622
22.198
23.61
24.847
25.902
26.766
27.434
27.901
28.164
28.219
28.066
27.705
27.138
26.368
25.398
24.234
22.881
21.349
19.645
17.78
15.765
13.612
11.333
8.942
6.454
3.881
1.24
-1.457
-4.192
-6.953
-9.723
-12.488
-15.235
-17.948
-20.614
-23.221
-25.757
-28.209
-30.568
-32.824
-34.968
-36.994
-38.894
-40.663
-42.296
-43.79
-45.142
-46.351
-47.415
-48.335
-49.113
-49.75
-50.25
-50.618
-50.857
-50.973
-50.973
-50.862
-50.649
-50.339
-49.941
-49.462
-48.912
-48.298
-47.628
-46.912
-46.157
-45.372
-44.564
-43.742
-42.912
-42.082
-41.257
-40.444
-39.647
-38.872
-38.123
-37.403
-36.715
-36.063
-35.448
-34.872
-34.335
-33.838
-33.379
-32.959
-32.575
-32.227
-31.91
-31.624
-31.366
-31.132
-30.919
-30.723
-30.542
-30.37
-30.205
-30.04
-29.874
-29.7
-29.516
-29.317
-29.1
-28.862
-28.598
-28.307
-27.985
-27.63
-27.241
-26.816
-26.353
-25.852
-25.312
-24.733
-24.117
-23.464
-22.776
-22.055
-21.302
-20.52
-19.712
-18.88
-18.027
-17.157
-16.273
-15.378
-14.477
-13.573
-12.67
-11.772
-10.884
-10.009
-9.151
-8.314
-7.502
-6.717
-5.963
-5.242
-4.558
-3.912
-3.307
-2.743
-2.221
-1.742
-1.305
-0.91
-0.556
-0.239
0.041
0.289
0.505
0.695
0.861
1.007
1.139
1.259
1.373
1.486
1.604
1.733
1.877
2.044
2.238
2.465
2.731
3.041
3.401
3.815
4.288
4.825
5.43
6.106
6.857
7.685
8.591
9.576
10.641
11.784
13.003
14.298
15.664
17.099
18.598
20.157
21.77
23.432
25.135
26.872
28.636
30.417
32.205
33.991
35.763
37.511
39.225
40.893
42.505
44.049
45.518
46.902
48.193
49.381
50.457
51.414
52.244
52.943
53.501
53.912
54.17
54.273
54.222
54.018
53.661
53.148
52.474
51.642
50.655
49.521
48.245
46.833
45.299
43.665
41.966
40.24
38.52
36.831
35.195
33.635
32.178
30.859
29.703
28.725
27.932
27.329
26.922
26.707
26.663
26.738
26.853
26.915
26.847
26.58
26.068
25.278
24.166
22.667
20.735
18.338
15.475
12.204
8.549
4.49
0.125
-4.349
-8.564
-11.954
-14.135
-14.975
-14.351
-12.156
-8.393
-3.142
3.015
8.901
13.764
17.427
20.03
22.036
23.955
26.38
30.723
39.294
53.945
75.534
104.028
138.602
178.039
220.508
263.044
301.439
331.32
349.36
353.257
341.482
313.602
270.568
214.677
149.9
81.305
13.432
-49.473
-103.193
-144.922
-173.364
-188.288
-191.091
-184.397
-170.715
-152.989
-134.682
-118.089
-104.504
-94.675
-88.324
-84.661
-83.036
-82.344
-81.112
-78.586
-74.499
-68.87
-62.201
-54.98
-47.533
-40.37
-34.088
-29.027
-25.38
-23.178
-22.23
-22.377
-23.497
-25.418
-27.962
-30.951
-34.186
-37.483
-40.729
-43.842
-46.758
-49.431
-51.801
-53.807
-55.4
-56.562
-57.295
-57.608
-57.517
-57.038
-56.203
-55.074
-53.737
-52.29
-50.799
-49.302
-47.821
-46.367
-44.957
-43.607
-42.327
-41.105
-39.93
-38.792
-37.687
-36.609
-35.546
-34.469
-33.342
-32.126
-30.793
-29.326
-27.716
-25.955
-24.038
-21.963
-19.733
-17.361
-14.856
-12.225
-9.472
-6.604
-3.63
-0.564
2.579
5.78
9.024
12.295
15.575
18.847
22.095
25.302
28.455
31.54
34.542
37.445
40.235
42.895
45.409
47.765
49.947
51.942
53.74
55.328
56.699
57.845
58.76
59.439
59.88
60.079
60.038
59.756
59.236
58.481
57.497
56.289
54.866
53.237
51.41
49.398
47.213
44.868
42.376
39.752
37.011
34.167
31.237
28.236
25.181
22.086
18.968
15.841
12.722
9.625
6.564
3.551
0.598
-2.282
-5.081
-7.787
-10.394
-12.893
-15.279
-17.544
-19.686
-21.701
-23.586
-25.34
-26.962
-28.453
-29.815
-31.05
-32.161
-33.152
-34.027
-34.793
-35.454
-36.018
-36.492
-36.882
-37.197
-37.445
-37.632
-37.768
-37.859
-37.914
-37.94
-37.944
-37.932
-37.912
-37.89
-37.87
-37.86
-37.862
-37.883
-37.924
-37.991
-38.085
-38.209
-38.365
-38.552
-38.772
-39.025
-39.31
-39.625
-39.968
-40.338
-40.731
-41.143
-41.571
-42.01
-42.455
-42.901
-43.343
-43.776
-44.193
-44.59
-44.961
-45.3
-45.603
-45.863
-46.077
-46.238
-46.343
-46.387
-46.365
-46.275
-46.113
-45.876
-45.561
-45.167
-44.692
-44.135
-43.497
-42.776
-41.974
-41.092
-40.132
-39.097
-37.99
-36.815
-35.577
-34.28
-32.93
-31.534
-30.096
-28.625
-27.127
-25.609
-24.078
-22.542
-21.008
-19.484
-17.979
-16.499
-15.052
-13.646
-12.287
-10.983
-9.739
-8.561
-7.456
-6.428
-5.481
-4.62
-3.848
-3.167
-2.579
-2.086
-1.687
-1.382
-1.17
-1.048
-1.015
-1.065
-1.196
-1.402
-1.679
-2.021
-2.42
-2.871
-3.365
-3.896
-4.454
-5.031
-5.618
-6.206
-6.788
-7.353
-7.894
-8.402
-8.869
-9.287
-9.65
-9.95
-10.182
-10.34
-10.42
-10.418
-10.331
-10.157
-9.895
-9.546
-9.11
-8.589
-7.986
-7.304
-6.548
-5.722
-4.832
-3.887
-2.893
-1.859
-0.794
0.29
1.381
2.468
3.537
4.576
5.573
6.513
7.386
8.178
8.88
9.481
9.971
10.339
10.575
10.671
10.618
10.411
10.041
9.504
8.794
7.909
6.849
5.613
4.2
2.606
0.827
-1.138
-3.282
-5.597
-8.072
-10.691
-13.437
-16.28
-19.182
-22.106
-25.017
-27.881
-30.67
-33.346
-35.868
-38.195
-40.288
-42.122
-43.684
-44.964
-45.964
-46.698
-47.203
-47.534
-47.774
-47.994
-48.268
-48.668
-49.267
-50.144
-51.376
-53.027
-55.139
-57.726
-60.773
-64.249
-68.099
-72.234
-76.549
-80.886
-85.041
-88.808
-91.949
-94.207
-95.345
-95.082
-93.087
-89.169
-83.283
-75.534
-66.251
-55.75
-44.212
-31.973
-19.481
-6.831
6.178
20.143
36.152
54.967
76.777
101.82
130.245
161.311
193.554
224.601
251.114
270.253
280.043
278.518
263.965
236.04
195.673
145.236
88.602
29.536
-28.716
-82.549
-128.266
-163.424
-186.885
-198.851
-200.994
-195.231
-183.36
-167.852
-151.622
-136.767
-124.526
-115.371
-108.873
-104.492
-101.811
-99.935
-97.662
-94.277
-89.487
-83.352
-76.36
-68.94
-61.375
-54.096
-47.601
-42.188
-38.023
-35.139
-33.379
-32.601
-32.69
-33.495
-34.864
-36.648
-38.686
-40.828
-42.956
-44.974
-46.813
-48.427
-49.771
-50.808
-51.503
-51.823
-51.755
-51.303
-50.478
-49.298
-47.781
-45.966
-43.91
-41.691
-39.39
-37.059
-34.73
-32.42
-30.139
-27.898
-25.708
-23.574
-21.49
-19.45
-17.447
-15.479
-13.539
-11.617
-9.689
-7.723
-5.684
-3.549
-1.303
1.062
3.549
6.164
8.906
11.772
14.75
17.833
21.015
24.289
27.651
31.093
34.6
38.158
41.75
45.36
48.973
52.573
56.143
59.667
63.132
66.522
69.826
73.03
76.119
79.079
81.893
84.547
87.029
89.323
91.418
93.302
94.964
96.396
97.59
98.542
99.245
99.698
99.898
99.845
99.54
98.985
98.185
97.146
95.873
94.376
92.664
90.749
88.643
86.359
83.913
81.32
78.595
75.755
72.817
69.798
66.717
63.59
60.438
57.276
54.124
50.999
47.919
44.899
41.956
39.105
36.358
33.73
31.231
28.873
26.664
24.614
22.728
21.014
19.475
18.114
16.934
15.934
15.114
14.472
14.005
13.708
13.576
13.603
13.78
14.101
14.557
15.137
15.833
16.633
17.527
18.504
19.552
20.66
21.816
23.01
24.229
25.463
26.702
27.935
29.153
30.348
31.509
32.631
33.706
34.726
35.688
36.586
37.415
38.172
38.856
39.463
39.994
40.449
40.827
41.13
41.36
41.519
41.61
41.637
41.602
41.51
41.366
41.173
40.937
40.664
40.357
40.023
39.668
39.295
38.91
38.519
38.124
37.732
37.346
36.97
36.607
36.261
35.935
35.631
35.351
35.097
34.87
34.67
34.497
34.351
34.231
34.135
34.062
34.01
33.977
33.961
33.96
33.972
33.992
34.019
34.049
34.079
34.104
34.122
34.129
34.122
34.097
34.052
33.985
33.892
33.771
33.62
33.436
33.218
32.965
32.675
32.348
31.984
31.583
31.148
30.681
30.184
29.661
29.118
28.557
27.983
27.401
26.814
26.226
25.642
25.068
24.507
23.967
23.453
22.974
22.539
22.157
21.836
21.581
21.401
21.3
21.286
21.365
21.537
21.809
22.185
22.673
23.285
24.028
24.899
25.895
27.004
28.215
29.523
30.913
32.368
33.876
35.43
37.031
38.694
40.425
42.218
44.062
45.932
47.812
49.703
51.603
53.516
55.446
57.39
59.361
61.389
63.48
65.624
67.784
69.894
71.906
73.792
75.53
77.111
78.515
79.704
80.653
81.342
81.748
81.852
81.609
80.951
79.842
78.284
76.307
73.986
71.369
68.489
65.383
62.09
58.663
55.169
51.651
48.137
44.663
41.274
38.037
35.042
32.347
29.972
27.915
26.144
24.639
23.394
22.373
21.53
20.791
20.072
19.317
18.483
17.537
16.459
15.192
13.66
11.81
9.601
7.033
4.181
1.069
-2.332
-5.926
-9.549
-12.855
-15.293
-16.523
-16.464
-15.034
-12.159
-7.878
-2.298
3.943
9.608
13.924
16.737
18.22
18.872
19.252
20.029
22.715
29.76
43.073
63.485
90.913
124.445
162.819
204.216
245.616
282.71
311.186
327.812
330.439
317.77
289.319
245.832
189.569
124.441
55.252
-13.618
-78.227
-134.731
-180.026
-212.376
-231.392
-238.192
-235.037
-224.274
-208.423
-190.536
-173.371
-158.733
-147.607
-140.097
-135.652
-133.691
-133.474
-133.832
-133.654
-132.349
-129.744
-126.043
-121.667
-116.949
-112.186
-107.807
-104.232
-101.672
-100.164
-99.582
-99.709
-100.376
-101.458
-102.806
-104.262
-105.682
-106.943
-107.983
-108.79
-109.356
-109.675
-109.743
-109.56
-109.151
-108.558
-107.822
-106.979
-106.06
-105.091
-104.105
-103.139
-102.229
-101.412
-100.709
-100.126
-99.665
-99.32
-99.083
-98.942
-98.877
-98.859
-98.863
-98.869
-98.858
-98.813
-98.715
-98.544
-98.281
-97.906
-97.406
-96.766
-95.976
-95.024
-93.904
-92.609
-91.137
-89.488
-87.662
-85.659
-83.48
-81.127
-78.605
-75.919
-73.077
-70.086
-66.955
-63.697
-60.326
-56.854
-53.298
-49.673
-45.997
-42.286
-38.559
-34.833
-31.127
-27.46
-23.849
-20.315
-16.876
-13.55
-10.355
-7.309
-4.429
-1.731
0.77
3.059
5.125
6.954
8.538
9.866
10.931
11.728
12.25
12.496
12.462
12.148
11.557
10.69
9.552
8.149
6.489
4.581
2.433
0.058
-2.533
-5.326
-8.307
-11.463
-14.776
-18.23
-21.809
-25.493
-29.265
-33.106
-36.996
-40.918
-44.851
-48.777
-52.677
-56.532
-60.325
-64.038
-67.652
-71.152
-74.522
-77.744
-80.805
-83.691
-86.389
-88.887
-91.173
-93.24
-95.077
-96.677
-98.035
-99.145
-100.003
-100.606
-100.953
-101.043
-100.878
-100.46
-99.792
-98.879
-97.726
-96.341
-94.731
-92.906
-90.874
-88.646
-86.233
-83.647
-80.901
-78.007
-74.979
-71.832
-68.581
-65.239
-61.823
-58.347
-54.827
-51.278
-47.715
-44.152
-40.604
-37.084
-33.605
-30.182
-26.826
-23.548
-20.359
-17.271
-14.291
-11.427
-8.688
-6.08
-3.609
-1.279
0.906
2.943
4.829
6.561
8.14
9.566
10.838
11.958
12.929
13.752
14.432
14.973
15.379
15.656
15.808
15.842
15.764
15.58
15.297
14.921
14.46
13.919
13.306
12.628
11.89
11.1
10.263
9.386
8.473
7.531
6.565
5.579
4.58
3.571
2.559
1.546
0.539
-0.458
-1.441
-2.405
-3.346
-4.26
-5.144
-5.992
-6.802
-7.57
-8.293
-8.967
-9.588
-10.154
-10.661
-11.107
-11.487
-11.8
-12.041
-12.207
-12.297
-12.306
-12.232
-12.072
-11.824
-11.484
-11.052
-10.525
-9.9
-9.178
-8.356
-7.436
-6.417
-5.299
-4.084
-2.775
-1.372
0.12
1.698
3.357
5.093
6.902
8.777
10.711
12.699
14.732
16.804
18.906
21.028
23.16
25.291
27.412
29.512
31.581
33.607
35.581
37.495
39.341
41.11
42.795
44.386
45.875
47.255
48.517
49.654
50.658
51.525
52.254
52.845
53.3
53.617
53.794
53.826
53.712
53.456
53.058
52.52
51.853
51.069
50.198
49.274
48.328
47.382
46.457
45.565
44.733
43.99
43.357
42.861
42.512
42.32
42.306
42.483
42.842
43.35
43.938
44.524
45.048
45.468
45.753
45.868
45.739
45.294
44.464
43.2
41.516
39.41
36.815
33.763
30.378
26.889
23.744
21.352
19.855
19.379
20.039
21.715
24.361
27.751
31.124
33.824
35.608
36.387
36.53
36.85
37.782
39.967
44.861
53.832
68.046
88.401
114.636
145.725
181.046
219.515
258.906
296.618
329.468
354.162
368.711
371.889
362.193
338.843
302.476
254.764
198.85
138.746
77.871
19.458
-32.78
-75.652
-107.2
-126.647
-134.758
-133.401
-124.487
-110.185
-93.314
-76.582
-61.887
-50.313
-42.037
-36.578
-33.409
-31.863
-30.859
-29.284
-26.513
-22.352
-16.976
-10.813
-4.221
2.499
8.906
14.533
19.112
22.524
24.783
26.038
26.414
26.007
24.962
23.448
21.631
19.692
17.776
15.963
14.317
12.886
11.697
10.791
10.192
9.911
9.975
10.393
11.162
12.281
13.731
15.471
17.448
19.584
21.788
24.002
26.187
28.315
30.379
32.367
34.271
36.091
37.827
39.476
41.041
42.517
43.905
45.217
46.468
47.686
48.908
50.16
51.456
52.81
54.226
55.707
57.254
58.863
60.526
62.239
63.997
65.798
67.641
69.522
71.432
73.364
75.304
77.241
79.164
81.062
82.925
84.742
86.505
88.205
89.834
91.386
92.851
94.22
95.483
96.63
97.653
98.542
99.29
99.887
100.328
100.607
100.718
100.657
100.423
100.011
99.421
98.652
97.705
96.581
95.283
93.812
92.174
90.373
88.415
86.305
84.052
81.663
79.148
76.514
73.773
70.935
68.009
65.006
61.939
58.818
55.654
52.461
49.248
46.027
42.81
39.609
36.433
33.293
30.199
27.16
24.184
21.28
18.455
15.716
13.068
10.517
8.068
5.725
3.491
1.37
-0.638
-2.53
-4.306
-5.966
-7.51
-8.941
-10.261
-11.471
-12.577
-13.58
-14.487
-15.302
-16.029
-16.675
-17.246
-17.747
-18.185
-18.567
-18.898
-19.186
-19.438
-19.659
-19.857
-20.038
-20.207
-20.372
-20.538
-20.71
-20.893
-21.093
-21.315
-21.562
-21.839
-22.149
-22.496
-22.882
-23.309
-23.779
-24.292
-24.85
-25.452
-26.097
-26.785
-27.514
-28.283
-29.088
-29.928
-30.8
-31.701
-32.626
-33.573
-34.537
-35.514
-36.499
-37.49
-38.48
-39.466
-40.443
-41.407
-42.354
-43.279
-44.178
-45.047
-45.881
-46.679
-47.435
-48.147
-48.811
-49.427
-49.991
-50.503
-50.961
-51.364
-51.714
-52.009
-52.251
-52.439
-52.577
-52.665
-52.704
-52.697
-52.647
-52.556
-52.426
-52.26
-52.062
-51.834
-51.579
-51.299
-50.999
-50.68
-50.345
-49.997
-49.639
-49.271
-48.898
-48.521
-48.141
-47.76
-47.379
-46.999
-46.62
-46.242
-45.863
-45.483
-45.099
-44.712
-44.317
-43.913
-43.498
-43.069
-42.623
-42.158
-41.67
-41.157
-40.616
-40.044
-39.438
-38.796
-38.117
-37.398
-36.638
-35.837
-34.994
-34.109
-33.182
-32.216
-31.209
-30.165
-29.084
-27.972
-26.831
-25.665
-24.479
-23.28
-22.075
-20.872
-19.68
-18.507
-17.361
-16.251
-15.186
-14.174
-13.223
-12.34
-11.532
-10.809
-10.178
-9.648
-9.226
-8.918
-8.732
-8.673
-8.749
-8.962
-9.313
-9.803
-10.435
-11.214
-12.147
-13.235
-14.474
-15.859
-17.383
-19.037
-20.805
-22.665
-24.583
-26.529
-28.472
-30.389
-32.255
-34.04
-35.71
-37.231
-38.573
-39.718
-40.658
-41.381
-41.883
-42.178
-42.292
-42.274
-42.194
-42.11
-42.079
-42.164
-42.428
-42.939
-43.769
-44.965
-46.56
-48.562
-50.953
-53.715
-56.807
-60.151
-63.656
-67.19
-70.582
-73.659
-76.23
-78.07
-78.965
-78.673
-76.909
-73.484
-68.333
-61.525
-53.316
-43.98
-33.721
-22.814
-11.639
-0.406
10.966
22.899
36.227
51.766
69.934
90.993
115.189
142.244
171.094
199.972
226.246
246.966
259.814
262.773
253.863
232.149
198.064
153.108
100.221
43.324
-14.012
-68.119
-114.967
-151.741
-176.986
-190.171
-192.261
-185.322
-171.383
-153.03
-133.49
-114.977
-98.864
-86.085
-76.623
-69.967
-65.666
-62.745
-59.824
-56.198
-51.577
-45.866
-39.41
-32.541
-25.492
-18.75
-12.915
-8.329
-5.142
-3.329
-2.675
-3.013
-4.216
-6.089
-8.41
-10.942
-13.486
-15.925
-18.217
-20.334
-22.237
-23.868
-25.163
-26.08
-26.607
-26.757
-26.546
-25.987
-25.11
-23.964
-22.624
-21.194
-19.758
-18.369
-17.055
-15.83
-14.704
-13.697
-12.824
-12.086
-11.478
-10.991
-10.619
-10.36
-10.205
-10.133
-10.11
-10.092
-10.045
-9.948
-9.785
-9.547
-9.226
-8.815
-8.312
-7.722
-7.05
-6.298
-5.465
-4.551
-3.558
-2.49
-1.359
-0.174
1.053
2.313
3.595
4.887
6.179
7.459
8.718
9.947
11.137
12.276
13.352
14.351
15.262
16.071
16.766
17.334
17.764
18.045
18.167
18.123
17.903
17.502
16.914
16.133
15.156
13.981
12.606
11.031
9.256
7.285
5.121
2.769
0.235
-2.474
-5.349
-8.38
-11.558
-14.869
-18.302
-21.844
-25.48
-29.195
-32.974
-36.8
-40.658
-44.531
-48.403
-52.255
-56.072
-59.838
-63.536
-67.153
-70.673
-74.082
-77.367
-80.517
-83.518
-86.362
-89.037
-91.537
-93.853
-95.978
-97.908
-99.639
-101.167
-102.49
-103.608
-104.521
-105.23
-105.738
-106.048
-106.166
-106.097
-105.847
-105.425
-104.838
-104.096
-103.208
-102.185
-101.036
-99.773
-98.406
-96.948
-95.409
-93.801
-92.134
-90.421
-88.672
-86.897
-85.106
-83.311
-81.519
-79.74
-77.983
-76.255
-74.564
-72.916
-71.318
-69.774
-68.291
-66.871
-65.517
-64.234
-63.021
-61.88
-60.811
-59.815
-58.888
-58.031
-57.241
-56.515
-55.85
-55.243
-54.69
-54.186
-53.729
-53.312
-52.933
-52.586
-52.266
-51.969
-51.691
-51.427
-51.172
-50.923
-50.675
-50.424
-50.167
-49.9
-49.62
-49.323
-49.008
-48.671
-48.311
-47.926
-47.515
-47.077
-46.612
-46.119
-45.599
-45.053
-44.481
-43.884
-43.263
-42.62
-41.956
-41.272
-40.57
-39.85
-39.115
-38.366
-37.603
-36.828
-36.042
-35.245
-34.438
-33.622
-32.796
-31.96
-31.115
-30.259
-29.392
-28.515
-27.625
-26.721
-25.804
-24.87
-23.918
-22.947
-21.953
-20.934
-19.887
-18.809
-17.697
-16.548
-15.359
-14.128
-12.852
-11.528
-10.154
-8.729
-7.251
-5.719
-4.131
-2.488
-0.789
0.965
2.772
4.631
6.54
8.497
10.497
12.536
14.612
16.72
18.854
21.011
23.183
25.365
27.55
29.731
31.899
34.046
36.162
38.237
40.261
42.225
44.118
45.933
47.659
49.288
50.816
52.234
53.537
54.718
55.77
56.69
57.473
58.115
58.612
58.963
59.165
59.218
59.124
58.885
58.5
57.969
57.289
56.461
55.491
54.387
53.158
51.821
50.392
48.897
47.372
45.85
44.362
42.943
41.62
40.426
39.394
38.552
37.931
37.551
37.418
37.531
37.883
38.45
39.195
40.065
40.983
41.872
42.652
43.241
43.563
43.551
43.134
42.266
40.917
39.084
36.79
34.086
31.028
27.691
24.184
20.654
17.297
14.344
12.04
10.62
10.344
11.526
14.362
18.907
25.064
32.511
40.923
50.107
59.755
69.461
79.192
89.225
100.193
113.221
129.139
148.209
170.738
196.922
226.016
256.511
286.007
311.147
329.056
337.707
335.048
319.278
290.013
248.194
196.238
138.051
77.427
17.651
-37.601
-84.538
-120.653
-144.792
-157.168
-159.469
-153.641
-141.514
-125.615
-108.947
-93.652
-80.999
-71.519
-64.826
-60.411
-57.865
-56.264
-54.344
-51.369
-47.051
-41.428
-34.971
-28.08
-21.025
-14.278
-8.392
-3.719
-0.438
1.45
2.136
1.779
0.501
-1.53
-4.138
-7.129
-10.31
-13.53
-16.679
-19.673
-22.438
-24.897
-26.972
-28.596
-29.729
-30.355
-30.475
-30.099
-29.246
-27.943
-26.226
-24.165
-21.836
-19.318
-16.686
-13.992
-11.27
-8.557
-5.881
-3.268
-0.735
1.716
4.09
6.389
8.616
10.776
12.875
14.935
16.981
19.038
21.133
23.284
25.5
27.79
30.157
32.603
35.124
37.712
40.357
43.049
45.78
48.544
51.333
54.137
56.943
59.739
62.51
65.245
67.931
70.558
73.113
75.588
77.973
80.262
82.447
84.521
86.477
88.306
90.001
91.554
92.959
94.21
95.301
96.227
96.985
97.571
97.986
98.228
98.298
98.197
97.926
97.49
96.891
96.134
95.225
94.17
92.974
91.647
90.195
88.627
86.954
85.183
83.324
81.388
79.384
77.321
75.211
73.062
70.884
68.687
66.481
64.274
62.076
59.894
57.738
55.614
53.53
51.491
49.504
47.573
45.704
43.9
42.164
40.498
38.905
37.385
35.941
34.57
33.274
32.05
30.898
29.816
28.801
27.851
26.963
26.133
25.359
24.635
23.96
23.328
22.737
22.182
21.66
21.168
20.701
20.258
19.835
19.429
19.037
18.657
18.288
17.926
17.572
17.222
16.877
16.536
16.2
15.867
15.538
15.215
14.899
14.59
14.29
14.002
13.727
13.467
13.226
13.006
12.81
12.641
12.502
12.395
12.324
12.292
12.301
12.352
12.45
12.594
12.788
13.033
13.33
13.68
14.084
14.543
15.056
15.625
16.248
16.924
17.653
18.432
19.261
20.136
21.056
22.018
23.019
24.056
25.125
26.221
27.342
28.482
29.638
30.803
31.975
33.147
34.314
35.474
36.62
37.748
38.855
39.936
40.987
42.005
42.986
43.927
44.826
45.68
46.486
47.245
47.953
48.611
49.218
49.775
50.281
50.738
51.147
51.51
51.829
52.107
52.345
52.548
52.719
52.862
52.981
53.08
53.165
53.238
53.306
53.374
53.445
53.524
53.616
53.726
53.857
54.013
54.197
54.413
54.664
54.952
55.279
55.646
56.053
56.502
56.992
57.522
58.09
58.694
59.331
59.998
60.69
61.403
62.133
62.873
63.617
64.359
65.093
65.811
66.505
67.168
67.788
68.358
68.866
69.305
69.664
69.934
70.108
70.178
70.139
69.986
69.713
69.316
68.79
68.129
67.329
66.387
65.302
64.074
62.705
61.197
59.556
57.786
55.889
53.869
51.723
49.449
47.05
44.531
41.903
39.185
36.396
33.56
30.708
27.865
25.056
22.307
19.641
17.082
14.656
12.39
10.31
8.448
6.823
5.443
4.302
3.364
2.584
1.913
1.292
0.68
0.034
-0.726
-1.673
-2.891
-4.476
-6.456
-8.861
-11.781
-15.198
-19.016
-23.09
-27.052
-30.538
-33.426
-35.564
-36.821
-37.375
-37.322
-36.789
-36.388
-36.607
-37.528
-39.282
-41.632
-43.702
-44.916
-44.77
-42.099
-35.874
-25.33
-9.477
11.946
38.12
68.4
102.145
137.855
173.67
207.289
235.588
255.876
266.568
266.154
253.154
227.023
188.275
138.664
81.456
20.394
-41.259
-100.161
-152.644
-195.597
-227.082
-246.471
-254.616
-253.292
-244.341
-229.884
-212.654
-195.301
-179.683
-166.847
-157.006
-149.781
-144.736
-141.302
-138.478
-135.212
-130.92
-125.442
-118.967
-111.911
-104.628
-97.431
-90.782
-85.196
-80.967
-78.194
-76.815
-76.629
-77.465
-79.195
-81.644
-84.6
-87.862
-91.233
-94.557
-97.759
-100.766
-103.505
-105.906
-107.884
-109.383
-110.394
-110.919
-110.974
-110.585
-109.773
-108.574
-107.054
-105.289
-103.364
-101.363
-99.336
-97.319
-95.343
-93.434
-91.623
-89.93
-88.35
-86.873
-85.491
-84.194
-82.976
-81.827
-80.721
-79.629
-78.52
-77.362
-76.134
-74.823
-73.416
-71.907
-70.289
-68.561
-66.729
-64.802
-62.788
-60.691
-58.516
-56.269
-53.959
-51.6
-49.202
-46.778
-44.342
-41.905
-39.481
-37.083
-34.72
-32.405
-30.147
-27.955
-25.84
-23.812
-21.882
-20.061
-18.36
-16.789
-15.356
-14.071
-12.943
-11.977
-11.179
-10.553
-10.102
-9.828
-9.733
-9.816
-10.075
-10.509
-11.114
-11.886
-12.819
-13.906
-15.14
-16.511
-18.01
-19.625
-21.346
-23.16
-25.054
-27.017
-29.034
-31.093
-33.179
-35.28
-37.382
-39.471
-41.535
-43.56
-45.535
-47.447
-49.285
-51.04
-52.703
-54.263
-55.716
-57.052
-58.268
-59.359
-60.32
-61.149
-61.845
-62.405
-62.831
-63.124
-63.285
-63.319
-63.228
-63.019
-62.696
-62.266
-61.735
-61.111
-60.403
-59.617
-58.762
-57.847
-56.881
-55.873
-54.831
-53.764
-52.682
-51.592
-50.502
-49.419
-48.352
-47.307
-46.289
-45.305
-44.361
-43.46
-42.608
-41.807
-41.062
-40.374
-39.747
-39.18
-38.675
-38.232
-37.851
-37.53
-37.269
-37.065
-36.916
-36.819
-36.773
-36.773
-36.815
-36.897
-37.014
-37.162
-37.338
-37.537
-37.755
-37.989
-38.234
-38.488
-38.747
-39.008
-39.268
-39.524
-39.773
-40.014
-40.245
-40.462
-40.666
-40.854
-41.026
-41.181
-41.319
-41.439
-41.543
-41.628
-41.698
-41.751
-41.789
-41.812
-41.822
-41.82
-41.807
-41.784
-41.752
-41.714
-41.67
-41.622
-41.57
-41.516
-41.461
-41.404
-41.348
-41.291
-41.235
-41.179
-41.123
-41.068
-41.012
-40.954
-40.895
-40.833
-40.766
-40.694
-40.613
-40.524
-40.422
-40.307
-40.176
-40.028
-39.86
-39.67
-39.456
-39.216
-38.947
-38.649
-38.317
-37.95
-37.547
-37.106
-36.624
-36.101
-35.536
-34.928
-34.277
-33.582
-32.844
-32.063
-31.239
-30.374
-29.468
-28.524
-27.543
-26.528
-25.482
-24.408
-23.31
-22.192
-21.06
-19.917
-18.769
-17.621
-16.48
-15.35
-14.238
-13.151
-12.094
-11.076
-10.103
-9.182
-8.323
-7.532
-6.817
-6.187
-5.649
-5.208
-4.87
-4.641
-4.522
-4.518
-4.632
-4.864
-5.217
-5.695
-6.3
-7.034
-7.897
-8.887
-10.001
-11.233
-12.577
-14.026
-15.572
-17.21
-18.937
-20.751
-22.646
-24.617
-26.652
-28.733
-30.837
-32.938
-35.006
-37.013
-38.935
-40.747
-42.429
-43.967
-45.351
-46.566
-47.592
-48.407
-48.995
-49.35
-49.479
-49.399
-49.145
-48.759
-48.296
-47.815
-47.35
-46.943
-46.647
-46.501
-46.552
-46.852
-47.4
-48.215
-49.355
-50.769
-52.35
-53.932
-55.158
-55.694
-55.419
-54.189
-51.905
-48.734
-44.778
-40.319
-36.149
-32.931
-30.935
-30.306
-30.742
-31.501
-32.167
-32.032
-29.577
-23.383
-12.266
4.67
27.225
54.494
85.941
120.497
155.929
189.61
218.377
239.022
249.605
248.934
235.542
208.752
169.363
119.244
61.691
0.808
-59.938
-117.312
-167.618
-207.785
-236.086
-251.968
-256.399
-251.411
-239.018
-221.493
-201.74
-182.428
-165.366
-151.599
-141.276
-133.932
-129.066
-125.968
-123.526
-120.673
-116.806
-111.728
-105.597
-98.767
-91.525
-84.146
-77.032
-70.58
-64.992
-60.29
-56.358
-52.994
-50.043
-47.404
-44.95
-42.531
-40.022
-37.324
-34.391
-31.232
-27.853
-24.249
-20.424
-16.388
-12.171
-7.823
-3.388
1.097
5.598
10.087
14.53
18.89
23.129
27.215
31.128
34.861
38.409
41.774
44.959
47.973
50.83
53.553
56.161
58.669
61.091
63.44
65.731
67.98
70.202
72.408
74.612
76.821
79.045
81.288
83.557
85.855
88.181
90.535
92.917
95.325
97.756
100.209
102.678
105.158
107.643
110.125
112.597
115.049
117.47
119.85
122.176
124.438
126.624
128.721
130.718
132.603
134.363
135.988
137.464
138.783
139.932
140.902
141.683
142.268
142.648
142.817
142.769
142.5
142.008
141.289
140.344
139.172
137.776
136.158
134.324
132.278
130.028
127.581
124.946
122.134
119.154
116.02
112.742
109.334
105.808
102.178
98.458
94.661
90.801
86.893
82.951
78.987
75.016
71.052
67.106
63.191
59.32
55.502
51.75
48.072
44.478
40.976
37.574
34.279
31.096
28.03
25.086
22.267
19.575
17.011
14.577
12.273
10.097
8.049
6.128
4.331
2.657
1.101
-0.34
-1.668
-2.889
-4.006
-5.024
-5.948
-6.781
-7.53
-8.198
-8.791
-9.314
-9.77
-10.165
-10.503
-10.789
-11.028
-11.224
-11.381
-11.502
-11.593
-11.655
-11.693
-11.709
-11.707
-11.689
-11.658
-11.617
-11.568
-11.514
-11.457
-11.4
-11.346
-11.295
-11.251
-11.215
-11.189
-11.175
-11.175
-11.191
-11.224
-11.277
-11.352
-11.449
-11.57
-11.717
-11.891
-12.094
-12.325
-12.587
-12.879
-13.204
-13.563
-13.955
-14.383
-14.846
-15.346
-15.881
-16.451
-17.055
-17.693
-18.363
-19.063
-19.791
-20.545
-21.321
-22.119
-22.934
-23.764
-24.604
-25.453
-26.304
-27.155
-28.001
-28.837
-29.659
-30.463
-31.243
-31.995
-32.714
-33.395
-34.031
-34.618
-35.147
-35.612
-36.004
-36.317
-36.544
-36.678
-36.711
-36.639
-36.456
-36.16
-35.745
-35.209
-34.546
-33.753
-32.823
-31.754
-30.539
-29.173
-27.651
-25.968
-24.12
-22.106
-19.923
-17.568
-15.037
-12.324
-9.426
-6.343
-3.08
0.357
3.958
7.71
11.594
15.584
19.655
23.786
27.956
32.153
36.365
40.583
44.796
48.992
53.167
57.33
61.493
65.672
69.887
74.159
78.516
83.002
87.653
92.492
97.536
102.781
108.216
113.823
119.577
125.444
131.374
137.298
143.136
148.8
154.205
159.268
163.897
167.989
171.454
174.219
176.236
177.476
177.924
177.579
176.45
174.565
171.985
168.786
165.062
160.923
156.474
151.82
147.08
142.377
137.824
133.514
129.514
125.876
122.648
119.867
117.565
115.755
114.412
113.501
112.973
112.758
112.799
113.027
113.341
113.644
113.843
113.863
113.672
113.25
112.58
111.635
110.362
108.745
106.834
104.691
102.425
100.11
97.708
95.341
93.317
91.936
91.561
92.385
94.248
97.204
101.603
107.399
114.291
121.791
128.888
135.137
140.959
146.368
151.099
155.549
160.273
166.365
176.011
190.3
208.948
232.01
259.183
289.051
319.947
349.109
372.171
386.003
388.749
378.33
353.947
316.419
267.16
209.25
147.613
86.447
29.558
-18.786
-55.94
-80.81
-92.973
-93.664
-85.525
-70.956
-52.783
-34.457
-18.16
-5.14
3.755
8.745
10.572
9.829
7.607
5.355
3.792
3.255
3.872
5.293
7.193
9.37
11.405
12.825
13.423
13.134
12.032
10.352
8.258
5.876
3.371
0.897
-1.4
-3.425
-5.141
-6.554
-7.673
-8.5
-9.031
-9.271
-9.255
-9.018
-8.595
-8.021
-7.319
-6.52
-5.662
-4.778
-3.906
-3.069
-2.275
-1.529
-0.83
-0.174
0.443
1.029
1.604
2.182
2.777
3.401
4.063
4.772
5.543
6.387
7.314
8.333
9.449
10.666
11.987
13.415
14.949
16.587
18.325
20.159
22.085
24.1
26.196
28.369
30.609
32.908
35.256
37.644
40.058
42.487
44.915
47.33
49.717
52.061
54.349
56.565
58.695
60.726
62.642
64.432
66.081
67.577
68.909
70.065
71.035
71.81
72.382
72.742
72.886
72.808
72.504
71.971
71.209
70.218
68.998
67.553
65.886
64.003
61.909
59.613
57.124
54.451
51.605
48.597
45.44
42.147
38.731
35.205
31.584
27.881
24.111
20.287
16.422
12.532
8.628
4.724
0.833
-3.034
-6.866
-10.65
-14.378
-18.04
-21.628
-25.133
-28.549
-31.87
-35.09
-38.207
-41.215
-44.114
-46.901
-49.576
-52.139
-54.59
-56.933
-59.168
-61.299
-63.329
-65.263
-67.104
-68.857
-70.526
-72.117
-73.634
-75.081
-76.465
-77.791
-79.062
-80.286
-81.466
-82.607
-83.715
-84.794
-85.849
-86.883
-87.901
-88.905
-89.898
-90.883
-91.862
-92.837
-93.81
-94.782
-95.753
-96.724
-97.693
-98.661
-99.626
-100.585
-101.538
-102.481
-103.413
-104.332
-105.237
-106.125
-106.993
-107.842
-108.67
-109.473
-110.25
-110.999
-111.716
-112.4
-113.047
-113.654
-114.219
-114.739
-115.213
-115.64
-116.019
-116.348
-116.627
-116.855
-117.033
-117.159
-117.232
-117.25
-117.214
-117.125
-116.986
-116.8
-116.571
-116.301
-115.995
-115.658
-115.295
-114.907
-114.489
-114.036
-113.547
-113.029
-112.495
-111.956
-111.421
-110.899
-110.405
-109.958
-109.571
-109.25
-108.986
-108.763
-108.579
-108.438
-108.358
-108.359
-108.443
-108.599
-108.81
-109.062
-109.344
-109.635
-109.895
-110.065
-110.111
-110.028
-109.845
-109.607
-109.336
-109.04
-108.717
-108.366
-108.012
-107.697
-107.455
-107.307
-107.287
-107.435
-107.832
-108.587
-109.763
-111.376
-113.395
-115.761
-118.435
-121.392
-124.599
-128.014
-131.577
-135.207
-138.843
-142.441
-145.935
-149.25
-152.268
-154.838
-156.854
-158.254
-159.013
-159.142
-158.648
-157.529
-155.809
-153.521
-150.703
-147.42
-143.722
-139.647
-135.266
-130.653
-125.918
-121.203
-116.63
-112.306
-108.32
-104.727
-101.578
-98.923
-96.789
-95.195
-94.167
-93.7
-93.788
-94.417
-95.543
-97.123
-99.092
-101.359
-103.831
-106.404
-108.979
-111.476
-113.823
-115.953
-117.823
-119.392
-120.611
-121.464
-121.951
-122.094
-121.955
-121.584
-121.035
-120.371
-119.662
-119.001
-118.485
-118.197
-118.21
-118.576
-119.321
-120.461
-122.004
-123.916
-126.128
-128.532
-130.974
-133.321
-135.446
-137.206
-138.436
-138.923
-138.437
-136.775
-133.723
-129.042
-122.584
-114.325
-104.372
-93.043
-80.694
-67.603
-54.131
-40.712
-27.524
-14.41
-0.878
13.984
31.044
50.722
73.315
99.094
127.677
157.845
187.63
214.178
234.451
246.126
247.175
235.666
210.843
173.37
125.073
69.241
9.962
-49.093
-104.176
-151.299
-187.787
-212.396
-224.91
-226.619
-219.779
-206.578
-189.713
-172.381
-156.737
-143.999
-134.83
-128.894
-125.381
-123.561
-122.264
-120.037
-116.106
-110.154
-102.138
-92.491
-81.674
-70.034
-58.097
-46.431
-35.342
-25.011
-15.5
-6.739
1.251
8.41
14.712
20.14
24.693
28.393
31.251
33.276
34.511
35
34.791
33.94
32.487
30.481
27.983
25.079
21.894
18.566
15.244
12.053
9.085
6.403
4.052
2.057
0.431
-0.823
-1.704
-2.22
-2.369
-2.158
-1.594
-0.707
0.452
1.818
3.311
4.873
6.464
8.057
9.64
11.208
12.763
14.318
15.892
17.5
19.152
20.856
22.615
24.441
26.353
28.373
30.527
32.833
35.296
37.919
40.698
43.622
46.678
49.847
53.101
56.419
59.78
63.163
66.554
69.93
73.273
76.559
79.767
82.876
85.868
88.723
91.424
93.956
96.303
98.455
100.402
102.134
103.642
104.917
105.953
106.743
107.283
107.572
107.607
107.389
106.92
106.204
105.249
104.06
102.646
101.018
99.185
97.161
94.957
92.588
90.067
87.41
84.632
81.749
78.776
75.73
72.627
69.485
66.318
63.145
59.98
56.84
53.739
50.692
47.713
44.815
42.009
39.308
36.721
34.258
31.926
29.733
27.684
25.784
24.037
22.444
21.007
19.727
18.602
17.63
16.81
16.138
15.61
15.222
14.968
14.842
14.837
14.947
15.163
15.478
15.883
16.37
16.929
17.55
18.225
18.945
19.699
20.478
21.273
22.075
22.877
23.668
24.442
25.19
25.907
26.584
27.217
27.799
28.325
28.791
29.193
29.526
29.787
29.974
30.084
30.116
30.067
29.937
29.726
29.432
29.057
28.6
28.065
27.451
26.762
26
25.168
24.268
23.306
22.284
21.206
20.076
18.898
17.677
16.417
15.121
13.794
12.441
11.065
9.671
8.263
6.845
5.421
3.994
2.57
1.151
-0.258
-1.655
-3.035
-4.396
-5.734
-7.045
-8.328
-9.58
-10.797
-11.979
-13.122
-14.227
-15.29
-16.312
-17.29
-18.225
-19.115
-19.96
-20.758
-21.509
-22.213
-22.869
-23.476
-24.034
-24.543
-25.003
-25.414
-25.775
-26.087
-26.351
-26.566
-26.732
-26.85
-26.92
-26.943
-26.92
-26.851
-26.739
-26.583
-26.385
-26.148
-25.871
-25.556
-25.205
-24.818
-24.398
-23.946
-23.464
-22.953
-22.418
-21.86
-21.282
-20.689
-20.084
-19.47
-18.851
-18.232
-17.616
-17.007
-16.41
-15.829
-15.268
-14.733
-14.228
-13.76
-13.333
-12.953
-12.625
-12.353
-12.142
-11.992
-11.908
-11.89
-11.939
-12.056
-12.242
-12.497
-12.824
-13.222
-13.694
-14.239
-14.853
-15.534
-16.278
-17.081
-17.939
-18.844
-19.793
-20.785
-21.818
-22.889
-23.993
-25.12
-26.255
-27.379
-28.468
-29.494
-30.433
-31.256
-31.935
-32.451
-32.784
-32.923
-32.856
-32.563
-32.029
-31.254
-30.239
-28.998
-27.557
-25.948
-24.232
-22.479
-20.754
-19.126
-17.648
-16.381
-15.402
-14.767
-14.503
-14.622
-15.083
-15.866
-17.021
-18.479
-20.038
-21.476
-22.476
-22.841
-22.622
-21.732
-19.839
-16.809
-12.774
-8.033
-3.248
1.23
5.74
10.464
15.212
19.953
25.03
31.222
40.035
52.669
69.128
89.188
112.842
139.892
169.473
199.77
227.742
250.124
264.81
270.314
265.068
247.6
217.471
175.774
125.274
69.707
12.36
-43.951
-96.06
-140.288
-173.791
-195.33
-205.23
-204.961
-196.108
-180.078
-158.783
-135.283
-112.5
-92.205
-75.197
-61.548
-51.151
-44.12
-40.39
-38.77
-37.727
-36.42
-34.494
-31.977
-29.063
-25.653
-21.506
-17.079
-13.227
-10.417
-8.871
-8.553
-9.205
-10.78
-13.402
-16.869
-20.727
-24.658
-28.411
-31.884
-35.138
-38.117
-40.664
-42.715
-44.27
-45.354
-46.036
-46.344
-46.255
-45.801
-45.045
-44.07
-42.988
-41.867
-40.735
-39.617
-38.528
-37.489
-36.531
-35.665
-34.879
-34.167
-33.519
-32.926
-32.388
-31.886
-31.387
-30.853
-30.243
-29.524
-28.682
-27.703
-26.576
-25.295
-23.856
-22.259
-20.515
-18.629
-16.606
-14.448
-12.158
-9.741
-7.211
-4.579
-1.857
0.941
3.805
6.722
9.679
12.665
15.671
18.687
21.704
24.712
27.7
30.657
33.571
36.429
39.219
41.932
44.554
47.076
49.487
51.779
53.945
55.977
57.87
59.617
61.216
62.662
63.952
65.087
66.063
66.883
67.547
68.057
68.416
68.628
68.696
68.626
68.423
68.093
67.643
67.078
66.407
65.636
64.774
63.828
62.807
61.72
60.574
59.379
58.144
56.876
55.584
54.275
52.958
51.638
50.323
49.02
47.732
46.466
45.227
44.017
42.841
41.702
40.602
39.543
38.528
37.557
36.632
35.753
34.92
34.134
33.394
32.7
32.05
31.443
30.878
30.354
29.868
29.42
29.006
28.625
28.275
27.953
27.658
27.387
27.138
26.91
26.7
26.507
26.329
26.166
26.017
25.88
25.756
25.644
25.543
25.454
25.376
25.309
25.254
25.211
25.179
25.16
25.154
25.161
25.181
25.217
25.267
25.334
25.416
25.515
25.632
25.766
25.918
26.088
26.277
26.485
26.711
26.955
27.216
27.494
27.788
28.095
28.414
28.744
29.083
29.429
29.778
30.13
30.482
30.831
31.176
31.513
31.84
32.155
32.456
32.74
33.004
33.247
33.465
33.658
33.823
33.958
34.061
34.132
34.168
34.17
34.137
34.068
33.963
33.824
33.651
33.447
33.212
32.949
32.662
32.353
32.026
31.685
31.335
30.98
30.624
30.272
29.929
29.6
29.29
29.005
28.749
28.529
28.349
28.215
28.132
28.107
28.143
28.246
28.421
28.672
29.002
29.414
29.913
30.5
31.176
31.944
32.804
33.754
34.795
35.925
37.141
38.439
39.815
41.265
42.783
44.363
45.999
47.683
49.41
51.17
52.956
54.759
56.572
58.384
60.184
61.963
63.707
65.407
67.05
68.626
70.123
71.532
72.846
74.056
75.155
76.139
77
77.734
78.335
78.797
79.116
79.288
79.314
79.195
78.934
78.536
78.004
77.342
76.556
75.645
74.61
73.454
72.18
70.797
69.324
67.785
66.206
64.619
63.052
61.533
60.091
58.755
57.549
56.494
55.607
54.908
54.423
54.173
54.164
54.393
54.828
55.424
56.133
56.889
57.638
58.343
58.937
59.348
59.504
59.33
58.79
57.903
56.646
54.972
52.929
50.602
48.237
46.27
44.968
44.429
44.743
45.925
47.973
50.984
54.651
58.192
61.144
63.318
64.826
66.281
68.128
70.456
73.957
80.003
89.753
104.268
123.948
148.016
175.81
207.017
240.5
274.207
305.661
331.798
350.026
359.07
357.711
344.519
318.959
281.696
234.594
180.871
124.068
67.116
13.038
-34.731
-73.264
-100.783
-116.798
-122.21
-118.712
-108.036
-92.201
-73.845
-55.569
-39.205
-25.816
-15.67
-8.471
-3.84
-1.233
0.33
1.883
4.016
6.969
10.664
14.781
19.045
23.168
26.692
29.177
30.413
30.37
29.179
27.073
24.244
20.877
17.207
13.466
9.841
6.451
3.341
0.532
-1.939
-4.014
-5.626
-6.737
-7.35
-7.479
-7.146
-6.387
-5.245
-3.795
-2.14
-0.363
1.47
3.316
5.161
6.989
8.779
10.517
12.188
13.786
15.316
16.778
18.172
19.506
20.794
22.063
23.354
24.697
26.109
27.603
29.183
30.849
32.606
34.448
36.365
38.348
40.39
42.484
44.627
46.812
49.027
51.261
53.498
55.724
57.926
60.091
62.205
64.257
66.233
68.124
69.921
71.614
73.193
74.646
75.962
77.13
78.141
78.985
79.651
80.133
80.422
80.515
80.406
80.094
79.575
78.851
77.921
76.788
75.454
73.925
72.206
70.302
68.222
65.974
63.567
61.013
58.322
55.506
52.578
49.55
46.437
43.252
40.009
36.722
33.406
30.074
26.741
23.42
20.125
16.87
13.667
10.528
7.464
4.485
1.601
-1.18
-3.851
-6.407
-8.841
-11.151
-13.333
-15.386
-17.308
-19.1
-20.762
-22.295
-23.703
-24.989
-26.156
-27.208
-28.152
-28.992
-29.734
-30.385
-30.951
-31.438
-31.854
-32.205
-32.498
-32.74
-32.938
-33.097
-33.225
-33.327
-33.409
-33.475
-33.53
-33.578
-33.623
-33.666
-33.711
-33.758
-33.81
-33.865
-33.926
-33.99
-34.058
-34.128
-34.2
-34.271
-34.339
-34.402
-34.457
-34.503
-34.536
-34.553
-34.553
-34.531
-34.487
-34.417
-34.319
-34.191
-34.032
-33.838
-33.61
-33.346
-33.046
-32.708
-32.334
-31.923
-31.476
-30.996
-30.484
-29.941
-29.371
-28.776
-28.159
-27.523
-26.872
-26.209
-25.539
-24.865
-24.191
-23.522
-22.861
-22.213
-21.581
-20.971
-20.386
-19.829
-19.305
-18.816
-18.366
-17.958
-17.595
-17.279
-17.013
-16.797
-16.635
-16.526
-16.472
-16.473
-16.528
-16.637
-16.798
-17.012
-17.275
-17.585
-17.942
-18.34
-18.779
-19.254
-19.763
-20.3
-20.863
-21.446
-22.047
-22.66
-23.281
-23.906
-24.531
-25.149
-25.759
-26.354
-26.931
-27.484
-28.01
-28.504
-28.964
-29.385
-29.764
-30.098
-30.386
-30.626
-30.815
-30.953
-31.038
-31.071
-31.051
-30.98
-30.858
-30.687
-30.468
-30.205
-29.899
-29.557
-29.18
-28.773
-28.342
-27.891
-27.426
-26.954
-26.479
-26.008
-25.549
-25.109
-24.696
-24.319
-23.985
-23.704
-23.483
-23.331
-23.256
-23.263
-23.357
-23.544
-23.828
-24.214
-24.706
-25.307
-26.019
-26.848
-27.797
-28.87
-30.068
-31.388
-32.825
-34.377
-36.042
-37.819
-39.709
-41.707
-43.806
-46.002
-48.291
-50.664
-53.106
-55.592
-58.085
-60.557
-62.984
-65.343
-67.619
-69.786
-71.815
-73.685
-75.379
-76.885
-78.198
-79.307
-80.203
-80.899
-81.421
-81.818
-82.174
-82.546
-82.993
-83.56
-84.265
-85.158
-86.305
-87.759
-89.575
-91.763
-94.279
-97.116
-100.312
-103.804
-107.455
-110.964
-113.823
-115.726
-116.572
-116.296
-114.863
-112.222
-108.394
-103.86
-99.599
-96.329
-94.254
-93.133
-92.459
-91.911
-91.019
-88.654
-82.93
-71.925
-54.611
-31.055
-1.918
32.039
69.441
108.063
144.545
174.729
195.332
204.29
200.074
181.803
149.783
105.412
51.629
-7.131
-66.749
-123.615
-174.033
-214.978
-244.657
-262.323
-268.651
-265.697
-255.613
-240.654
-223.628
-207.072
-192.681
-181.459
-173.582
-168.53
-165.76
-164.631
-164.084
-163.089
-161.077
-157.841
-153.53
-148.53
-143.152
-137.672
-132.512
-128.116
-124.746
-122.518
-121.385
-121.174
-121.738
-122.941
-124.607
-126.533
-128.539
-130.47
-132.234
-133.799
-135.132
-136.208
-136.995
-137.459
-137.578
-137.332
-136.712
-135.72
-134.37
-132.698
-130.76
-128.632
-126.39
-124.098
-121.806
-119.538
-117.31
-115.132
-113.006
-110.934
-108.915
-106.952
-105.05
-103.213
-101.437
-99.713
-98.02
-96.328
-94.61
-92.841
-91.002
-89.081
-87.071
-84.968
-82.774
-80.496
-78.138
-75.704
-73.195
-70.611
-67.954
-65.229
-62.443
-59.604
-56.721
-53.805
-50.867
-47.918
-44.967
-42.025
-39.101
-36.202
-33.336
-30.513
-27.743
-25.036
-22.403
-19.854
-17.401
-15.055
-12.827
-10.726
-8.764
-6.946
-5.282
-3.779
-2.443
-1.278
-0.29
0.518
1.143
1.585
1.842
1.915
1.806
1.517
1.052
0.415
-0.387
-1.349
-2.462
-3.72
-5.113
-6.632
-8.267
-10.01
-11.848
-13.772
-15.77
-17.831
-19.943
-22.094
-24.273
-26.467
-28.666
-30.859
-33.035
-35.183
-37.295
-39.362
-41.374
-43.325
-45.208
-47.015
-48.742
-50.385
-51.939
-53.402
-54.771
-56.046
-57.227
-58.312
-59.304
-60.203
-61.013
-61.735
-62.373
-62.929
-63.409
-63.816
-64.154
-64.429
-64.644
-64.804
-64.915
-64.982
-65.008
-64.999
-64.958
-64.891
-64.801
-64.691
-64.566
-64.427
-64.278
-64.121
-63.956
-63.785
-63.609
-63.426
-63.237
-63.041
-62.835
-62.618
-62.388
-62.141
-61.874
-61.585
-61.268
-60.922
-60.542
-60.124
-59.665
-59.161
-58.608
-58.005
-57.346
-56.631
-55.857
-55.021
-54.123
-53.161
-52.134
-51.043
-49.886
-48.664
-47.38
-46.033
-44.627
-43.165
-41.649
-40.084
-38.473
-36.822
-35.137
-33.423
-31.686
-29.933
-28.171
-26.407
-24.648
-22.903
-21.178
-19.481
-17.82
-16.2
-14.63
-13.115
-11.662
-10.276
-8.963
-7.726
-6.571
-5.501
-4.519
-3.627
-2.828
-2.123
-1.513
-0.997
-0.575
-0.246
-0.008
0.142
0.207
0.191
0.099
-0.064
-0.292
-0.579
-0.919
-1.304
-1.726
-2.178
-2.652
-3.14
-3.633
-4.124
-4.603
-5.063
-5.497
-5.896
-6.254
-6.564
-6.821
-7.018
-7.151
-7.216
-7.207
-7.123
-6.959
-6.715
-6.388
-5.978
-5.484
-4.908
-4.251
-3.515
-2.704
-1.821
-0.871
0.141
1.209
2.326
3.485
4.679
5.899
7.136
8.382
9.625
10.855
12.061
13.233
14.359
15.429
16.433
17.362
18.209
18.966
19.627
20.186
20.637
20.975
21.196
21.295
21.267
21.106
20.81
20.379
19.814
19.119
18.296
17.348
16.277
15.082
13.769
12.345
10.815
9.187
7.474
5.694
3.878
2.063
0.279
-1.447
-3.09
-4.629
-6.037
-7.29
-8.368
-9.252
-9.928
-10.392
-10.637
-10.66
-10.481
-10.125
-9.643
-9.117
-8.613
-8.184
-7.872
-7.7
-7.714
-7.98
-8.556
-9.48
-10.743
-12.291
-14.095
-16.184
-18.511
-20.904
-23.017
-24.425
-24.864
-24.31
-22.816
-20.24
-16.401
-11.38
-5.685
-0.106
4.759
8.936
12.926
16.938
20.944
25.273
30.869
39.277
52.055
69.797
92.017
118.272
148.304
181.287
215.442
247.866
275.048
294.155
303.598
302.036
287.991
260.724
220.901
170.82
114.077
54.445
-5.025
-61.344
-110.927
-150.513
-178.15
-193.459
-197.468
-191.847
-177.985
-157.447
-132.885
-107.415
-83.588
-62.906
-45.881
-32.564
-23.266
-18.308
-17.073
-18.084
-19.786
-21.223
-22.076
-22.324
-21.763
-19.922
-16.765
-12.93
-9.3
-6.45
-4.543
-3.442
-3.008
-3.347
-4.49
-6.185
-8.038
-9.705
-11.021
-11.999
-12.699
-13.09
-13.106
-12.713
-11.928
-10.822
-9.456
-7.872
-6.115
-4.221
-2.24
-0.243
1.726
3.64
5.488
7.279
9.032
10.748
12.43
14.071
15.663
17.213
18.734
20.244
21.77
23.335
24.959
26.671
28.492
30.438
32.515
34.722
37.05
39.495
42.052
44.721
47.499
50.384
53.368
56.444
59.604
62.836
66.131
69.472
72.845
76.235
79.627
83.009
86.368
89.692
92.965
96.175
99.305
102.342
105.271
108.078
110.746
113.262
115.613
117.786
119.772
121.56
123.141
124.507
125.653
126.573
127.262
127.719
127.941
127.928
127.681
127.201
126.493
125.561
124.41
123.047
121.481
119.721
117.777
115.66
113.382
110.955
108.393
105.707
102.913
100.024
97.054
94.018
90.93
87.803
84.651
81.488
78.326
75.177
72.051
68.96
65.912
62.917
59.982
57.114
54.32
51.605
48.973
46.428
43.972
41.608
39.337
37.158
35.071
33.075
31.168
29.346
27.608
25.949
24.364
22.85
21.402
20.014
18.681
17.399
16.162
14.964
13.802
12.669
11.563
10.478
9.412
8.361
7.322
6.293
5.272
4.258
3.25
2.246
1.248
0.254
-0.733
-1.714
-2.687
-3.65
-4.601
-5.537
-6.456
-7.356
-8.232
-9.082
-9.903
-10.691
-11.443
-12.156
-12.827
-13.453
-14.032
-14.562
-15.042
-15.468
-15.842
-16.161
-16.427
-16.639
-16.799
-16.907
-16.967
-16.98
-16.948
-16.876
-16.765
-16.621
-16.447
-16.248
-16.028
-15.792
-15.545
-15.293
-15.04
-14.794
-14.558
-14.34
-14.144
-13.976
-13.841
-13.743
-13.689
-13.681
-13.723
-13.82
-13.974
-14.187
-14.462
-14.798
-15.198
-15.66
-16.184
-16.769
-17.411
-18.11
-18.86
-19.659
-20.501
-21.383
-22.298
-23.24
-24.204
-25.183
-26.169
-27.156
-28.135
-29.098
-30.038
-30.946
-31.812
-32.63
-33.391
-34.086
-34.708
-35.25
-35.705
-36.066
-36.327
-36.483
-36.529
-36.461
-36.276
-35.97
-35.543
-34.994
-34.323
-33.531
-32.619
-31.592
-30.453
-29.205
-27.855
-26.408
-24.87
-23.25
-21.555
-19.794
-17.976
-16.112
-14.212
-12.289
-10.354
-8.42
-6.5
-4.606
-2.75
-0.943
0.805
2.485
4.088
5.605
7.028
8.351
9.566
10.666
11.644
12.494
13.215
13.805
14.266
14.598
14.803
14.885
14.846
14.687
14.409
14.015
13.509
12.899
12.2
11.433
10.625
9.807
9.005
8.244
7.554
6.958
6.481
6.143
5.959
5.948
6.132
6.528
7.146
7.985
9.026
10.238
11.571
12.964
14.36
15.716
16.993
18.142
19.098
19.797
20.2
20.3
20.118
19.655
18.866
17.769
16.524
15.437
14.864
15.033
15.959
17.606
20.139
23.732
28.272
33.261
37.952
41.831
45.033
48.116
51.279
54.522
58.256
63.447
71.646
84.32
101.775
123.3
148.421
176.848
207.628
239.04
268.283
292.017
308.013
315.235
312.564
298.819
273.756
238.182
194.355
145.771
95.552
46.162
0.38
-38.768
-69.142
-89.629
-100.311
-102.572
-97.969
-87.905
-74.377
-59.851
-46.155
-34.48
-25.416
-18.756
-14.186
-11.481
-9.928
-8.491
-6.537
-3.737
-0.033
4.265
8.898
13.683
18.25
22.145
25.083
26.929
27.725
27.676
26.976
25.81
24.374
22.862
21.455
20.274
19.388
18.822
18.585
18.695
19.185
20.087
21.432
23.233
25.473
28.118
31.117
34.385
37.852
41.45
45.107
48.775
52.423
56.028
59.587
63.101
66.563
69.963
73.289
76.527
79.676
82.741
85.734
88.679
91.596
94.503
97.423
100.368
103.347
106.362
109.41
112.482
115.571
118.675
121.789
124.913
128.046
131.182
134.316
137.443
140.553
143.64
146.694
149.705
152.663
155.561
158.391
161.148
163.823
166.41
168.901
171.287
173.562
175.715
177.74
179.627
181.369
182.958
184.388
185.654
186.75
187.674
188.421
188.989
189.377
189.585
189.613
189.462
189.134
188.632
187.96
187.123
186.126
184.976
183.681
182.247
180.686
179.007
177.219
175.336
173.367
171.326
169.223
167.072
164.885
162.675
160.454
158.236
156.032
153.856
151.719
149.632
147.607
145.651
143.776
141.987
140.294
138.7
137.212
135.834
134.568
133.419
132.387
131.474
130.681
130.006
129.448
129.005
128.674
128.451
128.331
128.309
128.379
128.536
128.773
129.084
129.462
129.899
130.389
130.925
131.498
132.102
132.729
133.373
134.026
134.685
135.343
135.997
136.644
137.282
137.911
138.531
139.14
139.739
140.329
140.909
141.48
142.042
142.594
143.137
143.675
144.208
144.744
145.285
145.837
146.405
146.995
147.613
148.262
148.945
149.662
150.413
151.201
152.031
152.908
153.837
154.812
155.829
156.885
157.968
159.061
160.142
161.175
162.134
163.002
163.767
164.424
164.972
165.401
165.709
165.892
165.95
165.884
165.691
165.361
164.899
164.318
163.645
162.932
162.206
161.472
160.726
159.945
159.1
158.159
157.074
155.781
154.225
152.357
150.142
147.562
144.582
141.155
137.222
132.703
127.545
121.731
115.25
108.115
100.356
92.014
83.16
73.899
64.316
54.484
44.463
34.294
24.035
13.76
3.548
-6.511
-16.339
-25.882
-35.088
-43.912
-52.333
-60.339
-67.948
-75.206
-82.138
-88.753
-95.052
-101.022
-106.661
-111.982
-116.995
-121.718
-126.173
-130.379
-134.36
-138.14
-141.727
-145.115
-148.28
-151.187
-153.808
-156.135
-158.172
-159.928
-161.414
-162.632
-163.592
-164.296
-164.738
-164.905
-164.777
-164.343
-163.613
-162.616
-161.405
-160.042
-158.599
-157.136
-155.695
-154.32
-153.045
-151.909
-150.947
-150.202
-149.726
-149.578
-149.83
-150.539
-151.738
-153.432
-155.598
-158.194
-161.16
-164.445
-168.008
-171.809
-175.812
-179.983
-184.284
-188.674
-193.1
-197.487
-201.746
-205.794
-209.562
-213.015
-216.143
-218.946
-221.443
-223.642
-225.556
-227.209
-228.622
-229.801
-230.76
-231.512
-232.087
-232.566
-233.044
-233.607
-234.34
-235.286
-236.469
-237.917
-239.636
-241.605
-243.793
-246.128
-248.539
-251.009
-253.501
-255.938
-258.212
-260.118
-261.432
-261.986
-261.566
-259.928
-256.959
-252.641
-247.095
-240.683
-233.729
-226.415
-219.023
-211.825
-204.739
-197.445
-189.29
-179.244
-166.613
-151.205
-132.838
-111.479
-87.897
-63.524
-40.527
-21.785
-9.672
-5.746
-11.516
-28.288
-56.128
-93.927
-139.412
-189.143
-239.877
-288.964
-333.473
-370.36
-397.75
-414.944
-422.339
-421.512
-414.147
-401.726
-386.289
-370.286
-355.448
-342.793
-332.748
-325.027
-319.284
-315.278
-312.361
-309.576
-306.36
-302.474
-297.913
-292.997
-288.007
-283.126
-278.703
-275.169
-272.749
-271.513
-271.398
-272.175
-273.644
-275.641
-277.94
-280.318
-282.598
-284.645
-286.397
-287.842
-288.948
-289.671
-289.961
-289.766
-289.067
-287.864
-286.161
-283.982
-281.362
-278.361
-275.063
-271.55
-267.88
-264.095
-260.21
-256.233
-252.173
-248.034
-243.818
-239.534
-235.181
-230.759
-226.272
-221.714
-217.075
-212.335
-207.46
-202.424
-197.206
-191.796
-186.191
-180.393
-174.404
-168.235
-161.899
-155.409
-148.779
-142.019
-135.141
-128.155
-121.078
-113.929
-106.729
-99.499
-92.261
-85.037
-77.847
-70.713
-63.654
-56.689
-49.836
-43.11
-36.53
-30.113
-23.878
-17.841
-12.019
-6.428
-1.083
4.002
8.813
13.341
17.576
21.509
25.134
28.445
31.439
34.112
36.465
38.498
40.213
41.614
42.705
43.494
43.989
44.199
44.136
43.811
43.239
42.434
41.41
40.185
38.774
37.195
35.465
33.603
31.626
29.554
27.405
25.198
22.95
20.681
18.407
16.147
13.916
11.73
9.604
7.552
5.587
3.722
1.968
0.335
-1.168
-2.533
-3.752
-4.821
-5.734
-6.489
-7.083
-7.515
-7.786
-7.897
-7.849
-7.647
-7.294
-6.795
-6.155
-5.382
-4.482
-3.463
-2.334
-1.103
0.221
1.629
3.111
4.658
6.26
7.908
9.592
11.304
13.034
14.774
16.516
18.251
19.971
21.671
23.344
24.983
26.583
28.141
29.651
31.111
32.518
33.87
35.165
36.402
37.582
38.704
39.771
40.782
41.741
42.65
43.512
44.331
45.109
45.852
46.563
47.246
47.906
48.546
49.172
49.788
50.397
51.004
51.614
52.229
52.854
53.492
54.146
54.819
55.512
56.228
56.969
57.736
58.529
59.35
60.198
61.074
61.977
62.907
63.862
64.84
65.839
66.858
67.894
68.944
70.006
71.076
72.152
73.231
74.309
75.384
76.452
77.511
78.557
79.588
80.601
81.593
82.563
83.509
84.429
85.323
86.188
87.026
87.834
88.615
89.367
90.093
90.792
91.466
92.117
92.747
93.357
93.951
94.531
95.099
95.66
96.215
96.768
97.322
97.881
98.448
99.027
99.621
100.233
100.867
101.526
102.214
102.932
103.684
104.47
105.293
106.154
107.053
107.991
108.967
109.982
111.033
112.119
113.237
114.385
115.559
116.755
117.968
119.194
120.426
121.661
122.892
124.113
125.318
126.502
127.657
128.777
129.852
130.874
131.835
132.725
133.536
134.261
134.892
135.423
135.847
136.162
136.365
136.451
136.419
136.263
135.981
135.571
135.034
134.372
133.587
132.681
131.657
130.522
129.282
127.947
126.517
124.988
123.358
121.632
119.82
117.938
116.002
114.023
112.021
110.021
108.054
106.161
104.372
102.705
101.178
99.803
98.608
97.634
96.906
96.432
96.201
96.183
96.358
96.713
97.225
97.854
98.524
99.134
99.591
99.806
99.727
99.358
98.648
97.499
95.911
93.94
91.801
89.896
88.435
87.42
86.876
86.811
87.238
88.281
89.66
90.622
90.757
89.96
88.433
86.877
85.827
85.443
86.413
90.08
97.609
110.076
127.867
150.213
176.355
205.871
237.797
270.319
301.144
327.401
346.609
357.504
359.054
350.061
329.807
298.634
258.012
210.674
159.894
108.424
58.949
14.488
-22.248
-49.524
-66.675
-74.3
-73.994
-67.38
-56.288
-43.084
-29.899
-18.191
-8.874
-2.133
2.465
5.359
7.172
8.912
11.299
14.65
19.089
24.408
30.227
36.267
42.149
47.349
51.56
54.637
56.513
57.304
57.159
56.185
54.575
52.559
50.304
47.971
45.689
43.508
41.49
39.692
38.134
36.854
35.879
35.215
34.886
34.904
35.252
35.901
36.8
37.867
39.042
40.266
41.477
42.642
43.735
44.737
45.65
46.478
47.219
47.874
48.436
48.898
49.262
49.538
49.741
49.9
50.037
50.171
50.324
50.511
50.739
51.014
51.332
51.685
52.067
52.476
52.909
53.366
53.845
54.343
54.853
55.371
55.887
56.396
56.888
57.353
57.783
58.172
58.513
58.803
59.036
59.207
59.311
59.343
59.297
59.168
58.95
58.638
58.228
57.714
57.095
56.367
55.53
54.581
53.521
52.35
51.069
49.679
48.182
46.581
44.879
43.079
41.185
39.202
37.135
34.991
32.774
30.491
28.15
25.757
23.32
20.845
18.341
15.813
13.27
10.718
8.165
5.617
3.081
0.565
-1.925
-4.383
-6.803
-9.179
-11.507
-13.781
-15.998
-18.153
-20.245
-22.269
-24.223
-26.106
-27.915
-29.649
-31.308
-32.891
-34.397
-35.828
-37.184
-38.466
-39.675
-40.814
-41.884
-42.886
-43.824
-44.699
-45.515
-46.272
-46.975
-47.626
-48.229
-48.785
-49.299
-49.774
-50.213
-50.619
-50.995
-51.345
-51.672
-51.979
-52.268
-52.543
-52.807
-53.063
-53.314
-53.562
-53.811
-54.062
-54.318
-54.581
-54.854
-55.138
-55.436
-55.748
-56.076
-56.423
-56.788
-57.174
-57.582
-58.013
-58.467
-58.946
-59.45
-59.979
-60.535
-61.117
-61.726
-62.361
-63.023
-63.712
-64.428
-65.17
-65.938
-66.732
-67.551
-68.395
-69.262
-70.153
-71.066
-72.001
-72.957
-73.933
-74.929
-75.944
-76.977
-78.028
-79.096
-80.182
-81.283
-82.4
-83.532
-84.679
-85.84
-87.014
-88.201
-89.401
-90.612
-91.834
-93.067
-94.31
-95.561
-96.82
-98.085
-99.354
-100.628
-101.904
-103.18
-104.454
-105.726
-106.993
-108.252
-109.502
-110.74
-111.962
-113.166
-114.348
-115.504
-116.631
-117.725
-118.781
-119.795
-120.765
-121.684
-122.549
-123.356
-124.099
-124.775
-125.378
-125.905
-126.351
-126.712
-126.984
-127.165
-127.251
-127.241
-127.131
-126.921
-126.609
-126.194
-125.676
-125.054
-124.329
-123.501
-122.573
-121.546
-120.425
-119.213
-117.915
-116.536
-115.082
-113.559
-111.973
-110.333
-108.644
-106.915
-105.155
-103.371
-101.573
-99.772
-97.979
-96.205
-94.461
-92.756
-91.101
-89.505
-87.975
-86.52
-85.143
-83.851
-82.649
-81.54
-80.531
-79.629
-78.836
-78.157
-77.594
-77.143
-76.805
-76.578
-76.458
-76.44
-76.517
-76.686
-76.948
-77.307
-77.759
-78.297
-78.91
-79.574
-80.272
-80.983
-81.683
-82.343
-82.936
-83.426
-83.794
-84.028
-84.115
-84.042
-83.781
-83.3
-82.589
-81.648
-80.499
-79.175
-77.699
-76.101
-74.424
-72.708
-71.02
-69.449
-68.065
-66.935
-66.096
-65.538
-65.302
-65.464
-66.003
-66.842
-67.758
-68.361
-68.449
-68.006
-66.985
-65.375
-63.177
-60.291
-57.025
-54.146
-52.077
-50.934
-50.541
-50.264
-49.622
-48.505
-46.277
-41.613
-33.361
-20.48
-2.582
19.629
45.478
74.651
106.311
138.713
169.595
196.106
215.732
227.139
229.201
220.587
200.421
168.948
127.644
79.298
27.31
-25.423
-76.08
-121.458
-158.638
-185.76
-202.143
-208.446
-206.416
-197.854
-184.748
-169.688
-155.022
-142.348
-132.68
-126.232
-122.501
-120.972
-120.919
-121.177
-120.912
-119.739
-117.454
-114.228
-110.413
-106.245
-102.085
-98.441
-95.581
-93.598
-92.491
-92.075
-92.186
-92.726
-93.533
-94.437
-95.304
-95.999
-96.445
-96.633
-96.54
-96.148
-95.45
-94.427
-93.09
-91.478
-89.623
-87.562
-85.324
-82.933
-80.423
-77.834
-75.201
-72.566
-69.955
-67.378
-64.847
-62.368
-59.942
-57.573
-55.253
-52.967
-50.703
-48.452
-46.205
-43.958
-41.706
-39.437
-37.144
-34.819
-32.459
-30.061
-27.623
-25.143
-22.623
-20.063
-17.466
-14.839
-12.186
-9.51
-6.815
-4.107
-1.39
1.329
4.044
6.747
9.43
12.084
14.699
17.264
19.768
22.201
24.552
26.808
28.958
30.99
32.895
34.659
36.273
37.727
39.009
40.11
41.022
41.735
42.243
42.539
42.616
42.47
42.097
41.495
40.661
39.595
38.299
36.773
35.022
33.049
30.86
28.463
25.864
23.074
20.104
16.964
13.667
10.228
6.66
2.978
-0.802
-4.665
-8.593
-12.57
-16.58
-20.605
-24.63
-28.637
-32.61
-36.533
-40.391
-44.17
-47.855
-51.433
-54.893
-58.224
-61.416
-64.459
-67.347
-70.074
-72.634
-75.024
-77.242
-79.286
-81.158
-82.858
-84.389
-85.756
-86.963
-88.017
-88.923
-89.691
-90.328
-90.844
-91.248
-91.552
-91.765
-91.898
-91.963
-91.971
-91.933
-91.859
-91.761
-91.648
-91.53
-91.416
-91.313
-91.231
-91.173
-91.147
-91.156
-91.203
-91.29
-91.417
-91.583
-91.787
-92.025
-92.293
-92.587
-92.898
-93.222
-93.549
-93.87
-94.176
-94.456
-94.699
-94.894
-95.028
-95.088
-95.061
-94.935
-94.697
-94.333
-93.832
-93.181
-92.368
-91.381
-90.21
-88.843
-87.272
-85.486
-83.479
-81.244
-78.776
-76.07
-73.126
-69.942
-66.519
-62.859
-58.963
-54.837
-50.484
-45.911
-41.124
-36.131
-30.943
-25.568
-20.019
-14.309
-8.45
-2.46
3.648
9.858
16.155
22.522
28.946
35.409
41.897
48.395
54.886
61.354
67.779
74.145
80.433
86.625
92.705
98.659
104.474
110.139
115.647
120.989
126.16
131.15
135.95
140.547
144.931
149.094
153.035
156.753
160.258
163.565
166.69
169.652
172.467
175.145
177.689
180.096
182.359
184.465
186.412
188.209
189.865
191.393
192.796
194.071
195.2
196.158
196.91
197.415
197.636
197.54
197.117
196.38
195.364
194.129
192.723
191.177
189.523
187.783
185.994
184.212
182.492
180.895
179.496
178.38
177.636
177.36
177.608
178.393
179.69
181.424
183.529
185.952
188.629
191.498
194.474
197.454
200.346
203.076
205.548
207.656
209.282
210.288
210.58
210.114
208.881
206.921
204.274
200.971
197.073
192.654
187.809
182.652
177.278
171.752
166.164
160.611
155.207
150.082
145.338
141.035
137.225
133.926
131.152
128.921
127.221
126.011
125.236
124.822
124.704
124.842
125.175
125.623
126.107
126.524
126.786
126.834
126.603
126.049
125.144
123.855
122.186
120.185
117.915
115.464
112.932
110.372
107.872
105.581
103.654
102.296
101.724
102.084
103.565
106.42
110.755
116.574
123.74
131.837
140.479
149.456
158.447
167.134
175.598
184.067
193.113
203.916
217.319
233.684
253.404
276.411
301.685
327.815
352.623
372.816
385.697
389.171
381.095
360.511
327.97
284.748
233.451
178.202
122.725
70.636
25.961
-8.742
-32.363
-44.491
-46.132
-39.53
-26.8
-10.516
6.118
21.056
33.142
41.6
46.591
48.739
48.55
47.011
45.491
44.688
44.894
46.213
48.314
50.892
53.776
56.575
58.818
60.283
60.886
60.675
59.864
58.6
56.975
55.131
53.2
51.306
49.563
48.021
46.682
45.548
44.615
43.887
43.37
43.041
42.866
42.808
42.834
42.919
43.043
43.177
43.292
43.358
43.343
43.229
43.008
42.677
42.236
41.689
41.037
40.295
39.481
38.611
37.7
36.76
35.799
34.831
33.869
32.926
32.013
31.141
30.316
29.547
28.84
28.2
27.63
27.132
26.706
26.352
26.07
25.86
25.721
25.651
25.646
25.705
25.822
25.994
26.213
26.475
26.77
27.093
27.434
27.785
28.138
28.484
28.814
29.12
29.392
29.622
29.801
29.921
29.973
29.95
29.844
29.649
29.357
28.964
28.465
27.855
27.131
26.292
25.335
24.26
23.066
21.755
20.327
18.786
17.134
15.374
13.511
11.55
9.498
7.359
5.142
2.854
0.501
-1.908
-4.366
-6.865
-9.396
-11.952
-14.524
-17.104
-19.684
-22.257
-24.815
-27.35
-29.857
-32.328
-34.759
-37.144
-39.479
-41.76
-43.984
-46.148
-48.249
-50.287
-52.259
-54.166
-56.007
-57.782
-59.494
-61.144
-62.735
-64.268
-65.749
-67.179
-68.563
-69.906
-71.212
-72.486
-73.732
-74.957
-76.165
-77.362
-78.554
-79.746
-80.944
-82.152
-83.376
-84.62
-85.887
-87.181
-88.506
-89.863
-91.257
-92.688
-94.158
-95.668
-97.219
-98.811
-100.442
-102.112
-103.819
-105.561
-107.333
-109.132
-110.954
-112.794
-114.647
-116.507
-118.366
-120.219
-122.057
-123.872
-125.657
-127.403
-129.099
-130.739
-132.311
-133.809
-135.222
-136.542
-137.761
-138.87
-139.863
-140.731
-141.469
-142.068
-142.522
-142.828
-142.978
-142.969
-142.797
-142.459
-141.953
-141.278
-140.433
-139.418
-138.235
-136.885
-135.372
-133.699
-131.871
-129.893
-127.773
-125.517
-123.135
-120.634
-118.024
-115.315
-112.518
-109.643
-106.701
-103.703
-100.66
-97.582
-94.482
-91.37
-88.256
-85.151
-82.065
-79.008
-75.99
-73.018
-70.103
-67.251
-64.469
-61.766
-59.146
-56.615
-54.178
-51.838
-49.598
-47.46
-45.425
-43.493
-41.662
-39.932
-38.299
-36.761
-35.315
-33.955
-32.678
-31.478
-30.35
-29.29
-28.291
-27.347
-26.454
-25.606
-24.799
-24.027
-23.287
-22.575
-21.887
-21.22
-20.572
-19.94
-19.323
-18.718
-18.124
-17.542
-16.97
-16.411
-15.865
-15.335
-14.825
-14.339
-13.883
-13.46
-13.075
-12.734
-12.441
-12.201
-12.017
-11.892
-11.829
-11.832
-11.904
-12.051
-12.275
-12.578
-12.963
-13.432
-13.987
-14.629
-15.355
-16.159
-17.037
-17.989
-19.019
-20.127
-21.309
-22.558
-23.864
-25.216
-26.599
-27.992
-29.355
-30.651
-31.839
-32.887
-33.779
-34.497
-35.027
-35.344
-35.427
-35.263
-34.858
-34.22
-33.357
-32.282
-31.018
-29.624
-28.197
-26.836
-25.631
-24.656
-23.955
-23.565
-23.511
-23.811
-24.466
-25.454
-26.739
-28.273
-29.993
-31.817
-33.621
-35.213
-36.366
-36.817
-36.262
-34.509
-31.501
-27.291
-22.115
-16.197
-9.641
-2.675
4.379
11.535
19.08
27.635
38.248
51.642
67.988
87.509
110.344
135.874
162.867
189.29
212.237
229.238
238.565
238.474
227.412
204.964
171.791
129.831
82.355
32.578
-16.697
-62.32
-101.026
-130.6
-149.963
-159.241
-159.873
-153.541
-141.837
-126.954
-111.491
-97.354
-85.723
-77.104
-71.179
-67.508
-65.738
-65.094
-64.525
-63.399
-61.392
-58.445
-54.873
-50.967
-46.93
-43.134
-40.016
-37.817
-36.655
-36.538
-37.316
-38.853
-41.017
-43.612
-46.415
-49.242
-51.961
-54.499
-56.831
-58.928
-60.756
-62.29
-63.512
-64.418
-65
-65.226
-65.074
-64.545
-63.668
-62.5
-61.12
-59.59
-57.955
-56.253
-54.504
-52.722
-50.917
-49.085
-47.213
-45.292
-43.321
-41.316
-39.291
-37.25
-35.187
-33.084
-30.917
-28.67
-26.328
-23.879
-21.316
-18.635
-15.838
-12.938
-9.951
-6.891
-3.767
-0.586
2.646
5.921
9.227
12.553
15.886
19.212
22.519
25.789
29.006
32.158
35.231
38.214
41.099
43.876
46.535
49.067
51.463
53.715
55.814
57.753
59.525
61.123
62.543
63.783
64.839
65.712
66.402
66.91
67.239
67.393
67.377
67.197
66.859
66.37
65.739
64.974
64.085
63.083
61.977
60.779
59.501
58.154
56.752
55.306
53.83
52.334
50.833
49.337
47.859
46.41
45.001
43.643
42.347
41.123
39.978
38.92
37.957
37.095
36.338
35.689
35.153
34.729
34.42
34.224
34.141
34.168
34.303
34.542
34.881
35.314
35.837
36.444
37.127
37.88
38.696
39.566
40.484
41.44
42.427
43.435
44.457
45.483
46.506
47.516
48.506
49.467
50.392
51.275
52.109
52.887
53.606
54.26
54.845
55.359
55.8
56.165
56.455
56.668
56.807
56.871
56.862
56.782
56.633
56.419
56.143
55.807
55.415
54.971
54.48
53.945
53.371
52.762
52.123
51.459
50.775
50.075
49.363
48.645
47.924
47.205
46.49
45.785
45.09
44.41
43.746
43.099
42.47
41.861
41.27
40.697
40.142
39.603
39.079
38.569
38.07
37.582
37.101
36.628
36.16
35.694
35.231
34.768
34.304
33.837
33.367
32.893
32.413
31.927
31.435
30.937
30.433
29.923
29.408
28.888
28.366
27.843
27.322
26.805
26.295
25.796
25.313
24.848
24.408
23.997
23.618
23.278
22.98
22.729
22.53
22.384
22.297
22.272
22.31
22.416
22.59
22.835
23.151
23.539
24
24.532
25.135
25.806
26.545
27.347
28.211
29.132
30.106
31.128
32.192
33.291
34.419
35.567
36.727
37.89
39.047
40.187
41.301
42.379
43.412
44.389
45.301
46.139
46.893
47.555
48.117
48.569
48.903
49.111
49.185
49.119
48.907
48.544
48.027
47.352
46.519
45.529
44.385
43.087
41.638
40.04
38.297
36.414
34.398
32.256
29.999
27.634
25.174
22.63
20.016
17.342
14.613
11.836
9.017
6.167
3.299
0.438
-2.394
-5.169
-7.853
-10.417
-12.828
-15.046
-17.043
-18.796
-20.281
-21.48
-22.369
-22.918
-23.109
-22.942
-22.425
-21.596
-20.509
-19.22
-17.803
-16.331
-14.875
-13.532
-12.41
-11.606
-11.2
-11.229
-11.696
-12.645
-14.159
-16.236
-18.741
-21.373
-23.766
-25.706
-27.165
-28.134
-28.39
-27.684
-26.021
-23.803
-21.703
-20.165
-19.007
-17.638
-15.759
-13.319
-10.029
-5.042
3.114
15.874
33.642
55.806
81.701
110.862
142.64
175.607
207.146
234.053
253.821
265.023
266.678
257.748
237.189
204.966
162.671
113.092
59.319
4.082
-50.216
-100.848
-144.619
-179.265
-203.931
-218.873
-225.262
-224.481
-217.838
-207.293
-195.499
-184.447
-175.312
-168.673
-164.355
-162.052
-161.545
-162.098
-162.563
-162.236
-160.804
-158.245
-154.916
-151.118
-147.032
-143.025
-139.564
-136.916
-135.188
-134.339
-134.165
-134.505
-135.249
-136.26
-137.391
-138.511
-139.501
-140.276
-140.806
-141.072
-141.057
-140.747
-140.132
-139.219
-138.039
-136.63
-135.035
-133.289
-131.425
-129.474
-127.469
-125.447
-123.445
-121.498
-119.625
-117.838
-116.143
-114.542
-113.036
-111.621
-110.282
-109.002
-107.765
-106.558
-105.374
-104.201
-103.028
-101.845
-100.638
-99.399
-98.12
-96.795
-95.419
-93.986
-92.495
-90.944
-89.336
-87.671
-85.952
-84.181
-82.36
-80.491
-78.579
-76.628
-74.643
-72.629
-70.593
-68.543
-66.487
-64.434
-62.392
-60.37
-58.378
-56.424
-54.519
-52.67
-50.887
-49.179
-47.555
-46.023
-44.592
-43.269
-42.062
-40.976
-40.019
-39.196
-38.51
-37.966
-37.566
-37.312
-37.204
-37.242
-37.426
-37.753
-38.22
-38.823
-39.557
-40.418
-41.398
-42.49
-43.687
-44.979
-46.36
-47.818
-49.346
-50.933
-52.571
-54.249
-55.957
-57.687
-59.428
-61.171
-62.906
-64.624
-66.316
-67.973
-69.587
-71.149
-72.653
-74.092
-75.459
-76.75
-77.959
-79.081
-80.114
-81.053
-81.898
-82.647
-83.298
-83.852
-84.308
-84.668
-84.932
-85.103
-85.181
-85.17
-85.071
-84.887
-84.62
-84.272
-83.847
-83.347
-82.775
-82.134
-81.427
-80.658
-79.829
-78.943
-78.004
-77.014
-75.978
-74.897
-73.774
-72.612
-71.414
-70.181
-68.917
-67.623
-66.3
-64.951
-63.576
-62.177
-60.754
-59.309
-57.842
-56.355
-54.847
-53.322
-51.779
-50.221
-48.649
-47.066
-45.474
-43.875
-42.271
-40.667
-39.064
-37.465
-35.874
-34.295
-32.729
-31.182
-29.655
-28.154
-26.681
-25.24
-23.834
-22.468
-21.145
-19.868
-18.641
-17.469
-16.355
-15.302
-14.315
-13.396
-12.55
-11.778
-11.084
-10.469
-9.935
-9.484
-9.116
-8.83
-8.627
-8.506
-8.463
-8.498
-8.608
-8.788
-9.035
-9.345
-9.713
-10.133
-10.6
-11.109
-11.652
-12.223
-12.815
-13.421
-14.033
-14.643
-15.243
-15.825
-16.38
-16.899
-17.374
-17.796
-18.156
-18.446
-18.657
-18.783
-18.815
-18.745
-18.569
-18.278
-17.869
-17.337
-16.678
-15.889
-14.969
-13.916
-12.73
-11.412
-9.963
-8.384
-6.679
-4.85
-2.903
-0.841
1.33
3.602
5.969
8.423
10.953
13.552
16.207
18.91
21.648
24.408
27.18
29.949
32.704
35.43
38.113
40.739
43.294
45.763
48.134
50.393
52.528
54.527
56.38
58.079
59.617
60.987
62.182
63.197
64.027
64.669
65.119
65.372
65.426
65.28
64.936
64.399
63.675
62.769
61.688
60.437
59.022
57.45
55.733
53.881
51.905
49.824
47.661
45.446
43.217
41.006
38.841
36.749
34.75
32.866
31.119
29.526
28.108
26.882
25.852
25.026
24.407
23.986
23.75
23.66
23.652
23.666
23.657
23.598
23.48
23.281
22.96
22.463
21.757
20.853
19.808
18.655
17.37
15.964
14.574
13.517
13.182
13.818
15.44
17.95
21.45
26.082
31.701
37.768
43.484
48.198
51.909
55.132
58.05
60.684
63.563
67.707
74.703
86.28
102.98
124.251
149.776
179.108
210.905
243.251
273.152
296.736
311.427
315.826
308.408
288.476
256.597
214.018
163.557
109.572
55.706
5.199
-38.334
-72.506
-96.106
-108.48
-110.462
-104.217
-91.764
-75.512
-58.469
-42.581
-29.022
-18.685
-11.555
-7.1
-4.864
-3.906
-2.879
-1.09
1.73
5.691
10.486
15.816
21.513
27.187
32.33
36.689
40.169
42.806
44.816
46.353
47.502
48.404
49.197
50.008
50.969
52.147
53.549
55.181
57.048
59.153
61.514
64.115
66.917
69.879
72.961
76.127
79.352
82.603
85.841
89.025
92.115
95.083
97.916
100.604
103.144
105.531
107.761
109.843
111.791
113.618
115.335
116.951
118.471
119.905
121.265
122.563
123.808
125.008
126.169
127.296
128.396
129.472
130.529
131.566
132.585
133.586
134.572
135.544
136.503
137.449
138.383
139.303
140.208
141.097
141.966
142.812
143.63
144.417
145.166
145.875
146.536
147.146
147.699
148.19
148.614
148.965
149.239
149.43
149.534
149.546
149.462
149.28
148.996
148.606
148.109
147.503
146.788
145.962
145.026
143.98
142.827
141.569
140.209
138.75
137.198
135.557
133.833
132.034
130.165
128.234
126.249
124.218
122.15
120.051
117.932
115.8
113.663
111.53
109.408
107.306
105.23
103.189
101.188
99.234
97.334
95.493
93.717
92.009
90.376
88.819
87.342
85.948
84.638
83.414
82.276
81.223
80.255
79.371
78.567
77.843
77.193
76.616
76.107
75.66
75.273
74.939
74.654
74.411
74.206
74.033
73.887
73.76
73.649
73.547
73.449
73.35
73.243
73.124
72.987
72.828
72.64
72.42
72.162
71.863
71.518
71.125
70.679
70.179
69.621
69.004
68.326
67.585
66.781
65.914
64.983
63.989
62.932
61.814
60.636
59.399
58.106
56.758
55.358
53.908
52.41
50.868
49.284
47.66
46
44.307
42.584
40.834
39.061
37.267
35.456
33.631
31.795
29.951
28.1
26.246
24.391
22.537
20.684
18.836
16.992
15.154
13.322
11.497
9.677
7.863
6.053
4.246
2.441
0.636
-1.171
-2.983
-4.8
-6.625
-8.461
-10.309
-12.171
-14.05
-15.948
-17.866
-19.808
-21.774
-23.766
-25.785
-27.833
-29.909
-32.014
-34.148
-36.31
-38.5
-40.716
-42.957
-45.222
-47.507
-49.812
-52.132
-54.464
-56.804
-59.148
-61.491
-63.827
-66.151
-68.458
-70.742
-72.997
-75.219
-77.401
-79.539
-81.627
-83.66
-85.633
-87.543
-89.384
-91.153
-92.846
-94.461
-95.995
-97.449
-98.821
-100.11
-101.318
-102.445
-103.493
-104.464
-105.361
-106.185
-106.941
-107.633
-108.265
-108.843
-109.374
-109.863
-110.32
-110.751
-111.166
-111.572
-111.978
-112.39
-112.814
-113.259
-113.728
-114.227
-114.759
-115.329
-115.94
-116.598
-117.308
-118.073
-118.895
-119.776
-120.713
-121.708
-122.756
-123.853
-124.995
-126.176
-127.4
-128.667
-129.976
-131.326
-132.712
-134.119
-135.534
-136.937
-138.298
-139.592
-140.791
-141.87
-142.818
-143.628
-144.29
-144.798
-145.135
-145.288
-145.258
-145.048
-144.659
-144.104
-143.408
-142.622
-141.832
-141.112
-140.52
-140.102
-139.888
-139.93
-140.288
-140.994
-142.053
-143.424
-145.079
-147.062
-149.369
-151.849
-154.199
-156.04
-157.083
-157.313
-156.738
-155.13
-152.406
-148.764
-144.817
-141.522
-139.424
-138.318
-137.73
-137.504
-137.379
-136.71
-134.115
-127.5
-115.471
-97.952
-75.66
-49.246
-19.378
12.629
44.29
71.895
92.072
102.835
103.262
92.602
70.049
35.672
-8.924
-60.449
-115.086
-169.819
-222.289
-270.101
-310.549
-341.387
-361.652
-371.867
-373.384
-367.229
-354.186
-335.26
-311.961
-286.128
-259.119
-231.634
-204.041
-177.061
-151.78
-129.238
-110.169
-94.688
-82.775
-74.413
-69.454
-67.354
-67.081
-67.584
-67.911
-67.507
-66.139
-63.728
-60.392
-56.512
-52.735
-49.581
-47.44
-46.517
-46.754
-48.005
-50.026
-52.426
-54.761
-56.728
-58.154
-58.952
-59.152
-58.777
-57.856
-56.484
-54.77
-52.8
-50.629
-48.283
-45.777
-43.162
-40.521
-37.928
-35.439
-33.082
-30.862
-28.785
-26.857
-25.071
-23.406
-21.828
-20.304
-18.811
-17.334
-15.855
-14.352
-12.794
-11.145
-9.376
-7.471
-5.419
-3.217
-0.863
1.643
4.292
7.068
9.957
12.941
16.01
19.153
22.356
25.601
28.871
32.145
35.406
38.638
41.821
44.939
47.974
50.909
53.73
56.422
58.969
61.358
63.571
65.595
67.414
69.017
70.391
71.525
72.408
73.032
73.391
73.479
73.293
72.829
72.087
71.067
69.772
68.205
66.371
64.277
61.931
59.344
56.527
53.491
50.251
46.821
43.216
39.454
35.552
31.529
27.404
23.196
18.926
14.613
10.278
5.941
1.622
-2.659
-6.883
-11.031
-15.085
-19.027
-22.841
-26.511
-30.022
-33.36
-36.513
-39.469
-42.218
-44.752
-47.064
-49.147
-50.996
-52.61
-53.986
-55.123
-56.024
-56.69
-57.126
-57.336
-57.328
-57.11
-56.69
-56.08
-55.289
-54.33
-53.215
-51.959
-50.575
-49.077
-47.48
-45.799
-44.05
-42.247
-40.407
-38.545
-36.676
-34.815
-32.976
-31.174
-29.421
-27.73
-26.114
-24.583
-23.148
-21.818
-20.602
-19.506
-18.538
-17.703
-17.005
-16.446
-16.03
-15.755
-15.622
-15.629
-15.775
-16.054
-16.464
-17
-17.654
-18.422
-19.296
-20.268
-21.329
-22.472
-23.688
-24.966
-26.297
-27.673
-29.082
-30.517
-31.967
-33.423
-34.876
-36.318
-37.74
-39.135
-40.495
-41.813
-43.083
-44.299
-45.456
-46.55
-47.577
-48.535
-49.421
-50.233
-50.972
-51.636
-52.226
-52.742
-53.186
-53.559
-53.863
-54.101
-54.275
-54.388
-54.444
-54.445
-54.395
-54.298
-54.156
-53.972
-53.75
-53.491
-53.199
-52.875
-52.522
-52.142
-51.735
-51.303
-50.847
-50.368
-49.864
-49.336
-48.781
-48.199
-47.588
-46.944
-46.266
-45.549
-44.792
-43.991
-43.143
-42.244
-41.291
-40.281
-39.21
-38.075
-36.872
-35.6
-34.255
-32.835
-31.338
-29.764
-28.113
-26.384
-24.578
-22.697
-20.74
-18.712
-16.615
-14.45
-12.223
-9.936
-7.596
-5.209
-2.781
-0.32
2.165
4.667
7.175
9.681
12.177
14.653
17.102
19.517
21.889
24.213
26.482
28.689
30.827
32.888
34.867
36.757
38.554
40.253
41.851
43.344
44.732
46.015
47.194
48.269
49.233
50.087
50.834
51.478
52.03
52.501
52.905
53.259
53.595
53.94
54.328
54.788
55.334
55.978
56.737
57.625
58.664
59.865
61.221
62.718
64.351
66.104
67.96
69.884
71.801
73.632
75.306
76.757
77.949
78.86
79.456
79.719
79.653
79.275
78.646
77.83
76.85
75.75
74.608
73.539
72.744
72.441
72.798
74.013
76.307
79.787
84.479
90.28
96.879
103.975
111.384
118.84
126.076
133.145
140.312
148.136
157.54
169.198
183.344
200.203
219.859
241.632
264.277
285.891
303.783
315.677
319.981
315.12
299.907
274.362
239.43
197.152
150.865
103.715
58.473
18.233
-14.35
-37.795
-51.446
-55.753
-52.415
-43.161
-29.831
-14.851
-0.268
12.615
22.905
30.405
35.549
38.735
40.597
42.173
44.158
46.873
50.478
54.799
59.545
64.528
69.429
73.81
77.434
80.202
82.123
83.358
84.047
84.279
84.187
83.916
83.587
83.313
83.153
83.112
83.196
83.411
83.761
84.253
84.86
85.543
86.271
87.017
87.762
88.5
89.211
89.873
90.472
90.988
91.405
91.718
91.905
91.953
91.859
91.624
91.273
90.834
90.32
89.738
89.09
88.364
87.557
86.66
85.649
84.511
83.255
81.903
80.508
79.133
77.817
76.592
75.476
74.479
73.626
72.945
72.455
72.187
72.171
72.446
73.074
74.1
75.529
77.346
79.5
81.915
84.538
87.324
90.23
93.223
96.265
99.316
102.351
105.339
108.242
111.009
113.571
115.867
117.865
119.555
120.947
122.075
122.957
123.605
124.039
124.266
124.293
124.127
123.762
123.189
122.413
121.445
120.31
119.032
117.624
116.089
114.426
112.624
110.679
108.591
106.355
103.973
101.452
98.801
96.039
93.187
90.262
87.278
84.246
81.176
78.081
74.973
71.868
68.779
65.72
62.705
59.747
56.86
54.053
51.333
48.707
46.177
43.746
41.416
39.19
37.067
35.049
33.135
31.325
29.619
28.013
26.505
25.09
23.765
22.524
21.36
20.268
19.241
18.273
17.356
16.483
15.649
14.845
14.065
13.303
12.552
11.806
11.058
10.304
9.538
8.755
7.952
7.125
6.271
5.387
4.472
3.524
2.543
1.527
0.477
-0.608
-1.727
-2.879
-4.062
-5.276
-6.517
-7.783
-9.073
-10.382
-11.707
-13.046
-14.396
-15.752
-17.112
-18.472
-19.829
-21.18
-22.522
-23.852
-25.167
-26.463
-27.739
-28.993
-30.222
-31.425
-32.6
-33.746
-34.862
-35.948
-37.002
-38.024
-39.014
-39.973
-40.899
-41.795
-42.659
-43.494
-44.299
-45.076
-45.826
-46.55
-47.248
-47.922
-48.572
-49.199
-49.804
-50.388
-50.95
-51.491
-52.011
-52.51
-52.987
-53.442
-53.873
-54.28
-54.661
-55.015
-55.339
-55.63
-55.887
-56.106
-56.285
-56.42
-56.508
-56.546
-56.53
-56.457
-56.324
-56.126
-55.861
-55.524
-55.113
-54.625
-54.055
-53.401
-52.661
-51.833
-50.914
-49.904
-48.802
-47.607
-46.32
-44.942
-43.473
-41.916
-40.273
-38.547
-36.742
-34.862
-32.912
-30.9
-28.831
-26.712
-24.552
-22.358
-20.14
-17.905
-15.663
-13.423
-11.195
-8.988
-6.812
-4.678
-2.597
-0.578
1.366
3.226
4.991
6.651
8.198
9.624
10.921
12.084
13.109
13.992
14.729
15.32
15.76
16.05
16.188
16.174
16.011
15.702
15.247
14.652
13.924
13.069
12.096
11.01
9.814
8.512
7.114
5.629
4.074
2.464
0.82
-0.834
-2.462
-4.026
-5.489
-6.814
-7.979
-8.964
-9.749
-10.317
-10.641
-10.708
-10.521
-10.089
-9.428
-8.559
-7.507
-6.321
-5.087
-3.899
-2.85
-2.021
-1.47
-1.243
-1.38
-1.903
-2.829
-4.145
-5.812
-7.785
-10.013
-12.418
-14.906
-17.33
-19.462
-21.08
-21.937
-21.743
-20.326
-17.618
-13.651
-8.64
-2.816
3.677
10.567
17.492
24.424
31.603
39.586
49.342
61.564
76.505
94.5
115.825
139.987
165.816
191.32
213.628
230.228
239.278
238.878
227.292
203.964
169.492
125.821
76.302
24.29
-27.26
-75.028
-115.592
-146.632
-167.01
-176.863
-177.72
-171.376
-159.542
-144.531
-129.027
-114.988
-103.614
-95.385
-89.926
-86.748
-85.443
-85.186
-84.887
-83.882
-81.853
-78.775
-75.007
-70.882
-66.629
-62.624
-59.287
-56.853
-55.442
-55.051
-55.509
-56.651
-58.323
-60.338
-62.537
-64.787
-66.972
-69.027
-70.922
-72.629
-74.138
-75.441
-76.526
-77.391
-78.028
-78.424
-78.591
-78.564
-78.397
-78.148
-77.86
-77.571
-77.318
-77.132
-77.034
-77.031
-77.113
-77.265
-77.48
-77.75
-78.073
-78.45
-78.872
-79.32
-79.766
-80.187
-80.558
-80.863
-81.079
-81.187
-81.169
-81.016
-80.727
-80.305
-79.747
-79.048
-78.206
-77.215
-76.074
-74.786
-73.35
-71.771
-70.052
-68.197
-66.213
-64.109
-61.895
-59.579
-57.166
-54.667
-52.089
-49.446
-46.748
-44.006
-41.235
-38.445
-35.652
-32.871
-30.115
-27.397
-24.732
-22.133
-19.612
-17.182
-14.855
-12.642
-10.553
-8.598
-6.787
-5.126
-3.625
-2.289
-1.123
-0.132
0.681
1.312
1.761
2.027
2.112
2.016
1.744
1.299
0.687
-0.087
-1.016
-2.091
-3.306
-4.649
-6.112
-7.683
-9.351
-11.105
-12.933
-14.823
-16.761
-18.737
-20.738
-22.751
-24.766
-26.771
-28.755
-30.707
-32.617
-34.475
-36.272
-38
-39.651
-41.217
-42.692
-44.071
-45.349
-46.523
-47.589
-48.545
-49.391
-50.126
-50.752
-51.269
-51.681
-51.99
-52.201
-52.319
-52.349
-52.297
-52.172
-51.979
-51.728
-51.426
-51.083
-50.706
-50.305
-49.889
-49.466
-49.046
-48.637
-48.247
-47.885
-47.559
-47.275
-47.042
-46.864
-46.748
-46.699
-46.72
-46.814
-46.984
-47.231
-47.556
-47.959
-48.438
-48.992
-49.618
-50.311
-51.068
-51.882
-52.748
-53.658
-54.604
-55.579
-56.572
-57.575
-58.578
-59.569
-60.538
-61.475
-62.368
-63.207
-63.979
-64.674
-65.281
-65.789
-66.189
-66.47
-66.624
-66.642
-66.517
-66.241
-65.809
-65.215
-64.455
-63.525
-62.422
-61.145
-59.692
-58.064
-56.263
-54.289
-52.147
-49.839
-47.371
-44.748
-41.977
-39.065
-36.019
-32.85
-29.565
-26.176
-22.691
-19.123
-15.481
-11.779
-8.026
-4.235
-0.417
3.416
7.255
11.087
14.903
18.692
22.444
26.151
29.803
33.391
36.909
40.349
43.704
46.968
50.137
53.206
56.171
59.027
61.774
64.408
66.928
69.332
71.621
73.795
75.854
77.8
79.635
81.361
82.98
84.496
85.911
87.229
88.451
89.581
90.621
91.574
92.441
93.227
93.933
94.56
95.112
95.59
95.996
96.33
96.594
96.787
96.908
96.957
96.931
96.831
96.656
96.404
96.077
95.673
95.196
94.644
94.02
93.323
92.553
91.705
90.78
89.777
88.697
87.543
86.314
85.013
83.641
82.204
80.706
79.148
77.524
75.831
74.067
72.236
70.35
68.424
66.47
64.503
62.541
60.607
58.73
56.937
55.246
53.666
52.202
50.867
49.686
48.686
47.875
47.243
46.766
46.408
46.144
45.947
45.779
45.589
45.302
44.818
44.053
42.953
41.494
39.689
37.505
34.856
31.748
28.309
24.818
21.592
18.79
16.359
14.245
12.595
11.559
11.166
11.071
10.675
9.664
8.183
6.703
5.563
4.913
4.882
6.088
9.697
16.715
27.716
42.645
61.135
82.945
107.889
135.124
162.85
188.881
210.841
226.626
234.716
233.623
221.762
198.481
164.489
121.434
72.005
19.502
-33.106
-82.652
-125.55
-159.228
-182.423
-194.748
-197.128
-191.446
-179.525
-163.717
-147.01
-131.52
-118.57
-109.054
-102.952
-99.755
-99.03
-99.86
-100.941
-101.572
-101.401
-100.252
-98.381
-96.056
-93.45
-90.961
-89.066
-87.982
-87.786
-88.425
-89.692
-91.448
-93.585
-95.943
-98.365
-100.706
-102.868
-104.818
-106.559
-108.09
-109.405
-110.491
-111.345
-111.989
-112.45
-112.757
-112.935
-113
-112.978
-112.898
-112.789
-112.681
-112.589
-112.513
-112.45
-112.391
-112.324
-112.241
-112.129
-111.965
-111.731
-111.413
-110.996
-110.468
-109.814
-109.01
-108.039
-106.889
-105.552
-104.028
-102.321
-100.443
-98.407
-96.231
-93.93
-91.515
-88.99
-86.348
-83.585
-80.692
-77.671
-74.535
-71.293
-67.955
-64.526
-61.009
-57.399
-53.683
-49.841
-45.848
-41.693
-37.377
-32.923
-28.374
-23.781
-19.21
-14.71
-10.323
-6.084
-2.025
1.822
5.423
8.736
11.713
14.294
16.411
18.013
19.069
19.574
19.552
19.048
18.126
16.843
15.245
13.374
11.263
8.946
6.453
3.823
1.094
-1.679
-4.428
-7.097
-9.637
-12.022
-14.246
-16.319
-18.268
-20.116
-21.878
-23.565
-25.177
-26.71
-28.159
-29.514
-30.766
-31.915
-32.972
-33.946
-34.844
-35.666
-36.405
-37.046
-37.568
-37.952
-38.182
-38.246
-38.14
-37.864
-37.419
-36.815
-36.063
-35.171
-34.146
-32.994
-31.72
-30.33
-28.833
-27.239
-25.56
-23.807
-21.993
-20.128
-18.224
-16.289
-14.332
-12.356
-10.368
-8.372
-6.371
-4.37
-2.373
-0.384
1.592
3.552
5.493
7.412
9.307
11.177
13.022
14.842
16.637
18.409
20.159
21.887
23.597
25.289
26.965
28.627
30.277
31.917
33.547
35.169
36.786
38.398
40.006
41.611
43.214
44.815
46.413
48.008
49.598
51.183
52.761
54.331
55.891
57.439
58.973
60.492
61.991
63.47
64.924
66.351
67.747
69.108
70.431
71.712
72.948
74.135
75.27
76.349
77.371
78.331
79.228
80.058
80.821
81.514
82.135
82.683
83.158
83.558
83.884
84.136
84.315
84.422
84.458
84.424
84.323
84.158
83.93
83.643
83.3
82.904
82.461
81.975
81.45
80.892
80.306
79.699
79.077
78.445
77.809
77.176
76.552
75.943
75.356
74.796
74.271
73.785
73.346
72.959
72.63
72.364
72.167
72.043
71.997
72.032
72.151
72.359
72.656
73.047
73.531
74.111
74.786
75.556
76.421
77.378
78.425
79.557
80.771
82.062
83.423
84.848
86.33
87.862
89.436
91.043
92.675
94.322
95.974
97.62
99.249
100.851
102.412
103.921
105.367
106.737
108.021
109.209
110.29
111.257
112.101
112.815
113.393
113.828
114.114
114.245
114.216
114.024
113.667
113.143
112.451
111.591
110.569
109.387
108.053
106.571
104.942
103.167
101.256
99.218
97.065
94.817
92.488
90.102
87.696
85.306
82.972
80.73
78.602
76.605
74.759
73.084
71.607
70.346
69.301
68.468
67.846
67.428
67.202
67.138
67.156
67.174
67.115
66.905
66.507
65.89
65.024
63.898
62.507
60.866
59.017
57.001
54.843
52.6
50.354
48.236
46.469
45.254
44.815
45.424
47.22
50.226
54.363
59.35
64.906
70.901
77.098
83.191
89.275
95.694
103.096
112.567
124.841
140.124
158.638
180.442
204.759
230.24
254.794
275.465
289.803
296.093
292.65
278.268
252.971
217.732
174.707
127.365
78.959
32.356
-9.299
-43.351
-68.324
-83.61
-89.736
-88.454
-81.521
-70.747
-58.488
-46.718
-36.646
-29.055
-24.052
-21.122
-19.844
-19.636
-19.523
-18.864
-17.402
-15.03
-11.974
-8.587
-5.09
-1.823
0.738
2.305
2.714
1.918
0.053
-2.747
-6.371
-10.642
-15.36
-20.325
-25.345
-30.295
-35.113
-39.748
-44.161
-48.304
-52.119
-55.566
-58.61
-61.231
-63.422
-65.177
-66.511
-67.462
-68.087
-68.468
-68.683
-68.784
-68.799
-68.748
-68.635
-68.471
-68.264
-68.013
-67.719
-67.386
-67.014
-66.61
-66.174
-65.693
-65.148
-64.508
-63.746
-62.846
-61.801
-60.606
-59.264
-57.779
-56.158
-54.416
-52.567
-50.62
-48.585
-46.467
-44.275
-42.024
-39.725
-37.396
-35.054
-32.714
-30.393
-28.106
-25.869
-23.694
-21.594
-19.58
-17.661
-15.85
-14.157
-12.594
-11.171
-9.899
-8.787
-7.844
-7.078
-6.495
-6.101
-5.899
-5.893
-6.083
-6.471
-7.057
-7.839
-8.816
-9.984
-11.34
-12.88
-14.598
-16.489
-18.546
-20.761
-23.126
-25.633
-28.272
-31.033
-33.907
-36.883
-39.95
-43.098
-46.316
-49.593
-52.918
-56.281
-59.671
-63.076
-66.487
-69.894
-73.287
-76.657
-79.995
-83.294
-86.546
-89.745
-92.883
-95.956
-98.958
-101.884
-104.73
-107.49
-110.163
-112.744
-115.23
-117.62
-119.912
-122.104
-124.195
-126.185
-128.073
-129.859
-131.543
-133.127
-134.61
-135.995
-137.283
-138.476
-139.576
-140.585
-141.504
-142.338
-143.088
-143.758
-144.349
-144.864
-145.307
-145.681
-145.987
-146.23
-146.411
-146.535
-146.604
-146.621
-146.589
-146.511
-146.391
-146.231
-146.035
-145.805
-145.544
-145.255
-144.941
-144.603
-144.245
-143.869
-143.477
-143.071
-142.652
-142.223
-141.784
-141.338
-140.885
-140.427
-139.964
-139.497
-139.028
-138.555
-138.081
-137.604
-137.125
-136.644
-136.161
-135.675
-135.187
-134.697
-134.203
-133.706
-133.204
-132.698
-132.188
-131.672
-131.151
-130.624
-130.093
-129.556
-129.013
-128.466
-127.915
-127.359
-126.8
-126.238
-125.673
-125.106
-124.539
-123.971
-123.404
-122.838
-122.276
-121.716
-121.161
-120.611
-120.067
-119.53
-119
-118.479
-117.965
-117.461
-116.964
-116.476
-115.995
-115.522
-115.053
-114.589
-114.126
-113.663
-113.197
-112.725
-112.244
-111.749
-111.238
-110.705
-110.147
-109.559
-108.936
-108.274
-107.567
-106.81
-106
-105.131
-104.198
-103.196
-102.123
-100.973
-99.744
-98.431
-97.031
-95.542
-93.961
-92.287
-90.52
-88.658
-86.701
-84.652
-82.512
-80.284
-77.973
-75.584
-73.12
-70.59
-68.001
-65.362
-62.68
-59.966
-57.23
-54.484
-51.741
-49.015
-46.317
-43.66
-41.059
-38.526
-36.075
-33.717
-31.462
-29.321
-27.306
-25.429
-23.7
-22.129
-20.727
-19.501
-18.462
-17.618
-16.974
-16.535
-16.302
-16.278
-16.464
-16.865
-17.484
-18.32
-19.367
-20.615
-22.055
-23.67
-25.442
-27.342
-29.335
-31.387
-33.471
-35.557
-37.618
-39.623
-41.535
-43.325
-44.963
-46.425
-47.698
-48.775
-49.651
-50.346
-50.885
-51.305
-51.665
-52.012
-52.393
-52.863
-53.468
-54.258
-55.279
-56.559
-58.119
-59.965
-62.08
-64.426
-66.942
-69.536
-72.114
-74.569
-76.748
-78.492
-79.617
-79.911
-79.202
-77.29
-73.935
-69.008
-62.487
-54.459
-45.207
-35.037
-24.158
-12.91
-1.692
9.426
20.611
32.35
45.534
60.833
78.53
98.973
122.424
148.347
175.521
201.957
224.874
241.847
251.104
250.817
239.316
216.18
182.237
139.581
91.596
41.627
-7.429
-52.293
-89.523
-116.879
-133.392
-139.329
-136.297
-126.14
-110.593
-92.031
-73.257
-56.291
-42.368
-32.006
-24.864
-20.479
-18.434
-17.861
-17.616
-16.976
-15.573
-13.334
-10.557
-7.506
-4.359
-1.449
0.846
2.335
2.981
2.866
2.207
1.186
-0.068
-1.398
-2.643
-3.694
-4.479
-4.973
-5.198
-5.164
-4.867
-4.309
-3.506
-2.482
-1.273
0.089
1.578
3.163
4.806
6.47
8.116
9.72
11.271
12.763
14.196
15.573
16.896
18.17
19.408
20.621
21.817
23.004
24.189
25.379
26.583
27.813
29.078
30.383
31.733
33.13
34.576
36.073
37.621
39.217
40.859
42.544
44.271
46.038
47.844
49.684
51.556
53.455
55.376
57.315
59.264
61.218
63.168
65.107
67.028
68.924
70.788
72.612
74.388
76.111
77.774
79.369
80.891
82.333
83.69
84.956
86.127
87.198
88.165
89.026
89.778
90.419
90.947
91.364
91.667
91.859
91.94
91.913
91.782
91.55
91.222
90.802
90.297
89.713
89.057
88.335
87.556
86.727
85.855
84.948
84.014
83.061
82.096
81.127
80.161
79.205
78.266
77.351
76.466
75.615
74.805
74.041
73.325
72.663
72.057
71.51
71.024
70.601
70.241
69.944
69.711
69.54
69.43
69.379
69.384
69.442
69.55
69.706
69.904
70.141
70.414
70.718
71.049
71.402
71.773
72.158
72.551
72.95
73.349
73.745
74.134
74.511
74.874
75.219
75.542
75.84
76.111
76.351
76.559
76.732
76.869
76.967
77.025
77.043
77.02
76.956
76.85
76.702
76.512
76.282
76.01
75.698
75.347
74.956
74.526
74.058
73.554
73.013
72.436
71.825
71.179
70.5
69.788
69.044
68.268
67.461
66.624
65.758
64.863
63.941
62.991
62.016
61.016
59.992
58.943
57.872
56.779
55.664
54.527
53.37
52.193
50.997
49.783
48.551
47.303
46.039
44.761
43.47
42.168
40.855
39.534
38.206
36.873
35.538
34.204
32.872
31.545
30.226
28.917
27.622
26.343
25.082
23.842
22.627
21.438
20.28
19.154
18.064
17.014
16.005
15.043
14.128
13.266
12.458
11.707
11.017
10.39
9.828
9.335
8.913
8.564
8.29
8.093
7.974
7.936
7.978
8.101
8.305
8.59
8.956
9.401
9.925
10.527
11.205
11.958
12.784
13.68
14.642
15.669
16.757
17.901
19.097
20.339
21.624
22.946
24.299
25.678
27.076
28.487
29.903
31.319
32.726
34.116
35.481
36.811
38.1
39.339
40.52
41.636
42.68
43.647
44.532
45.33
46.035
46.644
47.151
47.552
47.845
48.025
48.091
48.039
47.868
47.578
47.172
46.651
46.014
45.261
44.39
43.403
42.306
41.107
39.814
38.441
37.003
35.522
34.03
32.554
31.12
29.755
28.483
27.332
26.333
25.511
24.892
24.492
24.317
24.374
24.658
25.152
25.828
26.644
27.539
28.462
29.353
30.145
30.779
31.188
31.313
31.114
30.566
29.666
28.422
26.866
25.038
22.998
20.836
18.671
16.652
14.944
13.748
13.263
13.724
15.412
18.508
23.08
29.067
36.233
44.33
53.211
62.624
72.219
81.946
92.015
102.955
115.726
131.042
149.142
170.284
194.635
221.609
249.981
277.747
302.043
320.383
330.989
332.079
322.097
300.633
268.352
227.182
180.364
131.069
82.036
36.34
-2.867
-33.459
-54.354
-65.632
-68.634
-64.883
-55.796
-43.35
-29.9
-17.151
-6.162
2.609
9.441
14.689
18.613
21.864
25.373
29.674
34.964
41.208
48.041
55.152
62.326
69.18
75.237
80.182
83.862
86.27
87.569
87.902
87.39
86.213
84.585
82.731
80.853
79.078
77.465
76.056
74.9
74.051
73.575
73.52
73.904
74.726
75.981
77.654
79.714
82.111
84.765
87.57
90.435
93.302
96.133
98.908
101.61
104.218
106.714
109.089
111.343
113.478
115.492
117.379
119.144
120.801
122.375
123.905
125.419
126.933
128.459
129.999
131.558
133.137
134.732
136.334
137.935
139.528
141.109
142.678
144.229
145.756
147.248
148.693
150.081
151.402
152.646
153.803
154.864
155.82
156.666
157.397
158.007
158.49
158.839
159.047
159.108
159.017
158.767
158.353
157.769
157.014
156.083
154.975
153.69
152.226
150.585
148.767
146.776
144.613
142.281
139.785
137.128
134.316
131.354
128.248
125.006
121.634
118.139
114.53
110.814
106.999
103.094
99.105
95.041
90.91
86.718
82.473
78.182
73.853
69.492
65.107
60.704
56.288
51.865
47.44
43.018
38.603
34.198
29.808
25.436
21.085
16.757
12.455
8.183
3.942
-0.266
-4.438
-8.573
-12.67
-16.725
-20.738
-24.707
-28.63
-32.503
-36.326
-40.095
-43.808
-47.462
-51.054
-54.582
-58.043
-61.433
-64.75
-67.991
-71.153
-74.231
-77.225
-80.129
-82.942
-85.66
-88.28
-90.801
-93.219
-95.534
-97.744
-99.846
-101.841
-103.728
-105.506
-107.175
-108.735
-110.188
-111.534
-112.776
-113.915
-114.954
-115.897
-116.746
-117.505
-118.179
-118.771
-119.286
-119.73
-120.106
-120.419
-120.677
-120.882
-121.042
-121.16
-121.244
-121.299
-121.329
-121.34
-121.336
-121.323
-121.305
-121.286
-121.269
-121.258
-121.257
-121.268
-121.293
-121.336
-121.397
-121.478
-121.579
-121.701
-121.844
-122.008
-122.192
-122.394
-122.613
-122.849
-123.098
-123.36
-123.632
-123.911
-124.195
-124.482
-124.769
-125.053
-125.33
-125.599
-125.856
-126.099
-126.324
-126.529
-126.712
-126.87
-127.001
-127.102
-127.173
-127.212
-127.217
-127.187
-127.121
-127.019
-126.88
-126.705
-126.493
-126.246
-125.963
-125.646
-125.297
-124.915
-124.505
-124.066
-123.603
-123.116
-122.608
-122.082
-121.54
-120.986
-120.422
-119.852
-119.278
-118.705
-118.136
-117.575
-117.026
-116.492
-115.979
-115.489
-115.027
-114.596
-114.2
-113.844
-113.531
-113.264
-113.049
-112.889
-112.79
-112.756
-112.789
-112.893
-113.073
-113.329
-113.664
-114.078
-114.571
-115.142
-115.791
-116.518
-117.322
-118.204
-119.161
-120.194
-121.302
-122.48
-123.728
-125.041
-126.414
-127.84
-129.316
-130.838
-132.405
-134.014
-135.655
-137.321
-138.999
-140.673
-142.326
-143.933
-145.465
-146.894
-148.191
-149.327
-150.284
-151.043
-151.592
-151.915
-151.993
-151.814
-151.38
-150.701
-149.795
-148.684
-147.393
-145.963
-144.456
-142.945
-141.502
-140.194
-139.073
-138.174
-137.523
-137.145
-137.056
-137.249
-137.691
-138.321
-139.074
-139.903
-140.75
-141.512
-142.038
-142.134
-141.597
-140.268
-137.974
-134.515
-129.79
-123.793
-116.633
-108.61
-100.018
-91.034
-81.922
-72.985
-64.212
-55.399
-46.088
-35.444
-22.883
-8.248
8.669
27.984
49.076
70.823
91.464
108.448
119.655
123.618
118.816
104.066
79.299
45.291
3.921
-41.63
-88.369
-133.626
-174.377
-208.009
-232.961
-248.429
-254.725
-253.415
-246.154
-234.752
-221.617
-208.776
-197.558
-188.913
-183.101
-179.74
-178.436
-178.524
-178.916
-178.873
-178.059
-176.292
-173.717
-170.609
-167.139
-163.625
-160.521
-158.077
-156.39
-155.449
-155.086
-155.155
-155.569
-156.2
-156.907
-157.577
-158.094
-158.394
-158.475
-158.332
-157.959
-157.353
-156.5
-155.411
-154.124
-152.673
-151.094
-149.414
-147.652
-145.836
-143.996
-142.162
-140.365
-138.622
-136.939
-135.319
-133.761
-132.264
-130.827
-129.438
-128.078
-126.729
-125.375
-124
-122.592
-121.131
-119.599
-117.979
-116.255
-114.414
-112.446
-110.34
-108.087
-105.682
-103.114
-100.378
-97.462
-94.358
-91.063
-87.579
-83.914
-80.079
-76.088
-71.952
-67.693
-63.325
-58.857
-54.296
-49.633
-44.859
-39.977
-34.996
-29.934
-24.812
-19.636
-14.409
-9.133
-3.798
1.602
7.077
12.655
18.35
24.15
30.033
35.943
41.815
47.603
53.273
58.799
64.164
69.335
74.281
78.977
83.387
87.474
91.195
94.483
97.288
99.599
101.424
102.811
103.829
104.527
104.943
105.119
105.081
104.865
104.509
104.034
103.468
102.85
102.227
101.669
101.237
100.961
100.856
100.91
101.093
101.39
101.79
102.28
102.854
103.511
104.25
105.083
106.024
107.077
108.238
109.489
110.814
112.21
113.679
115.233
116.892
118.667
120.567
122.605
124.788
127.117
129.589
132.192
134.913
137.74
140.665
143.679
146.779
149.955
153.197
156.492
159.828
163.192
166.572
169.953
173.321
176.665
179.973
183.238
186.452
189.608
192.699
195.718
198.658
201.512
204.274
206.938
209.499
211.95
214.289
216.511
218.616
220.6
222.465
224.208
225.831
227.335
228.721
229.991
231.147
232.191
233.126
233.954
234.677
235.3
235.824
236.252
236.588
236.835
236.994
237.068
237.06
236.971
236.802
236.556
236.232
235.831
235.354
234.802
234.173
233.468
232.685
231.825
230.885
229.863
228.759
227.569
226.291
224.922
223.461
221.905
220.251
218.498
216.644
214.686
212.625
210.458
208.187
205.81
203.328
200.743
198.057
195.27
192.386
189.409
186.343
183.191
179.961
176.657
173.286
169.857
166.376
162.853
159.296
155.715
152.119
148.517
144.921
141.34
137.784
134.264
130.79
127.372
124.021
120.744
117.553
114.455
111.458
108.571
105.798
103.146
100.62
98.222
95.958
93.828
91.836
89.979
88.259
86.673
85.219
83.892
82.686
81.594
80.609
79.721
78.922
78.204
77.554
76.964
76.425
75.928
75.464
75.022
74.591
74.16
73.719
73.257
72.763
72.226
71.637
70.985
70.264
69.47
68.597
67.637
66.586
65.433
64.176
62.814
61.351
59.79
58.141
56.417
54.636
52.828
51.014
49.216
47.458
45.755
44.135
42.619
41.221
39.963
38.855
37.9
37.098
36.446
35.916
35.484
35.117
34.761
34.379
33.927
33.349
32.596
31.619
30.376
28.854
27.043
24.938
22.562
19.956
17.174
14.317
11.473
8.705
6.123
3.843
1.998
0.79
0.405
0.994
2.735
5.798
10.233
16.014
22.976
30.771
39.115
47.776
56.452
64.925
73.233
81.626
90.683
101.139
113.395
127.592
143.847
161.962
181.213
200.285
217.104
229.432
235.528
234.02
223.829
204.367
175.806
139.389
97.614
53.341
9.313
-31.782
-67.69
-96.507
-116.934
-128.801
-133.069
-131.104
-124.616
-115.594
-105.606
-96.078
-88.145
-82.214
-78.212
-75.882
-74.618
-73.584
-72.282
-70.332
-67.519
-63.972
-59.884
-55.478
-51.128
-47.267
-44.159
-41.966
-40.745
-40.413
-40.868
-41.979
-43.573
-45.472
-47.532
-49.635
-51.682
-53.622
-55.413
-57.023
-58.442
-59.661
-60.671
-61.472
-62.074
-62.478
-62.714
-62.838
-62.898
-62.944
-63.024
-63.175
-63.438
-63.852
-64.433
-65.188
-66.112
-67.197
-68.441
-69.842
-71.393
-73.088
-74.914
-76.845
-78.862
-80.943
-83.066
-85.214
-87.364
-89.491
-91.579
-93.621
-95.606
-97.527
-99.374
-101.135
-102.8
-104.358
-105.802
-107.124
-108.319
-109.378
-110.297
-111.072
-111.701
-112.185
-112.522
-112.712
-112.754
-112.652
-112.408
-112.027
-111.514
-110.875
-110.117
-109.247
-108.275
-107.21
-106.064
-104.847
-103.568
-102.241
-100.877
-99.487
-98.084
-96.681
-95.287
-93.915
-92.575
-91.28
-90.038
-88.861
-87.756
-86.733
-85.798
-84.96
-84.222
-83.59
-83.067
-82.654
-82.352
-82.162
-82.082
-82.11
-82.244
-82.479
-82.812
-83.237
-83.748
-84.337
-84.997
-85.719
-86.493
-87.311
-88.162
-89.034
-89.919
-90.805
-91.683
-92.541
-93.37
-94.16
-94.9
-95.581
-96.193
-96.729
-97.179
-97.535
-97.792
-97.944
-97.987
-97.918
-97.733
-97.431
-97.012
-96.474
-95.818
-95.042
-94.149
-93.139
-92.014
-90.778
-89.436
-87.993
-86.455
-84.83
-83.126
-81.352
-79.516
-77.623
-75.681
-73.696
-71.673
-69.62
-67.542
-65.444
-63.334
-61.222
-59.116
-57.024
-54.952
-52.901
-50.873
-48.877
-46.918
-45.004
-43.147
-41.357
-39.649
-38.052
-36.588
-35.283
-34.156
-33.215
-32.463
-31.907
-31.551
-31.398
-31.442
-31.664
-32.041
-32.56
-33.199
-33.934
-34.731
-35.527
-36.264
-36.897
-37.38
-37.688
-37.806
-37.723
-37.439
-36.982
-36.399
-35.76
-35.149
-34.627
-34.265
-34.144
-34.359
-35.028
-36.262
-38.148
-40.768
-44.2
-48.494
-53.689
