Name,Criss Capps
Date of Birth,"Feb 5, 1952"
Recorded Date,2021-10-01 06:38:20 -0400
Classification,Sinus Rhythm
Symptoms,
Software Version,1.90
Device,"Watch5,4"
Sample Rate,512.844 hertz


Lead,Lead I
Unit,µV

-208.515
-279.291
-347.114
-412.331
-477.575
-544.223
-617.648
-698.151
-780.632
-859.061
-922.947
-961.998
-971.35
-950.76
-905.584
-845.486
-778.756
-709.949
-640.057
-566.92
-488.65
-405.299
-318.353
-230.118
-141.788
-53.378
35.478
125.202
215.461
305.463
394.798
483.345
570.884
657.053
741.182
822.385
899.895
972.806
1039.478
1097.636
1144.96
1179.28
1199.052
1203.287
1191.124
1162.314
1117.802
1059.669
990.807
914.525
833.716
751.14
669.856
592.589
521.375
457.259
400.108
349.189
303.864
263.234
225.962
190.61
155.709
120.387
84.613
48.702
13.058
-21.761
-55.101
-86.188
-114.146
-138.52
-159.298
-176.691
-191.134
-203.106
-213.06
-221.516
-229.019
-235.939
-242.506
-248.865
-255.062
-261.149
-267.177
-273.136
-278.955
-284.532
-289.755
-294.459
-298.422
-301.356
-302.944
-302.897
-300.965
-296.918
-290.514
-281.514
-269.69
-254.86
-236.907
-215.757
-191.403
-163.894
-133.338
-99.954
-64.069
-26.089
13.543
54.398
96.065
138.101
180.003
221.229
261.215
299.43
335.385
368.601
398.637
425.078
447.566
465.87
479.884
489.574
494.939
495.98
492.691
485.146
473.52
458.054
439.054
416.847
391.774
364.24
334.693
303.594
271.409
238.516
205.21
171.782
138.527
105.763
73.843
43.061
13.643
-14.217
-40.361
-64.677
-87.095
-107.627
-126.364
-143.419
-158.926
-172.982
-185.646
-197.007
-207.176
-216.291
-224.525
-232.04
-238.973
-245.475
-251.701
-257.762
-263.734
-269.631
-275.41
-281.017
-286.396
-291.492
-296.265
-300.661
-304.616
-308.064
-310.932
-313.143
-314.624
-315.288
-315.037
-313.809
-311.572
-308.324
-304.101
-298.945
-292.902
-286.029
-278.393
-270.058
-261.09
-251.554
-241.507
-231.017
-220.155
-208.997
-197.631
-186.132
-174.559
-162.968
-151.401
-139.893
-128.481
-117.194
-106.05
-95.074
-84.288
-73.711
-63.375
-53.309
-43.536
-34.082
-24.962
-16.176
-7.733
0.358
8.093
15.466
22.477
29.135
35.431
41.346
46.864
51.965
56.646
60.92
64.797
68.29
71.398
74.106
76.406
78.308
79.807
80.893
81.552
81.751
81.498
80.847
79.84
78.526
76.935
75.067
72.938
70.569
67.987
65.233
62.332
59.29
56.139
52.925
49.701
46.538
43.453
40.406
37.37
34.324
31.261
28.204
25.154
22.1
19.04
15.975
12.914
9.881
6.871
3.86
0.823
-2.273
-5.419
-8.558
-11.65
-14.66
-17.556
-20.325
-22.936
-25.35
-27.549
-29.528
-31.28
-32.802
-34.07
-35.053
-35.728
-36.075
-36.095
-35.81
-35.239
-34.408
-33.356
-32.117
-30.726
-29.215
-27.584
-25.828
-23.947
-21.939
-19.814
-17.572
-15.19
-12.653
-9.951
-7.065
-3.984
-0.672
2.938
6.895
11.241
15.985
21.093
26.528
32.25
38.206
44.339
50.564
56.757
62.818
68.673
74.253
79.506
84.347
88.644
92.287
95.188
97.298
98.618
99.162
98.939
97.981
96.33
94.07
91.33
88.208
84.757
81.001
76.929
72.567
68.001
63.303
58.538
53.741
48.911
44.03
39.098
34.105
29.027
23.844
18.465
12.784
6.845
0.813
-4.998
-10.149
-14.297
-17.247
-18.735
-18.445
-16.344
-12.569
-7.685
-2.824
1.104
3.508
3.819
1.761
-2.477
-8.468
-14.894
-19.395
-19.898
-14.598
-1.686
19.937
50.802
91.181
138.94
189.675
239.793
285.379
325.016
360.866
391.33
413.024
420.036
401.744
354.114
278.254
178.154
65.922
-47.709
-153.33
-238.537
-297.045
-326.895
-328.232
-309.279
-277.898
-237.751
-194.765
-150.301
-104.543
-61.945
-22.274
13.954
44.475
70.599
91.192
105.179
113.667
117.17
117.276
116.02
114.89
114.777
115.758
117.616
119.875
121.925
123.338
123.471
121.453
116.901
109.776
100.217
88.673
75.575
61.284
46.328
31.319
16.671
2.656
-10.588
-23.073
-34.774
-45.646
-55.707
-65.012
-73.628
-81.636
-89.094
-96.032
-102.508
-108.613
-114.467
-120.209
-125.933
-131.688
-137.496
-143.364
-149.301
-155.305
-161.349
-167.387
-173.366
-179.237
-184.962
-190.512
-195.843
-200.903
-205.619
-209.918
-213.754
-217.104
-219.962
-222.339
-224.243
-225.69
-226.717
-227.367
-227.68
-227.685
-227.389
-226.791
-225.896
-224.735
-223.365
-221.856
-220.271
-218.654
-217.01
-215.324
-213.572
-211.71
-209.707
-207.512
-205.043
-202.308
-199.4
-196.477
-193.832
-191.688
-190.026
-188.808
-187.955
-187.204
-186.381
-185.175
-182.859
-178.858
-172.999
-165.303
-156.25
-146.655
-137.021
-128.133
-121.437
-118.362
-120.186
-127.76
-140.933
-159.013
-181.512
-207.42
-234.99
-262.093
-286.185
-305.134
-317.853
-323.846
-322.734
-314.797
-301.053
-283.29
-264.116
-246.071
-231.168
-220.989
-216.841
-219.461
-228.898
-244.375
-264.304
-286.827
-310.089
-332.537
-352.863
-370.109
-383.824
-394.074
-401.408
-406.693
-410.956
-414.973
-419.321
-424.419
-430.428
-437.37
-445.139
-453.455
-461.952
-470.426
-478.792
-487.027
-495.189
-503.302
-511.361
-519.399
-527.454
-535.52
-543.555
-551.496
-559.261
-566.8
-574.084
-581.089
-587.802
-594.203
-600.27
-605.986
-611.335
-616.303
-620.876
-625.04
-628.779
-632.081
-634.939
-637.346
-639.294
-640.778
-641.789
-642.321
-642.36
-641.894
-640.907
-639.391
-637.345
-634.773
-631.677
-628.071
-623.975
-619.42
-614.455
-609.113
-603.419
-597.389
-591.025
-584.332
-577.32
-569.996
-562.363
-554.426
-546.181
-537.634
-528.8
-519.675
-510.243
-500.466
-490.274
-479.634
-468.545
-457.024
-445.115
-432.873
-420.356
-407.648
-394.857
-382.073
-369.386
-356.865
-344.555
-332.529
-320.879
-309.714
-299.18
-289.378
-280.367
-272.186
-264.85
-258.341
-252.63
-247.643
-243.265
-239.404
-235.989
-232.963
-230.303
-227.957
-225.856
-223.923
-222.061
-220.194
-218.279
-216.274
-214.152
-211.912
-209.569
-207.175
-204.815
-202.552
-200.425
-198.459
-196.656
-195.027
-193.595
-192.374
-191.383
-190.635
-190.138
-189.898
-189.925
-190.212
-190.74
-191.48
-192.378
-193.396
-194.51
-195.698
-196.953
-198.27
-199.64
-201.061
-202.535
-204.06
-205.632
-207.246
-208.889
-210.552
-212.229
-213.917
-215.622
-217.347
-219.095
-220.867
-222.66
-224.474
-226.3
-228.129
-229.958
-231.784
-233.609
-235.445
-237.287
-239.133
-240.995
-242.874
-244.779
-246.731
-248.686
-250.592
-252.503
-254.437
-256.424
-258.536
-260.658
-262.646
-264.54
-266.353
-267.917
-269.141
-269.819
-269.696
-269.032
-268.138
-267.054
-265.913
-264.96
-264.341
-264.458
-265.775
-268.08
-271.143
-274.987
-279.505
-284.678
-290.607
-297.04
-303.624
-310.422
-317.344
-324.162
-330.811
-337.01
-342.334
-346.718
-350.294
-353.224
-356.054
-359.341
-363.308
-368.284
-374.701
-382.586
-391.524
-400.693
-408.593
-413.55
-414.343
-409.787
-398.454
-379.301
-351.907
-316.314
-274.516
-230.195
-186.294
-146.107
-110.579
-77.28
-47.106
-22.526
-9.955
-21.897
-64.429
-138.908
-242.134
-359.758
-479.111
-587.998
-672.41
-728.933
-758.509
-766.635
-764
-754.629
-738.095
-711.117
-671.509
-624.016
-576.569
-538.447
-513.577
-498.997
-490.703
-483.35
-475.297
-469.372
-466.621
-467.641
-471.458
-474.519
-475.054
-472.789
-467.633
-460.355
-451.668
-441.761
-431.245
-421.153
-412.012
-404.034
-397.294
-391.505
-386.393
-381.861
-377.663
-373.452
-369.073
-364.445
-359.559
-354.549
-349.506
-344.464
-339.494
-334.655
-329.977
-325.504
-321.26
-317.253
-313.515
-310.065
-306.909
-304.054
-301.493
-299.211
-297.196
-295.419
-293.849
-292.461
-291.229
-290.135
-289.161
-288.28
-287.464
-286.681
-285.9
-285.094
-284.233
-283.289
-282.235
-281.05
-279.712
-278.205
-276.515
-274.625
-272.519
-270.181
-267.596
-264.754
-261.642
-258.253
-254.58
-250.617
-246.364
-241.821
-236.99
-231.875
-226.48
-220.812
-214.88
-208.693
-202.264
-195.606
-188.733
-181.662
-174.413
-167.004
-159.455
-151.79
-144.028
-136.194
-128.311
-120.403
-112.493
-104.605
-96.763
-88.989
-81.308
-73.741
-66.311
-59.038
-51.942
-45.043
-38.358
-31.903
-25.695
-19.747
-14.07
-8.677
-3.576
1.224
5.719
9.903
13.775
17.334
20.582
23.522
26.16
28.502
30.559
32.339
33.856
35.123
36.154
36.966
37.577
38.004
38.268
38.388
38.385
38.281
38.099
37.859
37.585
37.299
37.024
36.783
36.597
36.489
36.48
36.59
36.841
37.252
37.84
38.623
39.617
40.837
42.295
44.003
45.972
48.209
50.723
53.519
56.602
59.973
63.636
67.589
71.832
76.362
81.175
86.268
91.633
97.263
103.152
109.289
115.667
122.274
129.099
136.132
143.359
150.768
158.346
166.079
173.953
181.954
190.067
198.277
206.572
214.935
223.353
231.813
240.299
248.799
257.299
265.785
274.243
282.66
291.022
299.316
307.528
315.644
323.651
331.535
339.281
346.875
354.303
361.551
368.603
375.445
382.062
388.438
394.558
400.409
405.974
411.24
416.193
420.818
425.103
429.034
432.598
435.783
438.578
440.97
442.95
444.508
445.634
446.322
446.563
446.354
445.691
444.57
442.992
440.957
438.466
435.524
432.136
428.308
424.05
419.372
414.286
408.806
402.948
396.729
390.166
383.28
376.091
368.621
360.892
352.926
344.747
336.379
327.845
319.169
310.377
301.494
292.543
283.549
274.535
265.523
256.537
247.596
238.72
229.923
221.223
212.635
204.173
195.848
187.671
179.653
171.803
164.131
156.647
149.355
142.26
135.363
128.666
122.168
115.868
109.763
103.851
98.13
92.601
87.267
82.129
77.186
72.434
67.863
63.466
59.238
55.177
51.283
47.562
44.026
40.694
37.597
34.758
32.198
29.938
27.987
26.36
25.068
24.117
23.524
23.306
23.471
24.029
24.972
26.26
27.856
29.708
31.741
33.904
36.13
38.331
40.445
42.414
44.191
45.772
47.119
48.132
48.801
49.21
49.531
50.083
51.145
52.894
55.625
59.7
65.252
72.216
80.222
88.566
96.698
104.119
110.234
114.623
117.157
118.902
121.474
125.752
133.112
143.262
155.746
174.143
200.589
237.4
286.813
343.159
400.168
452.656
494.744
527.67
554.474
574.943
587.168
583.267
553.919
494.463
405.913
298.795
188.845
91.758
19.602
-25.493
-49.132
-59.462
-62.881
-59.848
-46.075
-19.935
14.465
49.9
76.775
91.201
96.604
96.523
95.733
96.11
95.234
92.703
88.719
83.849
80.376
79.663
81.901
86.995
94.163
102.233
110.271
117.75
124.334
129.797
134.115
137.307
139.45
140.917
142.159
143.456
145.013
146.924
149.155
151.711
154.615
157.82
161.259
164.871
168.589
172.38
176.241
180.143
184.052
187.917
191.668
195.245
198.591
201.665
204.438
206.884
208.982
210.717
212.082
213.079
213.719
214.006
213.941
213.527
212.769
211.682
210.283
208.587
206.611
204.368
201.873
199.139
196.184
193.022
189.666
186.131
182.431
178.584
174.607
170.52
166.344
162.098
157.803
153.479
149.147
144.829
140.544
136.312
132.152
128.082
124.12
120.283
116.588
113.05
109.682
106.5
103.514
100.736
98.177
95.844
93.746
91.888
90.276
88.913
87.802
86.943
86.335
85.978
85.867
85.998
86.364
86.958
87.77
88.79
90.005
91.401
92.964
94.677
96.525
98.49
100.553
102.696
104.899
107.142
109.406
111.67
113.913
116.115
118.254
120.311
122.267
124.1
125.794
127.329
128.688
129.855
130.814
131.551
132.053
132.307
132.303
132.032
131.487
130.662
129.555
128.163
126.487
124.528
122.292
119.783
117.009
113.98
110.706
107.201
103.478
99.554
95.445
91.171
86.749
82.202
77.55
72.816
68.021
63.188
58.341
53.502
48.696
43.946
39.274
34.704
30.258
25.957
21.822
17.872
14.125
10.597
7.304
4.258
1.472
-1.045
-3.285
-5.243
-6.915
-8.299
-9.396
-10.21
-10.746
-11.011
-11.014
-10.769
-10.288
-9.588
-8.687
-7.601
-6.35
-4.956
-3.439
-1.825
-0.137
1.602
3.363
5.119
6.839
8.494
10.055
11.495
12.788
13.905
14.821
15.511
15.952
16.128
16.018
15.598
14.846
13.74
12.269
10.435
8.237
5.672
2.743
-0.547
-4.186
-8.153
-12.441
-17.054
-21.993
-27.262
-32.849
-38.724
-44.86
-51.227
-57.805
-64.594
-71.577
-78.726
-86.021
-93.451
-101.008
-108.701
-116.5
-124.332
-132.133
-139.837
-147.397
-154.796
-162.003
-168.984
-175.699
-182.099
-188.149
-193.836
-199.125
-203.965
-208.307
-212.081
-215.278
-217.947
-220.125
-221.847
-223.139
-224
-224.448
-224.52
-224.244
-223.646
-222.748
-221.559
-220.116
-218.48
-216.711
-214.882
-213.028
-211.135
-209.208
-207.251
-205.277
-203.31
-201.364
-199.437
-197.545
-195.713
-193.967
-192.338
-190.838
-189.464
-188.209
-187.063
-186.029
-185.125
-184.363
-183.754
-183.306
-183.029
-182.932
-183.022
-183.299
-183.746
-184.341
-185.061
-185.874
-186.745
-187.642
-188.53
-189.369
-190.124
-190.753
-191.211
-191.462
-191.454
-191.14
-190.501
-189.52
-188.187
-186.512
-184.489
-182.139
-179.537
-176.757
-173.893
-171.041
-168.256
-165.634
-163.32
-161.378
-159.83
-158.595
-157.411
-156.044
-154.355
-152.127
-149.141
-145.278
-140.463
-134.986
-129.529
-124.683
-120.907
-118.529
-117.727
-118.636
-121.2
-124.636
-127.508
-128.249
-125.29
-117.462
-103.657
-82.51
-52.926
-14.374
32.148
83.734
137.186
189.708
240.014
290.163
341.467
391.269
433.337
455.551
445.44
398.621
316.931
208.347
86.449
-37.801
-154.586
-252.382
-324.287
-366.917
-380.281
-370.513
-344.718
-308.856
-269.5
-233.214
-205.06
-187.944
-180.832
-178.552
-176.537
-172.784
-167.99
-165.062
-165.598
-169.03
-173.575
-176.93
-177.742
-175.852
-171.612
-165.755
-159.052
-152.173
-145.892
-140.755
-137.122
-135.21
-134.968
-136.249
-138.773
-142.101
-145.769
-149.435
-152.891
-156.047
-158.889
-161.391
-163.536
-165.347
-166.859
-168.091
-169.011
-169.571
-169.753
-169.574
-169.107
-168.467
-167.75
-167.035
-166.385
-165.837
-165.415
-165.139
-165.003
-164.988
-165.081
-165.271
-165.569
-165.99
-166.529
-167.164
-167.861
-168.564
-169.229
-169.818
-170.286
-170.602
-170.74
-170.679
-170.411
-169.934
-169.244
-168.331
-167.182
-165.781
-164.118
-162.187
-159.98
-157.5
-154.743
-151.714
-148.416
-144.857
-141.042
-136.978
-132.67
-128.121
-123.341
-118.339
-113.125
-107.714
-102.12
-96.361
-90.454
-84.42
-78.279
-72.052
-65.761
-59.425
-53.066
-46.708
-40.37
-34.075
-27.843
-21.696
-15.656
-9.741
-3.973
1.631
7.051
12.272
17.276
22.05
26.579
30.851
34.857
38.587
42.034
45.19
48.052
50.616
52.882
54.848
56.516
57.891
58.977
59.78
60.31
60.575
60.585
60.353
59.89
59.211
58.329
57.26
56.02
54.625
53.092
51.439
49.684
47.845
45.94
43.986
42.003
40.008
38.018
36.049
34.119
32.242
30.434
28.709
27.079
25.557
24.153
22.878
21.74
20.747
19.905
19.219
18.693
18.331
18.132
18.098
18.229
18.521
18.972
19.578
20.334
21.233
22.27
23.436
24.722
26.12
27.619
29.21
30.882
32.624
34.425
36.274
38.159
40.068
41.992
43.919
45.839
47.741
49.616
51.455
53.248
54.988
56.667
58.279
59.817
61.275
62.65
63.937
65.133
66.236
67.245
68.158
68.976
69.699
70.33
70.87
71.323
71.691
71.979
72.191
72.334
72.412
72.432
72.4
72.323
72.208
72.062
71.892
71.705
71.51
71.312
71.121
70.943
70.787
70.659
70.566
70.516
70.516
70.572
70.689
70.874
71.132
71.468
71.885
72.388
72.982
73.668
74.451
75.331
76.311
77.392
78.574
79.857
81.238
82.718
84.293
85.961
87.719
89.563
91.489
93.49
95.563
97.699
99.893
102.135
104.417
106.729
109.061
111.402
113.741
116.067
118.368
120.632
122.846
125
127.079
129.071
130.961
132.735
134.377
135.874
137.211
138.375
139.354
140.135
140.711
141.075
141.221
141.143
140.836
140.295
139.516
138.498
137.239
135.739
134.005
132.04
129.856
127.468
124.888
122.13
119.204
116.113
112.865
109.472
105.948
102.311
98.59
94.809
91.008
87.232
83.523
79.924
76.475
73.203
70.14
67.319
64.768
62.536
60.669
59.195
58.13
57.467
57.182
57.252
57.643
58.301
59.161
60.127
61.116
62.077
62.938
63.668
64.195
64.349
64.075
63.461
62.65
61.956
61.699
62.025
63.241
65.829
69.877
75.226
81.523
87.951
93.72
98.282
100.981
101.076
99.266
97.524
96.814
98.222
101.694
104.96
110.249
123.208
148.632
192.163
252.988
322.291
391.357
452.366
501.222
539.472
569.503
589.109
593.102
576.699
534.328
467.678
383.344
284.761
179.561
74.356
-24.46
-103.882
-156.828
-182.03
-182.828
-170.789
-153.838
-135.15
-116.001
-93.727
-68.164
-41.774
-16.768
3.788
18.229
26.913
30.657
30.741
28.62
25.213
21.319
18.077
16.425
16.753
19.091
23.051
27.884
33.028
37.95
41.863
44.215
44.763
43.407
40.338
35.942
30.54
24.509
18.32
12.26
6.502
1.184
-3.665
-8.004
-11.777
-14.986
-17.658
-19.803
-21.435
-22.569
-23.22
-23.465
-23.411
-23.163
-22.836
-22.502
-22.204
-21.99
-21.898
-21.963
-22.206
-22.633
-23.237
-24.017
-24.969
-26.086
-27.354
-28.736
-30.188
-31.663
-33.108
-34.484
-35.764
-36.92
-37.933
-38.788
-39.469
-39.97
-40.29
-40.423
-40.359
-40.09
-39.607
-38.905
-37.983
-36.842
-35.484
-33.909
-32.12
-30.117
-27.901
-25.474
-22.838
-19.993
-16.942
-13.687
-10.236
-6.597
-2.783
1.196
5.326
9.593
13.98
18.47
23.048
27.695
32.393
37.125
41.871
46.611
51.326
55.994
60.596
65.111
69.518
73.795
77.924
81.883
85.654
89.217
92.554
95.648
98.481
101.038
103.303
105.263
106.904
108.216
109.189
109.815
110.086
109.998
109.547
108.732
107.552
106.008
104.103
101.839
99.221
96.255
92.949
89.312
85.351
81.079
76.506
71.645
66.51
61.114
55.472
49.599
43.511
37.224
30.753
24.116
17.328
10.407
3.367
-3.775
-11.004
-18.305
-25.664
-33.068
-40.504
-47.96
-55.425
-62.89
-70.345
-77.781
-85.19
-92.566
-99.902
-107.191
-114.43
-121.613
-128.737
-135.797
-142.791
-149.717
-156.572
-163.353
-170.06
-176.689
-183.24
-189.711
-196.1
-202.405
-208.624
-214.756
-220.798
-226.747
-232.6
-238.353
-244.002
-249.543
-254.97
-260.277
-265.457
-270.504
-275.411
-280.17
-284.772
-289.211
-293.476
-297.561
-301.455
-305.152
-308.642
-311.917
-314.97
-317.792
-320.377
-322.717
-324.807
-326.641
-328.213
-329.521
-330.559
-331.326
-331.818
-332.035
-331.975
-331.638
-331.026
-330.139
-328.982
-327.556
-325.867
-323.921
-321.722
-319.277
-316.594
-313.679
-310.542
-307.19
-303.631
-299.875
-295.929
-291.803
-287.506
-283.045
-278.429
-273.666
-268.763
-263.726
-258.562
-253.277
-247.874
-242.357
-236.731
-230.998
-225.16
-219.219
-213.176
-207.031
-200.785
-194.436
-187.984
-181.426
-174.761
-167.985
-161.096
-154.092
-146.968
-139.723
-132.353
-124.856
-117.23
-109.473
-101.584
-93.563
-85.409
-77.123
-68.707
-60.164
-51.497
-42.713
-33.816
-24.814
-15.718
-6.538
2.71
12.015
21.362
30.735
40.118
49.494
58.847
68.163
77.427
86.622
95.729
104.73
113.606
122.339
130.913
139.309
147.511
155.502
163.272
170.811
178.11
185.158
191.936
198.424
204.604
210.467
216.008
221.226
226.124
230.709
235.002
239.034
242.839
246.44
249.859
253.106
256.201
259.173
262.062
264.909
267.741
270.581
273.441
276.317
279.194
282.036
284.786
287.373
289.726
291.768
293.435
294.659
295.373
295.521
295.014
293.73
291.633
288.776
285.32
281.574
277.843
274.364
271.452
269.511
268.767
269.178
270.387
271.682
272.387
272.169
270.755
267.775
263.209
257.592
251.979
248.082
247.689
252.021
262.254
279.727
305.138
338.559
379.484
426.345
477.205
529.523
579.41
623.009
657.634
683.093
700.948
710.651
709.065
690.184
647.663
581.189
494.139
392.028
283.757
176.473
78.741
2.215
-46.936
-66.951
-61.859
-43.147
-19.084
5.811
29.824
55.955
84.494
113.141
139.254
158.665
169.476
172.337
168.321
159.124
146.571
131.885
116.547
102.572
91.146
82.68
77.237
74.308
73.198
73.448
74.359
74.879
74.397
72.634
69.48
65.227
60.203
54.589
48.68
42.82
37.153
31.746
26.609
21.606
16.624
11.576
6.333
0.826
-4.939
-10.92
-17.065
-23.335
-29.736
-36.269
-42.912
-49.636
-56.402
-63.181
-69.958
-76.692
-83.32
-89.758
-95.923
-101.768
-107.292
-112.522
-117.473
-122.141
-126.513
-130.578
-134.341
-137.802
-140.952
-143.77
-146.233
-148.335
-150.085
-151.508
-152.628
-153.452
-153.972
-154.171
-154.038
-153.569
-152.765
-151.624
-150.142
-148.322
-146.177
-143.731
-141.009
-138.03
-134.807
-131.351
-127.676
-123.798
-119.737
-115.512
-111.144
-106.65
-102.051
-97.368
-92.624
-87.838
-83.027
-78.204
-73.382
-68.576
-63.8
-59.066
-54.387
-49.775
-45.24
-40.795
-36.452
-32.22
-28.109
-24.127
-20.28
-16.577
-13.025
-9.628
-6.394
-3.327
-0.434
2.281
4.811
7.153
9.302
11.253
13.001
14.544
15.877
16.998
17.904
18.593
19.062
19.309
19.334
19.135
18.711
18.063
17.19
16.093
14.775
13.237
11.482
9.516
7.342
4.965
2.392
-0.371
-3.315
-6.433
-9.714
-13.149
-16.727
-20.434
-24.26
-28.191
-32.213
-36.311
-40.472
-44.681
-48.922
-53.18
-57.442
-61.691
-65.914
-70.094
-74.22
-78.275
-82.248
-86.125
-89.893
-93.542
-97.059
-100.436
-103.661
-106.728
-109.628
-112.355
-114.902
-117.266
-119.442
-121.429
-123.224
-124.827
-126.24
-127.463
-128.499
-129.353
-130.029
-130.532
-130.869
-131.047
-131.073
-130.955
-130.702
-130.322
-129.825
-129.219
-128.514
-127.721
-126.847
-125.903
-124.899
-123.843
-122.745
-121.614
-120.458
-119.285
-118.105
-116.924
-115.75
-114.59
-113.45
-112.336
-111.252
-110.204
-109.196
-108.231
-107.311
-106.437
-105.612
-104.836
-104.107
-103.426
-102.791
-102.2
-101.649
-101.137
-100.658
-100.209
-99.786
-99.383
-98.996
-98.62
-98.248
-97.876
-97.498
-97.109
-96.702
-96.271
-95.813
-95.319
-94.785
-94.204
-93.572
-92.883
-92.133
-91.316
-90.429
-89.469
-88.433
-87.319
-86.124
-84.849
-83.493
-82.057
-80.543
-78.953
-77.291
-75.56
-73.767
-71.916
-70.016
-68.073
-66.096
-64.093
-62.072
-60.044
-58.019
-56.006
-54.017
-52.062
-50.154
-48.304
-46.527
-44.837
-43.246
-41.769
-40.418
-39.207
-38.148
-37.251
-36.522
-35.97
-35.601
-35.422
-35.439
-35.66
-36.084
-36.716
-37.556
-38.604
-39.856
-41.309
-42.95
-44.771
-46.764
-48.925
-51.256
-53.755
-56.415
-59.226
-62.176
-65.244
-68.412
-71.649
-74.914
-78.168
-81.374
-84.498
-87.518
-90.409
-93.138
-95.676
-97.985
-100.028
-101.786
-103.251
-104.43
-105.347
-106.041
-106.56
-106.974
-107.366
-107.825
-108.446
-109.311
-110.495
-112.059
-114.073
-116.653
-119.85
-123.625
-127.829
-132.156
-136.291
-140.01
-143.04
-145.021
-145.765
-145.262
-143.773
-142.055
-140.829
-140.548
-141.689
-144.605
-149.263
-155.32
-161.867
-167.076
-169.047
-166.189
-156.788
-139.44
-113.257
-77.642
-33.797
14.777
64.563
111.947
155.651
197.608
236.863
269.809
288.899
282.648
245.52
178.827
88.309
-15.578
-123.32
-228.613
-323.021
-397.336
-447.475
-471.23
-472.06
-459.636
-437.723
-410.36
-382.692
-355.788
-335.419
-323.93
-317.183
-312.838
-306.749
-297.819
-289.69
-283.688
-280.218
-278.566
-276.356
-272.757
-267.778
-261.169
-253.238
-244.361
-234.955
-225.831
-217.478
-209.96
-203.3
-197.547
-192.724
-188.802
-185.557
-182.542
-179.423
-176.063
-172.414
-168.495
-164.312
-159.833
-155.076
-150.13
-145.08
-139.991
-134.897
-129.8
-124.711
-119.671
-114.731
-109.951
-105.387
-101.068
-97.006
-93.208
-89.672
-86.391
-83.355
-80.538
-77.906
-75.43
-73.087
-70.858
-68.724
-66.661
-64.638
-62.623
-60.588
-58.507
-56.359
-54.122
-51.778
-49.309
-46.701
-43.942
-41.026
-37.942
-34.682
-31.237
-27.599
-23.765
-19.733
-15.5
-11.068
-6.439
-1.619
3.387
8.568
13.915
19.418
25.063
30.837
36.724
42.71
48.778
54.909
61.086
67.29
73.502
79.702
85.871
91.99
98.04
104.001
109.855
115.583
121.17
126.598
131.851
136.916
141.778
146.426
150.847
155.033
158.975
162.665
166.097
169.266
172.17
174.807
177.175
179.275
181.109
182.679
183.988
185.041
185.844
186.402
186.724
186.815
186.686
186.344
185.799
185.062
184.142
183.051
181.798
180.396
178.856
177.188
175.405
173.517
171.536
169.472
167.338
165.142
162.895
160.608
158.289
155.949
153.596
151.24
148.888
146.548
144.23
141.94
139.685
137.473
135.309
133.201
131.154
129.173
127.264
125.432
123.682
122.016
120.44
118.957
117.569
116.279
115.088
114
113.014
112.132
111.355
110.681
110.112
109.646
109.283
109.02
108.856
108.788
108.814
108.931
109.134
109.419
109.783
110.219
110.723
111.288
111.908
112.577
113.287
114.031
114.803
115.593
116.394
117.198
117.997
118.784
119.549
120.287
120.987
121.645
122.251
122.801
123.287
123.703
124.044
124.306
124.483
124.574
124.574
124.481
124.295
124.014
123.639
123.171
122.613
121.966
121.236
120.427
119.544
118.595
117.588
116.529
115.428
114.296
113.141
111.976
110.811
109.658
108.529
107.438
106.397
105.419
104.516
103.701
102.986
102.384
101.905
101.562
101.363
101.318
101.436
101.726
102.195
102.847
103.689
104.723
105.951
107.375
108.995
110.807
112.808
114.994
117.357
119.892
122.588
125.435
128.422
131.534
134.758
138.079
141.479
144.939
148.437
151.954
155.469
158.96
162.405
165.782
169.069
172.249
175.301
178.208
180.949
183.506
185.86
187.993
189.888
191.531
192.905
193.997
194.8
195.311
195.526
195.443
195.056
194.352
193.331
191.993
190.339
188.375
186.111
183.563
180.764
177.755
174.573
171.251
167.816
164.284
160.687
157.055
153.423
149.826
146.288
142.827
139.473
136.247
133.146
130.141
127.169
124.15
121.033
117.789
114.382
110.77
106.894
102.689
98.102
93.118
87.713
81.8
75.372
68.513
61.445
54.594
48.396
43.144
39.179
36.886
36.334
37.4
39.651
42.085
43.882
44.551
43.425
40.014
34.532
27.555
20.381
15.306
14.166
18.551
30.516
51.71
83.125
124.321
172.523
224.038
275.413
325.498
375.469
423.894
466.854
496.43
500.9
474.24
416.375
331.764
230.332
121.393
12.391
-87.18
-167.2
-221.572
-247.752
-249.933
-239.042
-222.412
-204.068
-185.148
-162.68
-136.842
-110.383
-85.95
-66.954
-55.04
-49.684
-49.959
-54.268
-60.718
-67.889
-74.462
-79.364
-81.893
-81.676
-78.728
-73.49
-66.699
-59.149
-51.673
-44.829
-38.939
-34.202
-30.601
-27.996
-26.162
-24.742
-23.32
-21.651
-19.62
-17.185
-14.407
-11.316
-7.928
-4.32
-0.586
3.203
6.995
10.769
14.524
18.229
21.832
25.275
28.491
31.442
34.108
36.47
38.519
40.247
41.648
42.731
43.513
44.007
44.222
44.167
43.849
43.286
42.502
41.52
40.368
39.068
37.644
36.116
34.507
32.837
31.127
29.395
27.66
25.939
24.256
22.629
21.081
19.631
18.296
17.094
16.042
15.153
14.44
13.916
13.588
13.466
13.555
13.861
14.385
15.129
16.092
17.271
18.661
20.255
22.046
24.022
26.173
28.484
30.942
33.53
36.232
39.031
41.908
44.844
47.82
50.817
53.815
56.794
59.735
62.617
65.423
68.133
70.73
73.196
75.517
77.677
79.664
81.464
83.066
84.462
85.642
86.6
87.331
87.829
88.094
88.123
87.917
87.477
86.808
85.912
84.796
83.467
81.932
80.199
78.278
76.179
73.912
71.488
68.919
66.216
63.391
60.456
57.423
54.302
51.105
47.842
44.524
41.161
37.76
34.33
30.88
27.415
23.941
20.465
16.991
13.523
10.065
6.62
3.189
-0.226
-3.624
-7.005
-10.369
-13.717
-17.049
-20.368
-23.674
-26.971
-30.258
-33.54
-36.817
-40.091
-43.365
-46.639
-49.914
-53.191
-56.47
-59.75
-63.029
-66.305
-69.576
-72.838
-76.087
-79.318
-82.527
-85.707
-88.853
-91.959
-95.017
-98.022
-100.966
-103.842
-106.643
-109.362
-111.993
-114.527
-116.958
-119.28
-121.487
-123.572
-125.529
-127.353
-129.04
-130.585
-131.984
-133.235
-134.334
-135.282
-136.078
-136.722
-137.216
-137.562
-137.765
-137.828
-137.758
-137.561
-137.242
-136.811
-136.275
-135.644
-134.925
-134.128
-133.262
-132.337
-131.362
-130.346
-129.297
-128.226
-127.14
-126.046
-124.954
-123.871
-122.803
-121.758
-120.741
-119.758
-118.813
-117.911
-117.055
-116.247
-115.488
-114.778
-114.117
-113.503
-112.935
-112.408
-111.918
-111.46
-111.029
-110.618
-110.221
-109.83
-109.437
-109.035
-108.616
-108.174
-107.7
-107.189
-106.633
-106.028
-105.367
-104.647
-103.864
-103.014
-102.093
-101.1
-100.035
-98.896
-97.685
-96.402
-95.049
-93.633
-92.158
-90.632
-89.062
-87.457
-85.825
-84.177
-82.525
-80.877
-79.243
-77.63
-76.052
-74.518
-73.041
-71.634
-70.307
-69.071
-67.937
-66.913
-66.009
-65.227
-64.568
-64.031
-63.621
-63.343
-63.207
-63.219
-63.381
-63.689
-64.14
-64.722
-65.419
-66.204
-67.043
-67.902
-68.758
-69.585
-70.367
-71.083
-71.706
-72.209
-72.562
-72.734
-72.702
-72.448
-71.969
-71.291
-70.453
-69.507
-68.525
-67.558
-66.661
-65.908
-65.357
-65.068
-65.109
-65.506
-66.314
-67.646
-69.512
-71.835
-74.447
-76.988
-79.137
-80.711
-81.392
-80.814
-78.903
-75.696
-71.542
-67.272
-63.433
-60.274
-58.239
-57.651
-58.321
-59.887
-61.36
-60.92
-57.243
-49.336
-35.819
-15.507
12.247
47.956
90.438
136.2
182.222
225.49
264.487
301.627
338.128
372.454
399.432
406.821
383.155
323.256
228.228
110.161
-14.873
-133.05
-232.201
-306.993
-356.08
-380.03
-381.588
-363.592
-331.451
-292.06
-254.239
-226.2
-210.409
-204.969
-203.537
-199.917
-192.62
-183.294
-176.007
-173.458
-175.386
-180.089
-184.893
-188.148
-189.335
-188.288
-185.337
-180.882
-175.312
-169.233
-163.321
-158.004
-153.586
-150.232
-147.918
-146.536
-145.875
-145.604
-145.335
-144.826
-143.969
-142.719
-141.113
-139.176
-136.927
-134.432
-131.782
-129.044
-126.255
-123.44
-120.598
-117.756
-114.966
-112.28
-109.756
-107.43
-105.316
-103.424
-101.758
-100.32
-99.106
-98.098
-97.273
-96.612
-96.101
-95.728
-95.479
-95.336
-95.273
-95.265
-95.287
-95.317
-95.334
-95.32
-95.257
-95.129
-94.921
-94.621
-94.217
-93.696
-93.045
-92.25
-91.298
-90.177
-88.878
-87.392
-85.71
-83.827
-81.739
-79.441
-76.934
-74.216
-71.29
-68.157
-64.823
-61.294
-57.576
-53.679
-49.615
-45.394
-41.03
-36.538
-31.933
-27.232
-22.451
-17.608
-12.721
-7.809
-2.891
2.014
6.887
11.709
16.458
21.116
25.664
30.083
34.353
38.458
42.38
46.102
49.608
52.885
55.917
58.694
61.203
63.434
65.379
67.03
68.382
69.43
70.172
70.607
70.735
70.559
70.08
69.305
68.238
66.887
65.259
63.365
61.213
58.817
56.189
53.341
50.288
47.046
43.631
40.058
36.346
32.511
28.571
24.546
20.452
16.31
12.138
7.955
3.778
-0.373
-4.481
-8.53
-12.502
-16.382
-20.156
-23.81
-27.329
-30.704
-33.921
-36.972
-39.846
-42.535
-45.032
-47.332
-49.428
-51.318
-52.998
-54.466
-55.723
-56.768
-57.603
-58.23
-58.653
-58.877
-58.906
-58.748
-58.41
-57.899
-57.224
-56.395
-55.421
-54.313
-53.079
-51.732
-50.282
-48.739
-47.114
-45.419
-43.664
-41.86
-40.017
-38.146
-36.256
-34.359
-32.463
-30.577
-28.71
-26.87
-25.065
-23.304
-21.592
-19.937
-18.344
-16.82
-15.368
-13.991
-12.694
-11.477
-10.342
-9.29
-8.321
-7.436
-6.635
-5.916
-5.279
-4.724
-4.249
-3.851
-3.53
-3.282
-3.104
-2.995
-2.95
-2.968
-3.044
-3.176
-3.36
-3.593
-3.87
-4.186
-4.537
-4.916
-5.317
-5.733
-6.157
-6.582
-7.001
-7.41
-7.804
-8.18
-8.533
-8.86
-9.159
-9.425
-9.654
-9.838
-9.97
-10.038
-10.036
-9.957
-9.795
-9.543
-9.196
-8.749
-8.203
-7.553
-6.794
-5.919
-4.913
-3.766
-2.478
-1.054
0.496
2.152
3.898
5.716
7.578
9.466
11.372
13.294
15.251
17.265
19.339
21.471
23.642
25.833
28.046
30.284
32.551
34.87
37.257
39.735
42.351
45.13
48.064
51.127
54.248
57.341
60.345
63.216
65.918
68.429
70.709
72.71
74.401
75.731
76.65
77.101
76.994
76.261
74.885
72.872
70.278
67.195
63.686
59.806
55.611
51.14
46.446
41.594
36.636
31.631
26.644
21.75
17.05
12.637
8.572
4.895
1.614
-1.294
-3.845
-6.063
-7.971
-9.596
-10.974
-12.132
-13.122
-14.001
-14.826
-15.68
-16.657
-17.817
-19.242
-21.042
-23.254
-25.851
-28.716
-31.547
-34.031
-35.972
-37.15
-37.31
-36.319
-34.148
-31.076
-27.831
-25.25
-23.874
-23.965
-25.852
-29.727
-35.377
-42.223
-48.214
-50.008
-46.042
-35.963
-20.372
-2.004
20.392
51.268
93.15
148.303
213.458
279.541
341.123
395.603
441.329
478.671
502.338
501.803
470.788
407.755
317.48
211.042
99.046
-10.065
-107.795
-185.826
-239.799
-269.02
-276.344
-269.157
-251.496
-223.403
-187.014
-144.919
-102.492
-68.496
-46.274
-34.222
-29.699
-27.632
-26.162
-27.175
-30.768
-36.896
-44.316
-49.938
-52.435
-51.662
-47.724
-41.639
-34.412
-26.738
-19.615
-13.812
-9.552
-6.891
-5.662
-5.535
-6.206
-7.301
-8.362
-9.095
-9.368
-9.143
-8.482
-7.419
-5.941
-4.065
-1.808
0.804
3.717
6.875
10.231
13.727
17.296
20.866
24.361
27.737
30.97
34.061
37.016
39.829
42.487
44.976
47.277
49.379
51.294
53.039
54.632
56.094
57.443
58.703
59.901
61.055
62.171
63.248
64.281
65.269
66.218
67.136
68.032
68.912
69.782
70.647
71.516
72.392
73.283
74.191
75.119
76.069
77.047
78.06
79.117
80.222
81.381
82.596
83.873
85.215
86.625
88.102
89.647
91.259
92.938
94.683
96.493
98.367
100.3
102.292
104.338
106.434
108.576
110.759
112.976
115.222
117.488
119.768
122.054
124.338
126.611
128.865
131.091
133.28
135.425
137.517
139.548
141.509
143.393
145.193
146.901
148.51
150.015
151.41
152.69
153.851
154.89
155.803
156.589
157.244
157.768
158.159
158.417
158.543
158.537
158.402
158.14
157.754
157.247
156.624
155.89
155.049
154.108
153.071
151.945
150.736
149.45
148.093
146.671
145.19
143.656
142.074
140.451
138.791
137.098
135.377
133.632
131.865
130.08
128.278
126.463
124.636
122.798
120.951
119.095
117.231
115.359
113.479
111.59
109.691
107.781
105.86
103.925
101.976
100.01
98.028
96.028
94.009
91.971
89.912
87.834
85.736
83.619
81.484
79.332
77.165
74.987
72.799
70.605
68.41
66.216
64.029
61.853
59.692
57.551
55.435
53.349
51.297
49.284
47.313
45.391
43.52
41.704
39.946
38.251
36.619
35.053
33.555
32.124
30.762
29.467
28.24
27.077
25.976
24.935
23.95
23.016
22.128
21.28
20.466
19.678
18.909
18.153
17.399
16.641
15.87
15.079
14.258
13.401
12.5
11.547
10.535
9.459
8.313
7.092
5.792
4.409
2.942
1.388
-0.252
-1.979
-3.79
-5.685
-7.658
-9.706
-11.823
-14.003
-16.237
-18.517
-20.833
-23.174
-25.53
-27.887
-30.232
-32.552
-34.834
-37.061
-39.22
-41.294
-43.27
-45.13
-46.859
-48.443
-49.867
-51.116
-52.178
-53.038
-53.686
-54.11
-54.301
-54.248
-53.945
-53.385
-52.561
-51.471
-50.11
-48.479
-46.576
-44.406
-41.969
-39.273
-36.325
-33.131
-29.702
-26.048
-22.182
-18.118
-13.871
-9.457
-4.894
-0.2
4.602
9.491
14.442
19.434
24.441
29.441
34.407
39.319
44.152
48.89
53.511
57.996
62.324
66.475
70.429
74.171
77.685
80.954
83.968
86.715
89.189
91.39
93.315
94.961
96.32
97.381
98.138
98.593
98.751
98.621
98.218
97.561
96.679
95.615
94.408
93.089
91.689
90.229
88.73
87.228
85.756
84.353
83.055
81.883
80.843
79.935
79.139
78.422
77.74
77.023
76.199
75.201
73.957
72.411
70.514
68.215
65.45
62.125
58.205
53.757
48.95
44.069
39.404
35.185
31.688
29.309
28.283
28.575
29.888
31.578
33.008
33.836
33.687
32.083
28.896
24.479
19.684
16.014
15.088
18.174
26.676
42.061
65.205
96.457
135.43
180.552
229.721
279.972
326.857
366.785
396.978
415.944
424.694
421.787
404.016
368.251
310.01
229.253
131.091
23.027
-83.071
-174.617
-243.25
-285.314
-303.613
-306.361
-300.815
-290.719
-276.841
-257.732
-233.347
-206.172
-179.448
-156.143
-137.853
-125.021
-117.326
-113.642
-112.636
-112.738
-112.406
-110.906
-107.851
-102.782
-95.657
-86.801
-76.77
-66.621
-57.435
-49.724
-43.754
-39.747
-37.701
-37.554
-39.146
-42.002
-45.569
-49.502
-53.576
-57.634
-61.575
-65.254
-68.516
-71.282
-73.538
-75.269
-76.452
-77.059
-77.055
-76.448
-75.295
-73.674
-71.665
-69.342
-66.766
-64
-61.136
-58.248
-55.397
-52.635
-49.983
-47.456
-45.074
-42.842
-40.75
-38.786
-36.922
-35.125
-33.369
-31.628
-29.87
-28.064
-26.169
-24.153
-21.996
-19.682
-17.201
-14.548
-11.716
-8.705
-5.525
-2.181
1.318
4.964
8.754
12.679
16.728
20.889
25.149
29.494
33.915
38.401
42.939
47.518
52.128
56.757
61.398
66.04
70.669
75.274
79.84
84.353
88.801
93.17
97.444
101.61
105.656
109.57
113.34
116.955
120.403
123.675
126.76
129.649
132.332
134.802
137.051
139.071
140.856
142.402
143.703
144.756
145.557
146.105
146.396
146.431
146.208
145.728
144.992
144.002
142.761
141.272
139.539
137.567
135.363
132.931
130.279
127.414
124.344
121.078
117.623
113.988
110.185
106.222
102.11
97.859
93.481
88.988
84.391
79.703
74.934
70.098
65.206
60.27
55.302
50.315
45.32
40.328
35.351
30.401
25.487
20.622
15.813
11.073
6.409
1.831
-2.653
-7.034
-11.306
-15.46
-19.49
-23.39
-27.154
-30.778
-34.256
-37.585
-40.761
-43.782
-46.646
-49.351
-51.896
-54.28
-56.504
-58.569
-60.474
-62.222
-63.814
-65.253
-66.539
-67.678
-68.67
-69.521
-70.232
-70.809
-71.255
-71.574
-71.772
-71.853
-71.822
-71.683
-71.444
-71.108
-70.683
-70.174
-69.586
-68.927
-68.202
-67.419
-66.582
-65.7
-64.777
-63.821
-62.837
-61.832
-60.813
-59.785
-58.754
-57.728
-56.712
-55.713
-54.736
-53.788
-52.874
-52.001
-51.174
-50.399
-49.681
-49.025
-48.437
-47.92
-47.48
-47.122
-46.848
-46.663
-46.57
-46.572
-46.671
-46.871
-47.171
-47.575
-48.082
-48.693
-49.409
-50.228
-51.152
-52.177
-53.303
-54.528
-55.848
-57.261
-58.762
-60.347
-62.011
-63.75
-65.557
-67.427
-69.353
-71.33
-73.35
-75.407
-77.493
-79.6
-81.722
-83.85
-85.975
-88.09
-90.186
-92.255
-94.29
-96.283
-98.226
-100.113
-101.936
-103.69
-105.367
-106.963
-108.471
-109.889
-111.212
-112.437
-113.561
-114.585
-115.508
-116.331
-117.056
-117.686
-118.223
-118.673
-119.04
-119.33
-119.549
-119.704
-119.801
-119.851
-119.863
-119.848
-119.82
-119.79
-119.773
-119.78
-119.827
-119.927
-120.092
-120.332
-120.656
-121.075
-121.6
-122.24
-123.007
-123.908
-124.951
-126.144
-127.493
-129.001
-130.671
-132.5
-134.482
-136.616
-138.899
-141.333
-143.924
-146.675
-149.578
-152.628
-155.814
-159.122
-162.531
-166.013
-169.529
-173.042
-176.517
-179.922
-183.233
-186.421
-189.452
-192.298
-194.916
-197.266
-199.336
-201.125
-202.636
-203.892
-204.911
-205.72
-206.393
-207.017
-207.68
-208.474
-209.465
-210.704
-212.267
-214.266
-216.751
-219.696
-222.955
-226.247
-229.315
-231.99
-234.075
-235.268
-235.365
-234.367
-232.523
-230.444
-228.728
-227.634
-227.386
-228.324
-230.518
-233.651
-236.973
-239.035
-238.212
-233.385
-223.511
-207.27
-183.609
-151.947
-112.156
-66.219
-17.831
30.291
75.167
116.313
156.556
194.695
227.765
248.878
244.853
209.507
141.485
43.904
-68.401
-182.711
-287.178
-367.66
-421.064
-448.277
-453.633
-448.745
-439.538
-427.385
-412.284
-391.067
-363.935
-334.356
-305.638
-280.92
-261.639
-247.937
-239.533
-235.375
-234.154
-234.32
-234.303
-233.329
-230.947
-226.606
-220.144
-211.776
-201.988
-191.759
-182.135
-173.647
-166.576
-161.156
-157.37
-155.093
-154.105
-153.909
-153.96
-153.957
-153.741
-153.226
-152.431
-151.343
-149.919
-148.197
-146.224
-143.988
-141.476
-138.679
-135.584
-132.255
-128.8
-125.312
-121.886
-118.594
-115.467
-112.528
-109.791
-107.244
-104.872
-102.661
-100.597
-98.687
-96.941
-95.353
-93.91
-92.575
-91.295
-90.026
-88.723
-87.341
-85.848
-84.217
-82.429
-80.475
-78.356
-76.066
-73.6
-70.946
-68.091
-65.025
-61.742
-58.239
-54.517
-50.577
-46.421
-42.058
-37.496
-32.742
-27.804
-22.687
-17.397
-11.942
-6.33
-0.573
5.317
11.325
17.439
23.641
29.912
36.236
42.594
48.97
55.345
61.702
68.024
74.292
80.491
86.603
92.612
98.503
104.259
109.866
115.309
120.576
125.653
130.529
135.192
139.633
143.844
147.816
151.543
155.019
158.238
161.197
163.892
166.322
168.485
170.381
172.012
173.381
174.49
175.346
175.953
176.318
176.448
176.351
176.036
175.511
174.788
173.876
172.787
171.531
170.123
168.574
166.896
165.104
163.211
161.229
159.174
157.058
154.896
152.701
150.486
148.266
146.054
143.862
141.704
139.591
137.536
135.548
133.639
131.817
130.091
128.47
126.959
125.565
124.292
123.146
122.129
121.243
120.489
119.868
119.379
119.021
118.791
118.688
118.705
118.84
119.088
119.441
119.895
120.443
121.076
121.787
122.569
123.411
124.307
125.245
126.219
127.217
128.232
129.255
130.276
131.288
132.282
133.251
134.187
135.085
135.937
136.738
137.483
138.167
138.786
139.337
139.816
140.221
140.549
140.799
140.968
141.056
141.061
140.982
140.819
140.571
140.238
139.821
139.319
138.733
138.064
137.312
136.479
135.564
134.57
133.498
132.347
131.121
129.819
128.443
126.993
125.471
123.878
122.214
120.481
118.68
116.812
114.878
112.881
110.822
108.705
106.53
104.303
102.026
99.703
97.34
94.941
92.512
90.059
87.589
85.109
82.626
80.147
77.679
75.231
72.81
70.423
68.079
65.784
63.547
61.374
59.273
57.252
55.316
53.471
51.724
50.078
48.538
47.109
45.792
44.59
43.502
42.529
41.67
40.923
40.283
39.745
39.304
38.95
38.676
38.47
38.321
38.213
38.133
38.067
37.999
37.913
37.794
37.625
37.394
37.086
36.689
36.187
35.566
34.811
33.911
32.85
31.62
30.209
28.607
26.809
24.816
22.625
20.238
17.651
14.859
11.858
8.652
5.245
1.646
-2.13
-6.063
-10.122
-14.263
-18.446
-22.632
-26.791
-30.901
-34.932
-38.852
-42.628
-46.217
-49.589
-52.723
-55.589
-58.165
-60.452
-62.476
-64.286
-65.972
-67.594
-69.193
-70.819
-72.514
-74.338
-76.365
-78.65
-81.221
-84.112
-87.4
-91.109
-95.199
-99.498
-103.621
-107.158
-109.803
-111.26
-111.191
-109.432
-105.996
-101.176
-95.835
-90.89
-86.833
-84.112
-83.277
-84.401
-87.126
-90.763
-92.675
-90.102
-82.359
-67.927
-46.996
-20.571
14.662
59.072
111.344
171.084
231.197
288.066
342.648
390.926
431.992
459.926
460.093
426.263
355.713
251.467
129.893
4.269
-113.675
-211.794
-287.076
-336.759
-360.062
-360.231
-339.184
-303.337
-261.131
-222.16
-195.953
-185.07
-186.634
-193.325
-197.907
-197.948
-194.713
-192.133
-192.718
-195.899
-199.913
-201.627
-198.081
-189.558
-177.685
-165.122
-157.313
-155.219
-154.887
-152.795
-141.957
-120.36
-95.682
-73.506
-60.579
-60.602
-66.47
-73.154
-77.141
-75.099
-70.585
-66.248
-62.404
-60.252
-58.77
-56.934
-55.103
-53.207
-51.228
-49.316
-47.307
-45.029
-42.489
-39.684
-36.587
-33.229
-29.656
-25.902
-22.04
-18.17
-14.373
-10.703
-7.198
-3.864
-0.706
2.258
5.008
7.527
9.816
11.885
13.745
15.404
16.87
18.158
19.303
20.352
21.36
22.365
23.393
24.463
25.593
26.801
28.105
29.518
31.041
32.679
34.441
36.338
38.38
40.575
42.92
45.413
48.048
50.821
53.729
56.769
59.935
63.221
66.623
70.138
73.761
77.486
81.305
85.206
89.178
93.207
97.28
101.381
105.495
109.606
113.696
117.75
121.751
125.683
129.529
133.271
136.891
140.374
143.701
146.856
149.821
152.58
155.118
157.42
159.47
161.257
162.766
163.985
164.905
165.514
165.805
165.767
165.396
164.685
163.631
162.231
160.483
158.39
155.951
153.172
150.058
146.615
142.852
138.778
134.403
129.74
124.803
119.605
114.164
108.495
102.617
96.55
90.313
83.928
77.416
70.8
64.103
57.348
50.558
43.759
36.973
30.226
23.54
16.941
10.449
4.09
-2.116
-8.146
-13.981
-19.602
-24.989
-30.127
-34.999
-39.591
-43.891
-47.887
-51.569
-54.929
-57.961
-60.659
-63.019
-65.039
-66.718
-68.058
-69.06
-69.73
-70.071
-70.091
-69.797
-69.2
-68.309
-67.137
-65.696
-63.999
-62.062
-59.9
-57.529
-54.966
-52.229
-49.334
-46.3
-43.145
-39.887
-36.543
-33.13
-29.667
-26.169
-22.654
-19.136
-15.632
-12.156
-8.722
-5.343
-2.032
1.199
4.34
7.379
10.309
13.12
15.805
18.357
20.771
23.043
25.168
27.143
28.968
30.641
32.161
33.531
34.752
35.826
36.757
37.55
38.208
38.737
39.142
39.43
39.607
39.679
39.654
39.54
39.343
39.072
38.734
38.339
37.894
37.408
36.89
36.347
35.789
35.224
34.659
34.104
33.565
33.052
32.57
32.128
31.732
31.389
31.104
30.884
30.732
30.654
30.651
30.728
30.887
31.13
31.458
31.871
32.371
32.956
33.626
34.379
35.213
36.125
37.11
38.166
39.287
40.466
41.698
42.975
44.289
45.634
46.999
48.375
49.752
51.118
52.465
53.78
55.05
56.261
57.4
58.452
59.407
60.249
60.968
61.549
61.983
62.262
62.379
62.327
62.097
61.681
61.071
60.262
59.25
58.029
56.597
54.95
53.093
51.034
48.78
46.339
43.711
40.894
37.891
34.712
31.367
27.869
24.237
20.495
16.677
12.834
9.008
5.237
1.55
-2.035
-5.489
-8.778
-11.868
-14.721
-17.311
-19.625
-21.636
-23.332
-24.729
-25.859
-26.788
-27.602
-28.352
-29.09
-29.876
-30.76
-31.813
-33.106
-34.678
-36.586
-38.909
-41.669
-44.832
-48.249
-51.599
-54.528
-56.726
-57.837
-57.473
-55.394
-51.614
-46.466
-40.673
-35.034
-30.1
-26.381
-24.502
-24.755
-26.822
-29.772
-31.857
-31.044
-25.83
-14.646
4.473
32.974
71.739
120.014
174.455
231.386
287.682
341.704
394.514
445.892
492.23
526.909
539.357
520.293
467.294
383.153
276.064
158.366
40.352
-68.48
-157.83
-221.458
-256.476
-262.574
-245.805
-215.021
-177.847
-143.29
-117.385
-100.238
-89.714
-80.396
-67.135
-49.868
-31.662
-16.898
-8.561
-6.748
-9.865
-15.724
-23.04
-30.915
-38.041
-43.702
-47.55
-49.373
-49.485
-48.203
-45.637
-42.275
-38.973
-36.25
-34.355
-33.325
-32.853
-32.714
-32.84
-33.03
-33.006
-32.607
-31.737
-30.398
-28.732
-26.831
-24.738
-22.515
-20.211
-17.87
-15.549
-13.285
-11.107
-9.039
-7.099
-5.302
-3.665
-2.194
-0.892
0.247
1.238
2.092
2.814
3.407
3.869
4.204
4.422
4.533
4.551
4.484
4.344
4.143
3.893
3.608
3.298
2.971
2.633
2.295
1.97
1.669
1.407
1.196
1.048
0.976
0.991
1.106
1.33
1.671
2.136
2.734
3.471
4.353
5.386
6.574
7.921
9.428
11.098
12.93
14.924
17.077
19.386
21.847
24.455
27.203
30.083
33.088
36.207
39.43
42.746
46.144
49.609
53.129
56.69
60.276
63.874
67.468
71.042
74.582
78.071
81.494
84.838
88.086
91.225
94.242
97.122
99.854
102.424
104.824
107.04
109.065
110.89
112.508
113.911
115.094
116.054
116.786
117.289
117.562
117.603
117.415
116.999
116.359
115.497
114.421
113.135
111.648
109.966
108.1
106.059
103.853
101.494
98.993
96.364
93.618
90.769
87.831
84.817
81.741
78.617
75.459
72.281
69.096
65.917
62.757
59.629
56.544
53.514
50.55
47.661
44.859
42.152
39.548
37.057
34.684
32.438
30.322
28.344
26.506
24.812
23.265
21.866
20.617
19.518
18.568
17.765
17.107
16.591
16.212
15.965
15.845
15.845
15.958
16.177
16.493
16.899
17.386
17.943
18.563
19.235
19.949
20.694
21.46
22.236
23.011
23.773
24.512
25.215
25.871
26.469
26.998
27.444
27.797
28.045
28.177
28.181
28.047
27.764
27.323
26.715
25.932
24.967
23.814
22.467
20.92
19.171
17.214
15.048
12.669
10.077
7.271
4.251
1.019
-2.423
-6.073
-9.925
-13.975
-18.218
-22.648
-27.256
-32.034
-36.973
-42.063
-47.29
-52.641
-58.103
-63.659
-69.292
-74.984
-80.718
-86.475
-92.236
-97.983
-103.699
-109.368
-114.972
-120.495
-125.92
-131.23
-136.408
-141.436
-146.293
-150.959
-155.418
-159.652
-163.645
-167.385
-170.858
-174.052
-176.961
-179.577
-181.891
-183.892
-185.566
-186.903
-187.904
-188.575
-188.93
-188.993
-188.784
-188.327
-187.655
-186.793
-185.758
-184.56
-183.192
-181.645
-179.925
-178.049
-176.048
-173.954
-171.782
-169.538
-167.231
-164.85
-162.389
-159.838
-157.158
-154.334
-151.383
-148.343
-145.294
-142.335
-139.532
-136.938
-134.596
-132.53
-130.791
-129.426
-128.463
-127.953
-127.946
-128.503
-129.727
-131.692
-134.409
-137.865
-141.99
-146.674
-151.838
-157.403
-163.274
-169.38
-175.64
-181.977
-188.352
-194.704
-200.957
-207.02
-212.76
-218.064
-222.883
-227.186
-230.973
-234.29
-237.183
-239.726
-242.04
-244.22
-246.33
-248.417
-250.5
-252.62
-254.848
-257.258
-259.939
-262.943
-266.302
-270.098
-274.32
-278.83
-283.385
-287.529
-290.792
-292.875
-293.427
-292.053
-288.689
-283.418
-276.608
-269.171
-261.783
-254.795
-248.769
-244.1
-240.575
-237.752
-234.512
-228.828
-219.184
-204.373
-182.727
-152.93
-114.305
-66.432
-10.967
48.264
108.134
165.115
217.71
267.815
314.439
355.056
383.32
387.155
359.951
299.845
210.43
104.614
-7.029
-114.521
-207.483
-281.541
-331.335
-355.277
-356.354
-336.159
-300.992
-257.209
-211.601
-174.674
-151.27
-142.061
-143.407
-146.253
-145.682
-140.493
-131.936
-124.288
-118.751
-114.402
-110.133
-103.731
-94.438
-82.875
-69.564
-55.511
-41.84
-28.988
-17.232
-6.862
2.159
9.915
16.455
22.062
27.149
31.983
36.783
41.731
46.849
52.158
57.702
63.455
69.375
75.43
81.564
87.734
93.918
100.083
106.184
112.181
118.013
123.614
128.925
133.883
138.447
142.588
146.29
149.539
152.333
154.678
156.592
158.099
159.219
159.972
160.378
160.458
160.241
159.755
159.03
158.093
156.971
155.689
154.274
152.748
151.136
149.459
147.737
145.99
144.238
142.502
140.804
139.164
137.603
136.139
134.789
133.571
132.501
131.589
130.849
130.287
129.911
129.727
129.736
129.941
130.34
130.93
131.708
132.667
133.799
135.097
136.549
138.144
139.87
141.713
143.659
145.692
147.796
149.955
152.151
154.367
156.586
158.788
160.955
163.07
165.113
167.066
168.913
170.634
172.213
173.635
174.885
175.949
176.816
177.475
177.916
178.131
178.115
177.862
177.37
176.636
175.659
174.44
172.981
171.285
169.357
167.202
164.827
162.238
159.444
156.454
153.278
149.926
146.409
142.74
138.93
134.994
130.944
126.795
122.562
118.259
113.901
109.504
105.082
100.651
96.223
91.813
87.435
83.1
78.82
74.606
70.468
66.415
62.456
58.598
54.849
51.213
47.698
44.306
41.042
37.91
34.913
32.053
29.332
26.751
24.313
22.016
19.862
17.849
15.977
14.244
12.647
11.185
9.854
8.651
7.571
6.611
5.767
5.034
4.407
3.882
3.456
3.124
2.881
2.726
2.654
2.662
2.747
2.906
3.135
3.433
3.795
4.218
4.7
5.238
5.826
6.463
7.143
7.864
8.62
9.408
10.222
11.058
11.91
12.775
13.647
14.522
15.395
16.262
17.12
17.965
18.793
19.599
20.378
21.127
21.84
22.512
23.137
23.712
24.23
24.687
25.079
25.401
25.649
25.819
25.907
25.909
25.823
25.646
25.376
25.012
24.555
24.006
23.366
22.638
21.827
20.934
19.968
18.931
17.829
16.666
15.444
14.169
12.847
11.481
10.078
8.644
7.187
5.718
4.25
2.795
1.363
-0.036
-1.393
-2.697
-3.938
-5.107
-6.199
-7.208
-8.124
-8.934
-9.619
-10.168
-10.582
-10.867
-11.034
-11.096
-11.059
-10.938
-10.757
-10.528
-10.256
-9.934
-9.533
-9.044
-8.466
-7.812
-7.11
-6.373
-5.598
-4.779
-3.911
-2.981
-1.99
-0.917
0.283
1.617
3.071
4.596
6.1
7.517
8.808
9.939
10.898
11.656
12.164
12.383
12.283
11.821
10.967
9.659
7.804
5.358
2.313
-1.301
-5.394
-9.9
-14.783
-20.004
-25.526
-31.302
-37.258
-43.33
-49.475
-55.631
-61.742
-67.728
-73.471
-78.898
-83.96
-88.638
-92.965
-96.956
-100.605
-103.924
-106.944
-109.717
-112.328
-114.866
-117.382
-119.935
-122.583
-125.402
-128.495
-131.937
-135.792
-140.074
-144.785
-149.98
-155.633
-161.625
-167.73
-173.552
-178.668
-182.772
-185.498
-186.425
-185.448
-182.616
-178.227
-173.111
-167.934
-163.115
-159.328
-157.088
-156.283
-156.569
-156.977
-155.528
-150.648
-141.043
-124.808
-100.444
-67.141
-24.259
26.601
81.242
135.968
186.761
232.174
274.862
314.95
350.685
374.28
370.992
330.773
248.511
129.628
-7.496
-143.821
-260.696
-345.55
-397.127
-418.857
-417.604
-399.874
-368.6
-326.452
-277.861
-230.385
-192.377
-168.764
-158.591
-155.329
-152.277
-145.998
-136.999
-129.004
-124.195
-122.137
-121.166
-118.617
-113.145
-104.994
-94.776
-83.502
-72.281
-61.96
-53.13
-46.211
-41.322
-38.37
-37.186
-37.477
-38.756
-40.448
-42.146
-43.607
-44.729
-45.521
-45.937
-45.892
-45.333
-44.263
-42.699
-40.657
-38.146
-35.15
-31.708
-27.919
-23.919
-19.876
-15.904
-12.067
-8.407
-4.954
-1.742
1.188
3.804
6.108
8.099
9.774
11.132
12.168
12.897
13.363
13.624
13.748
13.783
13.764
13.718
13.668
13.637
13.646
13.71
13.832
14.024
14.302
14.684
15.192
15.842
16.643
17.603
18.728
20.027
21.508
23.177
25.042
27.11
29.389
31.887
34.613
37.571
40.764
44.191
47.849
51.732
55.834
60.142
64.644
69.328
74.179
79.185
84.33
89.597
94.966
100.42
105.938
111.499
117.079
122.65
128.183
133.653
139.037
144.314
149.46
154.448
159.249
163.831
168.167
172.233
176.005
179.457
182.564
185.307
187.672
189.657
191.264
192.493
193.333
193.768
193.794
193.419
192.673
191.604
190.241
188.59
186.65
184.412
181.886
179.122
176.129
172.857
169.302
165.5
161.595
157.899
154.575
151.562
148.744
145.948
142.938
139.569
135.483
129.893
122.328
112.762
101.421
89.04
76.477
64.207
52.881
43.685
37.434
34.504
34.936
37.731
41.595
45.846
49.796
52.419
53
50.961
45.89
38.527
30.06
21.115
12.204
3.844
-3.69
-9.972
-14.509
-17.575
-19.841
-21.684
-23.397
-25.111
-26.768
-28.507
-30.601
-33.039
-35.626
-38.226
-40.714
-43.08
-45.429
-47.776
-50.065
-52.278
-54.416
-56.493
-58.542
-60.562
-62.515
-64.374
-66.118
-67.732
-69.216
-70.565
-71.766
-72.806
-73.673
-74.36
-74.864
-75.186
-75.328
-75.288
-75.066
-74.661
-74.076
-73.318
-72.392
-71.303
-70.054
-68.649
-67.095
-65.401
-63.576
-61.633
-59.579
-57.427
-55.188
-52.875
-50.501
-48.08
-45.624
-43.147
-40.661
-38.179
-35.715
-33.277
-30.877
-28.525
-26.228
-23.994
-21.829
-19.738
-17.725
-15.797
-13.955
-12.202
-10.54
-8.969
-7.489
-6.099
-4.795
-3.572
-2.422
-1.337
-0.31
0.665
1.597
2.494
3.366
4.222
5.071
5.916
6.768
7.64
8.546
9.501
10.511
11.569
12.673
13.825
15.02
16.256
17.523
18.806
20.101
21.419
22.768
24.162
25.597
27.055
28.521
29.975
31.412
32.84
34.26
35.654
37.021
38.363
39.688
41.024
42.357
43.637
44.817
45.851
46.711
47.394
47.889
48.178
48.239
48.039
47.56
46.809
45.766
44.406
42.695
40.582
38.065
35.197
32.017
28.569
24.886
20.978
16.878
12.637
8.304
3.936
-0.421
-4.736
-8.956
-13.018
-16.86
-20.405
-23.618
-26.492
-29.011
-31.169
-32.966
-34.406
-35.518
-36.35
-36.943
-37.351
-37.636
-37.867
-38.13
-38.509
-39.064
-39.839
-40.883
-42.285
-44.095
-46.27
-48.628
-50.847
-52.631
-53.786
-54.069
-53.136
-50.757
-46.892
-41.878
-36.535
-31.556
-27.369
-24.588
-23.704
-24.837
-27.939
-31.404
-32.826
-31.24
-25.118
-14.308
0.815
23.931
56.531
98.85
151.202
207.532
263.604
318.915
370.567
417.074
454.413
472.074
460.737
416.503
339.338
235.879
119.361
0.773
-107.986
-193.872
-253.043
-285.063
-294.231
-291.922
-283.911
-272.36
-257.808
-236.914
-210.037
-180.745
-152.231
-128.413
-111.519
-101.443
-97.674
-99.128
-104.158
-111.181
-118.748
-125.349
-129.817
-131.65
-130.667
-127.026
-121.364
-114.419
-106.947
-99.837
-93.711
-88.807
-85.224
-82.88
-81.521
-80.89
-80.654
-80.385
-79.829
-78.888
-77.524
-75.79
-73.733
-71.371
-68.76
-65.988
-63.109
-60.16
-57.164
-54.12
-51.057
-48.028
-45.085
-42.287
-39.669
-37.249
-35.04
-33.05
-31.285
-29.744
-28.42
-27.295
-26.36
-25.607
-25.029
-24.619
-24.363
-24.243
-24.24
-24.336
-24.515
-24.761
-25.062
-25.404
-25.776
-26.166
-26.564
-26.961
-27.343
-27.698
-28.013
-28.275
-28.469
-28.584
-28.609
-28.531
-28.34
-28.026
-27.581
-26.996
-26.264
-25.378
-24.334
-23.127
-21.752
-20.209
-18.495
-16.61
-14.555
-12.332
-9.943
-7.392
-4.683
-1.821
1.185
4.33
7.604
10.998
14.501
18.103
21.791
25.552
29.373
33.24
37.138
41.051
44.965
48.863
52.729
56.548
60.305
63.984
67.569
71.048
74.404
77.626
80.701
83.617
86.362
88.927
91.301
93.476
95.444
97.198
98.731
100.039
101.117
101.962
102.573
102.948
103.087
102.992
102.666
102.112
101.335
100.342
99.138
97.733
96.134
94.353
92.399
90.284
88.019
85.616
83.089
80.45
77.711
74.886
71.986
69.026
66.017
62.971
59.9
56.816
53.731
50.655
47.6
44.575
41.592
38.659
35.785
32.979
30.248
27.599
25.038
22.572
20.203
17.937
15.776
13.722
11.777
9.942
8.215
6.597
5.086
3.68
2.377
1.172
0.064
-0.951
-1.877
-2.718
-3.479
-4.162
-4.773
-5.316
-5.797
-6.219
-6.588
-6.911
-7.191
-7.435
-7.649
-7.838
-8.009
-8.167
-8.319
-8.469
-8.624
-8.788
-8.967
-9.166
-9.389
-9.641
-9.925
-10.245
-10.604
-11.005
-11.451
-11.944
-12.487
-13.08
-13.727
-14.427
-15.183
-15.996
-16.865
-17.792
-18.777
-19.819
-20.917
-22.07
-23.276
-24.532
-25.835
-27.181
-28.567
-29.987
-31.436
-32.908
-34.398
-35.899
-37.405
-38.909
-40.404
-41.883
-43.339
-44.764
-46.151
-47.493
-48.782
-50.011
-51.174
-52.263
-53.272
-54.195
-55.027
-55.761
-56.392
-56.916
-57.329
-57.626
-57.805
-57.863
-57.8
-57.615
-57.31
-56.885
-56.345
-55.694
-54.937
-54.079
-53.128
-52.09
-50.975
-49.791
-48.55
-47.262
-45.938
-44.59
-43.232
-41.881
-40.55
-39.255
-38.01
-36.831
-35.732
-34.727
-33.829
-33.045
-32.387
-31.863
-31.484
-31.26
-31.2
-31.311
-31.597
-32.064
-32.715
-33.549
-34.562
-35.745
-37.09
-38.59
-40.244
-42.053
-44.019
-46.132
-48.382
-50.756
-53.232
-55.788
-58.39
-60.991
-63.55
-66.03
-68.397
-70.633
-72.713
-74.603
-76.272
-77.679
-78.784
-79.561
-79.999
-80.096
-79.871
-79.359
-78.604
-77.674
-76.643
-75.584
-74.576
-73.685
-72.973
-72.493
-72.312
-72.552
-73.28
-74.459
-75.936
-77.386
-78.459
-78.901
-78.414
-76.584
-73.192
-68.27
-62.169
-55.824
-50.186
-45.87
-43.493
-43.588
-46.226
-51.035
-56.959
-61.792
-63.165
-59.176
-47.789
-27.198
3.744
45.654
97.265
154.901
214.734
273.638
330.102
383.678
431.502
467.291
482.357
469.898
428.252
361.687
277.773
181.475
77.429
-29.662
-132.516
-217.562
-275.514
-303.296
-304.702
-292.202
-274.56
-255.681
-236.646
-214.338
-188.636
-162.323
-138.048
-119.088
-107.067
-101.451
-101.216
-104.712
-110.059
-115.903
-121.069
-124.624
-125.927
-124.668
-120.929
-115.2
-108.253
-100.858
-93.757
-87.437
-82.175
-78.131
-75.257
-73.377
-72.22
-71.403
-70.512
-69.301
-67.651
-65.511
-62.921
-59.902
-56.468
-52.693
-48.668
-44.459
-40.113
-35.652
-31.077
-26.423
-21.743
-17.097
-12.55
-8.14
-3.886
0.198
4.104
7.825
11.359
14.718
17.921
20.979
23.903
26.698
29.367
31.925
34.39
36.779
39.11
41.399
43.655
45.892
48.12
50.347
52.582
54.83
57.096
59.387
61.712
64.077
66.491
68.961
71.492
74.089
76.756
79.496
82.311
85.202
88.167
91.207
94.32
97.503
100.753
104.067
107.44
110.867
114.341
117.857
121.408
124.984
128.579
132.183
135.787
139.382
142.957
146.501
150.003
153.453
156.838
160.148
163.369
166.491
169.5
172.386
175.137
177.74
180.185
182.461
184.559
186.468
188.179
189.685
190.978
192.049
192.893
193.504
193.877
194.006
193.887
193.518
192.896
192.018
190.885
189.496
187.853
185.956
183.81
181.418
178.786
175.92
172.827
169.516
165.996
162.278
158.372
154.292
150.05
145.66
141.137
136.496
131.752
126.921
122.019
117.062
112.067
107.049
102.027
97.015
92.03
87.089
82.207
77.399
72.682
68.069
63.574
59.21
54.99
50.926
47.026
43.301
39.758
36.404
33.244
30.283
27.524
24.968
22.615
20.464
18.512
16.757
15.194
13.817
12.621
11.597
10.738
10.036
9.481
9.065
8.777
8.606
8.542
8.574
8.69
8.879
9.129
9.43
9.769
10.135
10.518
10.907
11.293
11.666
12.018
12.34
12.626
12.868
13.061
13.201
13.284
13.306
13.264
13.158
12.985
12.746
12.44
12.067
11.629
11.126
10.56
9.933
9.246
8.502
7.703
6.852
5.953
5.008
4.02
2.994
1.931
0.836
-0.287
-1.436
-2.608
-3.799
-5.006
-6.227
-7.46
-8.702
-9.952
-11.207
-12.467
-13.731
-14.998
-16.266
-17.534
-18.801
-20.067
-21.33
-22.589
-23.844
-25.092
-26.333
-27.565
-28.788
-30
-31.2
-32.386
-33.559
-34.715
-35.856
-36.98
-38.086
-39.175
-40.246
-41.299
-42.334
-43.352
-44.353
-45.338
-46.307
-47.261
-48.202
-49.131
-50.049
-50.959
-51.865
-52.771
-53.683
-54.606
-55.547
-56.511
-57.505
-58.535
-59.608
-60.726
-61.893
-63.114
-64.393
-65.736
-67.151
-68.642
-70.213
-71.869
-73.613
-75.451
-77.381
-79.4
-81.504
-83.691
-85.967
-88.341
-90.819
-93.4
-96.082
-98.86
-101.72
-104.648
-107.618
-110.59
-113.528
-116.397
-119.173
-121.838
-124.371
-126.744
-128.924
-130.873
-132.566
-133.987
-135.123
-135.979
-136.582
-136.977
-137.242
-137.475
-137.754
-138.16
-138.774
-139.668
-140.928
-142.638
-144.844
-147.597
-150.982
-155
-159.585
-164.572
-169.594
-174.274
-178.344
-181.501
-183.385
-183.813
-182.759
-180.434
-177.558
-174.849
-172.6
-170.973
-170.275
-170.617
-171.709
-172.961
-172.191
-166.25
-154.17
-135.808
-111.882
-85.435
-55.412
-18.698
25.144
78.402
138.287
198.071
256.139
308.148
350.152
379.828
386.634
361.847
302.042
205.579
82.591
-50.524
-179.054
-285.396
-359.059
-401.206
-415.258
-410.635
-397.349
-375.986
-348.773
-318.947
-287.708
-262.203
-245.474
-234.142
-226.731
-219.734
-211.481
-204.763
-200.132
-197.114
-195.163
-192.377
-187.718
-181.013
-172.326
-162.242
-151.674
-141.735
-133.155
-126.221
-121.086
-117.75
-116.143
-116.191
-117.544
-119.589
-121.876
-124.109
-126.111
-127.867
-129.34
-130.438
-131.122
-131.391
-131.223
-130.627
-129.604
-128.124
-126.212
-123.927
-121.361
-118.659
-115.954
-113.342
-110.894
-108.644
-106.607
-104.807
-103.255
-101.955
-100.912
-100.12
-99.573
-99.273
-99.206
-99.344
-99.645
-100.041
-100.468
-100.879
-101.236
-101.507
-101.671
-101.703
-101.585
-101.309
-100.862
-100.23
-99.396
-98.337
-97.037
-95.481
-93.661
-91.57
-89.205
-86.561
-83.633
-80.42
-76.919
-73.13
-69.051
-64.679
-60.016
-55.065
-49.833
-44.329
-38.565
-32.554
-26.309
-19.85
-13.192
-6.355
0.64
7.775
15.028
22.376
29.795
37.264
44.757
52.249
59.717
67.134
74.475
81.716
88.83
95.795
102.586
109.181
115.558
121.695
127.573
133.175
138.483
143.481
148.156
152.495
156.487
160.123
163.396
166.301
168.833
170.992
172.776
174.188
175.229
175.904
176.219
176.179
175.795
175.075
174.029
172.671
171.013
169.07
166.858
164.391
161.689
158.768
155.647
152.346
148.882
145.277
141.549
137.718
133.804
129.827
125.804
121.755
117.699
113.652
109.632
105.655
101.737
97.894
94.138
90.485
86.946
83.534
80.26
77.134
74.167
71.367
68.743
66.3
64.046
61.986
60.124
58.462
57.004
55.75
54.7
53.855
53.212
52.77
52.525
52.473
52.611
52.931
53.429
54.099
54.932
55.921
57.058
58.334
59.741
61.267
62.903
64.638
66.461
68.361
70.324
72.339
74.392
76.47
78.56
80.649
82.722
84.767
86.769
88.715
90.593
92.39
94.093
95.69
97.17
98.522
99.736
100.802
101.711
102.454
103.024
103.414
103.619
103.633
103.453
103.074
102.496
101.717
100.738
99.559
98.185
96.618
94.865
92.931
90.825
88.557
86.136
83.573
80.883
78.078
75.173
72.182
69.123
66.011
62.864
59.698
56.533
53.386
50.276
47.221
44.24
41.351
38.573
35.923
33.419
31.077
28.914
26.945
25.184
23.645
22.339
21.278
20.471
19.927
19.653
19.652
19.929
20.484
21.319
22.429
23.811
25.46
27.366
29.522
31.917
34.539
37.374
40.406
43.621
46.999
50.523
54.17
57.919
61.745
65.625
69.535
73.45
77.346
81.198
84.984
88.684
92.278
95.744
99.061
102.208
105.167
107.921
110.454
112.75
114.799
116.592
118.124
119.397
120.412
121.169
121.665
121.895
121.856
121.554
120.996
120.194
119.165
117.928
116.513
114.962
113.309
111.587
109.826
108.045
106.273
104.537
102.87
101.311
99.895
98.651
97.602
96.75
96.087
95.595
95.242
94.985
94.782
94.571
94.293
93.893
93.313
92.514
91.447
90.014
88.171
85.941
83.447
80.961
78.795
77.185
76.37
76.654
78.216
81.081
84.987
89.285
93.23
96.19
97.755
97.613
95.499
91.576
86.619
81.77
79.408
81.983
90.169
105.138
126.488
152.964
186.891
229.199
279.622
337.118
395.36
447.92
491.757
526.322
552.224
569.234
572.364
550.942
498.853
413.773
298.291
167.269
34.748
-85.099
-176.317
-235.392
-263.51
-266.092
-256.042
-239.797
-219.683
-196.6
-167.096
-131.61
-94.039
-57.989
-28.021
-6.434
7.248
13.926
14.995
12.285
7.421
2.115
-1.578
-2.373
0.1
5.843
14.34
24.666
35.919
47.064
56.836
64.493
69.765
72.519
72.958
71.403
68.115
63.528
58.161
52.304
46.133
39.796
33.36
26.982
20.873
15.133
9.816
4.979
0.652
-3.112
-6.266
-8.829
-10.85
-12.38
-13.469
-14.136
-14.396
-14.299
-13.917
-13.353
-12.723
-12.101
-11.537
-11.075
-10.737
-10.539
-10.487
-10.555
-10.708
-10.916
-11.155
-11.413
-11.686
-11.952
-12.186
-12.354
-12.415
-12.34
-12.114
-11.722
-11.157
-10.416
-9.501
-8.426
-7.211
-5.871
-4.419
-2.866
-1.216
0.518
2.326
4.194
6.108
8.056
10.025
12.001
13.972
15.925
17.847
19.729
21.56
23.33
25.028
26.64
28.153
29.555
30.833
31.974
32.967
33.801
34.465
34.95
35.251
35.359
35.268
34.974
34.472
33.758
32.828
31.68
30.312
28.723
26.912
24.879
22.623
20.148
17.453
14.544
11.423
8.096
4.569
0.848
-3.058
-7.142
-11.393
-15.801
-20.355
-25.045
-29.856
-34.779
-39.798
-44.902
-50.079
-55.314
-60.596
-65.913
-71.252
-76.602
-81.949
-87.283
-92.59
-97.861
-103.081
-108.241
-113.329
-118.333
-123.242
-128.047
-132.736
-137.301
-141.732
-146.021
-150.16
-154.142
-157.961
-161.613
-165.091
-168.394
-171.517
-174.458
-177.216
-179.79
-182.179
-184.382
-186.4
-188.232
-189.879
-191.342
-192.622
-193.719
-194.636
-195.374
-195.934
-196.32
-196.534
-196.578
-196.457
-196.172
-195.73
-195.133
-194.386
-193.493
-192.461
-191.293
-189.994
-188.571
-187.027
-185.368
-183.599
-181.725
-179.75
-177.681
-175.523
-173.28
-170.959
-168.565
-166.105
-163.585
-161.012
-158.392
-155.735
-153.046
-150.334
-147.607
-144.874
-142.142
-139.42
-136.717
-134.04
-131.398
-128.799
-126.251
-123.76
-121.334
-118.979
-116.702
-114.508
-112.403
-110.392
-108.479
-106.668
-104.964
-103.369
-101.886
-100.516
-99.26
-98.119
-97.092
-96.178
-95.374
-94.677
-94.085
-93.591
-93.192
-92.881
-92.65
-92.493
-92.402
-92.366
-92.376
-92.423
-92.496
-92.584
-92.677
-92.765
-92.837
-92.884
-92.896
-92.863
-92.776
-92.626
-92.405
-92.105
-91.72
-91.243
-90.668
-89.99
-89.207
-88.316
-87.315
-86.204
-84.984
-83.656
-82.222
-80.685
-79.051
-77.324
-75.51
-73.618
-71.656
-69.636
-67.569
-65.47
-63.35
-61.224
-59.108
-57.014
-54.958
-52.95
-51
-49.12
-47.32
-45.609
-43.998
-42.498
-41.118
-39.868
-38.755
-37.786
-36.964
-36.29
-35.761
-35.374
-35.128
-35.021
-35.059
-35.246
-35.58
-36.06
-36.678
-37.419
-38.262
-39.179
-40.13
-41.081
-41.994
-42.835
-43.578
-44.202
-44.684
-45.005
-45.137
-45.045
-44.715
-44.14
-43.325
-42.308
-41.127
-39.833
-38.509
-37.222
-36.051
-35.089
-34.407
-34.066
-34.132
-34.628
-35.606
-37.173
-39.312
-41.91
-44.765
-47.493
-49.748
-51.3
-51.782
-50.781
-48.186
-44.053
-38.752
-33.147
-27.91
-23.468
-20.432
-19.237
-19.759
-21.591
-23.645
-24.019
-21.151
-13.546
0.646
22.799
53.794
93.361
139.111
187.908
236.849
284.207
330.88
376.975
419.491
452.451
465.231
447.679
396.466
313.721
207.097
88.711
-31.596
-144.821
-240.138
-310.339
-351.703
-364.344
-355.649
-334.526
-306.351
-274.668
-239.733
-199.916
-157.046
-114.163
-74.559
-42.676
-20.414
-7.372
-2.705
-4.643
-11.048
-20.366
-30.712
-39.581
-45.5
-47.911
-46.66
-42.365
-35.912
-27.929
-19.354
-11.48
-4.995
-0.15
2.992
4.814
5.707
5.885
5.717
5.65
5.911
6.635
7.88
9.558
11.622
14.063
16.804
19.758
22.845
25.955
29.011
31.961
34.74
37.304
39.625
41.68
43.463
44.977
46.209
47.148
47.782
48.103
48.112
47.821
47.252
46.446
45.445
44.292
43.025
41.675
40.265
38.819
37.352
35.871
34.388
32.917
31.474
30.079
28.75
27.503
26.35
25.303
24.37
23.56
22.879
22.336
21.937
21.691
21.608
21.697
21.969
22.431
23.09
23.948
25.008
26.271
27.737
29.4
31.259
33.308
35.54
37.951
40.532
43.275
46.17
49.207
52.374
55.659
59.051
62.534
66.095
69.72
73.393
77.101
80.829
84.56
88.281
91.975
95.629
99.226
102.751
106.19
109.527
112.747
115.837
118.782
121.571
124.191
126.631
128.883
130.936
132.783
134.417
135.832
137.023
137.986
138.717
139.216
139.482
139.514
139.314
138.886
138.231
137.354
136.261
134.956
133.447
131.74
129.844
127.766
125.517
123.106
120.545
117.843
115.013
112.066
109.015
105.871
102.647
99.354
96.004
92.61
89.181
85.728
82.264
78.797
75.336
71.893
68.474
65.087
61.741
58.441
55.194
52.005
48.88
45.823
42.838
39.93
37.101
34.354
31.693
29.119
26.634
24.238
21.933
19.719
17.595
15.561
13.616
11.76
9.992
8.309
6.712
5.198
3.767
2.415
1.143
-0.053
-1.174
-2.221
-3.198
-4.104
-4.942
-5.714
-6.422
-7.068
-7.653
-8.18
-8.652
-9.073
-9.444
-9.769
-10.051
-10.295
-10.502
-10.678
-10.824
-10.944
-11.042
-11.121
-11.185
-11.235
-11.277
-11.311
-11.343
-11.373
-11.405
-11.44
-11.481
-11.528
-11.582
-11.646
-11.72
-11.803
-11.897
-12.001
-12.115
-12.236
-12.364
-12.496
-12.628
-12.758
-12.88
-12.992
-13.088
-13.164
-13.214
-13.234
-13.22
-13.166
-13.067
-12.919
-12.717
-12.457
-12.135
-11.748
-11.293
-10.767
-10.17
-9.501
-8.762
-7.951
-7.073
-6.128
-5.119
-4.052
-2.932
-1.763
-0.552
0.692
1.959
3.237
4.512
5.773
7.004
8.192
9.321
10.375
11.343
12.213
12.973
13.609
14.108
14.457
14.643
14.656
14.487
14.126
13.565
12.798
11.824
10.645
9.261
7.671
5.865
3.836
1.576
-0.911
-3.621
-6.548
-9.683
-13.012
-16.508
-20.137
-23.86
-27.646
-31.469
-35.307
-39.127
-42.891
-46.549
-50.054
-53.365
-56.455
-59.307
-61.908
-64.26
-66.374
-68.275
-70.023
-71.686
-73.336
-75.048
-76.888
-78.915
-81.214
-83.921
-87.105
-90.759
-94.771
-98.881
-102.819
-106.396
-109.373
-111.449
-112.443
-112.322
-111.36
-110.234
-109.635
-110.047
-111.846
-115.307
-120.451
-127.021
-134.18
-140.385
-143.822
-142.792
-135.895
-121.779
-99.272
-67.628
-26.502
22.715
76.517
131.495
184.535
234.346
283.259
331.971
377.176
412.035
425.043
406.36
353.979
271.65
167.847
54.339
-58.953
-163.226
-248.432
-307.062
-336.186
-335.55
-309.719
-268.117
-218.692
-170.762
-134.606
-113.267
-106.86
-111.341
-117.354
-120.571
-119.831
-115.983
-113.428
-113.304
-114.578
-116.212
-115.824
-112.508
-106.916
-99.587
-91.55
-83.922
-77.075
-71.235
-66.677
-63.355
-61.182
-60.09
-59.759
-59.768
-59.847
-59.779
-59.427
-58.793
-57.862
-56.607
-55.052
-53.23
-51.18
-48.951
-46.566
-44.032
-41.364
-38.586
-35.736
-32.868
-30.035
-27.293
-24.674
-22.2
-19.889
-17.749
-15.787
-14.009
-12.404
-10.953
-9.647
-8.475
-7.429
-6.503
-5.681
-4.942
-4.267
-3.638
-3.041
-2.462
-1.888
-1.301
-0.691
-0.045
0.648
1.396
2.21
3.106
4.094
5.188
6.4
7.74
9.221
10.854
12.649
14.614
16.758
19.087
21.607
24.324
27.242
30.365
33.693
37.229
40.97
44.917
49.065
53.409
57.942
62.657
67.544
72.592
77.789
83.119
88.568
94.118
99.752
105.451
111.194
116.962
122.731
128.48
134.187
139.828
145.381
150.822
156.128
161.277
166.246
171.013
175.558
179.86
183.899
187.656
191.115
194.258
197.07
199.538
201.649
203.393
204.762
205.748
206.348
206.557
206.376
205.807
204.851
203.516
201.807
199.735
197.309
194.543
191.45
188.046
184.348
180.373
176.141
171.671
166.985
162.102
157.045
151.836
146.497
141.051
135.52
129.925
124.29
118.635
112.981
107.349
101.758
96.227
90.772
85.41
80.155
75.021
70.02
65.162
60.456
55.909
51.528
47.316
43.278
39.414
35.726
32.211
28.869
25.696
22.688
19.841
17.148
14.604
12.202
9.934
7.793
5.771
3.86
2.05
0.334
-1.298
-2.854
-4.343
-5.772
-7.151
-8.486
-9.785
-11.055
-12.303
-13.533
-14.751
-15.962
-17.17
-18.379
-19.592
-20.812
-22.039
-23.276
-24.524
-25.782
-27.053
-28.334
-29.626
-30.928
-32.241
-33.562
-34.892
-36.229
-37.573
-38.923
-40.279
-41.639
-43.003
-44.37
-45.739
-47.109
-48.481
-49.852
-51.224
-52.594
-53.962
-55.327
-56.688
-58.045
-59.395
-60.736
-62.068
-63.387
-64.693
-65.983
-67.255
-68.506
-69.733
-70.935
-72.108
-73.248
-74.351
-75.415
-76.433
-77.402
-78.315
-79.169
-79.958
-80.676
-81.319
-81.88
-82.355
-82.738
-83.025
-83.21
-83.291
-83.262
-83.12
-82.865
-82.494
-82.006
-81.403
-80.685
-79.855
-78.915
-77.869
-76.723
-75.482
-74.152
-72.741
-71.258
-69.713
-68.117
-66.48
-64.813
-63.129
-61.445
-59.776
-58.14
-56.555
-55.04
-53.612
-52.287
-51.083
-50.012
-49.086
-48.314
-47.703
-47.26
-46.993
-46.912
-47.026
-47.333
-47.828
-48.505
-49.354
-50.361
-51.52
-52.815
-54.235
-55.78
-57.452
-59.248
-61.167
-63.203
-65.335
-67.542
-69.806
-72.088
-74.364
-76.664
-79.007
-81.383
-83.781
-86.132
-88.342
-90.411
-92.325
-93.884
-94.93
-95.552
-95.848
-96.075
-96.745
-97.198
-96.75
-96.329
-95.96
-97.209
-101.86
-106.734
-109.589
-107.853
-98.283
-84.17
-68.791
-54.41
-44.539
-38.539
-35.552
-35.927
-38.894
-44.742
-53.479
-64.331
-76.579
-88.952
-100.006
-108.283
-112.676
-112.81
-108.25
-98.53
-82.869
-59.341
-27.622
11.008
54.781
98.408
138.244
175.4
211.444
253.787
309.696
374.7
439.842
487.693
495.993
458.078
376.428
262.286
137.482
14.602
-98.373
-194.329
-272.803
-328.675
-357.506
-359.852
-337.397
-299.274
-256.792
-220.519
-199.252
-193.499
-198.652
-206.71
-210.075
-206.867
-198.737
-189.548
-182.211
-176.533
-171.303
-165.082
-157.324
-148.679
-139.891
-131.56
-124.112
-117.779
-112.636
-108.645
-105.628
-103.326
-101.559
-100.205
-99.129
-98.18
-97.179
-95.957
-94.428
-92.57
-90.365
-87.812
-84.903
-81.64
-78.071
-74.266
-70.293
-66.212
-62.073
-57.917
-53.802
-49.789
-45.945
-42.337
-39.009
-35.984
-33.282
-30.913
-28.879
-27.179
-25.795
-24.7
-23.871
-23.288
-22.935
-22.796
-22.852
-23.078
-23.45
-23.945
-24.542
-25.222
-25.964
-26.749
-27.558
-28.375
-29.185
-29.973
-30.726
-31.426
-32.056
-32.601
-33.044
-33.37
-33.565
-33.616
-33.508
-33.232
-32.778
-32.138
-31.305
-30.272
-29.035
-27.59
-25.936
-24.07
-21.995
-19.712
-17.223
-14.535
-11.652
-8.583
-5.335
-1.92
1.652
5.367
9.213
13.175
17.238
21.385
25.6
29.866
34.165
38.479
42.791
47.081
51.332
55.524
59.64
63.662
67.572
71.352
74.988
78.462
81.759
84.866
87.769
90.454
92.911
95.129
97.098
98.81
100.258
101.437
102.342
102.971
103.323
103.398
103.198
102.726
101.987
100.986
99.731
98.23
96.492
94.528
92.348
89.966
87.394
84.647
81.739
78.686
75.502
72.206
68.812
65.338
61.8
58.217
54.603
50.977
47.355
43.753
40.187
36.672
33.224
29.856
26.582
23.413
20.362
17.437
14.648
12.003
9.509
7.171
4.994
2.983
1.139
-0.536
-2.041
-3.377
-4.544
-5.546
-6.384
-7.064
-7.588
-7.963
-8.193
-8.286
-8.247
-8.084
-7.805
-7.417
-6.928
-6.348
-5.685
-4.947
-4.144
-3.284
-2.376
-1.427
-0.446
0.561
1.586
2.624
3.667
4.712
5.752
6.785
7.805
8.81
9.797
10.764
11.71
12.634
13.535
14.412
15.267
16.099
16.909
17.699
18.469
19.222
19.959
20.682
21.394
22.098
22.797
23.494
24.191
24.893
25.602
26.32
27.052
27.798
28.563
29.347
30.154
30.984
31.841
32.724
33.636
34.576
35.546
36.544
37.571
38.625
39.707
40.815
41.947
43.103
44.281
45.481
46.701
47.939
49.195
50.466
51.749
53.044
54.348
55.658
56.971
58.286
59.599
60.908
62.211
63.504
64.785
66.051
67.298
68.523
69.723
70.894
72.032
73.135
74.197
75.217
76.192
77.116
77.988
78.804
79.559
80.25
80.872
81.419
81.883
82.259
82.541
82.721
82.794
82.754
82.595
82.316
81.916
81.392
80.743
79.966
79.059
78.021
76.854
75.558
74.133
72.582
70.91
69.123
67.232
65.243
63.159
60.981
58.705
56.327
53.855
51.296
48.66
45.961
43.217
40.456
37.72
35.046
32.467
30.014
27.709
25.578
23.661
21.993
20.612
19.555
18.833
18.445
18.39
18.642
19.166
19.923
20.819
21.754
22.63
23.341
23.803
23.949
23.667
22.818
21.34
19.252
16.694
13.945
11.255
8.795
6.801
5.62
5.481
6.391
8.076
9.896
11.235
11.845
11.514
9.888
6.9
2.915
-1.22
-3.902
-3.341
1.649
12.165
29.615
55.057
89.04
131.615
180.735
232.787
285.1
334.591
380.002
422.801
461.162
491.601
507.9
499.919
462.916
397.142
306.581
201.326
90.568
-16.99
-110.457
-182.475
-229.206
-251.62
-257.444
-254.099
-245.564
-232.908
-214.07
-188.452
-158.614
-127.959
-100.232
-78.124
-62.588
-53.61
-50.539
-52.274
-57.367
-64.56
-72.651
-80.156
-85.899
-89.265
-89.98
-88.296
-84.874
-80.229
-74.948
-69.892
-65.657
-62.558
-60.739
-60.033
-60.115
-60.738
-61.604
-62.343
-62.744
-62.709
-62.19
-61.26
-60
-58.458
-56.711
-54.838
-52.883
-50.877
-48.853
-46.826
-44.839
-42.95
-41.197
-39.609
-38.206
-36.989
-35.96
-35.119
-34.455
-33.949
-33.588
-33.362
-33.265
-33.291
-33.43
-33.665
-33.979
-34.349
-34.757
-35.182
-35.608
-36.017
-36.394
-36.729
-37.01
-37.226
-37.368
-37.421
-37.371
-37.205
-36.909
-36.47
-35.876
-35.116
-34.18
-33.06
-31.75
-30.243
-28.534
-26.618
-24.492
-22.151
-19.596
-16.824
-13.838
-10.641
-7.238
-3.636
0.156
4.127
8.263
12.548
16.97
21.51
26.154
30.883
35.68
40.528
45.411
50.311
55.207
60.077
64.898
69.646
74.297
78.827
83.209
87.421
91.438
95.24
98.814
102.139
105.197
107.965
110.419
112.539
114.316
115.74
116.804
117.512
117.87
117.899
117.637
117.106
116.322
115.289
114.001
112.453
110.646
108.579
106.248
103.653
100.783
97.64
94.234
90.555
86.585
82.28
77.573
72.424
66.832
60.81
54.397
47.647
40.614
33.378
26.04
18.689
11.409
4.264
-2.702
-9.42
-15.805
-21.749
-27.115
-31.804
-35.764
-38.956
-41.372
-43.031
-43.966
-44.253
-44.009
-43.327
-42.283
-40.935
-39.314
-37.472
-35.482
-33.426
-31.403
-29.491
-27.739
-26.191
-24.879
-23.808
-22.967
-22.311
-21.757
-21.249
-20.75
-20.237
-19.709
-19.154
-18.551
-17.884
-17.135
-16.288
-15.337
-14.269
-13.074
-11.754
-10.322
-8.804
-7.244
-5.672
-4.106
-2.559
-1.035
0.465
1.935
3.378
4.801
6.207
7.599
8.975
10.331
11.665
12.98
14.278
15.567
16.849
18.125
19.394
20.651
21.894
23.117
24.315
25.474
26.587
27.645
28.64
29.566
30.415
31.177
31.84
32.396
32.834
33.148
33.328
33.365
33.252
32.98
32.547
31.954
31.197
30.269
29.165
27.874
26.4
24.756
22.95
20.985
18.87
16.613
14.229
11.745
9.174
6.513
3.763
0.923
-1.993
-4.953
-7.932
-10.91
-13.873
-16.827
-19.764
-22.654
-25.487
-28.266
-31.004
-33.73
-36.44
-39.084
-41.636
-44.079
-46.413
-48.667
-50.84
-52.907
-54.847
-56.624
-58.217
-59.633
-60.833
-61.744
-62.297
-62.413
-62.063
-61.28
-60.057
-58.354
-56.136
-53.359
-50.022
-46.184
-41.892
-37.189
-32.131
-26.768
-21.208
-15.621
-10.147
-4.914
-0.017
4.504
8.563
12.021
14.77
16.722
17.829
18.109
17.567
16.192
14.013
11.081
7.494
3.408
-1.053
-5.799
-10.747
-15.836
-20.971
-26.008
-30.828
-35.343
-39.481
-43.207
-46.48
-49.242
-51.474
-53.192
-54.425
-55.234
-55.672
-55.772
-55.574
-55.122
-54.466
-53.673
-52.832
-52.028
-51.355
-50.914
-50.789
-51.045
-51.756
-53.019
-54.86
-57.239
-59.995
-62.818
-65.42
-67.617
-69.186
-69.853
-69.457
-67.965
-65.66
-63.233
-61.341
-60.425
-60.863
-62.976
-66.844
-72.269
-78.485
-84.027
-87.208
-86.473
-80.453
-67.722
-47.041
-17.631
20.836
66.896
117.166
168.516
217.675
263.014
306.425
347.666
383.961
409.937
413.884
386.167
323.075
224.422
99.94
-35.109
-166.423
-277.031
-355.384
-400.2
-414.606
-408.878
-395.116
-378.077
-359.609
-338.819
-312.623
-281.987
-249.762
-218.53
-191.702
-171.29
-157.15
-148.462
-143.94
-142.164
-142.277
-143.735
-145.528
-146.247
-145.111
-141.961
-137.039
-131.049
-124.514
-117.667
-111.039
-105.433
-101.312
-98.851
-97.958
-98.177
-99.132
-100.624
-102.373
-104.062
-105.48
-106.462
-106.919
-106.882
-106.378
-105.417
-104.035
-102.267
-100.153
-97.761
-95.183
-92.534
-89.924
-87.425
-85.084
-82.925
-80.966
-79.232
-77.741
-76.494
-75.486
-74.707
-74.153
-73.828
-73.721
-73.806
-74.034
-74.342
-74.677
-75.001
-75.285
-75.506
-75.641
-75.672
-75.589
-75.389
-75.07
-74.622
-74.036
-73.295
-72.391
-71.318
-70.075
-68.665
-67.087
-65.343
-63.434
-61.362
-59.128
-56.735
-54.181
-51.463
-48.582
-45.54
-42.341
-38.992
-35.497
-31.864
-28.101
-24.217
-20.221
-16.123
-11.932
-7.658
-3.309
1.103
5.569
10.077
14.617
19.179
23.75
28.319
32.875
37.407
41.904
46.354
50.748
55.073
59.32
63.478
67.536
71.486
75.315
79.014
82.572
85.979
89.226
92.303
95.201
97.912
100.427
102.739
104.841
106.728
108.391
109.827
111.029
111.994
112.717
113.197
113.43
113.415
113.152
112.64
111.882
110.878
109.631
108.144
106.422
104.471
102.295
99.902
97.299
94.497
91.503
88.33
84.989
81.492
77.853
74.085
70.203
66.222
62.158
58.027
53.845
49.627
45.392
41.156
36.935
32.747
28.607
24.532
20.539
16.643
12.858
9.201
5.685
2.325
-0.868
-3.881
-6.702
-9.319
-11.724
-13.906
-15.859
-17.575
-19.048
-20.273
-21.248
-21.97
-22.437
-22.651
-22.612
-22.322
-21.785
-21.004
-19.986
-18.737
-17.262
-15.572
-13.673
-11.576
-9.292
-6.83
-4.203
-1.422
1.499
4.549
7.713
10.978
14.33
17.754
21.236
24.761
28.315
31.882
35.448
38.999
42.52
45.999
49.422
52.777
56.052
59.235
62.315
65.284
68.13
70.846
73.423
75.854
78.132
80.252
82.209
83.997
85.614
87.058
88.325
89.416
90.33
91.068
91.631
92.022
92.244
92.301
92.198
91.941
91.537
90.993
90.317
89.517
88.604
87.585
86.471
85.273
83.999
82.661
81.27
79.835
78.369
76.881
75.382
73.883
72.395
70.928
69.493
68.101
66.76
65.481
64.272
63.142
62.099
61.15
60.301
59.559
58.928
58.411
58.014
57.736
57.58
57.545
57.632
57.837
58.158
58.591
59.13
59.771
60.507
61.331
62.235
63.211
64.249
65.339
66.472
67.636
68.819
70.007
71.186
72.341
73.458
74.521
75.516
76.426
77.24
77.944
78.53
78.987
79.304
79.472
79.48
79.32
78.985
78.467
77.761
76.866
75.779
74.503
73.045
71.411
69.604
67.627
65.474
63.147
60.651
57.994
55.189
52.257
49.216
46.097
42.94
39.78
36.651
33.585
30.602
27.725
24.978
22.386
19.989
17.822
15.902
14.233
12.801
11.58
10.543
9.65
8.842
8.045
7.179
6.163
4.934
3.441
1.647
-0.51
-3.137
-6.274
-9.848
-13.672
-17.435
-20.846
-23.723
-25.833
-26.817
-26.481
-24.882
-22.35
-19.571
-17.175
-15.475
-14.764
-15.427
-17.523
-20.658
-23.993
-26.096
-25.463
-20.948
-11.432
4.246
26.942
56.943
93.861
136.654
182.807
228.706
270.917
305.767
332.668
354.354
371.096
381.518
378.771
350.565
290.457
196.588
75.368
-56.42
-183.521
-290.569
-366.012
-409.198
-423.267
-416.292
-398.972
-376.245
-350.433
-321.657
-287.957
-250.934
-213.939
-180.429
-154.346
-137.076
-127.955
-125.826
-128.658
-134.358
-141.256
-147.46
-151.258
-151.871
-149.104
-143.25
-135.228
-126.059
-116.706
-108.308
-101.719
-97.278
-95.101
-95.02
-96.592
-99.376
-102.888
-106.559
-110.046
-113.187
-115.862
-118.052
-119.729
-120.836
-121.382
-121.413
-120.94
-119.983
-118.557
-116.68
-114.439
-111.952
-109.332
-106.696
-104.116
-101.636
-99.304
-97.159
-95.241
-93.579
-92.18
-91.041
-90.163
-89.542
-89.17
-89.027
-89.071
-89.251
-89.515
-89.806
-90.084
-90.318
-90.481
-90.551
-90.512
-90.348
-90.05
-89.616
-89.038
-88.304
-87.405
-86.331
-85.077
-83.642
-82.025
-80.228
-78.251
-76.092
-73.752
-71.23
-68.524
-65.634
-62.558
-59.295
-55.847
-52.218
-48.413
-44.442
-40.313
-36.037
-31.623
-27.085
-22.436
-17.689
-12.856
-7.951
-2.988
2.019
7.055
12.105
17.155
22.188
27.19
32.145
37.037
41.852
46.573
51.187
55.679
60.034
64.239
68.281
72.145
75.82
79.295
82.557
85.597
88.406
90.976
93.3
95.373
97.191
98.749
100.046
101.08
101.851
102.359
102.606
102.596
102.33
101.814
101.052
100.053
98.822
97.368
95.699
93.827
91.76
89.512
87.093
84.516
81.794
78.94
75.97
72.896
69.734
66.498
63.203
59.862
56.492
53.105
49.716
46.339
42.986
39.67
36.403
33.197
30.062
27.009
24.047
21.186
18.433
15.796
13.281
10.894
8.64
6.524
4.547
2.714
1.026
-0.517
-1.915
-3.166
-4.274
-5.239
-6.065
-6.753
-7.307
-7.732
-8.032
-8.211
-8.275
-8.229
-8.079
-7.832
-7.493
-7.07
-6.569
-5.997
-5.362
-4.671
-3.932
-3.152
-2.34
-1.502
-0.648
0.216
1.082
1.942
2.789
3.615
4.414
5.178
5.9
6.574
7.193
7.75
8.239
8.654
8.988
9.236
9.392
9.45
9.407
9.257
8.996
8.621
8.128
7.515
6.78
5.922
4.94
3.837
2.613
1.27
-0.188
-1.756
-3.431
-5.205
-7.073
-9.028
-11.062
-13.167
-15.334
-17.552
-19.811
-22.101
-24.409
-26.723
-29.029
-31.315
-33.567
-35.77
-37.912
-39.978
-41.953
-43.823
-45.575
-47.196
-48.672
-49.991
-51.142
-52.114
-52.9
-53.491
-53.881
-54.066
-54.043
-53.809
-53.365
-52.713
-51.855
-50.795
-49.538
-48.093
-46.467
-44.672
-42.719
-40.621
-38.394
-36.057
-33.629
-31.13
-28.58
-26.001
-23.416
-20.848
-18.319
-15.849
-13.458
-11.168
-9.002
-6.981
-5.129
-3.461
-1.998
-0.754
0.254
1.013
1.516
1.761
1.746
1.466
0.911
0.071
-1.062
-2.486
-4.195
-6.182
-8.433
-10.928
-13.637
-16.514
-19.518
-22.61
-25.762
-28.949
-32.138
-35.285
-38.339
-41.247
-43.971
-46.48
-48.741
-50.735
-52.461
-53.942
-55.224
-56.365
-57.418
-58.435
-59.472
-60.593
-61.87
-63.374
-65.192
-67.44
-70.165
-73.331
-76.814
-80.343
-83.619
-86.389
-88.348
-89.108
-88.452
-86.447
-83.446
-80.16
-77.314
-75.298
-74.391
-74.981
-77.141
-80.352
-83.522
-84.872
-82.466
-75.031
-61.525
-40.636
-11.513
25.866
70.846
121.729
176.272
232.69
288.231
338.635
380.236
410.51
429.728
440.266
443.006
436.156
413.721
369.73
301.724
210.354
103.474
-7.713
-112.288
-197.898
-257.148
-289.093
-295.22
-280.759
-251.959
-212.647
-168.43
-126.94
-94.119
-74.55
-68.177
-68.995
-71.58
-72.569
-71.266
-70.84
-73.001
-77.101
-81.785
-84.349
-83.279
-78.792
-71.449
-62.273
-52.424
-42.767
-33.932
-26.468
-20.631
-16.413
-13.789
-12.562
-12.337
-12.663
-13.145
-13.482
-13.549
-13.332
-12.804
-11.954
-10.792
-9.351
-7.686
-5.817
-3.728
-1.377
1.301
4.321
7.647
11.21
14.914
18.655
22.371
26.007
29.509
32.846
35.991
38.935
41.694
44.281
46.694
48.918
50.927
52.702
54.25
55.59
56.749
57.768
58.672
59.487
60.246
60.97
61.674
62.37
63.058
63.733
64.404
65.079
65.773
66.501
67.274
68.1
68.989
69.944
70.971
72.074
73.251
74.505
75.838
77.252
78.752
80.343
82.027
83.804
85.674
87.635
89.683
91.812
94.016
96.287
98.615
100.992
103.407
105.85
108.311
110.778
113.239
115.681
118.091
120.454
122.758
124.986
127.125
129.159
131.074
132.854
134.486
135.956
137.25
138.356
139.261
139.955
140.427
140.668
140.67
140.424
139.925
139.168
138.149
136.867
135.32
133.51
131.439
129.11
126.528
123.698
120.628
117.325
113.8
110.063
106.125
102
97.7
93.241
88.638
83.907
79.066
74.131
69.12
64.051
58.943
53.814
48.681
43.564
38.478
33.442
28.472
23.584
18.793
14.114
9.559
5.14
0.87
-3.243
-7.188
-10.959
-14.549
-17.953
-21.167
-24.189
-27.016
-29.649
-32.089
-34.339
-36.402
-38.283
-39.988
-41.523
-42.897
-44.118
-45.196
-46.141
-46.966
-47.68
-48.296
-48.827
-49.285
-49.684
-50.035
-50.352
-50.648
-50.933
-51.222
-51.524
-51.85
-52.212
-52.619
-53.08
-53.602
-54.195
-54.863
-55.613
-56.45
-57.377
-58.398
-59.514
-60.727
-62.036
-63.441
-64.94
-66.529
-68.206
-69.966
-71.803
-73.711
-75.683
-77.71
-79.785
-81.899
-84.041
-86.202
-88.372
-90.54
-92.696
-94.829
-96.928
-98.982
-100.982
-102.916
-104.775
-106.549
-108.227
-109.801
-111.261
-112.6
-113.808
-114.879
-115.805
-116.581
-117.199
-117.654
-117.943
-118.059
-118.001
-117.765
-117.349
-116.752
-115.974
-115.016
-113.879
-112.566
-111.078
-109.42
-107.595
-105.608
-103.464
-101.168
-98.726
-96.144
-93.429
-90.588
-87.629
-84.559
-81.387
-78.121
-74.771
-71.345
-67.854
-64.306
-60.711
-57.08
-53.424
-49.753
-46.078
-42.411
-38.763
-35.146
-31.57
-28.047
-24.588
-21.202
-17.9
-14.692
-11.588
-8.596
-5.727
-2.989
-0.393
2.05
4.33
6.438
8.364
10.1
11.638
12.972
14.096
15.01
15.712
16.199
16.469
16.522
16.356
15.975
15.383
14.582
13.578
12.377
10.99
9.43
7.71
5.838
3.816
1.644
-0.675
-3.131
-5.709
-8.395
-11.174
-14.022
-16.909
-19.786
-22.609
-25.339
-27.943
-30.394
-32.661
-34.701
-36.465
-37.908
-38.995
-39.709
-40.044
-39.998
-39.584
-38.828
-37.78
-36.53
-35.18
-33.833
-32.593
-31.552
-30.782
-30.399
-30.556
-31.318
-32.673
-34.5
-36.526
-38.518
-40.322
-41.707
-42.363
-42.091
-40.819
-38.774
-36.56
-34.707
-33.505
-33.181
-33.895
-35.603
-38.081
-40.569
-41.637
-39.723
-33.473
-21.742
-3.414
22.39
56.391
98.949
148.519
201.974
256.555
309.266
359.505
409.875
459.401
504.405
537.346
545.699
522.808
468.803
388.476
291.93
188.18
83.454
-14.316
-95.734
-154.453
-187.19
-197.055
-194.011
-185.011
-173.392
-159.898
-141.882
-119.69
-96.392
-74.655
-57.257
-45.483
-39.231
-37.903
-40.172
-44.314
-48.576
-51.878
-53.885
-54.354
-53.012
-49.885
-45.259
-39.859
-34.771
-30.604
-27.492
-25.504
-24.642
-24.863
-26.095
-28.039
-30.169
-32.124
-33.744
-34.95
-35.762
-36.185
-36.178
-35.761
-35.014
-34.014
-32.821
-31.474
-29.976
-28.343
-26.625
-24.877
-23.167
-21.559
-20.091
-18.785
-17.654
-16.705
-15.942
-15.366
-14.963
-14.714
-14.6
-14.609
-14.734
-14.967
-15.293
-15.693
-16.143
-16.622
-17.114
-17.605
-18.08
-18.525
-18.928
-19.276
-19.561
-19.775
-19.908
-19.947
-19.881
-19.696
-19.382
-18.928
-18.325
-17.562
-16.631
-15.526
-14.239
-12.767
-11.106
-9.25
-7.198
-4.949
-2.5
0.148
2.993
6.035
9.269
12.692
16.299
20.082
24.035
28.149
32.416
36.824
41.362
46.019
50.781
55.635
60.567
65.562
70.604
75.676
80.762
85.845
90.908
95.932
100.901
105.796
110.601
115.299
119.872
124.305
128.581
132.685
136.601
140.315
143.813
147.081
150.107
152.88
155.389
157.625
159.58
161.246
162.618
163.692
164.464
164.932
165.096
164.957
164.517
163.781
162.752
161.439
159.849
157.991
155.875
153.513
150.917
148.101
145.079
141.866
138.477
134.928
131.235
127.416
123.488
119.468
115.373
111.22
107.026
102.809
98.584
94.366
90.172
86.016
81.911
77.87
73.906
70.029
66.249
62.576
59.016
55.577
52.263
49.078
46.026
43.107
40.321
37.669
35.148
32.755
30.487
28.339
26.305
24.381
22.558
20.831
19.19
17.629
16.139
14.711
13.336
12.007
10.714
9.448
8.202
6.967
5.735
4.498
3.249
1.98
0.686
-0.641
-2.006
-3.412
-4.866
-6.369
-7.926
-9.537
-11.206
-12.932
-14.717
-16.559
-18.459
-20.414
-22.424
-24.484
-26.594
-28.749
-30.946
-33.18
-35.449
-37.748
-40.071
-42.416
-44.777
-47.15
-49.529
-51.91
-54.288
-56.658
-59.015
-61.353
-63.667
-65.952
-68.203
-70.416
-72.584
-74.702
-76.767
-78.771
-80.711
-82.581
-84.376
-86.091
-87.721
-89.262
-90.708
-92.056
-93.301
-94.44
-95.468
-96.381
-97.176
-97.849
-98.397
-98.815
-99.101
-99.252
-99.264
-99.136
-98.866
-98.452
-97.892
-97.186
-96.332
-95.332
-94.185
-92.893
-91.456
-89.877
-88.161
-86.31
-84.331
-82.228
-80.008
-77.68
-75.252
-72.732
-70.13
-67.455
-64.72
-61.936
-59.115
-56.271
-53.415
-50.564
-47.734
-44.94
-42.199
-39.527
-36.941
-34.457
-32.09
-29.857
-27.77
-25.842
-24.086
-22.516
-21.144
-19.985
-19.048
-18.344
-17.879
-17.661
-17.696
-17.983
-18.518
-19.298
-20.317
-21.575
-23.075
-24.819
-26.797
-29.001
-31.417
-34.025
-36.805
-39.726
-42.744
-45.822
-48.922
-52.015
-55.081
-58.093
-61.016
-63.812
-66.432
-68.838
-71.009
-72.912
-74.527
-75.861
-76.93
-77.778
-78.475
-79.058
-79.567
-80.055
-80.562
-81.157
-81.912
-82.862
-84.084
-85.677
-87.666
-90.03
-92.639
-95.174
-97.325
-98.832
-99.357
-98.573
-96.31
-92.525
-87.541
-82.065
-76.776
-72.221
-68.902
-67.248
-67.445
-69.325
-72.022
-73.948
-73.39
-68.736
-58.323
-40.465
-13.74
22.953
69.045
121.839
178.426
235.656
291.641
347.482
402.914
454.602
496.48
517.468
507.248
462.894
386.73
287.335
177.673
66.717
-37.659
-127.451
-198.758
-247.63
-272.199
-275.231
-259.905
-230.319
-193.084
-155.375
-123.277
-102.43
-93.114
-90.573
-91.399
-91.604
-89.893
-88.898
-88.999
-90.099
-91.897
-92.224
-89.932
-85.144
-78.116
-69.834
-61.62
-54.157
-47.729
-42.57
-38.721
-36.097
-34.657
-34.163
-34.133
-34.235
-34.25
-33.987
-33.411
-32.507
-31.22
-29.562
-27.583
-25.314
-22.81
-20.124
-17.273
-14.292
-11.225
-8.112
-5.013
-1.992
0.894
3.586
6.044
8.245
10.167
11.798
13.131
14.162
14.903
15.374
15.584
15.545
15.268
14.764
14.053
13.155
12.09
10.875
9.526
8.057
6.486
4.827
3.095
1.302
-0.539
-2.417
-4.319
-6.229
-8.133
-10.016
-11.865
-13.665
-15.404
-17.067
-18.643
-20.121
-21.491
-22.744
-23.871
-24.863
-25.714
-26.419
-26.971
-27.368
-27.605
-27.681
-27.595
-27.348
-26.94
-26.374
-25.654
-24.782
-23.765
-22.609
-21.321
-19.908
-18.381
-16.749
-15.021
-13.21
-11.326
-9.382
-7.391
-5.364
-3.316
-1.259
0.792
2.825
4.825
6.779
8.674
10.496
12.231
13.868
15.394
16.797
18.066
19.19
20.16
20.965
21.597
22.05
22.315
22.388
22.263
21.938
21.41
20.678
19.743
18.604
17.265
15.728
13.999
12.083
9.986
7.715
5.279
2.688
-0.049
-2.921
-5.915
-9.018
-12.218
-15.5
-18.85
-22.255
-25.698
-29.165
-32.641
-36.111
-39.56
-42.972
-46.334
-49.631
-52.849
-55.976
-58.998
-61.906
-64.688
-67.336
-69.839
-72.192
-74.387
-76.419
-78.283
-79.976
-81.494
-82.838
-84.005
-84.997
-85.815
-86.462
-86.942
-87.258
-87.416
-87.422
-87.281
-87.002
-86.591
-86.056
-85.405
-84.648
-83.794
-82.851
-81.83
-80.739
-79.589
-78.387
-77.144
-75.867
-74.563
-73.241
-71.908
-70.568
-69.229
-67.895
-66.572
-65.263
-63.971
-62.701
-61.454
-60.23
-59.033
-57.86
-56.714
-55.592
-54.496
-53.423
-52.374
-51.347
-50.341
-49.356
-48.39
-47.441
-46.508
-45.588
-44.678
-43.778
-42.884
-41.994
-41.106
-40.22
-39.334
-38.448
-37.561
-36.673
-35.784
-34.893
-34.001
-33.109
-32.218
-31.328
-30.442
-29.56
-28.685
-27.819
-26.964
-26.12
-25.289
-24.47
-23.662
-22.864
-22.071
-21.281
-20.49
-19.694
-18.891
-18.078
-17.251
-16.409
-15.551
-14.676
-13.781
-12.859
-11.905
-10.912
-9.871
-8.776
-7.615
-6.378
-5.056
-3.641
-2.13
-0.519
1.2
3.036
5.006
7.117
9.372
11.769
14.306
16.979
19.775
22.671
25.629
28.613
31.599
34.576
37.545
40.507
43.458
46.396
49.319
52.241
55.18
58.15
61.153
64.197
67.299
70.507
73.889
77.503
81.374
85.497
89.84
94.373
99.053
103.825
108.615
113.314
117.823
122.067
125.988
129.531
132.622
135.153
136.989
138.025
138.195
137.471
135.856
133.354
129.993
125.83
120.959
115.512
109.607
103.327
96.74
89.917
82.949
75.959
69.104
62.502
56.251
50.429
45.091
40.291
36.069
32.427
29.338
26.751
24.622
22.918
21.613
20.663
20.005
19.55
19.195
18.835
18.366
17.68
16.681
15.273
13.402
11.025
8.068
4.529
0.483
-3.907
-8.326
-12.446
-16.063
-18.947
-20.74
-21.231
-20.377
-18.376
-15.909
-13.693
-12.051
-11.166
-11.433
-13.096
-15.886
-19.175
-20.823
-17.655
-8.392
7.359
28.992
53.919
82.439
116.436
157.432
208.483
269.058
336.259
405.832
468.693
515.704
537.046
523.817
475.31
395.637
292.978
180.115
66.894
-38.236
-125.832
-191.357
-232.438
-248.779
-245.873
-228.305
-200.393
-168.565
-136.582
-108.416
-86.052
-66.494
-47.651
-27.901
-7.904
8.278
18.745
23.062
21.966
18.048
12.787
7.209
2.904
0.558
0.387
2.534
6.553
11.958
18.527
25.707
32.613
38.698
43.695
47.538
50.514
52.895
54.795
56.44
58.126
60.014
62.197
64.691
67.375
70.158
72.998
75.829
78.604
81.29
83.85
86.256
88.492
90.523
92.322
93.875
95.166
96.193
96.957
97.462
97.722
97.76
97.592
97.231
96.688
95.967
95.085
94.061
92.916
91.671
90.348
88.967
87.55
86.118
84.689
83.281
81.905
80.576
79.309
78.118
77.022
76.035
75.172
74.448
73.876
73.47
73.239
73.193
73.34
73.687
74.238
75
75.975
77.167
78.576
80.202
82.045
84.101
86.365
88.833
91.496
94.346
97.372
100.563
103.907
107.389
110.994
114.707
118.511
122.389
126.321
130.289
134.272
138.252
142.206
146.113
149.953
153.703
157.343
160.852
164.209
167.393
170.386
173.169
175.722
178.03
180.075
181.841
183.315
184.483
185.334
185.857
186.044
185.887
185.382
184.524
183.311
181.742
179.819
177.544
174.921
171.957
168.66
165.038
161.104
156.869
152.348
147.556
142.51
137.229
131.73
126.034
120.161
114.133
107.972
101.699
95.338
88.911
82.44
75.949
69.458
62.991
56.567
50.208
43.933
37.76
31.708
25.793
20.032
14.437
9.024
3.803
-1.213
-6.017
-10.601
-14.958
-19.082
-22.972
-26.625
-30.04
-33.219
-36.163
-38.875
-41.361
-43.625
-45.674
-47.515
-49.157
-50.609
-51.879
-52.979
-53.918
-54.707
-55.357
-55.88
-56.285
-56.585
-56.791
-56.914
-56.964
-56.953
-56.891
-56.787
-56.652
-56.495
-56.325
-56.149
-55.976
-55.812
-55.664
-55.537
-55.436
-55.367
-55.333
-55.337
-55.383
-55.473
-55.609
-55.793
-56.026
-56.308
-56.642
-57.026
-57.461
-57.947
-58.483
-59.07
-59.707
-60.392
-61.125
-61.905
-62.73
-63.599
-64.511
-65.464
-66.457
-67.487
-68.555
-69.657
-70.792
-71.96
-73.158
-74.385
-75.639
-76.92
-78.225
-79.552
-80.9
-82.267
-83.65
-85.048
-86.457
-87.874
-89.297
-90.722
-92.146
-93.563
-94.97
-96.363
-97.737
-99.088
-100.411
-101.7
-102.952
-104.162
-105.323
-106.432
-107.482
-108.469
-109.386
-110.228
-110.992
-111.67
-112.259
-112.755
-113.152
-113.447
-113.637
-113.719
-113.689
-113.546
-113.288
-112.915
-112.427
-111.825
-111.111
-110.288
-109.36
-108.333
-107.212
-106.002
-104.712
-103.349
-101.922
-100.441
-98.914
-97.353
-95.77
-94.178
-92.592
-91.026
-89.496
-88.017
-86.604
-85.273
-84.039
-82.913
-81.907
-81.032
-80.299
-79.719
-79.306
-79.068
-79.013
-79.152
-79.489
-80.03
-80.778
-81.73
-82.88
-84.224
-85.756
-87.475
-89.386
-91.485
-93.766
-96.218
-98.826
-101.571
-104.43
-107.372
-110.351
-113.332
-116.274
-119.144
-121.918
-124.565
-127.054
-129.358
-131.432
-133.241
-134.764
-135.993
-136.933
-137.608
-138.04
-138.263
-138.332
-138.307
-138.262
-138.276
-138.412
-138.726
-139.258
-140.065
-141.255
-142.875
-144.858
-147.027
-149.072
-150.68
-151.671
-151.824
-150.779
-148.321
-144.472
-139.534
-134.224
-129.236
-124.902
-121.552
-119.618
-119.25
-120.208
-121.71
-122.203
-120.032
-114.02
-102.855
-85.041
-59.462
-25.313
16.811
64.289
114.339
164.374
212.934
260.853
307.533
349.721
381.179
391.961
374.664
327.339
253.398
160.467
55.443
-55.245
-165.248
-265.511
-343.852
-393.674
-413.012
-406.46
-385.224
-354.506
-318.855
-283.288
-248.441
-219.938
-200.67
-187.345
-178.94
-171.91
-163.96
-157.5
-152.808
-149.288
-146.467
-142.176
-135.019
-125.05
-112.62
-98.539
-84.012
-70.185
-57.734
-47.098
-38.62
-32.281
-27.994
-25.671
-24.906
-25.164
-26.076
-27.318
-28.657
-30.005
-31.245
-32.244
-32.94
-33.285
-33.237
-32.787
-31.908
-30.573
-28.79
-26.584
-24.009
-21.143
-18.081
-14.918
-11.754
-8.686
-5.794
-3.139
-0.774
1.259
2.933
4.238
5.172
5.747
5.979
5.884
5.49
4.831
3.946
2.884
1.692
0.423
-0.876
-2.168
-3.421
-4.605
-5.696
-6.673
-7.519
-8.225
-8.779
-9.164
-9.367
-9.375
-9.175
-8.76
-8.121
-7.254
-6.154
-4.815
-3.234
-1.407
0.668
2.994
5.572
8.402
11.485
14.815
18.386
22.188
26.212
30.446
34.877
39.489
44.266
49.189
54.242
59.405
64.658
69.979
75.347
80.739
86.129
91.495
96.812
102.053
107.194
112.208
117.071
121.759
126.247
130.513
134.533
138.286
141.753
144.914
147.751
150.249
152.392
154.168
155.565
156.573
157.186
157.396
157.2
156.597
155.585
154.167
152.346
150.127
147.518
144.529
141.169
137.454
133.396
129.015
124.327
119.354
114.118
108.641
102.947
97.063
91.012
84.823
78.52
72.132
65.684
59.203
52.716
46.247
39.821
33.464
27.198
21.045
15.028
9.167
3.48
-2.015
-7.3
-12.362
-17.185
-21.759
-26.073
-30.118
-33.887
-37.374
-40.576
-43.492
-46.121
-48.466
-50.529
-52.316
-53.835
-55.092
-56.097
-56.862
-57.396
-57.712
-57.823
-57.742
-57.483
-57.059
-56.485
-55.774
-54.942
-54.003
-52.97
-51.858
-50.681
-49.452
-48.185
-46.894
-45.59
-44.287
-42.995
-41.728
-40.495
-39.308
-38.176
-37.107
-36.111
-35.195
-34.365
-33.628
-32.987
-32.448
-32.013
-31.686
-31.47
-31.365
-31.373
-31.496
-31.734
-32.087
-32.555
-33.138
-33.836
-34.647
-35.57
-36.603
-37.746
-38.995
-40.347
-41.801
-43.351
-44.996
-46.729
-48.545
-50.44
-52.406
-54.438
-56.527
-58.666
-60.848
-63.063
-65.304
-67.562
-69.828
-72.093
-74.346
-76.579
-78.782
-80.943
-83.053
-85.101
-87.075
-88.965
-90.759
-92.446
-94.017
-95.459
-96.762
-97.917
-98.913
-99.74
-100.391
-100.858
-101.132
-101.208
-101.08
-100.745
-100.199
-99.442
-98.473
-97.293
-95.904
-94.31
-92.516
-90.528
-88.352
-85.998
-83.474
-80.793
-77.966
-75.007
-71.929
-68.75
-65.489
-62.165
-58.798
-55.407
-52.014
-48.64
-45.306
-42.033
-38.837
-35.736
-32.75
-29.896
-27.194
-24.661
-22.314
-20.166
-18.232
-16.523
-15.051
-13.819
-12.827
-12.077
-11.571
-11.317
-11.325
-11.6
-12.141
-12.943
-13.998
-15.292
-16.806
-18.509
-20.357
-22.309
-24.327
-26.382
-28.45
-30.5
-32.493
-34.382
-36.12
-37.67
-39
-40.086
-40.918
-41.503
-41.867
-42.06
-42.147
-42.189
-42.254
-42.405
-42.706
-43.225
-44.024
-45.185
-46.82
-48.973
-51.608
-54.587
-57.631
-60.423
-62.697
-64.133
-64.315
-63.002
-60.229
-56.313
-51.963
-47.967
-44.813
-42.931
-42.868
-44.778
-48.222
-52.235
-55.049
-54.554
-49.157
-37.382
-17.491
11.722
50.693
99.263
155.142
214.19
273.014
328.028
377.658
423.386
463.755
494.951
510.177
499.58
459.081
391.224
302.17
201.375
97.461
-3.533
-93.216
-162.028
-205.831
-223.696
-219.941
-203.392
-177.734
-145.328
-109.956
-75.618
-49.139
-35.379
-33.547
-38.581
-44.482
-47.396
-46.747
-44.987
-44.083
-44.402
-45.437
-45.502
-43.434
-39.368
-33.9
-28.033
-22.72
-18.265
-14.665
-11.943
-10.154
-9.304
-9.308
-9.894
-10.609
-11.136
-11.341
-11.153
-10.568
-9.576
-8.139
-6.258
-4.007
-1.464
1.312
4.284
7.447
10.792
14.278
17.854
21.457
25.027
28.526
31.934
35.236
38.419
41.478
44.403
47.202
49.896
52.496
55.013
57.449
59.807
62.095
64.33
66.528
68.703
70.865
73.021
75.179
77.344
79.525
81.724
83.943
86.183
88.446
90.736
93.057
95.415
97.811
100.249
102.729
105.253
107.823
110.439
113.101
115.806
118.553
121.343
124.172
127.039
129.941
132.874
135.837
138.823
141.829
144.85
147.88
150.913
153.945
156.97
159.98
162.97
165.934
168.864
171.754
174.598
177.388
180.118
182.78
185.368
187.875
190.295
192.621
194.847
196.966
198.972
200.859
202.62
204.25
205.742
207.09
208.289
209.332
210.215
210.933
211.481
211.856
212.053
212.069
211.903
211.551
211.011
210.284
209.368
208.263
206.97
205.49
203.826
201.979
199.953
197.75
195.375
192.833
190.128
187.265
184.251
181.093
177.798
174.376
170.834
167.179
163.422
159.572
155.638
151.636
147.574
143.461
139.315
135.152
130.986
126.837
122.716
118.612
114.541
110.518
106.523
102.551
98.61
94.676
90.763
86.942
83.215
79.567
76.123
72.985
70.051
67.353
64.953
62.506
60.568
59.867
59.461
59.046
57.156
51.058
42.364
33.53
27.098
27.898
35.261
44.562
52.672
54.678
49.325
41.285
33.328
28.221
27.943
29.722
31.793
33.613
34.062
33.995
34.17
34.326
34.601
34.941
35.155
35.36
35.651
36
36.414
36.92
37.507
38.156
38.865
39.613
40.378
41.167
41.984
42.818
43.67
44.538
45.416
46.305
47.203
48.106
49.009
49.909
50.802
51.684
52.551
53.4
54.225
55.023
55.789
56.517
57.204
57.845
58.435
58.971
59.448
59.862
60.211
60.493
60.704
60.843
60.91
60.903
60.823
60.668
60.439
60.139
59.768
59.328
58.823
58.254
57.628
56.947
56.216
55.44
54.623
53.771
52.891
51.987
51.066
50.135
49.2
48.269
47.349
46.448
45.572
44.729
43.923
43.162
42.45
41.793
41.194
40.656
40.18
39.77
39.427
39.149
38.936
38.786
38.694
38.657
38.669
38.723
38.808
38.914
39.032
39.15
39.257
39.34
39.386
39.384
39.323
39.194
38.984
38.68
38.268
37.734
37.063
36.246
35.268
34.118
32.782
31.256
29.536
27.62
25.503
23.177
20.626
17.843
14.825
11.573
8.09
4.388
0.481
-3.602
-7.82
-12.134
-16.51
-20.921
-25.348
-29.765
-34.138
-38.432
-42.61
-46.643
-50.514
-54.197
-57.68
-60.984
-64.144
-67.224
-70.309
-73.452
-76.714
-80.167
-83.877
-87.92
-92.373
-97.269
-102.655
-108.619
-115.163
-122.224
-129.638
-137.034
-144.037
-150.365
-155.666
-159.562
-161.882
-162.616
-162.03
-160.869
-159.854
-159.432
-160.071
-162.162
-165.692
-170.276
-175.019
-178.178
-177.815
-172.381
-160.398
-140.442
-111.557
-73.315
-25.883
28.152
84.185
138.13
186.004
227.413
265.709
301.235
331.847
348.745
337.166
288.204
198.39
75.534
-60.188
-189.907
-295.372
-366.18
-405.827
-420.404
-419.2
-409.921
-392.002
-365.852
-333.701
-300.072
-273.762
-259.882
-257.953
-263.599
-270.249
-273.8
-273.834
-272.222
-270.643
-269.441
-267.65
-263.388
-255.991
-246.024
-234.516
-223.006
-212.508
-203.313
-195.707
-189.96
-186.135
-184.249
-184.112
-185.256
-187.344
-190.178
-193.57
-197.375
-201.449
-205.604
-209.692
-213.655
-217.422
-220.924
-224.091
-226.809
-228.995
-230.614
-231.653
-232.125
-232.064
-231.505
-230.495
-229.119
-227.459
-225.606
-223.661
-221.69
-219.739
-217.847
-216.043
-214.361
-212.832
-211.466
-210.256
-209.195
-208.268
-207.466
-206.777
-206.17
-205.61
-205.058
-204.469
-203.816
-203.079
-202.24
-201.287
-200.209
-198.996
-197.646
-196.166
-194.556
-192.814
-190.939
-188.926
-186.778
-184.499
-182.094
-179.568
-176.924
-174.165
-171.292
-168.309
-165.216
-162.013
-158.7
-155.275
-151.739
-148.096
-144.349
-140.503
-136.562
-132.532
-128.42
-124.233
-119.977
-115.658
-111.284
-106.859
-102.391
-97.887
-93.353
-88.797
-84.225
-79.645
-75.066
-70.494
-65.939
-61.408
-56.909
-52.451
-48.043
-43.694
-39.413
-35.209
-31.092
-27.073
-23.16
-19.364
-15.693
-12.157
-8.764
-5.522
-2.439
0.479
3.224
5.791
8.173
10.365
12.362
14.159
15.752
17.139
18.316
19.281
20.033
20.571
20.896
21.008
20.91
20.604
20.094
19.384
18.481
17.391
16.121
14.681
13.079
11.327
9.435
7.416
5.28
3.042
0.713
-1.692
-4.16
-6.677
-9.228
-11.8
-14.378
-16.948
-19.495
-22.004
-24.462
-26.855
-29.169
-31.391
-33.508
-35.508
-37.38
-39.112
-40.694
-42.116
-43.37
-44.449
-45.345
-46.054
-46.57
-46.891
-47.014
-46.938
-46.662
-46.187
-45.515
-44.647
-43.587
-42.338
-40.905
-39.293
-37.508
-35.558
-33.449
-31.189
-28.786
-26.251
-23.592
-20.819
-17.942
-14.973
-11.92
-8.796
-5.612
-2.377
0.896
4.197
7.516
10.842
14.166
17.478
20.769
24.032
27.258
30.441
33.572
36.647
39.659
42.604
45.475
48.268
50.98
53.608
56.147
58.597
60.955
63.219
65.39
67.467
69.449
71.34
73.138
74.847
76.469
78.006
79.462
80.84
82.145
83.381
84.552
85.664
86.722
87.73
88.693
89.618
90.509
91.372
92.211
93.032
93.841
94.643
95.443
96.246
97.058
97.884
98.729
99.598
100.498
101.432
102.405
103.421
104.486
105.602
106.772
108
109.288
110.638
112.05
113.527
115.069
116.674
118.343
120.073
121.864
123.711
125.611
127.562
129.557
131.593
133.663
135.764
137.888
140.029
142.18
144.335
146.486
148.623
150.737
152.816
154.85
156.828
158.737
160.566
162.306
163.946
165.478
166.897
168.196
169.366
170.402
171.299
172.05
172.655
173.109
173.411
173.561
173.561
173.416
173.134
172.719
172.169
171.486
170.663
169.699
168.6
167.373
166.021
164.558
163
161.371
159.712
158.054
156.428
154.865
153.39
152.032
150.834
149.832
149.064
148.565
148.342
148.397
148.734
149.338
150.191
151.248
152.407
153.564
154.618
155.466
156.041
156.241
155.905
154.947
153.365
151.255
148.868
146.427
144.044
141.888
140.206
139.143
138.749
138.757
138.561
137.697
135.909
133.102
129.294
124.515
119.094
114.002
110.432
109.552
112.586
120.039
133.058
153.145
179.884
212.831
249.923
287.723
325.763
363.388
401.018
441.011
483.075
526.403
566.592
594.605
601.105
576.475
517.49
427.789
313.568
185.526
54.261
-70.684
-176.733
-252.934
-294.2
-299.082
-272.719
-227.305
-172.742
-119.346
-77.839
-50.405
-37.205
-35.233
-35.729
-35.09
-32.684
-29.542
-30.491
-36.979
-47.461
-59.672
-70.117
-77.157
-80.956
-81.912
-80.933
-78.864
-76.354
-74.379
-73.748
-74.773
-77.535
-81.853
-87.351
-93.69
-100.47
-107.21
-113.596
-119.491
-124.839
-129.67
-134.008
-137.826
-141.115
-143.899
-146.184
-147.987
-149.336
-150.271
-150.881
-151.268
-151.526
-151.727
-151.91
-152.096
-152.296
-152.519
-152.769
-153.052
-153.384
-153.781
-154.259
-154.824
-155.468
-156.165
-156.875
-157.557
-158.175
-158.694
-159.095
-159.364
-159.49
-159.473
-159.315
-159.016
-158.572
-157.974
-157.212
-156.276
-155.162
-153.866
-152.387
-150.724
-148.88
-146.856
-144.653
-142.273
-139.713
-136.972
-134.047
-130.934
-127.635
-124.149
-120.481
-116.633
-112.612
-108.425
-104.08
-99.587
-94.956
-90.195
-85.317
-80.332
-75.251
-70.088
-64.855
-59.565
-54.232
-48.87
-43.493
-38.117
-32.757
-27.426
-22.141
-16.916
-11.766
-6.705
-1.747
3.094
7.805
12.373
16.786
21.032
25.098
28.976
32.654
36.126
39.383
42.419
45.229
47.809
50.157
52.27
54.147
55.788
57.194
58.366
59.306
60.017
60.505
60.773
60.828
60.676
60.325
59.781
59.054
58.153
57.087
55.866
54.5
52.999
51.375
49.64
47.804
45.88
43.88
41.815
39.697
37.539
35.35
33.144
30.931
28.72
26.524
24.351
22.211
20.114
18.068
16.082
14.164
12.32
10.559
8.887
7.31
5.833
4.462
3.201
2.055
1.027
0.122
-0.659
-1.314
-1.839
-2.234
-2.499
-2.633
-2.637
-2.511
-2.259
-1.881
-1.382
-0.763
-0.03
0.815
1.766
2.817
3.965
5.202
6.524
7.923
9.394
10.929
12.523
14.167
15.856
17.582
19.338
21.117
22.913
24.717
26.523
28.323
30.112
31.882
33.627
35.341
37.017
38.65
40.235
41.768
43.244
44.66
46.013
47.301
48.521
49.672
50.755
51.767
52.711
53.586
54.393
55.134
55.811
56.426
56.98
57.477
57.919
58.308
58.649
58.942
59.193
59.403
59.577
59.718
59.829
59.915
59.979
60.025
60.057
60.079
60.095
60.108
60.122
60.14
60.165
60.201
60.25
60.314
60.396
60.498
60.622
60.771
60.946
61.149
61.382
61.646
61.943
62.277
62.648
63.06
63.515
64.016
64.567
65.172
65.833
66.553
67.335
68.183
69.098
70.085
71.144
72.278
73.488
74.777
76.145
77.593
79.121
80.73
82.418
84.185
86.03
87.949
89.94
91.999
94.124
96.308
98.549
100.838
103.169
105.534
107.922
110.325
112.73
115.122
117.486
119.806
122.067
124.251
126.342
128.32
130.169
131.875
133.421
134.792
135.972
136.942
137.685
138.187
138.429
138.397
138.074
137.443
136.494
135.221
133.617
131.674
129.38
126.716
123.673
120.248
116.437
112.243
107.672
102.735
97.466
91.912
86.116
80.122
73.964
67.662
61.252
54.77
48.251
41.742
35.269
28.841
22.479
16.197
9.981
3.801
-2.427
-8.829
-15.51
-22.557
-30.039
-38.01
-46.551
-55.729
-65.586
-76.145
-87.376
-99.266
-111.853
-125.083
-138.771
-152.633
-166.253
-179.232
-191.242
-201.848
-210.603
-217.281
-221.893
-224.724
-226.158
-226.488
-226.168
-225.854
-226.076
-226.299
-224.706
-219.513
-210.168
-198.809
-188.835
-181.014
-171.79
-153.77
-120.326
-69.776
-7.161
57.863
118.345
169.901
210.126
238.326
248.484
233.053
189.126
115.938
18.651
-91.071
-203.7
-308.395
-392.862
-452.557
-485.776
-495.855
-493.536
-485.149
-473.773
-460.436
-442.098
-418.889
-393.76
-369.118
-347.643
-330.234
-315.921
-303.753
-292.608
-281.262
-268.84
-254.936
-239.579
-223.164
-206.329
-189.703
-173.892
-159.553
-147.257
-137.283
-129.662
-124.266
-120.858
-119.219
-119.139
-120.349
-122.533
-125.415
-128.773
-132.424
-136.202
-139.897
-143.283
-146.183
-148.489
-150.148
-151.139
-151.448
-151.072
-150.035
-148.405
-146.266
-143.712
-140.833
-137.707
-134.417
-131.066
-127.775
-124.648
-121.76
-119.154
-116.844
-114.838
-113.147
-111.764
-110.663
-109.807
-109.153
-108.668
-108.323
-108.088
-107.925
-107.787
-107.62
-107.384
-107.051
-106.601
-106.021
-105.297
-104.42
-103.387
-102.204
-100.878
-99.411
-97.804
-96.053
-94.16
-92.129
-89.967
-87.68
-85.274
-82.751
-80.116
-77.376
-74.535
-71.599
-68.571
-65.455
-62.257
-58.983
-55.642
-52.243
-48.796
-45.31
-41.796
-38.263
-34.723
-31.185
-27.659
-24.155
-20.68
-17.246
-13.86
-10.533
-7.271
-4.084
-0.981
2.031
4.943
7.748
10.438
13.007
15.446
17.749
19.91
21.924
23.783
25.485
27.023
28.395
29.597
30.627
31.481
32.158
32.658
32.979
33.121
33.085
32.873
32.484
31.923
31.19
30.289
29.223
27.997
26.614
25.079
23.398
21.578
19.625
17.548
15.354
13.053
10.654
8.167
5.603
2.973
0.289
-2.439
-5.199
-7.978
-10.764
-13.546
-16.311
-19.048
-21.744
-24.388
-26.968
-29.474
-31.896
-34.222
-36.444
-38.552
-40.537
-42.392
-44.109
-45.681
-47.102
-48.366
-49.469
-50.407
-51.178
-51.779
-52.21
-52.471
-52.562
-52.487
-52.247
-51.847
-51.29
-50.582
-49.727
-48.734
-47.608
-46.358
-44.991
-43.516
-41.941
-40.275
-38.529
-36.709
-34.828
-32.892
-30.913
-28.898
-26.859
-24.804
-22.742
-20.683
-18.635
-16.607
-14.607
-12.643
-10.722
-8.85
-7.034
-5.279
-3.592
-1.975
-0.435
1.026
2.405
3.698
4.903
6.02
7.046
7.982
8.826
9.579
10.241
10.812
11.294
11.687
11.993
12.213
12.349
12.403
12.379
12.278
12.104
11.861
11.551
11.178
10.746
10.259
9.72
9.134
8.505
7.837
7.135
6.404
5.649
4.875
4.087
3.291
2.491
1.694
0.905
0.129
-0.627
-1.356
-2.053
-2.711
-3.321
-3.879
-4.375
-4.804
-5.158
-5.43
-5.614
-5.703
-5.69
-5.568
-5.331
-4.972
-4.484
-3.862
-3.1
-2.193
-1.135
0.078
1.449
2.982
4.679
6.541
8.571
10.77
13.137
15.672
18.373
21.239
24.265
27.449
30.784
34.265
37.883
41.631
45.502
49.484
53.57
57.747
62.004
66.329
70.71
75.134
79.584
84.045
88.497
92.926
97.314
101.644
105.897
110.058
114.111
118.044
121.847
125.504
129.001
132.326
135.465
138.409
141.146
143.666
145.96
148.02
149.845
151.437
152.795
153.916
154.794
155.42
155.788
155.899
155.757
155.371
154.751
153.916
152.892
151.721
150.439
149.077
147.664
146.222
144.78
143.376
142.041
140.813
139.72
138.784
138.014
137.402
136.92
136.526
136.169
135.78
135.29
134.619
133.679
132.39
130.674
128.472
125.712
122.287
118.167
113.415
108.202
102.838
97.631
92.797
88.594
85.394
83.386
82.525
82.538
82.804
82.78
82.269
81.07
78.875
75.708
72.039
68.747
67.278
69.064
75.069
86.28
103.772
128.312
160.102
198.688
243.025
290.774
338.694
383.739
422.249
453.137
478.776
498.844
512.003
513.655
493.163
445.616
370.131
268.574
152.426
32.988
-78.105
-166.188
-224.305
-251.408
-250.849
-231.929
-202.259
-166.341
-128.789
-94.086
-66.494
-49.037
-40.789
-36.766
-32.293
-25.043
-15.61
-7.567
-3.343
-3.096
-5.631
-8.313
-9.346
-8.461
-5.785
-1.8
2.937
8.185
13.527
18.192
21.625
23.593
24.034
23.153
21.302
18.737
15.747
12.711
9.853
7.285
5.08
3.211
1.639
0.378
-0.567
-1.214
-1.557
-1.611
-1.425
-1.052
-0.595
-0.162
0.168
0.336
0.308
0.071
-0.383
-1.055
-1.93
-2.997
-4.263
-5.734
-7.42
-9.319
-11.407
-13.644
-15.98
-18.365
-20.751
-23.1
-25.378
-27.558
-29.624
-31.563
-33.37
-35.036
-36.546
-37.88
-39.02
-39.947
-40.647
-41.11
-41.326
-41.287
-40.987
-40.424
-39.592
-38.487
-37.102
-35.432
-33.468
-31.207
-28.646
-25.783
-22.621
-19.164
-15.417
-11.389
-7.089
-2.528
2.283
7.331
12.603
18.084
23.759
29.612
35.626
41.783
48.064
54.45
60.918
67.449
74.021
80.612
87.198
93.756
100.264
106.697
113.033
119.248
125.318
131.219
136.928
142.424
147.684
152.686
157.411
161.84
165.955
169.741
173.182
176.265
178.978
181.31
183.25
184.791
185.926
186.648
186.953
186.839
186.303
185.347
183.972
182.18
179.977
177.37
174.364
170.971
167.201
163.067
158.582
153.762
148.624
143.184
137.463
131.48
125.255
118.809
112.162
105.338
98.357
91.24
84.011
76.69
69.298
61.858
54.391
46.916
39.455
32.028
24.655
17.353
10.143
3.041
-3.935
-10.767
-17.442
-23.943
-30.258
-36.373
-42.277
-47.959
-53.412
-58.626
-63.595
-68.313
-72.776
-76.981
-80.924
-84.605
-88.022
-91.175
-94.065
-96.694
-99.063
-101.175
-103.034
-104.643
-106.008
-107.132
-108.023
-108.685
-109.127
-109.356
-109.379
-109.206
-108.847
-108.31
-107.606
-106.746
-105.74
-104.599
-103.335
-101.959
-100.481
-98.913
-97.266
-95.55
-93.778
-91.959
-90.103
-88.222
-86.325
-84.423
-82.525
-80.642
-78.783
-76.957
-75.174
-73.443
-71.772
-70.171
-68.646
-67.206
-65.856
-64.604
-63.453
-62.41
-61.478
-60.661
-59.96
-59.378
-58.915
-58.571
-58.347
-58.241
-58.251
-58.374
-58.608
-58.949
-59.392
-59.935
-60.571
-61.296
-62.104
-62.988
-63.941
-64.958
-66.029
-67.146
-68.301
-69.483
-70.683
-71.892
-73.099
-74.295
-75.47
-76.614
-77.717
-78.769
-79.763
-80.688
-81.537
-82.301
-82.972
-83.546
-84.014
-84.374
-84.618
-84.744
-84.749
-84.629
-84.383
-84.008
-83.504
-82.869
-82.104
-81.211
-80.192
-79.049
-77.787
-76.412
-74.931
-73.354
-71.688
-69.943
-68.13
-66.259
-64.341
-62.388
-60.406
-58.407
-56.401
-54.398
-52.41
-50.449
-48.524
-46.648
-44.83
-43.083
-41.417
-39.838
-38.348
-36.953
-35.658
-34.473
-33.412
-32.484
-31.692
-31.039
-30.524
-30.142
-29.881
-29.715
-29.601
-29.502
-29.386
-29.228
-29.012
-28.709
-28.295
-27.739
-27.01
-26.096
-24.989
-23.68
-22.17
-20.479
-18.652
-16.785
-14.995
-13.383
-12.044
-11.039
-10.428
-10.297
-10.716
-11.746
-13.422
-15.727
-18.667
-22.283
-26.521
-31.215
-36.078
-40.671
-44.596
-47.536
-49.104
-48.957
-46.942
-43.092
-37.821
-31.691
-25.116
-18.707
-13.03
-8.29
-4.636
-0.925
4.641
12.444
23.546
37.926
55.093
78.638
110.168
149.936
198.428
250.171
301.62
352.832
401.314
445.462
480.285
494.507
478.968
430.248
349.886
246.343
131.552
14.39
-96.257
-191.406
-264.279
-308.2
-320.074
-301.648
-259.986
-206.443
-153.313
-113.207
-91.936
-88.307
-96.978
-108.024
-115.747
-119.024
-118.922
-119.706
-122.599
-126.468
-130.038
-130.635
-127.264
-120.679
-111.567
-101.244
-91.078
-81.527
-72.937
-65.74
-59.964
-55.59
-52.592
-50.641
-49.356
-48.576
-48.151
-47.934
-47.852
-47.766
-47.563
-47.237
-46.797
-46.253
-45.608
-44.838
-43.932
-42.912
-41.794
-40.59
-39.29
-37.857
-36.295
-34.646
-32.981
-31.398
-29.964
-28.716
-27.692
-26.917
-26.408
-26.176
-26.205
-26.461
-26.928
-27.592
-28.454
-29.534
-30.826
-32.309
-33.953
-35.712
-37.548
-39.433
-41.333
-43.214
-45.046
-46.806
-48.483
-50.073
-51.568
-52.953
-54.209
-55.315
-56.254
-57.012
-57.579
-57.943
-58.098
-58.036
-57.754
-57.252
-56.529
-55.583
-54.413
-53.017
-51.393
-49.545
-47.479
-45.199
-42.714
-40.033
-37.168
-34.134
-30.946
-27.618
-24.166
-20.608
-16.96
-13.239
-9.465
-5.653
-1.823
2.007
5.82
9.596
13.318
16.969
20.531
23.988
27.325
30.527
33.58
36.474
39.195
41.736
44.086
46.238
48.186
49.924
51.449
52.759
53.852
54.73
55.395
55.851
56.103
56.159
56.027
55.715
55.233
54.592
53.804
52.881
51.835
50.679
49.428
48.096
46.698
45.246
43.758
42.246
40.724
39.206
37.705
36.234
34.802
33.423
32.106
30.862
29.699
28.625
27.65
26.779
26.018
25.372
24.844
24.437
24.151
23.987
23.944
24.02
24.213
24.52
24.938
25.463
26.088
26.809
27.618
28.508
29.471
30.5
31.585
32.719
33.893
35.099
36.33
37.579
38.839
40.103
41.364
42.617
43.855
45.072
46.261
47.418
48.538
49.616
50.65
51.636
52.573
53.459
54.295
55.079
55.812
56.492
57.118
57.688
58.204
58.665
59.071
59.424
59.727
59.984
60.205
60.394
60.557
60.695
60.813
60.912
60.994
61.059
61.101
61.119
61.112
61.086
61.054
61.019
60.976
60.916
60.826
60.694
60.512
60.261
59.916
59.464
58.895
58.217
57.455
56.618
55.707
54.712
53.613
52.404
51.096
49.696
48.213
46.663
45.061
43.448
41.885
40.404
39.016
37.709
36.443
35.198
33.973
32.756
31.542
30.316
29.04
27.691
26.252
24.674
22.91
20.89
18.513
15.73
12.515
8.859
4.781
0.288
-4.614
-9.883
-15.466
-21.305
-27.32
-33.435
-39.574
-45.611
-51.422
-56.879
-61.843
-66.211
-69.901
-72.825
-74.907
-76.086
-76.317
-75.599
-73.953
-71.403
-67.996
-63.793
-58.875
-53.375
-47.414
-41.1
-34.539
-27.818
-21.023
-14.26
-7.634
-1.228
4.892
10.681
16.113
21.153
25.786
30.017
33.871
37.401
40.647
43.623
46.334
48.779
50.961
52.893
54.599
56.076
57.324
58.332
59.084
59.575
59.799
59.736
59.357
58.632
57.547
56.112
54.358
52.32
50.026
47.503
44.769
41.861
38.824
35.699
32.537
29.373
26.225
23.122
20.105
17.187
14.357
11.576
8.766
5.874
2.876
-0.261
-3.578
-7.134
-11.004
-15.242
-19.878
-24.948
-30.51
-36.57
-43.062
-49.778
-56.364
-62.452
-67.727
-71.881
-74.533
-75.428
-74.572
-72.257
-69.127
-65.852
-62.818
-60.391
-59.131
-59.356
-60.801
-62.627
-63.355
-61.348
-55.291
-43.76
-25
2.704
39.673
84.362
134.701
188.079
243.358
302.119
363.799
424.516
477.514
510.487
512.77
481.895
420.158
337.242
244.759
146.491
45.275
-56.165
-154.317
-237.806
-296.411
-326.174
-326.323
-302.328
-261.579
-208.893
-150.949
-96.444
-52.427
-24.012
-11.646
-9.194
-10.378
-11.849
-13.07
-16.837
-24.936
-36.235
-47.989
-57.078
-61.971
-62.71
-60.063
-55.124
-48.719
-41.691
-35.168
-29.867
-26.071
-23.822
-22.846
-22.822
-23.488
-24.489
-25.422
-26.057
-26.319
-26.217
-25.854
-25.307
-24.619
-23.853
-23.076
-22.331
-21.636
-21.007
-20.451
-19.993
-19.681
-19.547
-19.608
-19.875
-20.346
-21.015
-21.879
-22.93
-24.149
-25.523
-27.043
-28.701
-30.49
-32.396
-34.402
-36.484
-38.622
-40.795
-42.983
-45.169
-47.336
-49.471
-51.561
-53.597
-55.57
-57.469
-59.282
-60.997
-62.604
-64.092
-65.454
-66.681
-67.767
-68.707
-69.498
-70.137
-70.624
-70.956
-71.134
-71.157
-71.028
-70.748
-70.32
-69.749
-69.038
-68.194
-67.222
-66.131
-64.929
-63.624
-62.226
-60.745
-59.191
-57.574
-55.907
-54.2
-52.464
-50.712
-48.954
-47.204
-45.472
-43.771
-42.111
-40.505
-38.963
-37.497
-36.116
-34.831
-33.651
-32.587
-31.646
-30.839
-30.172
-29.655
-29.294
-29.096
-29.067
-29.213
-29.539
-30.047
-30.743
-31.627
-32.701
-33.967
-35.423
-37.07
-38.905
-40.926
-43.131
-45.513
-48.071
-50.797
-53.686
-56.731
-59.926
-63.262
-66.731
-70.325
-74.033
-77.847
-81.756
-85.749
-89.815
-93.942
-98.12
-102.335
-106.577
-110.832
-115.09
-119.336
-123.561
-127.752
-131.898
-135.987
-140.01
-143.957
-147.816
-151.58
-155.24
-158.787
-162.214
-165.514
-168.68
-171.706
-174.586
-177.315
-179.888
-182.301
-184.549
-186.63
-188.541
-190.278
-191.839
-193.224
-194.431
-195.46
-196.311
-196.983
-197.478
-197.797
-197.942
-197.915
-197.717
-197.351
-196.821
-196.129
-195.278
-194.271
-193.113
-191.807
-190.355
-188.764
-187.036
-185.176
-183.188
-181.079
-178.853
-176.515
-174.073
-171.532
-168.899
-166.182
-163.388
-160.524
-157.6
-154.623
-151.602
-148.545
-145.461
-142.359
-139.247
-136.136
-133.032
-129.945
-126.884
-123.856
-120.872
-117.937
-115.061
-112.252
-109.517
-106.863
-104.297
-101.826
-99.456
-97.193
-95.042
-93.008
-91.094
-89.303
-87.638
-86.1
-84.69
-83.407
-82.25
-81.216
-80.304
-79.508
-78.825
-78.249
-77.774
-77.393
-77.1
-76.886
-76.743
-76.663
-76.635
-76.651
-76.7
-76.773
-76.859
-76.948
-77.03
-77.093
-77.128
-77.124
-77.072
-76.961
-76.78
-76.522
-76.176
-75.733
-75.187
-74.53
-73.756
-72.859
-71.835
-70.682
-69.397
-67.979
-66.426
-64.74
-62.921
-60.973
-58.898
-56.701
-54.388
-51.963
-49.436
-46.814
-44.105
-41.321
-38.471
-35.565
-32.615
-29.633
-26.632
-23.623
-20.62
-17.637
-14.687
-11.786
-8.951
-6.197
-3.54
-0.993
1.427
3.706
5.833
7.798
9.593
11.209
12.642
13.883
14.928
15.77
16.407
16.834
17.05
17.056
16.856
16.456
15.867
15.101
14.166
13.071
11.819
10.411
8.858
7.167
5.355
3.443
1.46
-0.562
-2.576
-4.541
-6.416
-8.161
-9.752
-11.166
-12.379
-13.37
-14.103
-14.54
-14.661
-14.453
-13.919
-13.088
-11.995
-10.688
-9.247
-7.743
-6.253
-4.866
-3.644
-2.646
-1.928
-1.507
-1.446
-1.86
-2.749
-4.017
-5.458
-6.681
-7.343
-7.206
-5.907
-3.04
1.533
7.764
15.18
22.798
29.809
35.651
39.724
41.635
41.469
39.646
37.492
37.236
40.829
50.123
66.99
92.739
128.31
173.301
224.787
278.956
331.974
381.778
429.797
476.135
518.211
549.99
559.17
535.468
474.79
377.699
255.091
123.225
-3.4
-109.229
-184.397
-229.027
-246.469
-244.346
-232.455
-213.318
-187.322
-156.715
-120.842
-83.756
-51.695
-24.866
-4.943
8.129
17.737
22.934
23.558
21.21
15.926
9.776
5.47
3.779
5.066
9.183
15.161
22.135
29.536
36.503
42.005
45.499
46.722
45.59
42.404
37.524
31.241
23.962
16.123
8.006
-0.169
-8.195
-15.92
-23.22
-29.989
-36.182
-41.788
-46.774
-51.096
-54.743
-57.726
-60.087
-61.892
-63.187
-63.996
-64.365
-64.357
-64.06
-63.597
-63.05
-62.465
-61.883
-61.328
-60.823
-60.39
-60.02
-59.679
-59.34
-58.976
-58.568
-58.111
-57.583
-56.956
-56.198
-55.268
-54.138
-52.794
-51.222
-49.409
-47.351
-45.042
-42.489
-39.707
-36.707
-33.495
-30.077
-26.455
-22.635
-18.627
-14.438
-10.078
-5.554
-0.875
3.951
8.914
14.006
19.218
24.543
29.973
35.499
41.111
46.796
52.541
58.332
64.154
69.992
75.829
81.649
87.435
93.172
98.841
104.426
109.911
115.278
120.508
125.586
130.493
135.212
139.726
144.018
148.073
151.876
155.41
158.663
161.622
164.274
166.608
168.615
170.286
171.613
172.589
173.212
173.476
173.381
172.926
172.112
170.942
169.421
167.555
165.351
162.817
159.964
156.803
153.346
149.607
145.602
141.346
136.857
132.152
127.251
122.172
116.935
111.559
106.065
100.471
94.797
89.061
83.284
77.481
71.67
65.868
60.091
54.353
48.668
43.049
37.505
32.049
26.689
21.432
16.285
11.253
6.34
1.549
-3.119
-7.662
-12.083
-16.382
-20.563
-24.629
-28.586
-32.438
-36.192
-39.854
-43.429
-46.925
-50.347
-53.702
-56.994
-60.229
-63.411
-66.544
-69.631
-72.674
-75.675
-78.633
-81.548
-84.418
-87.241
-90.012
-92.726
-95.377
-97.958
-100.462
-102.878
-105.197
-107.409
-109.502
-111.463
-113.279
-114.937
-116.422
-117.721
-118.819
-119.7
-120.351
-120.758
-120.907
-120.784
-120.38
-119.681
-118.68
-117.366
-115.734
-113.776
-111.489
-108.869
-105.917
-102.632
-99.017
-95.077
-90.818
-86.247
-81.376
-76.216
-70.78
-65.084
-59.143
-52.978
-46.606
-40.049
-33.33
-26.472
-19.5
-12.441
-5.321
1.833
8.992
16.128
23.212
30.216
37.112
43.871
50.466
56.873
63.063
69.014
74.702
80.105
85.203
89.977
94.41
98.487
102.195
105.525
108.467
111.016
113.167
114.919
116.271
117.226
117.789
117.965
117.764
117.197
116.277
115.021
113.447
111.575
109.429
107.034
104.419
101.612
98.643
95.544
92.347
89.088
85.798
82.51
79.259
76.078
73.003
70.069
67.311
64.761
62.453
60.419
58.689
57.297
56.269
55.626
55.391
55.583
56.224
57.342
58.954
61.067
63.684
66.802
70.409
74.49
79.01
83.912
89.134
94.611
100.274
106.067
111.921
117.757
123.491
129.028
134.283
139.192
143.69
147.715
151.219
154.171
156.582
158.515
160.051
161.278
162.278
163.132
163.933
164.765
165.732
166.942
168.475
170.416
172.842
175.783
179.288
183.429
188.129
193.181
198.255
202.84
206.462
208.778
209.355
207.638
203.204
195.905
185.919
173.763
160.055
144.373
126.268
106.608
85.469
