Name,Criss Capps
Date of Birth,"Feb 5, 1952"
Recorded Date,2021-10-18 12:58:07 -0400
Classification,Sinus Rhythm
Symptoms,
Software Version,1.90
Device,"Watch5,4"
Sample Rate,512.844 hertz


Lead,Lead I
Unit,µV

-230.851
-294.476
-317.03
-295.965
-245.803
-191.466
-153.007
-141.312
-154.734
-180.751
-205.968
-221.714
-225.784
-222.304
-217.422
-214.593
-214.566
-216.154
-217.21
-217.047
-216.112
-214.855
-213.79
-212.953
-211.872
-210.357
-208.392
-205.801
-202.525
-198.626
-194.245
-190.025
-186.346
-182.633
-178.595
-174.586
-172.685
-176.288
-186.282
-199.671
-209.389
-207.655
-191.236
-162.676
-129.362
-98.705
-74.209
-55.796
-40.426
-25.025
-9.727
3.773
12.98
14.42
9.311
2.608
-0.877
5.327
22.393
45.046
68.806
88.599
102.544
114.088
125.418
137.746
151.48
164.989
177.555
189.516
201.075
212.533
223.912
234.934
245.379
254.967
263.38
270.572
276.703
282.03
286.49
289.351
289.965
289.089
289.821
295.768
309.562
330.74
352.824
368.504
371.553
357.982
332.691
303.768
279.671
269.382
273.969
289.85
312.485
335.58
356.21
373.1
384.009
386.841
379.837
363.664
341.494
318.923
301.723
292.595
292.642
299.255
307.004
312.331
312.191
306.516
298.865
291.518
286.218
283.64
282.52
282.602
284.338
288.022
294.21
303.071
314.313
327.731
342.927
359.012
374.942
389.686
403.18
416.335
429.717
443.333
455.254
462.855
466.682
470.524
481.31
505.469
543.346
589.706
635.396
674.334
707.114
736.145
764.59
786.735
787.052
753.215
676.564
561.654
428.934
298.004
186.754
105.608
50.603
15.832
-5.471
-21.674
-34.663
-46.723
-62.972
-84.957
-116.393
-158.891
-207.081
-256.061
-298.11
-325.746
-337.296
-333.333
-319.673
-305.137
-297.659
-302.845
-319.837
-343.333
-365.752
-380.901
-387.77
-388.52
-387.171
-386.607
-387.079
-388.078
-387.943
-385.893
-383.173
-380.084
-378.892
-381.935
-386.322
-390.504
-390.805
-382.363
-369.541
-355.726
-344.518
-341.311
-341.992
-342.818
-342.03
-336.246
-328.005
-320.009
-312.626
-307.158
-302.974
-299.145
-295.977
-293.478
-291.69
-290.776
-290.592
-290.966
-291.831
-293.086
-294.619
-296.36
-298.262
-300.277
-302.359
-304.462
-306.519
-308.484
-310.321
-311.987
-313.46
-314.722
-315.777
-316.661
-317.396
-317.998
-318.481
-318.835
-319.046
-319.124
-319.081
-318.945
-318.791
-318.684
-318.687
-318.873
-319.28
-319.947
-320.928
-322.256
-323.965
-326.101
-328.662
-331.683
-335.244
-339.299
-343.717
-348.253
-352.467
-355.962
-358.447
-359.53
-358.804
-356.073
-351.236
-344.478
-336.374
-327.302
-317.493
-307.286
-296.834
-286.046
-274.815
-262.671
-248.665
-232.122
-211.717
-185.377
-151.938
-111.135
-64.829
-16.739
31.171
79.768
132.449
193.091
261.813
334.365
404.291
465.817
515.421
549.949
564.824
552.089
503.472
415.718
291.699
143.261
-12.776
-159.586
-282.342
-373.195
-428.539
-449.928
-441.685
-406.584
-352.813
-288.863
-224.511
-173.62
-141.139
-126.667
-125.795
-127.711
-127.386
-124.711
-121.574
-123.032
-130.456
-141.705
-153.874
-163.428
-168.904
-170.711
-169.505
-166.194
-161.536
-156.108
-150.839
-146.667
-144.03
-143.027
-143.498
-145.101
-147.533
-150.499
-153.594
-156.429
-158.802
-160.634
-161.952
-162.847
-163.369
-163.55
-163.451
-163.127
-162.621
-161.962
-161.164
-160.243
-159.233
-158.184
-157.143
-156.148
-155.213
-154.347
-153.551
-152.821
-152.15
-151.525
-150.927
-150.343
-149.761
-149.169
-148.555
-147.904
-147.196
-146.413
-145.534
-144.544
-143.429
-142.18
-140.787
-139.245
-137.549
-135.697
-133.688
-131.521
-129.193
-126.702
-124.049
-121.235
-118.261
-115.131
-111.85
-108.422
-104.857
-101.162
-97.346
-93.42
-89.395
-85.283
-81.097
-76.85
-72.558
-68.235
-63.896
-59.559
-55.239
-50.953
-46.718
-42.55
-38.466
-34.482
-30.614
-26.877
-23.286
-19.855
-16.597
-13.524
-10.65
-7.984
-5.538
-3.319
-1.337
0.402
1.891
3.124
4.097
4.808
5.254
5.434
5.349
5
4.389
3.52
2.397
1.026
-0.587
-2.434
-4.508
-6.798
-9.296
-11.99
-14.872
-17.928
-21.147
-24.517
-28.026
-31.66
-35.408
-39.257
-43.192
-47.202
-51.273
-55.392
-59.546
-63.722
-67.907
-72.089
-76.255
-80.393
-84.489
-88.533
-92.513
-96.418
-100.236
-103.959
-107.576
-111.078
-114.456
-117.703
-120.811
-123.772
-126.58
-129.23
-131.715
-134.03
-136.171
-138.134
-139.914
-141.508
-142.913
-144.127
-145.146
-145.97
-146.595
-147.02
-147.245
-147.269
-147.091
-146.712
-146.132
-145.352
-144.374
-143.2
-141.831
-140.272
-138.525
-136.592
-134.48
-132.19
-129.728
-127.099
-124.307
-121.359
-118.259
-115.014
-111.631
-108.114
-104.472
-100.712
-96.84
-92.864
-88.792
-84.632
-80.393
-76.085
-71.717
-67.298
-62.839
-58.349
-53.839
-49.319
-44.799
-40.29
-35.801
-31.342
-26.924
-22.555
-18.245
-14.004
-9.84
-5.762
-1.779
2.101
5.871
9.522
13.046
16.435
19.683
22.78
25.722
28.499
31.101
33.519
35.747
37.776
39.603
41.219
42.616
43.796
44.763
45.518
46.068
46.406
46.521
46.421
46.115
45.584
44.813
43.791
42.502
40.97
39.24
37.304
35.14
32.845
30.526
28.127
25.666
23.176
20.449
18.112
16.78
15.649
14.51
11.863
5.897
-1.3
-8.337
-13.15
-12.911
-10.057
-6.641
-4.065
-4.676
-6.759
-8.572
-9.735
-9.225
-7.707
-6.057
-4.214
-2.343
-0.454
1.548
3.489
5.196
6.604
7.655
8.258
8.306
7.754
6.608
5.008
3.296
1.868
1.108
1.457
3.379
7.171
12.976
20.62
29.445
38.657
47.516
55.24
61.115
64.748
66.106
65.772
65.262
66.555
71.697
82.854
102.269
131.888
173.163
226.877
291.72
364.255
440.636
516.339
588.059
655.369
717.327
771.38
812.085
829.666
813.467
756.543
658.279
524.575
368.442
205.739
51.748
-78.58
-176.446
-239.574
-270.601
-277.527
-266.669
-240.746
-202.148
-152.821
-99.411
-53.616
-23.248
-11.608
-15.428
-24.481
-32.156
-36.192
-36.919
-38.245
-41.396
-44.444
-45.6
-42.884
-35.691
-25.059
-12.226
1.588
15.173
27.377
37.492
45.221
50.496
53.576
54.776
54.374
52.798
50.574
48.061
45.478
42.944
40.466
38.114
36.032
34.319
33.056
32.296
32.063
32.388
33.305
34.814
36.875
39.419
42.352
45.59
49.082
52.774
56.616
60.536
64.438
68.245
71.899
75.363
78.62
81.651
84.445
87.006
89.358
91.531
93.566
95.492
97.327
99.094
100.816
102.526
104.267
106.07
107.954
109.937
112.03
114.24
116.579
119.047
121.634
124.333
127.137
130.039
133.037
136.124
139.291
142.53
145.825
149.161
152.537
155.946
159.381
162.84
166.304
169.753
173.189
176.612
179.988
183.286
186.48
189.536
192.461
195.282
197.968
200.475
202.889
205.316
207.681
209.983
212.237
214.194
216.503
219.796
223.156
226.308
227.576
224.96
220.676
216.201
213.734
216.301
221.234
226.274
229.879
229.489
226.943
224.106
221.393
219.941
219.09
217.984
216.771
215.329
213.704
212.064
210.295
208.296
206.069
203.579
200.779
197.638
194.147
190.317
186.165
181.712
176.997
172.079
167.001
161.797
156.416
150.69
144.478
137.7
130.299
122.34
114.085
105.767
97.778
90.908
85.778
82.768
82.317
83.699
85.574
87.825
89.563
90.676
92.28
91.872
86.742
74.736
52.425
21.8
-11.467
-42.727
-65.936
-78.589
-83.708
-83.341
-80.273
-77.096
-72.689
-67.088
-61.166
-55.123
-50.607
-48.656
-49.003
-51.389
-55.102
-59.182
-63.145
-66.655
-69.393
-71.314
-72.506
-73.102
-73.352
-73.538
-73.787
-74.12
-74.511
-74.878
-75.167
-75.355
-75.405
-75.277
-74.966
-74.49
-73.882
-73.176
-72.377
-71.472
-70.448
-69.303
-68.047
-66.705
-65.307
-63.88
-62.443
-61.013
-59.599
-58.203
-56.82
-55.434
-54.021
-52.567
-51.071
-49.534
-47.966
-46.38
-44.791
-43.22
-41.694
-40.222
-38.81
-37.455
-36.139
-34.854
-33.591
-32.339
-31.105
-29.891
-28.689
-27.508
-26.342
-25.175
-23.978
-22.7
-21.277
-19.681
-17.9
-15.94
-13.846
-11.66
-9.438
-7.262
-5.194
-3.283
-1.583
-0.117
1.09
1.985
2.507
2.568
2.058
0.915
-0.897
-3.397
-6.551
-10.308
-14.587
-19.252
-24.179
-29.272
-34.437
-39.617
-44.762
-49.786
-54.597
-59.084
-63.111
-66.581
-69.425
-71.576
-73.03
-73.813
-73.997
-73.725
-73.13
-72.325
-71.422
-70.505
-69.659
-69
-68.632
-68.672
-69.296
-70.584
-72.545
-75.118
-78.039
-80.989
-83.644
-85.551
-86.237
-85.437
-82.986
-78.992
-74.058
-68.803
-63.853
-59.897
-57.25
-56.037
-56.405
-57.911
-59.323
-58.423
-51.932
-37.178
-13.064
19.023
56.194
97.632
144.793
201.867
273.33
358.534
452.908
549.224
639.085
716.416
775.245
807.582
804.805
760.275
673.121
549.655
403.143
248.137
96.235
-41.591
-159.548
-254.155
-320.029
-357.727
-367.886
-350.828
-314.425
-265.53
-212.821
-168.847
-138.364
-122.45
-118.891
-119.59
-120.529
-120.997
-121.651
-125.981
-134.658
-145.784
-156.884
-164.744
-167.954
-166.777
-161.794
-154.013
-144.403
-133.707
-122.989
-113.358
-105.451
-99.572
-95.737
-93.717
-93.235
-94.014
-95.665
-97.758
-100.057
-102.449
-104.894
-107.433
-110.077
-112.793
-115.552
-118.307
-120.936
-123.308
-125.323
-126.895
-128.001
-128.649
-128.845
-128.618
-127.996
-127.003
-125.666
-124.003
-122.015
-119.716
-117.139
-114.335
-111.392
-108.39
-105.38
-102.395
-99.453
-96.557
-93.712
-90.907
-88.117
-85.317
-82.488
-79.616
-76.702
-73.738
-70.707
-67.584
-64.333
-60.927
-57.351
-53.592
-49.645
-45.508
-41.184
-36.682
-32.023
-27.228
-22.313
-17.294
-12.182
-6.993
-1.746
3.538
8.838
14.133
19.404
24.631
29.791
34.864
39.829
44.67
49.37
53.911
58.276
62.447
66.406
70.138
73.626
76.857
79.815
82.49
84.87
86.946
88.712
90.161
91.289
92.092
92.57
92.723
92.551
92.059
91.25
90.13
88.704
86.982
84.972
82.684
80.129
77.318
74.267
70.988
67.496
63.808
59.939
55.906
51.728
47.422
43.005
38.497
33.916
29.281
24.611
19.924
15.239
10.573
5.945
1.371
-3.131
-7.547
-11.859
-16.054
-20.116
-24.031
-27.787
-31.37
-34.769
-37.973
-40.971
-43.754
-46.313
-48.642
-50.732
-52.578
-54.176
-55.521
-56.611
-57.442
-58.016
-58.331
-58.389
-58.194
-57.748
-57.057
-56.126
-54.962
-53.572
-51.965
-50.15
-48.135
-45.931
-43.549
-41
-38.296
-35.45
-32.474
-29.382
-26.189
-22.907
-19.551
-16.135
-12.673
-9.179
-5.667
-2.152
1.353
4.833
8.276
11.668
14.996
18.25
21.419
24.493
27.465
30.328
33.076
35.705
38.212
40.597
42.856
44.99
46.997
48.878
50.635
52.269
53.784
55.182
56.47
57.657
58.751
59.766
60.71
61.596
62.434
63.235
64.01
64.77
65.523
66.28
67.053
67.856
68.71
69.633
70.632
71.709
72.863
74.083
75.363
76.692
78.054
79.437
80.837
82.258
83.72
85.243
86.831
88.482
90.176
91.896
93.642
95.418
97.228
99.092
101.025
103.045
105.195
107.496
109.936
112.486
115.075
117.618
120.059
122.357
124.481
126.411
128.11
129.535
130.658
131.433
131.811
131.739
131.132
129.929
128.121
125.732
122.834
119.541
115.935
112.085
108.06
103.907
99.688
95.474
91.309
87.246
83.343
79.648
76.254
73.254
70.704
68.636
67.015
65.727
64.687
63.871
63.197
62.568
61.788
60.523
58.608
56.049
52.879
49.149
44.899
40.216
35.518
31.604
29.101
28.313
29.288
31.845
35.901
41.344
47.628
53.634
58.172
60.479
60.251
57.641
52.934
46.355
38.391
30.318
23.963
21.73
26.564
40.493
64.307
96.797
135.169
178.156
226.505
283.425
352.645
433.627
522.069
611.108
692.759
761.1
810.525
834.024
824.2
774.934
684.654
557.575
404.229
238.794
76.504
-67.159
-181.515
-260.943
-305.989
-322.468
-315.987
-293.778
-261.457
-225.133
-194.159
-172.505
-161.501
-158.153
-153.487
-143.895
-129.4
-112.031
-97.69
-88.762
-84.356
-83.713
-84.919
-86.573
-88.591
-90.521
-91.671
-91.922
-91.337
-89.893
-87.777
-85.298
-82.649
-80.286
-78.858
-78.554
-79.284
-80.873
-82.992
-85.397
-87.967
-90.474
-92.601
-94.17
-95.08
-95.293
-94.885
-93.906
-92.369
-90.324
-87.855
-85.056
-82.056
-78.999
-75.989
-73.095
-70.374
-67.85
-65.556
-63.518
-61.75
-60.253
-59.018
-58.036
-57.304
-56.824
-56.58
-56.544
-56.668
-56.888
-57.153
-57.423
-57.668
-57.861
-57.979
-57.998
-57.904
-57.692
-57.355
-56.885
-56.265
-55.481
-54.519
-53.373
-52.041
-50.522
-48.818
-46.926
-44.851
-42.596
-40.165
-37.565
-34.798
-31.87
-28.785
-25.555
-22.191
-18.706
-15.116
-11.436
-7.685
-3.882
-0.046
3.803
7.645
11.461
15.23
18.934
22.553
26.068
29.461
32.714
35.809
38.729
41.457
43.979
46.281
48.348
50.171
51.737
53.039
54.07
54.822
55.292
55.476
55.372
54.978
54.296
53.326
52.073
50.54
48.735
46.663
44.334
41.758
38.945
35.907
32.652
29.193
25.541
21.71
17.716
13.569
9.28
4.87
0.357
-4.238
-8.895
-13.605
-18.366
-23.155
-27.947
-32.753
-37.576
-42.418
-47.287
-52.154
-56.972
-61.751
-66.514
-71.16
-75.574
-79.81
-83.854
-87.681
-91.514
-94.723
-96.697
-98.297
-99.783
-102.746
-109.091
-116.702
-124.171
-129.402
-129.513
-127.053
-124.183
-122.383
-124.102
-127.593
-131.09
-134.201
-135.851
-136.671
-137.471
-138.104
-138.676
-139.142
-139.343
-139.394
-139.387
-139.301
-139.138
-138.915
-138.638
-138.307
-137.927
-137.49
-136.986
-136.429
-135.836
-135.21
-134.562
-133.896
-133.218
-132.537
-131.86
-131.189
-130.528
-129.878
-129.241
-128.618
-128.011
-127.42
-126.847
-126.292
-125.757
-125.242
-124.748
-124.275
-123.818
-123.374
-122.938
-122.502
-122.057
-121.597
-121.113
-120.599
-120.046
-119.449
-118.804
-118.103
-117.339
-116.5
-115.57
-114.538
-113.397
-112.142
-110.777
-109.308
-107.753
-106.128
-104.453
-102.745
-101.009
-99.246
-97.443
-95.589
-93.67
-91.681
-89.633
-87.533
-85.386
-83.194
-80.952
-78.64
-76.231
-73.688
-70.969
-68.049
-64.922
-61.61
-58.162
-54.639
-51.122
-47.672
-44.335
-41.147
-38.139
-35.347
-32.811
-30.587
-28.741
-27.345
-26.485
-26.224
-26.592
-27.581
-29.137
-31.167
-33.555
-36.197
-39.01
-41.927
-44.891
-47.846
-50.728
-53.461
-55.971
-58.176
-59.984
-61.318
-62.136
-62.442
-62.298
-61.82
-61.147
-60.398
-59.677
-59.077
-58.682
-58.579
-58.869
-59.613
-60.878
-62.766
-65.312
-68.515
-72.285
-76.335
-80.3
-83.834
-86.532
-87.98
-87.922
-86.143
-82.647
-77.908
-72.459
-66.751
-61.203
-56.174
-51.985
-48.909
-46.866
-44.265
-38.588
-28.005
-11.524
9.408
32.157
57.099
87.61
129.459
187.665
261.256
343.431
424.924
499.184
564.692
622.229
670.452
701.21
701.055
658.713
570.091
440.678
285.758
122.748
-32.861
-167.095
-272.875
-347.732
-392.078
-411.859
-412.102
-395.615
-365.859
-325.142
-278.225
-233.76
-197.856
-173.577
-160.054
-151.305
-143.268
-134.516
-125.493
-119.357
-116.988
-117.157
-118.02
-116.739
-112.125
-104.529
-94.477
-82.935
-70.85
-58.819
-47.706
-38.466
-31.526
-27.013
-24.859
-24.722
-26.263
-29.166
-32.978
-37.237
-41.66
-46.039
-50.219
-54.084
-57.47
-60.247
-62.37
-63.825
-64.616
-64.739
-64.192
-63.003
-61.239
-58.984
-56.325
-53.321
-50.013
-46.464
-42.75
-38.976
-35.256
-31.661
-28.233
-25.006
-21.993
-19.207
-16.649
-14.291
-12.09
-10.011
-8.02
-6.096
-4.226
-2.384
-0.539
1.344
3.308
5.381
7.58
9.922
12.415
15.067
17.879
20.842
23.94
27.161
30.495
33.936
37.476
41.107
44.817
48.593
52.421
56.289
60.183
64.088
67.991
71.876
75.731
79.543
83.3
86.989
90.597
94.11
97.513
100.792
103.933
106.925
109.752
112.405
114.872
117.144
119.213
121.072
122.714
124.135
125.33
126.296
127.031
127.533
127.803
127.842
127.65
127.231
126.589
125.727
124.652
123.37
121.889
120.216
118.361
116.334
114.144
111.803
109.321
106.712
103.987
101.157
98.236
95.237
92.171
89.052
85.893
82.705
79.5
76.291
73.09
69.906
66.753
63.639
60.577
57.576
54.645
51.796
49.035
46.373
43.817
41.374
39.053
36.858
34.796
32.872
31.09
29.455
27.968
26.634
25.453
24.427
23.557
22.842
22.282
21.877
21.624
21.522
21.568
21.758
22.09
22.559
23.161
23.891
24.743
25.712
26.792
27.976
29.258
30.63
32.085
33.615
35.213
36.87
38.58
40.332
42.121
43.937
45.773
47.621
49.475
51.326
53.169
54.996
56.802
58.58
60.327
62.036
63.704
65.328
66.903
68.427
69.897
71.313
72.672
73.975
75.22
76.409
77.543
78.623
79.652
80.633
81.569
82.463
83.321
84.147
84.945
85.721
86.481
87.23
87.974
88.719
89.472
90.237
91.022
91.83
92.667
93.538
94.446
95.394
96.386
97.424
98.508
99.64
100.821
102.049
103.324
104.642
106.003
107.401
108.832
110.288
111.762
113.244
114.726
116.197
117.649
119.068
120.447
121.775
123.045
124.248
125.372
126.406
127.339
128.16
128.86
129.431
129.864
130.15
130.287
130.276
130.118
129.812
129.352
128.726
127.926
126.952
125.8
124.475
122.984
121.335
119.55
117.665
115.71
113.721
111.721
109.727
107.766
105.87
104.074
102.427
100.965
99.715
98.703
97.929
97.379
97.025
96.817
96.698
96.598
96.419
96.09
95.573
94.801
93.725
92.244
90.159
87.377
83.948
79.902
75.292
70.383
65.498
60.965
57.432
54.785
51.965
49.054
46.497
45.409
48.563
55.106
61.172
63.081
56.076
40.786
23.368
9.377
4.758
11.866
29.029
55.846
91.968
137.461
192.504
254.093
318.086
380.699
439.067
494.106
546.935
594.86
631.875
646.634
626.847
568.006
472.178
348.023
209.601
67.551
-68.481
-188.304
-283.968
-347.113
-374.251
-368.284
-336.857
-292.179
-244.658
-203.07
-173.318
-155.418
-147.889
-146.64
-146.189
-144.886
-142.669
-141.04
-142.623
-147.272
-153.299
-158.551
-160.758
-159.322
-154.711
-147.617
-139.132
-130.24
-121.816
-114.904
-110.141
-107.731
-107.711
-109.875
-113.915
-119.512
-126.219
-133.52
-141.084
-148.72
-156.285
-163.693
-170.786
-177.377
-183.371
-188.719
-193.386
-197.342
-200.55
-202.977
-204.653
-205.649
-206.05
-205.944
-205.385
-204.42
-203.116
-201.558
-199.852
-198.094
-196.338
-194.618
-192.957
-191.371
-189.874
-188.466
-187.117
-185.791
-184.452
-183.072
-181.636
-180.123
-178.506
-176.751
-174.819
-172.679
-170.315
-167.715
-164.87
-161.773
-158.42
-154.815
-150.973
-146.906
-142.626
-138.14
-133.455
-128.579
-123.526
-118.309
-112.944
-107.444
-101.822
-96.093
-90.272
-84.375
-78.418
-72.415
-66.381
-60.329
-54.279
-48.246
-42.25
-36.307
-30.437
-24.656
-18.983
-13.436
-8.03
-2.783
2.293
7.181
11.869
16.343
20.592
24.605
28.371
31.881
35.127
38.1
40.794
43.204
45.326
47.156
48.691
49.931
50.877
51.529
51.889
51.963
51.754
51.267
50.511
49.493
48.221
46.704
44.955
42.983
40.802
38.423
35.86
33.127
30.238
27.206
24.047
20.775
17.405
13.953
10.435
6.865
3.261
-0.362
-3.988
-7.602
-11.187
-14.728
-18.209
-21.617
-24.937
-28.155
-31.258
-34.233
-37.068
-39.753
-42.277
-44.631
-46.806
-48.796
-50.593
-52.193
-53.591
-54.784
-55.769
-56.545
-57.11
-57.467
-57.614
-57.555
-57.292
-56.83
-56.172
-55.324
-54.294
-53.087
-51.713
-50.18
-48.497
-46.674
-44.723
-42.654
-40.479
-38.211
-35.862
-33.445
-30.972
-28.457
-25.911
-23.347
-20.778
-18.214
-15.668
-13.15
-10.671
-8.239
-5.866
-3.56
-1.33
0.818
2.875
4.835
6.692
8.441
10.078
11.599
13.001
14.281
15.439
16.472
17.382
18.169
18.833
19.379
19.808
20.125
20.334
20.44
20.448
20.363
20.191
19.938
19.609
19.211
18.747
18.225
17.65
17.025
16.358
15.652
14.911
14.139
13.339
12.514
11.665
10.793
9.897
8.976
8.03
7.054
6.049
5.009
3.935
2.823
1.673
0.48
-0.757
-2.044
-3.385
-4.785
-6.247
-7.778
-9.38
-11.056
-12.804
-14.62
-16.499
-18.441
-20.449
-22.531
-24.693
-26.936
-29.26
-31.66
-34.133
-36.663
-39.232
-41.803
-44.338
-46.813
-49.207
-51.509
-53.71
-55.77
-57.639
-59.273
-60.625
-61.67
-62.408
-62.798
-62.802
-62.497
-61.961
-61.31
-60.702
-60.15
-59.626
-59.265
-59.185
-59.345
-59.804
-60.56
-61.493
-62.82
-64.698
-66.908
-69.29
-71.831
-74.3
-76.568
-78.676
-80.199
-80.943
-81.32
-81.589
-81.854
-82.411
-83.295
-84.291
-85.595
-86.968
-87.34
-85.692
-80.976
-71.833
-57.172
-36.16
-7.451
29.91
75.918
130.565
192.54
258.39
324.761
388.042
445.806
499.831
551.128
597.575
633.465
645.624
621.108
553.794
443.675
301.719
144.987
-10.322
-147.524
-254.732
-327.102
-365.555
-377.035
-371.379
-355.744
-331.194
-297.486
-254.22
-204.828
-160.251
-128.456
-113.269
-113.351
-119.509
-125.408
-128.812
-129.483
-130.814
-133.957
-137.091
-138.661
-137.01
-131.646
-123.518
-113.665
-103.026
-92.602
-83.45
-76.213
-71.121
-68.188
-67.109
-67.515
-69.118
-71.47
-74.005
-76.39
-78.44
-80.076
-81.369
-82.336
-82.926
-83.128
-82.922
-82.273
-81.169
-79.595
-77.536
-75.048
-72.216
-69.161
-66.04
-62.967
-60.023
-57.281
-54.777
-52.542
-50.619
-49.046
-47.878
-47.196
-47.064
-47.517
-48.564
-50.17
-52.286
-54.836
-57.713
-60.804
-63.983
-67.135
-70.18
-73.054
-75.693
-78.02
-79.938
-81.317
-82.051
-82.066
-81.316
-79.784
-77.463
-74.371
-70.56
-66.121
-61.176
-55.827
-50.147
-44.188
-38.002
-31.654
-25.233
-18.843
-12.565
-6.458
-0.57
5.063
10.405
15.442
20.188
24.691
29.019
33.218
37.31
41.302
45.196
49.003
52.741
56.426
60.059
63.635
67.15
70.601
73.986
77.293
80.492
83.543
86.397
89.018
91.384
93.479
95.29
96.807
98.023
98.933
99.539
99.854
99.882
99.629
99.101
98.298
97.218
95.884
94.32
92.517
90.47
88.179
85.636
82.868
79.92
76.782
73.429
69.958
66.482
62.955
59.396
55.839
52.08
48.723
46.353
44.169
41.939
38.175
31.093
22.696
14.322
7.956
6.32
7.028
8.06
8.032
4.655
-0.417
-5.51
-10.244
-13.596
-16.149
-18.658
-20.972
-23.185
-25.243
-26.991
-28.528
-29.935
-31.186
-32.279
-33.226
-34.029
-34.687
-35.201
-35.563
-35.762
-35.812
-35.728
-35.514
-35.177
-34.728
-34.172
-33.521
-32.786
-31.976
-31.098
-30.164
-29.182
-28.163
-27.116
-26.053
-24.983
-23.915
-22.86
-21.828
-20.825
-19.861
-18.943
-18.074
-17.261
-16.505
-15.809
-15.173
-14.6
-14.088
-13.638
-13.251
-12.925
-12.662
-12.461
-12.322
-12.242
-12.216
-12.241
-12.309
-12.415
-12.55
-12.705
-12.871
-13.036
-13.195
-13.34
-13.462
-13.549
-13.584
-13.555
-13.455
-13.282
-13.033
-12.713
-12.326
-11.884
-11.414
-10.938
-10.478
-10.056
-9.671
-9.325
-9.022
-8.765
-8.56
-8.401
-8.266
-8.124
-7.955
-7.733
-7.432
-7.012
-6.404
-5.548
-4.403
-2.937
-1.152
0.935
3.309
5.943
8.787
11.776
14.815
17.801
20.657
23.309
25.673
27.655
29.125
29.973
30.122
29.513
28.123
25.952
23.012
19.354
15.074
10.286
5.123
-0.278
-5.828
-11.434
-16.977
-22.321
-27.302
-31.772
-35.648
-38.854
-41.302
-42.983
-43.951
-44.346
-44.474
-44.628
-44.929
-45.483
-46.343
-47.346
-48.362
-49.242
-49.476
-48.625
-46.582
-43.215
-38.633
-33.392
-27.785
-22.022
-16.825
-12.747
-10.067
-9.314
-10.595
-13.388
-17.479
-22.758
-28.663
-34.723
-40.52
-44.426
-44.158
-38.314
-25.423
-5.345
19.288
47.21
79.323
117.563
166.781
230.876
308.46
396.295
489.15
578.964
659.125
720.998
753.253
747.388
697.92
605.42
477.288
325.007
162.355
4.078
-135.21
-245.197
-319.831
-359.587
-370.253
-357.167
-328.217
-290.067
-249.535
-216.536
-194.848
-184.585
-182.085
-178.686
-171.092
-160.164
-148.476
-141.168
-139.885
-143.21
-149.361
-155.689
-160.535
-163.345
-163.822
-162.086
-158.371
-152.912
-146.046
-138.203
-129.973
-122.052
-114.856
-108.532
-103.071
-98.291
-94.016
-90.075
-86.187
-82.051
-77.498
-72.481
-67.059
-61.386
-55.615
-49.89
-44.357
-39.138
-34.326
-29.958
-26.044
-22.563
-19.475
-16.765
-14.44
-12.5
-10.944
-9.766
-8.928
-8.38
-8.059
-7.872
-7.747
-7.629
-7.469
-7.247
-6.965
-6.633
-6.296
-5.99
-5.725
-5.506
-5.323
-5.159
-5.009
-4.869
-4.73
-4.599
-4.478
-4.365
-4.259
-4.148
-4.008
-3.809
-3.507
-3.059
-2.436
-1.619
-0.593
0.645
2.1
3.773
5.653
7.735
10.013
12.479
15.131
17.958
20.947
24.079
27.336
30.692
34.128
37.621
41.148
44.688
48.221
51.726
55.186
58.583
61.896
65.106
68.192
71.135
73.913
76.509
78.903
81.077
83.016
84.703
86.128
87.278
88.144
88.717
88.99
88.959
88.621
87.973
87.015
85.75
84.179
82.307
80.142
77.692
74.965
71.974
68.731
65.25
61.546
57.634
53.532
49.256
44.825
40.258
35.574
30.793
25.935
21.023
16.076
11.116
6.164
1.241
-3.633
-8.438
-13.155
-17.766
-22.252
-26.598
-30.787
-34.803
-38.633
-42.264
-45.683
-48.879
-51.844
-54.57
-57.049
-59.278
-61.25
-62.966
-64.422
-65.619
-66.558
-67.241
-67.673
-67.858
-67.802
-67.513
-66.998
-66.269
-65.335
-64.207
-62.898
-61.419
-59.783
-58.004
-56.094
-54.068
-51.94
-49.723
-47.432
-45.082
-42.688
-40.263
-37.821
-35.378
-32.945
-30.537
-28.166
-25.843
-23.581
-21.39
-19.281
-17.262
-15.344
-13.533
-11.835
-10.256
-8.8
-7.468
-6.26
-5.175
-4.213
-3.37
-2.644
-2.032
-1.531
-1.138
-0.851
-0.664
-0.574
-0.574
-0.655
-0.806
-1.018
-1.278
-1.575
-1.895
-2.223
-2.546
-2.854
-3.137
-3.381
-3.572
-3.688
-3.714
-3.643
-3.469
-3.19
-2.811
-2.334
-1.773
-1.156
-0.505
0.157
0.816
1.472
2.128
2.784
3.438
4.086
4.733
5.405
6.129
6.927
7.825
8.849
10.038
11.462
13.177
15.22
17.617
20.355
23.406
26.744
30.329
34.106
38.002
41.911
45.714
49.319
52.635
55.569
58.027
59.871
60.982
61.275
60.675
59.152
56.709
53.347
49.095
44.027
38.236
31.86
25.073
18.012
10.807
3.586
-3.533
-10.397
-16.854
-22.781
-28.062
-32.608
-36.37
-39.302
-41.385
-42.654
-43.173
-43.052
-42.455
-41.525
-40.398
-39.209
-38.081
-37.16
-36.594
-36.526
-37.131
-38.505
-40.642
-43.46
-46.738
-50.188
-53.535
-56.397
-58.279
-58.862
-58.004
-55.801
-52.753
-49.404
-46.227
-43.744
-42.36
-42.299
-43.572
-45.705
-47.707
-47.601
-42.579
-30.415
-9.081
21.217
57.558
99.133
145.575
198.533
263.621
341.756
431.267
528.721
624.54
710.631
778.439
816.921
818.594
778.036
694.86
575.747
431.756
276.753
124.763
-10.948
-121.163
-201.59
-252.259
-277.973
-283.607
-272.641
-248.02
-213.202
-174.251
-137.63
-108.203
-86.93
-70.483
-56.132
-43.004
-32.007
-26.056
-26.452
-32.139
-41.337
-51.449
-60.104
-66.062
-68.844
-68.522
-65.593
-60.715
-54.455
-47.451
-40.59
-34.696
-30.225
-27.325
-25.847
-25.438
-25.797
-26.625
-27.53
-28.15
-28.273
-27.805
-26.768
-25.252
-23.319
-21.017
-18.417
-15.587
-12.581
-9.443
-6.2
-2.879
0.473
3.797
7.037
10.15
13.112
15.914
18.549
21.019
23.332
25.501
27.544
29.474
31.301
33.036
34.69
36.278
37.82
39.334
40.839
42.353
43.889
45.459
47.073
48.739
50.462
52.247
54.099
56.022
58.023
60.107
62.28
64.546
66.909
69.371
71.934
74.598
77.362
80.224
83.18
86.228
89.363
92.58
95.873
99.236
102.662
106.143
109.671
113.236
116.829
120.438
124.053
127.663
131.254
134.816
138.335
141.8
145.196
148.51
151.73
154.842
157.833
160.688
163.394
165.939
168.308
170.49
172.47
174.239
175.783
177.094
178.159
178.969
179.516
179.791
179.785
179.494
178.909
178.026
176.841
175.35
173.551
171.443
169.027
166.303
163.274
159.943
156.315
152.397
148.194
143.717
138.974
133.976
128.736
123.267
117.584
111.7
105.634
99.402
93.022
86.513
79.893
73.184
66.404
59.576
52.719
45.855
39.005
32.191
25.432
18.75
12.164
5.694
-0.642
-6.824
-12.837
-18.665
-24.291
-29.704
-34.889
-39.836
-44.534
-48.977
-53.156
-57.067
-60.705
-64.069
-67.157
-69.97
-72.51
-74.78
-76.784
-78.529
-80.022
-81.271
-82.286
-83.076
-83.655
-84.032
-84.223
-84.239
-84.096
-83.808
-83.389
-82.856
-82.222
-81.504
-80.716
-79.873
-78.991
-78.082
-77.16
-76.238
-75.329
-74.442
-73.589
-72.779
-72.02
-71.319
-70.684
-70.118
-69.628
-69.215
-68.881
-68.628
-68.455
-68.361
-68.343
-68.398
-68.522
-68.711
-68.958
-69.258
-69.603
-69.985
-70.397
-70.83
-71.274
-71.72
-72.157
-72.576
-72.967
-73.319
-73.625
-73.873
-74.057
-74.166
-74.194
-74.133
-73.977
-73.72
-73.357
-72.884
-72.301
-71.606
-70.802
-69.892
-68.878
-67.765
-66.562
-65.28
-63.921
-62.49
-60.995
-59.44
-57.843
-56.227
-54.596
-52.955
-51.342
-49.791
-48.33
-46.998
-45.793
-44.701
-43.756
-43.01
-42.386
-41.791
-41.298
-40.912
-40.626
-40.682
-40.478
-39.425
-38.371
-37.574
-38.584
-43.259
-49.511
-55.924
-60.416
-60.137
-57.552
-54.759
-53.182
-55.186
-59.034
-62.952
-66.523
-68.675
-69.998
-71.263
-72.323
-73.279
-74.108
-74.734
-75.331
-76.051
-76.928
-77.971
-79.22
-80.727
-82.531
-84.702
-87.292
-90.293
-93.746
-97.716
-102.176
-107.055
-112.159
-117.047
-121.255
-124.402
-126.076
-125.917
-123.719
-119.349
-112.978
-105.27
-97.048
-89.042
-81.879
-76.13
-72.184
-70.181
-69.785
-69.118
-65.2
-55.644
-38.842
-15.322
12.837
45.795
85.721
136.411
201.573
280.141
367.224
456.082
539.942
614.092
672.911
708.613
711.547
672.905
590.765
470.177
323.025
164.34
6.814
-137.357
-259.543
-353.16
-412.081
-436.361
-427.861
-392.147
-340.428
-282.057
-227.651
-186.329
-159.645
-146.718
-142.905
-141.006
-138.364
-134.656
-131.43
-131.808
-135.875
-141.715
-146.747
-148.305
-145.671
-139.353
-130.165
-119.271
-107.62
-96.136
-86.004
-77.947
-72.201
-68.777
-67.363
-67.581
-69.111
-71.476
-74.115
-76.644
-78.82
-80.527
-81.782
-82.568
-82.825
-82.517
-81.633
-80.169
-78.14
-75.558
-72.433
-68.804
-64.742
-60.352
-55.754
-51.06
-46.375
-41.77
-37.295
-32.999
-28.918
-25.09
-21.542
-18.283
-15.31
-12.617
-10.2
-8.045
-6.137
-4.439
-2.91
-1.508
-0.19
1.074
2.304
3.521
4.74
5.973
7.229
8.512
9.82
11.156
12.524
13.93
15.376
16.864
18.389
19.95
21.542
23.161
24.804
26.468
28.15
29.847
31.557
33.278
35.008
36.745
38.482
40.215
41.935
43.636
45.311
46.952
48.55
50.099
51.591
53.019
54.379
55.663
56.866
57.983
59.007
59.935
60.761
61.481
62.089
62.583
62.959
63.213
63.343
63.347
63.222
62.967
62.581
62.061
61.408
60.621
59.7
58.645
57.457
56.139
54.691
53.116
51.416
49.595
47.655
45.599
43.431
41.154
38.772
36.289
33.708
31.036
28.276
25.434
22.515
19.526
16.473
13.362
10.2
6.995
3.753
0.483
-2.807
-6.108
-9.413
-12.711
-15.994
-19.254
-22.481
-25.667
-28.804
-31.881
-34.893
-37.83
-40.685
-43.449
-46.117
-48.68
-51.132
-53.467
-55.679
-57.764
-59.717
-61.534
-63.213
-64.75
-66.144
-67.393
-68.498
-69.458
-70.275
-70.949
-71.485
-71.884
-72.151
-72.29
-72.308
-72.209
-72.001
-71.689
-71.28
-70.783
-70.204
-69.551
-68.832
-68.055
-67.229
-66.361
-65.46
-64.534
-63.59
-62.636
-61.678
-60.724
-59.779
-58.846
-57.932
-57.042
-56.183
-55.358
-54.571
-53.821
-53.109
-52.443
-51.82
-51.228
-50.656
-50.092
-49.531
-48.988
-48.461
-47.927
-47.395
-46.897
-46.459
-46.107
-45.841
-45.602
-45.37
-45.191
-45.004
-44.61
-43.959
-43.104
-42.016
-40.895
-39.36
-36.203
-31.665
-26.858
-23.589
-25.284
-31.78
-39.628
-45.408
-44.262
-35.824
-24.715
-14.51
-9.056
-9.083
-11.16
-13.169
-13.689
-12.279
-10.357
-8.585
-6.927
-5.447
-3.948
-2.39
-0.978
0.213
1.202
1.97
2.497
2.779
2.812
2.608
2.198
1.591
0.77
-0.273
-1.546
-3.058
-4.806
-6.788
-9
-11.428
-14.052
-16.844
-19.76
-22.758
-25.797
-28.839
-31.861
-34.832
-37.716
-40.469
-43.04
-45.377
-47.454
-49.241
-50.717
-51.888
-52.773
-53.421
-53.922
-54.351
-54.783
-55.301
-55.971
-56.875
-58.116
-59.76
-61.89
-64.62
-67.976
-71.938
-76.409
-81.1
-85.66
-89.774
-93.051
-95.078
-95.599
-94.451
-91.73
-87.983
-83.889
-80.013
-76.806
-74.701
-74.045
-74.983
-77.2
-78.803
-76.614
-67.904
-51.288
-28.459
-2.984
23.374
52.624
92.205
149.857
228.856
326.067
428.734
523.548
600.703
651.754
675.851
672.162
636.611
570.647
474.803
351.539
211.419
62.972
-82.797
-212.062
-317.518
-392.576
-435.071
-448.59
-436.453
-405.672
-364.279
-320.682
-282.972
-253.892
-232.261
-213.239
-192.274
-169.06
-146.006
-127.224
-115.259
-109.676
-108.568
-109.231
-109.606
-108.564
-105.25
-99.475
-91.499
-81.695
-70.7
-59.21
-47.867
-37.44
-28.718
-22.118
-17.7
-15.309
-14.603
-15.245
-16.948
-19.35
-22.047
-24.756
-27.272
-29.468
-31.296
-32.667
-33.509
-33.795
-33.528
-32.733
-31.441
-29.682
-27.487
-24.909
-22.001
-18.818
-15.407
-11.806
-8.075
-4.273
-0.464
3.272
6.887
10.351
13.645
16.77
19.743
22.579
25.307
27.969
30.593
33.21
35.846
38.514
41.241
44.053
46.982
50.066
53.335
56.805
60.493
64.407
68.549
72.918
77.508
82.303
87.291
92.461
97.803
103.309
108.969
114.767
120.687
126.71
132.818
138.99
145.208
151.449
157.692
163.917
170.104
176.233
182.286
188.24
194.076
199.77
205.302
210.651
215.797
220.72
225.401
229.823
233.97
237.827
241.381
244.621
247.534
250.112
252.347
254.232
255.762
256.933
257.742
258.188
258.273
257.997
257.365
256.382
255.054
253.389
251.397
249.088
246.473
243.566
240.38
236.93
233.231
229.298
225.15
220.803
216.274
211.583
206.747
201.786
196.716
191.556
186.324
181.038
175.714
170.371
165.024
159.691
154.385
149.124
143.921
138.791
133.745
128.797
123.957
119.237
114.645
110.189
105.879
101.719
97.715
93.873
90.194
86.683
83.339
80.164
77.157
74.317
71.642
69.128
66.772
64.57
62.516
60.605
58.831
57.187
55.668
54.264
52.97
51.776
50.676
49.662
48.724
47.856
47.049
46.296
45.588
44.919
44.28
43.664
43.066
42.477
41.894
41.308
40.717
40.115
39.497
38.861
38.203
37.522
36.814
36.079
35.316
34.525
33.707
32.862
31.994
31.103
30.193
29.267
28.33
27.385
26.435
25.487
24.544
23.612
22.695
21.799
20.928
20.089
19.287
18.528
17.815
17.156
16.554
16.014
15.54
15.136
14.807
14.554
14.382
14.291
14.285
14.364
14.529
14.777
15.108
15.517
16.002
16.554
17.167
17.833
18.542
19.285
20.053
20.835
21.619
22.393
23.149
23.872
24.551
25.17
25.715
26.171
26.524
26.761
26.867
26.83
26.635
26.269
25.726
24.996
24.069
22.934
21.578
19.992
18.178
16.137
13.877
11.407
8.74
5.896
2.909
-0.188
-3.363
-6.587
-9.84
-13.097
-16.327
-19.499
-22.577
-25.532
-28.352
-31.027
-33.543
-35.905
-38.117
-40.208
-42.236
-44.264
-46.352
-48.56
-50.935
-53.515
-56.337
-59.436
-62.851
-66.621
-70.762
-75.285
-80.19
-85.467
-91.148
-97.187
-103.398
-109.482
-114.988
-119.431
-122.434
-123.617
-122.507
-118.839
-112.658
-104.359
-94.917
-85.423
-76.688
-69.521
-64.692
-62.53
-62.805
-64.546
-65.705
-63.936
-57.132
-43.037
-19.607
14.679
60.052
114.881
176.181
240.095
304.214
367.51
428.096
483.563
527.73
551.199
546.095
505.85
430.285
325.337
198.643
60.944
-79.267
-213.763
-333.045
-430.504
-498.589
-534.744
-541.048
-519.684
-479.135
-427.524
-373.24
-328.089
-296.546
-279.32
-273.668
-270.907
-267.027
-261.525
-255.509
-253.437
-256.765
-264.046
-273.261
-281.275
-286.206
-287.95
-286.836
-283.526
-278.731
-272.987
-266.96
-261.47
-257.265
-254.708
-253.799
-254.34
-255.961
-258.311
-261.079
-263.915
-266.488
-268.614
-270.229
-271.33
-271.976
-272.19
-271.956
-271.281
-270.195
-268.733
-266.945
-264.903
-262.69
-260.397
-258.117
-255.914
-253.83
-251.886
-250.092
-248.445
-246.94
-245.57
-244.339
-243.252
-242.312
-241.513
-240.833
-240.239
-239.683
-239.119
-238.506
-237.806
-236.991
-236.042
-234.945
-233.697
-232.296
-230.744
-229.036
-227.167
-225.13
-222.921
-220.541
-217.992
-215.28
-212.415
-209.405
-206.264
-203.002
-199.633
-196.168
-192.617
-188.992
-185.304
-181.565
-177.79
-173.994
-170.194
-166.406
-162.648
-158.938
-155.293
-151.729
-148.262
-144.906
-141.676
-138.585
-135.643
-132.861
-130.249
-127.814
-125.564
-123.503
-121.637
-119.967
-118.495
-117.222
-116.144
-115.26
-114.566
-114.054
-113.719
-113.552
-113.544
-113.685
-113.965
-114.372
-114.893
-115.516
-116.228
-117.014
-117.859
-118.75
-119.671
-120.608
-121.545
-122.469
-123.365
-124.22
-125.021
-125.756
-126.412
-126.979
-127.445
-127.801
-128.037
-128.145
-128.117
-127.947
-127.628
-127.155
-126.524
-125.732
-124.776
-123.655
-122.367
-120.913
-119.292
-117.507
-115.558
-113.45
-111.184
-108.764
-106.195
-103.483
-100.631
-97.646
-94.533
-91.301
-87.954
-84.5
-80.947
-77.302
-73.572
-69.766
-65.892
-61.958
-57.973
-53.945
-49.883
-45.795
-41.689
-37.573
-33.457
-29.347
-25.251
-21.177
-17.132
-13.122
-9.155
-5.236
-1.371
2.434
6.174
9.846
13.444
16.966
20.408
23.768
27.045
30.235
33.339
36.356
39.285
42.129
44.888
47.564
50.159
52.679
55.126
57.504
59.82
62.077
64.282
66.44
68.558
70.641
72.696
74.73
76.75
78.761
80.771
82.786
84.811
86.852
88.914
91.001
93.116
95.264
97.445
99.661
101.914
104.203
106.527
108.885
111.273
113.687
116.123
118.572
121.028
123.479
125.914
128.321
130.687
132.998
135.239
137.395
139.452
141.396
143.214
144.892
146.416
147.77
148.938
149.907
150.664
151.196
151.493
151.544
151.344
150.891
150.185
149.226
148.01
146.528
144.772
142.743
140.441
137.873
135.051
131.992
128.723
125.286
121.723
118.076
114.384
110.676
106.984
103.349
99.818
96.445
93.286
90.379
87.763
85.474
83.517
81.883
80.528
79.379
78.369
77.436
76.499
75.475
74.27
72.792
70.968
68.704
65.853
62.325
58.117
53.359
48.351
43.415
38.866
35.116
32.659
31.876
32.921
35.527
39.044
42.873
46.338
48.602
49.008
47.006
43.172
39.769
38.335
39.848
44.461
50.515
60.636
80.779
116.262
173.18
250.17
338.353
429.681
515.017
590.057
657.493
717.544
768.941
806.446
819.458
800.243
744.708
655.443
540.493
407.933
266.893
124.148
-13.005
-134.09
-228.674
-286.539
-302.251
-276.648
-218.299
-142.907
-66.715
-6.283
28.669
39.807
33.202
19.877
10.013
5.614
5.305
5.325
1.425
-6.307
-15.452
-23.399
-27.905
-28.606
-26.361
-22.066
-16.594
-10.583
-4.67
0.424
4.311
6.907
8.315
8.762
8.487
7.711
6.763
6.045
5.777
6.023
6.762
7.896
9.347
11.074
12.968
14.869
16.678
18.343
19.864
21.314
22.711
24.027
25.236
26.298
27.2
27.958
28.579
29.056
29.403
29.648
29.849
30.1
30.455
30.933
31.524
32.185
32.894
33.653
34.457
35.302
36.187
37.104
38.064
39.093
40.201
41.39
42.647
43.939
45.255
46.601
47.99
49.448
50.996
52.643
54.402
56.291
58.317
60.486
62.791
65.214
67.743
70.373
73.096
75.911
78.812
81.787
84.825
87.911
91.031
94.172
97.316
100.444
103.539
106.585
109.57
112.48
115.305
118.029
120.639
123.122
125.465
127.655
129.679
131.522
133.173
134.621
135.855
136.866
137.647
138.19
138.49
138.542
138.342
137.888
137.178
136.211
134.988
133.509
131.777
129.796
127.569
125.102
122.4
119.472
116.326
112.969
109.413
105.667
101.743
97.653
93.409
89.025
84.514
79.891
75.169
70.366
65.496
60.575
55.618
50.641
45.659
40.688
35.743
30.837
25.985
21.2
16.495
11.883
7.376
2.984
-1.282
-5.412
-9.398
-13.231
-16.904
-20.412
-23.747
-26.907
-29.888
-32.687
-35.303
-37.735
-39.984
-42.05
-43.937
-45.647
-47.183
-48.551
-49.756
-50.804
-51.701
-52.455
-53.072
-53.562
-53.931
-54.188
-54.342
-54.4
-54.371
-54.262
-54.082
-53.839
-53.541
-53.193
-52.805
-52.382
-51.93
-51.456
-50.964
-50.46
-49.946
-49.426
-48.904
-48.38
-47.857
-47.334
-46.813
-46.293
-45.772
-45.248
-44.719
-44.182
-43.631
-43.064
-42.475
-41.857
-41.206
-40.516
-39.779
-38.991
-38.145
-37.236
-36.255
-35.199
-34.059
-32.831
-31.51
-30.089
-28.564
-26.93
-25.185
-23.325
-21.348
-19.253
-17.039
-14.705
-12.254
-9.686
-7.005
-4.214
-1.317
1.677
4.763
7.931
11.17
14.471
17.819
21.201
24.599
27.998
31.381
34.729
38.024
41.248
44.382
47.408
50.31
53.068
55.665
58.083
60.301
62.304
64.072
65.592
66.847
67.824
68.514
68.911
69.011
68.809
68.299
67.469
66.313
64.828
63.018
60.888
58.452
55.729
52.751
49.56
46.2
42.712
39.134
35.491
31.817
28.146
24.525
21.007
17.642
14.469
11.521
8.83
6.404
4.229
2.257
0.405
-1.407
-3.24
-5.151
-7.198
-9.444
-11.976
-14.89
-18.245
-22.118
-26.613
-31.754
-37.507
-43.719
-50.017
-55.971
-61.195
-65.265
-67.742
-68.388
-67.092
-64.044
-59.953
-55.601
-51.584
-48.428
-46.623
-46.421
-47.828
-50.341
-51.843
-49.367
-40.683
-24.199
-0.437
28.678
63.474
105.977
159.631
227.663
308.58
397.162
486.296
569.593
643.453
703.759
744.712
756.662
728.263
654.219
535.753
383.924
217.124
52.31
-94.453
-213.69
-302.058
-357.432
-381.993
-377.521
-348.41
-303.945
-254.356
-212.474
-185.562
-173.561
-171.975
-171.415
-166.944
-158.654
-148.765
-142.478
-141.685
-144.812
-149.879
-153.711
-154.336
-151.748
-146.234
-138.403
-129.076
-118.915
-108.586
-98.982
-90.944
-84.869
-80.881
-78.923
-78.736
-80.04
-82.568
-85.908
-89.61
-93.411
-97.145
-100.706
-104.039
-107.014
-109.478
-111.361
-112.647
-113.328
-113.41
-112.882
-111.737
-110.017
-107.8
-105.172
-102.215
-98.981
-95.509
-91.858
-88.105
-84.349
-80.677
-77.14
-73.768
-70.579
-67.587
-64.805
-62.229
-59.834
-57.583
-55.447
-53.399
-51.427
-49.517
-47.642
-45.772
-43.865
-41.891
-39.83
-37.666
-35.388
-32.984
-30.444
-27.768
-24.965
-22.042
-19.005
-15.857
-12.596
-9.227
-5.757
-2.195
1.45
5.169
8.953
12.793
16.677
20.594
24.531
28.478
32.426
36.362
40.274
44.146
47.964
51.712
55.377
58.941
62.391
65.709
68.883
71.898
74.742
77.402
79.867
82.125
84.167
85.982
87.563
88.902
89.992
90.828
91.404
91.717
91.766
91.547
91.061
90.308
89.291
88.011
86.475
84.685
82.649
80.375
77.87
75.144
72.207
69.07
65.744
62.242
58.577
54.761
50.81
46.737
42.557
38.284
33.932
29.518
25.055
20.558
16.042
11.522
7.013
2.528
-1.919
-6.314
-10.645
-14.899
-19.064
-23.129
-27.083
-30.916
-34.618
-38.183
-41.601
-44.865
-47.97
-50.911
-53.682
-56.28
-58.702
-60.945
-63.009
-64.893
-66.596
-68.12
-69.467
-70.638
-71.638
-72.471
-73.141
-73.653
-74.015
-74.232
-74.311
-74.26
-74.085
-73.794
-73.396
-72.898
-72.308
-71.635
-70.887
-70.073
-69.202
-68.282
-67.322
-66.331
-65.316
-64.286
-63.25
-62.214
-61.188
-60.177
-59.19
-58.233
-57.314
-56.437
-55.609
-54.832
-54.112
-53.45
-52.848
-52.307
-51.825
-51.4
-51.031
-50.716
-50.455
-50.245
-50.087
-49.979
-49.919
-49.904
-49.931
-49.994
-50.083
-50.189
-50.3
-50.405
-50.499
-50.573
-50.62
-50.633
-50.602
-50.517
-50.368
-50.14
-49.816
-49.383
-48.828
-48.147
-47.345
-46.434
-45.436
-44.37
-43.254
-42.098
-40.902
-39.669
-38.402
-37.104
-35.78
-34.431
-33.05
-31.64
-30.211
-28.766
-27.321
-25.842
-24.228
-22.467
-20.614
-18.733
-16.944
-15.259
-13.523
-11.724
-10.005
-8.316
-6.496
-4.343
-1.496
2.014
5.686
9.216
12.478
15.179
17.02
17.611
16.328
13.135
8.641
3.276
-2.641
-8.771
-14.945
-20.846
-25.904
-29.997
-33.448
-36.433
-39.086
-41.465
-43.426
-44.969
-46.286
-47.413
-48.266
-48.864
-49.24
-49.475
-49.748
-50.169
-50.789
-51.703
-53.019
-54.813
-57.173
-60.2
-63.942
-68.411
-73.506
-78.946
-84.365
-89.386
-93.576
-96.44
-97.565
-96.665
-93.785
-89.41
-84.092
-78.434
-73.179
-69.114
-67.126
-67.285
-67.87
-66.367
-60.265
-49.022
-36.072
-24.637
-14.819
-2.18
25.338
79.446
164.486
277.812
405.503
529.577
637.771
720.371
773.423
796.699
785.14
735.221
646.571
520.755
369.137
206.542
46.374
-96.649
-215.567
-307.485
-369.017
-402.209
-407.097
-384.846
-343.822
-292.515
-242.704
-206.523
-187.562
-184.726
-192.525
-200.622
-202.195
-194.619
-177.239
-155.323
-135.195
-119.952
-112.321
-111.067
-112.004
-113.152
-112.832
-110.33
-107.009
-103.357
-99.268
-95.017
-90.575
-86.073
-82.127
-79.266
-77.628
-77.222
-77.93
-79.451
-81.539
-83.967
-86.4
-88.502
-90.071
-90.975
-91.165
-90.681
-89.546
-87.778
-85.435
-82.585
-79.303
-75.674
-71.783
-67.709
-63.54
-59.372
-55.282
-51.334
-47.579
-44.054
-40.782
-37.772
-35.024
-32.526
-30.268
-28.234
-26.405
-24.755
-23.249
-21.853
-20.524
-19.22
-17.902
-16.541
-15.112
-13.595
-11.977
-10.248
-8.402
-6.439
-4.357
-2.152
0.179
2.639
5.229
7.945
10.785
13.743
16.811
19.985
23.255
26.616
30.06
33.577
37.16
40.801
44.488
48.209
51.951
55.696
59.429
63.134
66.794
70.392
73.909
77.33
80.638
83.818
86.854
89.733
92.438
94.957
97.275
99.381
101.262
102.906
104.304
105.446
106.323
106.929
107.257
107.303
107.062
106.533
105.715
104.606
103.21
101.53
99.569
97.334
94.832
92.072
89.064
85.818
82.346
78.66
74.774
70.702
66.457
62.055
57.511
52.841
48.061
43.187
38.238
33.23
28.181
23.109
18.031
12.967
7.933
2.947
-1.973
-6.81
-11.548
-16.172
-20.665
-25.013
-29.203
-33.224
-37.062
-40.71
-44.157
-47.396
-50.421
-53.226
-55.807
-58.162
-60.286
-62.18
-63.842
-65.274
-66.477
-67.454
-68.212
-68.754
-69.087
-69.219
-69.158
-68.914
-68.497
-67.917
-67.186
-66.314
-65.316
-64.207
-63
-61.711
-60.354
-58.939
-57.481
-55.992
-54.486
-52.974
-51.467
-49.975
-48.511
-47.086
-45.714
-44.406
-43.17
-42.012
-40.935
-39.942
-39.044
-38.252
-37.577
-37.033
-36.61
-36.302
-36.11
-36.031
-36.064
-36.221
-36.464
-36.746
-37.12
-37.613
-38.264
-39.134
-40.131
-41.126
-42.149
-43.209
-44.162
-44.927
-45.326
-45.134
-44.547
-43.793
-42.862
-41.802
-40.754
-39.764
-39.088
-39.025
-39.301
-39.636
-39.973
-40.163
-40.123
-39.851
-39.105
-37.633
-35.634
-33.294
-30.685
-27.958
-25.121
-22.142
-19.161
-16.305
-13.514
-10.744
-7.973
-5.146
-2.312
0.472
3.214
5.91
8.531
11.055
13.448
15.674
17.725
19.598
21.277
22.756
24.016
25.046
25.842
26.394
26.697
26.738
26.504
25.989
25.192
24.114
22.764
21.156
19.309
17.258
15.038
12.684
10.232
7.711
5.145
2.57
0.028
-2.43
-4.749
-6.888
-8.813
-10.496
-11.929
-13.117
-14.091
-14.916
-15.657
-16.381
-17.159
-18.054
-19.136
-20.494
-22.213
-24.391
-27.164
-30.608
-34.73
-39.46
-44.562
-49.734
-54.654
-58.92
-62.101
-63.891
-64.1
-62.804
-60.533
-57.907
-55.603
-54.29
-54.299
-55.923
-59.416
-64.271
-69.32
-72.484
-70.421
-61.152
-44.081
-19.292
11.31
48.737
96.726
157.521
232.553
317.802
403.749
482.917
551.346
608.677
656.865
693.544
708.136
687.64
622.895
511.436
364.001
199.209
34.192
-113.498
-233.544
-323.404
-380.701
-408.995
-412.692
-394.251
-360.662
-318.562
-275.521
-239.943
-214.551
-198.168
-186.455
-174.759
-162.289
-150.81
-143.569
-142.434
-146.501
-153.605
-160.869
-166.137
-168.374
-167.212
-162.893
-155.907
-146.859
-136.508
-125.721
-115.405
-106.458
-99.395
-94.34
-91.233
-89.805
-89.752
-90.787
-92.527
-94.566
-96.669
-98.734
-100.705
-102.586
-104.314
-105.742
-106.803
-107.474
-107.732
-107.585
-107.021
-106.021
-104.613
-102.859
-100.819
-98.547
-96.067
-93.377
-90.498
-87.469
-84.347
-81.223
-78.153
-75.169
-72.298
-69.549
-66.925
-64.429
-62.038
-59.712
-57.418
-55.128
-52.825
-50.508
-48.161
-45.764
-43.288
-40.697
-37.963
-35.07
-32.002
-28.747
-25.299
-21.652
-17.814
-13.799
-9.622
-5.292
-0.819
3.792
8.529
13.38
18.329
23.36
28.457
33.604
38.782
43.972
49.157
54.316
59.435
64.496
69.485
74.382
79.17
83.832
88.349
92.707
96.887
100.875
104.654
108.212
111.536
114.615
117.439
120
122.289
124.3
126.027
127.468
128.618
129.477
130.044
130.319
130.305
130.004
129.42
128.558
127.425
126.029
124.377
122.478
120.343
117.982
115.406
112.627
109.658
106.511
103.2
99.737
96.137
92.413
88.579
84.651
80.64
76.563
72.431
68.258
64.059
59.846
55.631
51.428
47.249
43.107
39.011
34.975
31.009
27.122
23.325
19.626
16.035
12.56
9.207
5.983
2.895
-0.051
-2.852
-5.502
-7.997
-10.336
-12.515
-14.534
-16.39
-18.083
-19.614
-20.984
-22.192
-23.242
-24.135
-24.874
-25.462
-25.903
-26.202
-26.362
-26.389
-26.288
-26.064
-25.724
-25.275
-24.722
-24.072
-23.332
-22.51
-21.612
-20.646
-19.619
-18.538
-17.411
-16.245
-15.046
-13.821
-12.577
-11.319
-10.055
-8.788
-7.525
-6.269
-5.025
-3.797
-2.589
-1.403
-0.241
0.893
1.999
3.075
4.122
5.138
6.124
7.082
8.012
8.917
9.8
10.664
11.512
12.349
13.178
14.004
14.833
15.67
16.519
17.387
18.279
19.2
20.157
21.153
22.195
23.286
24.431
25.634
26.898
28.226
29.619
31.081
32.611
34.21
35.878
37.614
39.416
41.28
43.204
45.182
47.209
49.275
51.371
53.488
55.614
57.737
59.845
61.925
63.963
65.948
67.87
69.716
71.476
73.133
74.676
76.09
77.366
78.489
79.453
80.244
80.855
81.286
81.534
81.598
81.473
81.145
80.604
79.847
78.875
77.688
76.297
74.715
72.963
71.079
69.103
67.073
65.025
62.982
60.969
59.026
57.195
55.528
54.075
52.863
51.914
51.253
50.875
50.758
50.851
51.064
51.315
51.534
51.635
51.533
51.133
50.317
48.994
47.058
44.36
40.849
36.557
31.601
26.31
21.066
16.206
12.181
9.505
8.461
9.16
11.42
14.548
17.814
20.643
22.388
22.471
20.702
17.247
12.911
9.427
8.826
13.063
24.188
44.245
74.867
117.169
171.616
236.7
308.898
384.494
459.191
529.848
597.037
660.489
716.915
760.56
779.817
762.711
705.211
608.43
480.391
336.019
186.807
44.453
-78.397
-175.974
-243.901
-281.966
-296.904
-293.192
-273.9
-242.386
-200.211
-152.219
-107.218
-71.345
-47.956
-36.251
-30.054
-25.064
-19.476
-13.453
-9.996
-9.989
-12.247
-14.852
-15.014
-11.615
-5.038
4.102
14.803
26.182
37.616
48.175
56.917
63.412
67.537
69.418
69.393
67.761
64.805
60.918
56.489
51.766
46.9
41.971
37.033
32.184
27.541
23.21
19.252
15.706
12.606
9.962
7.767
6
4.61
3.541
2.755
2.216
1.893
1.756
1.747
1.803
1.855
1.821
1.642
1.282
0.716
-0.056
-1.02
-2.162
-3.453
-4.857
-6.345
-7.893
-9.478
-11.087
-12.696
-14.272
-15.778
-17.172
-18.418
-19.491
-20.369
-21.04
-21.497
-21.732
-21.75
-21.558
-21.164
-20.571
-19.783
-18.801
-17.628
-16.273
-14.746
-13.058
-11.224
-9.255
-7.165
-4.969
-2.683
-0.321
2.103
4.575
7.08
9.602
12.123
14.625
17.089
19.497
21.83
24.071
26.201
28.202
30.059
31.757
33.281
34.618
35.754
36.68
37.383
37.854
38.085
38.07
37.801
37.275
36.487
35.437
34.123
32.548
30.712
28.621
26.279
23.693
20.871
17.82
14.552
11.077
7.407
3.555
-0.467
-4.642
-8.957
-13.396
-17.941
-22.577
-27.288
-32.055
-36.863
-41.693
-46.531
-51.358
-56.158
-60.915
-65.613
-70.237
-74.771
-79.202
-83.515
-87.698
-91.739
-95.627
-99.352
-102.905
-106.278
-109.463
-112.455
-115.249
-117.84
-120.226
-122.404
-124.372
-126.133
-127.685
-129.033
-130.178
-131.126
-131.881
-132.449
-132.836
-133.05
-133.099
-132.99
-132.733
-132.336
-131.812
-131.168
-130.418
-129.571
-128.639
-127.633
-126.565
-125.446
-124.286
-123.097
-121.887
-120.669
-119.452
-118.246
-117.06
-115.903
-114.784
-113.709
-112.687
-111.722
-110.82
-109.983
-109.217
-108.522
-107.9
-107.35
-106.872
-106.465
-106.13
-105.864
-105.665
-105.53
-105.455
-105.436
-105.468
-105.542
-105.648
-105.776
-105.915
-106.058
-106.195
-106.317
-106.414
-106.474
-106.491
-106.458
-106.366
-106.205
-105.956
-105.603
-105.136
-104.555
-103.865
-103.07
-102.171
-101.169
-100.074
-98.9
-97.654
-96.331
-94.913
-93.379
-91.723
-89.95
-88.079
-86.131
-84.113
-82.018
-79.839
-77.576
-75.233
-72.808
-70.281
-67.622
-64.827
-61.926
-58.985
-56.071
-53.229
-50.486
-47.851
-45.342
-42.991
-40.837
-38.915
-37.241
-35.831
-34.718
-33.964
-33.643
-33.8
-34.423
-35.452
-36.83
-38.518
-40.491
-42.731
-45.196
-47.821
-50.548
-53.333
-56.146
-58.961
-61.722
-64.338
-66.707
-68.745
-70.415
-71.73
-72.702
-73.336
-73.643
-73.644
-73.399
-72.998
-72.525
-72.056
-71.665
-71.422
-71.431
-71.809
-72.69
-74.247
-76.557
-79.591
-83.24
-87.246
-91.319
-95.213
-98.592
-101.044
-102.323
-102.317
-101.192
-99.593
-98.13
-97.317
-97.647
-99.3
-102.396
-107.048
-112.598
-117.688
-120.265
-117.288
-107.095
-89.28
-64.045
-33.407
3.491
49.536
106.071
175.095
253.397
333.588
410.992
480.67
540.276
588.741
619.644
624.061
593.112
521.464
411.091
271.807
118.416
-33.485
-168.308
-275.299
-350.349
-394.136
-412.418
-411.154
-394.198
-364.588
-326.322
-286.538
-252.522
-229.218
-216.381
-207.912
-198.543
-186.006
-171.112
-158.176
-149.951
-146.306
-145.984
-146.453
-145.577
-142.536
-137.192
-129.895
-121.2
-111.645
-101.666
-91.732
-82.561
-74.878
-69.1
-65.383
-63.594
-63.392
-64.476
-66.552
-69.25
-72.189
-75.064
-77.632
-79.752
-81.363
-82.415
-82.881
-82.749
-82.024
-80.72
-78.854
-76.466
-73.616
-70.373
-66.814
-63.013
-59.04
-54.978
-50.929
-46.974
-43.175
-39.574
-36.181
-33.012
-30.082
-27.388
-24.916
-22.639
-20.521
-18.531
-16.647
-14.838
-13.073
-11.313
-9.509
-7.628
-5.647
-3.546
-1.317
1.051
3.568
6.235
9.043
11.987
15.06
18.256
21.575
25.011
28.554
32.192
35.913
39.705
43.557
47.458
51.394
55.354
59.322
63.288
67.241
71.167
75.053
78.883
82.643
86.317
89.891
93.351
96.682
99.871
102.905
105.776
108.471
110.984
113.305
115.428
117.347
119.057
120.554
121.835
122.897
123.739
124.36
124.761
124.944
124.91
124.664
124.207
123.547
122.687
121.634
120.395
118.976
117.386
115.633
113.725
111.671
109.48
107.16
104.721
102.172
99.523
96.782
93.957
91.058
88.092
85.066
81.99
78.869
75.712
72.526
69.317
66.093
62.861
59.63
56.404
53.193
50.002
46.839
43.71
40.621
37.58
34.593
31.666
28.805
26.018
23.309
20.687
18.156
15.722
13.39
11.167
9.056
7.062
5.189
3.44
1.82
0.331
-1.022
-2.236
-3.31
-4.241
-5.027
-5.667
-6.161
-6.51
-6.715
-6.778
-6.701
-6.489
-6.144
-5.67
-5.072
-4.357
-3.529
-2.596
-1.565
-0.444
0.758
2.033
3.371
4.763
6.202
7.679
9.186
10.716
12.262
13.819
15.38
16.939
18.488
20.023
21.535
23.019
24.467
25.873
27.233
28.543
29.802
31.01
32.171
33.285
34.357
35.392
36.394
37.366
38.313
39.234
40.134
41.019
41.9
42.79
43.698
44.628
45.586
46.569
47.571
48.581
49.575
50.525
51.419
52.248
53.013
53.731
54.41
55.063
55.702
56.328
56.942
57.552
58.155
58.754
59.37
60.03
60.787
61.705
62.816
64.129
65.639
67.302
69.072
70.893
72.68
74.374
75.921
77.269
78.391
79.26
79.82
80.006
79.724
78.858
77.341
75.132
72.21
68.606
64.366
59.568
54.345
48.816
43.078
37.219
31.295
25.357
19.491
13.79
8.371
3.372
-1.11
-5.007
-8.262
-10.865
-12.841
-14.253
-15.232
-15.914
-16.424
-16.876
-17.368
-17.992
-18.852
-20.079
-21.842
-24.28
-27.439
-31.265
-35.58
-40.144
-44.744
-49.064
-52.645
-55.138
-56.355
-56.344
-55.543
-54.482
-53.535
-53.163
-53.888
-55.888
-59.093
-63.116
-66.92
-69.191
-68.635
-63.113
-49.956
-27.248
6.145
48.989
98.279
151.622
207.786
268.741
337.114
414.173
499.532
586.899
667.119
729.398
760.962
753.596
704.252
615.098
494.147
352.289
201.142
52.578
-80.454
-187.662
-263.443
-306.449
-322.084
-318.368
-300.82
-274.924
-245.46
-215.089
-187.918
-165.797
-146.516
-129.047
-112.304
-96.776
-85.672
-80.301
-80.69
-85.761
-93.015
-100.751
-107.553
-112.132
-114.132
-113.518
-110.489
-105.633
-99.465
-92.483
-85.493
-79.324
-74.442
-71.018
-68.95
-67.913
-67.622
-67.824
-68.156
-68.254
-67.906
-67.015
-65.596
-63.749
-61.543
-59.027
-56.27
-53.344
-50.304
-47.195
-44.045
-40.881
-37.745
-34.693
-31.777
-29.035
-26.489
-24.145
-22.006
-20.064
-18.304
-16.704
-15.242
-13.896
-12.65
-11.488
-10.391
-9.335
-8.298
-7.258
-6.194
-5.085
-3.912
-2.658
-1.305
0.161
1.74
3.434
5.241
7.153
9.185
11.352
13.653
16.093
18.67
21.367
24.216
27.253
30.41
33.644
36.899
40.09
43.292
46.609
49.988
53.393
56.945
60.696
64.798
69.452
74.43
79.469
84.554
89.605
94.451
99.02
103.028
106.146
108.629
110.741
112.521
114.102
115.555
116.868
118.275
120.025
121.91
123.739
125.438
126.858
127.997
128.897
129.431
129.482
129.13
128.44
127.453
126.251
124.807
123.087
121.127
118.947
116.545
113.931
111.1
108.045
104.79
101.359
97.765
94.029
90.16
86.164
82.058
77.852
73.563
69.203
64.788
60.329
55.842
51.34
46.836
42.346
37.88
33.453
29.075
24.759
20.517
16.364
12.31
8.367
4.547
0.858
-2.691
-6.091
-9.334
-12.413
-15.324
-18.06
-20.617
-22.991
-25.179
-27.178
-28.986
-30.603
-32.03
-33.267
-34.316
-35.181
-35.866
-36.375
-36.713
-36.888
-36.906
-36.776
-36.505
-36.103
-35.58
-34.946
-34.212
-33.389
-32.487
-31.519
-30.496
-29.429
-28.329
-27.209
-26.079
-24.949
-23.831
-22.734
-21.669
-20.644
-19.67
-18.753
-17.902
-17.123
-16.421
-15.803
-15.271
-14.828
-14.476
-14.216
-14.048
-13.969
-13.978
-14.071
-14.244
-14.491
-14.806
-15.181
-15.608
-16.078
-16.582
-17.111
-17.653
-18.2
-18.739
-19.26
-19.753
-20.205
-20.607
-20.946
-21.211
-21.393
-21.481
-21.467
-21.341
-21.097
-20.727
-20.228
-19.594
-18.821
-17.909
-16.855
-15.662
-14.332
-12.87
-11.28
-9.571
-7.753
-5.837
-3.836
-1.767
0.359
2.523
4.708
6.894
9.061
11.187
13.252
15.236
17.118
18.877
20.491
21.94
23.207
24.277
25.132
25.757
26.136
26.254
26.106
25.692
25.01
24.062
22.841
21.344
19.576
17.542
15.25
12.712
9.938
6.944
3.764
0.435
-2.996
-6.49
-10.023
-13.58
-17.155
-20.73
-24.254
-27.673
-30.935
-33.989
-36.817
-39.397
-41.671
-43.666
-45.48
-47.25
-49.235
-51.652
-54.519
-57.85
-61.651
-65.731
-69.94
-74.092
-77.653
-80.196
-81.621
-81.783
-80.752
-78.944
-76.501
-73.565
-70.771
-68.586
-67.299
-67.434
-69.107
-72.035
-76.245
-81.612
-87.637
-93.987
-100.027
-104.542
-105.759
-101.298
-89.092
-67.964
-38.83
-3.941
36.211
82.853
139.448
209.868
293.376
385.518
479.059
565.386
638.544
692.413
720.334
717.061
677.288
601.51
495.346
365.547
222.437
74.364
-69.682
-197.648
-300.598
-370.375
-405.219
-410.44
-391.418
-356.49
-312.35
-264.087
-220.28
-186.947
-167.918
-164.697
-172.561
-186.514
-201.73
-212.705
-217.498
-214.495
-204.098
-190.496
-176.567
-165.049
-156.681
-148.842
-140.222
-130.411
-119.993
-111.018
-104.42
-100.22
-98.276
-98.062
-99.253
-101.675
-104.926
-108.598
-112.39
-116.085
-119.551
-122.68
-125.348
-127.439
-128.88
-129.641
-129.714
-129.095
-127.795
-125.841
-123.284
-120.203
-116.695
-112.868
-108.835
-104.708
-100.588
-96.559
-92.684
-89.017
-85.603
-82.469
-79.625
-77.071
-74.794
-72.779
-71.011
-69.466
-68.114
-66.917
-65.836
-64.829
-63.852
-62.872
-61.86
-60.792
-59.652
-58.425
-57.103
-55.679
-54.155
-52.529
-50.796
-48.954
-47.001
-44.935
-42.759
-40.477
-38.094
-35.616
-33.047
-30.395
-27.665
-24.863
-21.996
-19.071
-16.095
-13.074
-10.021
-6.945
-3.86
-0.779
2.285
5.318
8.307
11.237
14.096
16.871
19.55
22.121
24.573
26.893
29.071
31.096
32.959
34.648
36.156
37.474
38.593
39.508
40.213
40.701
40.971
41.017
40.838
40.431
39.797
38.936
37.848
36.537
35.005
33.257
31.297
29.132
26.766
24.208
21.464
18.542
15.45
12.195
8.787
5.233
1.544
-2.272
-6.204
-10.243
-14.377
-18.595
-22.888
-27.242
-31.646
-36.09
-40.559
-45.043
-49.528
-54.002
-58.453
-62.869
-67.237
-71.545
-75.781
-79.934
-83.993
-87.947
-91.786
-95.499
-99.076
-102.507
-105.784
-108.897
-111.838
-114.597
-117.166
-119.539
-121.708
-123.666
-125.407
-126.926
-128.218
-129.279
-130.106
-130.696
-131.047
-131.159
-131.032
-130.666
-130.064
-129.228
-128.162
-126.871
-125.36
-123.636
-121.705
-119.574
-117.252
-114.747
-112.069
-109.227
-106.232
-103.093
-99.824
-96.434
-92.937
-89.345
-85.67
-81.925
-78.123
-74.277
-70.399
-66.501
-62.597
-58.697
-54.815
-50.96
-47.144
-43.377
-39.668
-36.025
-32.456
-28.967
-25.563
-22.248
-19.026
-15.898
-12.867
-9.931
-7.091
-4.346
-1.693
0.87
3.347
5.743
8.063
10.311
12.495
14.621
16.696
18.727
20.721
22.685
24.626
26.551
28.466
30.378
32.292
34.214
36.149
38.1
40.071
42.064
44.079
46.115
48.171
50.241
52.32
54.4
56.472
58.527
60.552
62.537
64.468
66.333
68.12
69.817
71.41
72.886
74.229
75.422
76.451
77.302
77.961
78.415
78.653
78.664
78.445
77.993
77.303
76.366
75.171
73.703
71.961
69.942
67.652
65.099
62.3
59.28
56.08
52.742
49.309
45.818
42.296
38.774
35.29
31.892
28.635
25.574
22.746
20.181
17.908
15.929
14.229
12.764
11.449
10.202
8.942
7.579
6.034
4.217
2.023
-0.64
-3.875
-7.821
-12.519
-17.939
-23.978
-30.348
-36.721
-42.768
-48.042
-52.067
-54.556
-55.333
-54.494
-52.602
-50.219
-47.916
-46.322
-45.774
-46.489
-48.632
-51.711
-54.499
-54.8
-49.428
-35.982
-13.331
17.457
53.725
95.091
142.989
200.826
272.332
355.846
446.163
536.586
619.423
689.455
741.449
767.367
758.461
707.967
614.422
483.657
328.618
164.432
5.801
-133.601
-245.594
-325.449
-372.386
-390.272
-383.734
-359.816
-325.893
-289.321
-256.842
-230.629
-210.063
-191.696
-172.186
-152.009
-133.615
-120.442
-114.528
-115.077
-119.943
-126.525
-132.821
-137.582
-139.853
-139.273
-135.904
-130.08
-122.465
-113.787
-104.791
-96.336
-89.261
-84.037
-80.762
-79.299
-79.302
-80.397
-82.212
-84.313
-86.265
-87.814
-88.864
-89.397
-89.459
-89.062
-88.172
-86.8
-84.991
-82.777
-80.193
-77.268
-74.041
-70.595
-67.058
-63.555
-60.178
-56.981
-53.99
-51.219
-48.689
-46.417
-44.411
-42.669
-41.183
-39.946
-38.951
-38.19
-37.638
-37.254
-36.983
-36.764
-36.55
-36.306
-36.006
-35.63
-35.158
-34.572
-33.862
-33.025
-32.053
-30.937
-29.666
-28.228
-26.616
-24.829
-22.869
-20.741
-18.449
-15.999
-13.396
-10.648
-7.76
-4.742
-1.598
1.664
5.036
8.506
12.06
15.684
19.361
23.075
26.809
30.544
34.26
37.941
41.569
45.126
48.596
51.962
55.207
58.316
61.275
64.069
66.684
69.108
71.329
73.336
75.121
76.674
77.99
79.063
79.887
80.46
80.78
80.846
80.657
80.213
79.519
78.576
77.389
75.965
74.309
72.429
70.335
68.036
65.542
62.864
60.014
57.002
53.841
50.545
47.125
43.595
39.969
36.26
32.483
28.65
24.776
20.875
16.959
13.043
9.138
5.258
1.415
-2.38
-6.114
-9.776
-13.356
-16.844
-20.231
-23.506
-26.663
-29.693
-32.59
-35.348
-37.961
-40.424
-42.733
-44.885
-46.877
-48.707
-50.373
-51.876
-53.214
-54.389
-55.402
-56.256
-56.953
-57.497
-57.891
-58.14
-58.247
-58.22
-58.061
-57.778
-57.377
-56.864
-56.246
-55.529
-54.721
-53.829
-52.859
-51.82
-50.719
-49.562
-48.357
-47.11
-45.83
-44.522
-43.194
-41.852
-40.503
-39.153
-37.807
-36.471
-35.151
-33.849
-32.571
-31.321
-30.1
-28.913
-27.761
-26.646
-25.57
-24.534
-23.538
-22.582
-21.666
-20.788
-19.948
-19.143
-18.371
-17.63
-16.915
-16.224
-15.553
-14.899
-14.257
-13.623
-12.992
-12.36
-11.721
-11.069
-10.401
-9.709
-8.989
-8.235
-7.443
-6.606
-5.722
-4.786
-3.794
-2.742
-1.627
-0.447
0.8
2.116
3.501
4.954
6.476
8.063
9.713
11.421
13.183
14.992
16.84
18.722
20.627
22.546
24.47
26.39
28.294
30.172
32.016
33.812
35.551
37.22
38.808
40.303
41.693
42.966
44.112
45.122
45.986
46.701
47.262
47.667
47.91
47.984
47.884
47.61
47.162
46.547
45.772
44.85
43.804
42.67
41.478
40.263
39.053
37.868
36.734
35.674
34.72
33.914
33.286
32.862
32.665
32.706
32.998
33.535
34.271
35.131
36.032
36.895
37.673
38.325
38.782
38.976
38.807
38.187
37.082
35.439
33.174
30.254
26.692
22.648
18.533
14.795
11.789
9.903
9.518
10.931
14.375
19.638
25.955
32.513
38.685
43.894
47.539
49.094
48.225
46.14
45.675
49.417
59.006
73.633
91.345
112.644
141.215
183.224
243.13
320.142
407.806
496.791
580.796
656.675
722.748
775.772
806.584
803.602
758.058
667.406
537.219
380.131
211.524
47.169
-97.535
-212.004
-290.229
-332.46
-344.115
-330.639
-300.168
-259.207
-215.121
-178.92
-154.852
-144.052
-142.826
-140.315
-131.539
-115.703
-94.369
-73.935
-57.521
-44.698
-34.873
-26.106
-17.307
-8.936
-1.313
5.491
11.605
17.205
22.427
27.341
31.857
35.958
39.607
42.506
44.305
44.906
44.353
42.793
40.457
37.521
34.17
30.753
27.685
25.24
23.563
22.687
22.572
23.205
24.591
26.675
29.348
32.493
36.001
39.795
43.825
48.022
52.289
56.502
60.552
64.37
67.919
71.189
74.169
76.849
79.234
81.35
83.239
84.942
86.494
87.919
89.244
90.506
91.749
93.026
94.38
95.835
97.414
99.127
100.987
103.004
105.178
107.503
109.97
112.573
115.31
118.181
121.183
124.308
127.544
130.882
134.31
137.821
141.403
145.043
148.729
152.45
156.193
159.947
163.701
167.438
171.143
174.8
178.392
181.904
185.32
188.622
191.796
194.826
197.7
200.405
202.928
205.259
207.386
209.299
210.991
212.451
213.672
214.647
215.37
215.835
216.039
215.977
215.647
215.047
214.176
213.034
211.622
209.942
207.996
205.787
203.32
200.6
197.631
194.42
190.973
187.297
183.399
179.286
174.966
170.447
165.737
160.843
155.773
150.537
145.143
139.598
133.913
128.097
122.16
116.111
109.962
103.724
97.407
91.022
84.582
78.098
71.582
65.045
58.5
51.959
45.433
38.935
32.475
26.067
19.722
13.452
7.267
1.179
-4.8
-10.66
-16.39
-21.98
-27.419
-32.698
-37.808
-42.74
-47.485
-52.037
-56.39
-60.536
-64.473
-68.195
-71.7
-74.987
-78.053
-80.901
-83.53
-85.943
-88.142
-90.133
-91.918
-93.506
-94.9
-96.109
-97.141
-98.005
-98.709
-99.263
-99.678
-99.964
-100.132
-100.195
-100.164
-100.051
-99.868
-99.627
-99.34
-99.019
-98.674
-98.316
-97.955
-97.601
-97.263
-96.947
-96.662
-96.412
-96.204
-96.041
-95.925
-95.86
-95.845
-95.881
-95.966
-96.098
-96.274
-96.491
-96.744
-97.028
-97.336
-97.662
-97.998
-98.337
-98.67
-98.989
-99.283
-99.544
-99.763
-99.931
-100.039
-100.079
-100.043
-99.924
-99.716
-99.414
-99.014
-98.511
-97.904
-97.192
-96.375
-95.455
-94.436
-93.321
-92.12
-90.84
-89.491
-88.084
-86.631
-85.145
-83.641
-82.131
-80.628
-79.147
-77.701
-76.305
-74.976
-73.731
-72.585
-71.555
-70.654
-69.896
-69.296
-68.865
-68.606
-68.525
-68.626
-68.918
-69.412
-70.122
-71.05
-72.197
-73.561
-75.133
-76.902
-78.849
-80.936
-83.131
-85.4
-87.71
-90.041
-92.371
-94.662
-96.874
-98.956
-100.859
-102.555
-104.018
-105.219
-106.154
-106.835
-107.302
-107.629
-107.883
-108.119
-108.404
-108.805
-109.406
-110.32
-111.625
-113.416
-115.824
-118.888
-122.597
-126.864
-131.394
-135.832
-139.871
-143.118
-145.149
-145.744
-144.793
-142.445
-139.365
-136.303
-133.848
-132.547
-132.901
-135.183
-139.438
-145.17
-150.248
-151.586
-146.784
-134.147
-114.198
-89.064
-58.609
-20.76
28.268
92.496
171.228
259.618
350.2
435.093
509.141
566.835
601.871
607.356
575.602
505.67
402.778
275.155
135.075
-8.812
-148.802
-275.426
-381.856
-459.295
-503.834
-517.11
-501.295
-465.524
-418.476
-368.354
-326.211
-295.771
-277.156
-267.852
-260.594
-252.461
-243.482
-234.78
-230.073
-229.987
-232.881
-236.832
-238.589
-236.565
-230.901
-221.849
-210.289
-197.28
-183.497
-169.888
-157.666
-147.479
-139.585
-134.069
-130.675
-129.073
-129.011
-130.07
-131.718
-133.649
-135.693
-137.749
-139.816
-141.826
-143.618
-145.076
-146.144
-146.773
-146.939
-146.626
-145.796
-144.46
-142.678
-140.522
-138.071
-135.384
-132.484
-129.396
-126.163
-122.844
-119.522
-116.289
-113.201
-110.293
-107.592
-105.11
-102.85
-100.806
-98.945
-97.222
-95.602
-94.052
-92.555
-91.098
-89.657
-88.201
-86.694
-85.091
-83.363
-81.485
-79.436
-77.199
-74.765
-72.123
-69.28
-66.245
-63.026
-59.628
-56.056
-52.312
-48.403
-44.338
-40.13
-35.79
-31.334
-26.774
-22.126
-17.408
-12.635
-7.825
-2.993
1.846
6.675
11.476
16.23
20.918
25.519
30.015
34.386
38.612
42.675
46.556
50.238
53.706
56.944
59.938
62.676
65.145
67.334
69.234
70.837
72.137
73.127
73.804
74.165
74.209
73.936
73.348
72.448
71.24
69.73
67.924
65.832
63.463
60.826
57.933
54.797
51.431
47.849
44.066
40.098
35.962
31.675
27.254
22.718
18.084
13.372
8.599
3.784
-1.055
-5.899
-10.73
-15.531
-20.283
-24.969
-29.574
-34.079
-38.471
-42.734
-46.854
-50.818
-54.613
-58.229
-61.655
-64.88
-67.896
-70.695
-73.27
-75.615
-77.724
-79.594
-81.222
-82.607
-83.748
-84.648
-85.307
-85.729
-85.919
-85.881
-85.622
-85.148
-84.466
-83.585
-82.515
-81.265
-79.846
-78.269
-76.546
-74.689
-72.711
-70.625
-68.443
-66.178
-63.841
-61.447
-59.007
-56.535
-54.042
-51.542
-49.045
-46.565
-44.111
-41.696
-39.327
-37.013
-34.762
-32.578
-30.467
-28.433
-26.477
-24.601
-22.806
-21.096
-19.471
-17.931
-16.475
-15.101
-13.808
-12.592
-11.447
-10.364
-9.333
-8.342
-7.385
-6.452
-5.536
-4.63
-3.723
-2.806
-1.874
-0.914
0.083
1.134
2.262
3.48
4.791
6.191
7.671
9.218
10.829
12.494
14.197
15.935
17.702
19.507
21.372
23.302
25.294
27.333
29.388
31.441
33.498
35.566
37.665
39.816
42.028
44.323
46.737
49.275
51.934
54.69
57.499
60.337
63.18
66.008
68.808
71.545
74.195
76.719
79.025
81.082
82.918
84.582
86.237
88.03
89.91
91.835
93.783
95.485
96.66
96.936
95.596
92.154
86.653
79.294
70.571
61.387
52.443
44.524
38.859
36.272
36.99
40.939
47.436
55.384
64.058
72.75
80.487
86.646
90.911
93.158
93.793
93.485
92.577
91.308
89.926
88.432
86.824
85.143
83.255
81.039
78.545
75.88
73.277
71.142
69.758
69.24
69.575
70.457
71.488
72.294
72.418
71.45
69.125
65.365
60.447
55.016
50.741
50.207
55.522
68.679
89.324
114.353
143.04
175.709
215.158
267.932
335.279
414.883
502.231
588.016
665.684
728.63
767.586
773.917
738.51
657.756
535.706
383.88
219.045
56.471
-89.704
-210.911
-302.615
-360.413
-385.002
-377.273
-341.315
-288.24
-229.132
-177.23
-142.634
-125.922
-123.322
-126.659
-127.693
-124.408
-118.017
-112.109
-110.605
-113.615
-119.259
-124.846
-127.488
-126.336
-121.79
-114.413
-105.1
-94.601
-83.52
-72.819
-63.485
-56.031
-50.661
-47.327
-45.752
-45.692
-46.943
-49.149
-51.93
-55.043
-58.3
-61.633
-65.094
-68.547
-71.614
-74.112
-76.043
-77.318
-78.138
-78.047
-75.556
-70.921
-65.562
-61.687
-63.489
-70.939
-79.857
-86.14
-83.973
-72.79
-58.263
-44.823
-37.144
-36.273
-38.079
-39.954
-40.193
-38.183
-35.593
-33.201
-30.911
-28.768
-26.51
-24.055
-21.616
-19.245
-16.87
-14.461
-12
-9.462
-6.821
-4.045
-1.092
2.052
5.362
8.814
12.399
16.105
19.928
23.861
27.888
31.997
36.178
40.417
44.7
49.015
53.346
57.676
61.991
66.276
70.519
74.707
78.826
82.862
86.799
90.621
94.312
97.858
101.244
104.454
107.475
110.295
112.901
115.285
117.436
119.347
121.011
122.422
123.574
124.465
125.091
125.452
125.545
125.373
124.935
124.235
123.275
122.061
120.597
118.89
116.948
114.779
112.391
109.796
107.004
104.027
100.878
97.569
94.115
90.529
86.826
83.023
79.133
75.172
71.155
67.096
63.012
58.915
54.82
50.741
46.692
42.684
38.731
34.844
31.034
27.312
23.687
20.168
16.764
13.483
10.331
7.315
4.441
1.713
-0.865
-3.289
-5.558
-7.67
-9.625
-11.423
-13.066
-14.556
-15.895
-17.087
-18.137
-19.048
-19.828
-20.481
-21.015
-21.436
-21.752
-21.97
-22.099
-22.145
-22.116
-22.019
-21.861
-21.649
-21.389
-21.088
-20.753
-20.39
-20.005
-19.604
-19.193
-18.779
-18.365
-17.958
-17.561
-17.178
-16.814
-16.471
-16.154
-15.864
-15.605
-15.376
-15.181
-15.019
-14.89
-14.792
-14.724
-14.683
-14.666
-14.67
-14.69
-14.722
-14.763
-14.809
-14.86
-14.913
-14.963
-15.01
-15.049
-15.08
-15.097
-15.094
-15.064
-15
-14.897
-14.749
-14.552
-14.302
-13.992
-13.619
-13.182
-12.678
-12.105
-11.452
-10.706
-9.861
-8.92
-7.891
-6.789
-5.627
-4.414
-3.166
-1.905
-0.647
0.602
1.848
3.114
4.41
5.731
7.067
8.386
9.677
10.944
12.191
13.427
14.664
15.907
17.182
18.532
19.972
21.489
23.037
24.532
25.915
27.152
28.215
29.098
29.779
30.225
30.411
30.318
29.911
29.155
27.987
26.321
24.117
21.377
18.149
14.535
10.619
6.472
2.162
-2.251
-6.71
-11.152
-15.534
-19.818
-23.945
-27.839
-31.401
-34.519
-37.123
-39.179
-40.704
-41.767
-42.449
-42.84
-43.034
-43.121
-43.194
-43.346
-43.663
-44.227
-45.117
-46.441
-48.36
-50.962
-54.239
-58.083
-62.186
-66.198
-69.804
-72.585
-74.081
-74.024
-72.285
-69.046
-64.998
-60.806
-57.074
-54.466
-53.376
-54.014
-56.444
-60.061
-63.528
-64.748
-60.682
-48.451
-25.785
6.95
46.562
90.274
135.555
184.788
244.994
320.747
414.609
521.372
627.146
716.432
773.229
786.57
753.289
677.554
568.172
434.469
286.807
132.631
-19.062
-155.776
-267.847
-345.351
-385.263
-391.505
-368.214
-325.595
-272.762
-218.835
-176.916
-151.976
-144.659
-151.182
-160.458
-166.928
-169.502
-168.984
-170.048
-173.788
-177.974
-180.478
-178.719
-171.876
-160.914
-146.954
-131.258
-115.109
-99.623
-85.692
-73.912
-64.546
-57.557
-52.76
-49.918
-48.666
-48.563
-49.274
-50.552
-52.228
-54.241
-56.531
-59.03
-61.69
-64.448
-67.188
-69.754
-71.983
-73.743
-74.959
-75.6
-75.662
-75.16
-74.127
-72.622
-70.715
-68.464
-65.916
-63.102
-60.05
-56.81
-53.453
-50.067
-46.747
-43.559
-40.546
-37.737
-35.147
-32.778
-30.624
-28.659
-26.848
-25.166
-23.589
-22.107
-20.708
-19.371
-18.067
-16.761
-15.413
-13.993
-12.479
-10.854
-9.103
-7.221
-5.203
-3.055
-0.79
1.585
4.063
6.64
9.312
12.072
14.911
17.818
20.782
23.791
26.834
29.898
32.969
36.037
39.088
42.112
45.1
48.038
50.916
53.72
56.436
59.051
61.551
63.925
66.158
68.237
70.151
71.889
73.44
74.796
75.948
76.887
77.608
78.104
78.371
78.406
78.205
77.767
77.093
76.182
75.036
73.657
72.051
70.221
68.174
65.916
63.456
60.802
57.963
54.95
51.774
48.445
44.977
41.381
37.67
33.858
29.96
25.99
21.963
17.893
13.796
9.687
5.581
1.493
-2.563
-6.572
-10.521
-14.395
-18.182
-21.868
-25.443
-28.894
-32.212
-35.385
-38.406
-41.265
-43.957
-46.473
-48.81
-50.962
-52.926
-54.699
-56.277
-57.661
-58.849
-59.841
-60.64
-61.246
-61.663
-61.896
-61.95
-61.831
-61.545
-61.102
-60.508
-59.774
-58.908
-57.921
-56.821
-55.621
-54.328
-52.956
-51.513
-50.013
-48.464
-46.88
-45.269
-43.643
-42.012
-40.386
-38.773
-37.183
-35.624
-34.105
-32.635
-31.22
-29.868
-28.585
-27.379
-26.253
-25.212
-24.258
-23.392
-22.615
-21.926
-21.322
-20.799
-20.355
-19.985
-19.685
-19.45
-19.276
-19.157
-19.09
-19.068
-19.085
-19.134
-19.206
-19.289
-19.374
-19.448
-19.5
-19.519
-19.496
-19.421
-19.286
-19.084
-18.808
-18.449
-17.995
-17.432
-16.75
-15.94
-15.004
-13.945
-12.774
-11.51
-10.173
-8.788
-7.372
-5.937
-4.486
-3.01
-1.5
0.056
1.656
3.29
4.945
6.611
8.281
9.955
11.643
13.37
15.168
17.077
19.12
21.305
23.61
25.988
28.378
30.7
32.889
34.901
36.696
38.247
39.532
40.529
41.198
41.488
41.328
40.631
39.336
37.405
34.83
31.645
27.915
23.744
19.248
14.522
9.644
4.665
-0.393
-5.501
-10.594
-15.593
-20.379
-24.813
-28.811
-32.283
-35.124
-37.33
-38.979
-40.24
-41.425
-42.806
-44.452
-46.403
-48.675
-51.081
-53.445
-55.55
-56.931
-57.259
-56.566
-54.914
-52.48
-49.764
-47.088
-44.69
-43.097
-42.652
-43.335
-45.229
-48.344
-52.343
-57.199
-62.95
-69.221
-75.812
-82.667
-89.275
-94.88
-97.864
-95.39
-85.234
-66.155
-38.96
-6.009
32.637
79.007
137.184
211.242
299.916
397.794
497.101
589.906
671.242
736.014
777.528
786.947
754.979
678.328
560.146
411.235
247.524
83.088
-67.759
-194.847
-293.373
-358.915
-394.117
-403.411
-389.386
-359.74
-319.643
-275.144
-236.647
-207.905
-190.053
-180.924
-172.365
-160.866
-146.298
-130.108
-117.075
-108.864
-104.523
-103.037
-102.046
-100.302
-97.778
-94.094
-89.412
-84.168
-78.514
-72.739
-67.285
-62.43
-58.542
-56.15
-55.421
-56.235
-58.418
-61.632
-65.537
-69.886
-74.324
-78.426
-81.905
-84.597
-86.427
-87.429
-87.629
-87.023
-85.657
-83.61
-80.973
-77.844
-74.304
-70.431
-66.313
-62.055
-57.777
-53.582
-49.551
-45.741
-42.183
-38.894
-35.883
-33.148
-30.675
-28.442
-26.419
-24.575
-22.886
-21.319
-19.84
-18.41
-16.979
-15.507
-13.967
-12.336
-10.6
-8.75
-6.775
-4.674
-2.45
-0.106
2.356
4.934
7.631
10.444
13.371
16.405
19.538
22.763
26.073
29.462
32.921
36.443
40.016
43.634
47.289
50.97
54.665
58.362
62.045
65.701
69.316
72.874
76.36
79.759
83.057
86.239
89.292
92.204
94.96
97.55
99.961
102.182
104.203
106.015
107.609
108.976
110.111
111.007
111.659
112.065
112.22
112.124
111.776
111.176
110.328
109.233
107.897
106.323
104.519
102.492
100.249
97.799
95.152
92.318
89.308
86.135
82.809
79.343
75.752
72.047
68.242
64.353
60.392
56.375
52.314
48.226
44.125
40.023
35.937
31.879
27.863
23.902
20.009
16.195
12.472
8.851
5.342
1.953
-1.306
-4.429
-7.408
-10.237
-12.91
-15.424
-17.775
-19.96
-21.977
-23.825
-25.504
-27.015
-28.359
-29.54
-30.56
-31.424
-32.136
-32.702
-33.129
-33.423
-33.591
-33.642
-33.583
-33.423
-33.171
-32.836
-32.428
-31.955
-31.428
-30.854
-30.245
-29.608
-28.953
-28.287
-27.62
-26.96
-26.313
-25.688
-25.091
-24.529
-24.008
-23.533
-23.109
-22.739
-22.427
-22.175
-21.985
-21.858
-21.794
-21.793
-21.854
-21.974
-22.151
-22.383
-22.665
-22.993
-23.361
-23.765
-24.198
-24.653
-25.124
-25.603
-26.081
-26.553
-27.008
-27.44
-27.841
-28.202
-28.515
-28.771
-28.963
-29.082
-29.121
-29.072
-28.928
-28.684
-28.334
-27.873
-27.297
-26.604
-25.791
-24.855
-23.798
-22.619
-21.318
-19.898
-18.364
-16.719
-14.971
-13.126
-11.195
-9.189
-7.119
-4.999
-2.842
-0.662
1.525
3.702
5.851
7.954
9.992
11.946
13.796
15.524
17.11
18.536
19.786
20.846
21.703
22.344
22.753
22.921
22.84
22.51
21.932
21.105
20.026
18.697
17.122
15.312
13.276
11.028
8.577
5.941
3.148
0.231
-2.769
-5.821
-8.905
-12.008
-15.128
-18.245
-21.323
-24.325
-27.212
-29.948
-32.513
-34.875
-36.979
-38.847
-40.577
-42.312
-44.277
-46.656
-49.529
-52.946
-56.945
-61.384
-66.013
-70.505
-74.339
-77.052
-78.372
-78.115
-76.233
-73
-68.84
-64.17
-59.654
-55.917
-53.41
-52.582
-53.717
-56.688
-61.142
-66.73
-72.936
-79.252
-85.18
-90.03
-91.99
-88.426
-77.494
-57.402
-29.276
2.522
36.814
73.963
117.809
177.396
255.647
350.68
456.785
561.093
653.974
727.155
771.639
781.649
750.47
675.5
560.087
412.872
249.002
83.711
-67.411
-192.641
-287.362
-349.168
-381.592
-389.092
-374.131
-342.769
-301.059
-257.606
-222.076
-198.181
-184.693
-175.327
-163.656
-148.026
-130.703
-116.747
-109.451
-108.687
-112.541
-117.904
-122.529
-125.41
-125.774
-123.457
-118.688
-111.769
-103.297
-94.019
-84.642
-75.933
-68.669
-63.275
-59.832
-58.235
-58.187
-59.343
-61.396
-64
-66.781
-69.501
-72.01
-74.182
-75.97
-77.311
-78.143
-78.461
-78.277
-77.598
-76.436
-74.816
-72.77
-70.371
-67.691
-64.784
-61.702
-58.494
-55.223
-51.977
-48.829
-45.833
-43.026
-40.427
-38.053
-35.918
-34.019
-32.335
-30.836
-29.488
-28.26
-27.134
-26.084
-25.082
-24.094
-23.079
-22.002
-20.841
-19.577
-18.194
-16.68
-15.02
-13.213
-11.261
-9.169
-6.94
-4.577
-2.078
0.554
3.313
6.191
9.179
12.268
15.451
18.719
22.06
25.464
28.918
32.412
35.936
39.477
43.022
46.555
50.061
53.524
56.928
60.258
63.498
66.631
69.644
72.523
75.255
77.828
80.229
82.449
84.475
86.3
87.914
89.309
90.479
91.417
92.118
92.578
92.795
92.765
92.489
91.965
91.195
90.181
88.927
87.436
85.715
83.769
81.607
79.237
76.668
73.909
70.973
67.87
64.611
61.21
57.679
54.031
50.278
46.434
42.512
38.525
34.488
30.414
26.317
22.21
18.107
14.023
9.97
5.962
2.012
-1.867
-5.663
-9.363
-12.956
-16.432
-19.78
-22.99
-26.053
-28.963
-31.711
-34.291
-36.698
-38.928
-40.976
-42.841
-44.52
-46.013
-47.318
-48.438
-49.373
-50.126
-50.699
-51.097
-51.324
-51.385
-51.286
-51.033
-50.634
-50.098
-49.431
-48.643
-47.744
-46.743
-45.651
-44.479
-43.237
-41.936
-40.587
-39.202
-37.791
-36.365
-34.936
-33.513
-32.106
-30.725
-29.378
-28.075
-26.822
-25.626
-24.495
-23.432
-22.443
-21.532
-20.702
-19.954
-19.291
-18.713
-18.22
-17.811
-17.483
-17.234
-17.061
-16.959
-16.922
-16.946
-17.022
-17.144
-17.304
-17.495
-17.706
-17.93
-18.155
-18.374
-18.575
-18.749
-18.886
-18.975
-19.008
-18.975
-18.868
-18.68
-18.405
-18.035
-17.566
-16.994
-16.314
-15.524
-14.624
-13.612
-12.491
-11.263
-9.932
-8.505
-6.989
-5.392
-3.724
-1.998
-0.223
1.585
3.412
5.241
7.054
8.832
10.557
12.211
13.774
15.228
16.555
17.738
18.762
19.611
20.272
20.728
20.965
20.974
20.751
20.298
19.618
18.714
17.583
16.227
14.653
12.866
10.873
8.682
6.302
3.747
1.051
-1.747
-4.613
-7.517
-10.451
-13.419
-16.416
-19.42
-22.394
-25.292
-28.069
-30.699
-33.132
-35.309
-37.222
-38.938
-40.61
-42.457
-44.678
-47.378
-50.594
-54.348
-58.49
-62.711
-66.633
-69.773
-71.698
-72.188
-71.18
-68.651
-64.913
-60.574
-56.169
-52.301
-49.507
-48.02
-47.989
-49.661
-52.922
-57.247
-62.216
-67.44
-72.59
-77.597
-82.363
-85.504
-84.809
-78.785
-65.757
-46.481
-24.536
-0.51
26.382
60.362
110.724
180.963
270.042
372.901
476.318
570.688
649.372
703.707
730.317
725.01
682.169
604.269
495.046
359.601
209.046
52.025
-100.318
-233.352
-337.896
-406.276
-438.143
-440.354
-418.488
-381.668
-337.183
-290.845
-252.007
-224.42
-208.522
-202.003
-197.296
-190.702
-181.771
-171.53
-163.622
-158.807
-155.553
-152.061
-145.849
-136.102
-123.412
-108.473
-92.453
-76.469
-61.33
-47.996
-37.189
-29.15
-23.942
-21.409
-21.209
-22.973
-26.252
-30.491
-35.268
-40.321
-45.442
-50.482
-55.257
-59.541
-63.199
-66.165
-68.397
-69.876
-70.578
-70.484
-69.629
-68.097
-65.988
-63.412
-60.459
-57.197
-53.706
-50.083
-46.443
-42.909
-39.565
-36.454
-33.606
-31.031
-28.737
-26.724
-24.96
-23.398
-21.993
-20.701
-19.489
-18.332
-17.198
-16.046
-14.83
-13.501
-12.026
-10.381
-8.551
-6.522
-4.286
-1.838
0.816
3.661
6.686
9.884
13.248
16.773
20.449
24.265
28.205
32.255
36.401
40.627
44.917
49.256
53.626
58.011
62.397
66.769
71.111
75.407
79.638
83.787
87.835
91.766
95.563
99.209
102.688
105.987
109.091
111.989
114.67
117.123
119.34
121.311
123.031
124.492
125.691
126.622
127.284
127.676
127.798
127.651
127.237
126.561
125.627
124.44
123.008
121.339
119.441
117.323
114.997
112.472
109.761
106.875
103.827
100.63
97.295
93.838
90.27
86.605
82.856
79.036
75.159
71.237
67.284
63.312
59.334
55.363
51.411
47.49
43.611
39.786
36.025
32.339
28.737
25.228
21.819
18.521
15.338
12.279
9.348
6.552
3.894
1.38
-0.988
-3.206
-5.271
-7.183
-8.939
-10.538
-11.98
-13.264
-14.391
-15.361
-16.178
-16.842
-17.358
-17.728
-17.958
-18.053
-18.017
-17.857
-17.578
-17.186
-16.69
-16.094
-15.406
-14.633
-13.782
-12.861
-11.876
-10.835
-9.747
-8.619
-7.457
-6.271
-5.067
-3.854
-2.639
-1.429
-0.233
0.941
2.086
3.194
4.259
5.273
6.232
7.13
7.965
8.734
9.437
10.072
10.64
11.141
11.575
11.944
12.247
12.485
12.657
12.766
12.814
12.805
12.745
12.641
12.499
12.328
12.136
11.935
11.735
11.542
11.364
11.21
11.093
11.03
11.036
11.116
11.276
11.517
11.837
12.232
12.691
13.188
13.701
14.209
14.694
15.154
15.591
15.999
16.377
16.717
17.024
17.322
17.642
18.007
18.447
18.99
19.675
20.57
21.733
23.204
25.01
27.141
29.573
32.284
35.242
38.399
41.693
45.022
48.268
51.34
54.139
56.572
58.546
59.923
60.587
60.46
59.487
57.665
55.022
51.585
47.394
42.527
37.07
31.157
24.946
18.562
12.131
5.773
-0.402
-6.249
-11.638
-16.486
-20.743
-24.419
-27.572
-30.248
-32.497
-34.389
-35.998
-37.444
-38.876
-40.421
-42.198
-44.289
-46.795
-49.869
-53.59
-57.937
-62.748
-67.642
-72.185
-76.015
-78.703
-79.811
-79.11
-76.487
-72.165
-66.888
-61.438
-56.546
-53.047
-51.533
-52.102
-54.716
-58.783
-62.632
-64.533
-62.035
-51.538
-31.071
0.118
41.708
90.249
143.899
203.251
268.363
341.795
423.387
507.888
589.485
657.484
700.255
709.077
675.678
598.741
483.013
337.205
175.671
13.466
-134.229
-254.342
-339.981
-390.376
-411.395
-410.981
-394.684
-365.864
-325.973
-278.771
-232.424
-194.315
-168.964
-155.694
-148.189
-141.825
-134.881
-128.287
-125.764
-128.55
-135.384
-144.105
-151.525
-155.75
-156.529
-154.079
-149.054
-142.231
-134.216
-125.758
-117.788
-111.137
-106.23
-103.132
-101.651
-101.386
-101.956
-103.014
-104.168
-105.066
-105.499
-105.387
-104.738
-103.623
-102.094
-100.162
-97.825
-95.093
-91.996
-88.572
-84.894
-81.053
-77.138
-73.24
-69.438
-65.782
-62.307
-59.033
-55.955
-53.061
-50.342
-47.791
-45.423
-43.254
-41.28
-39.488
-37.848
-36.313
-34.846
-33.409
-31.961
-30.471
-28.914
-27.271
-25.539
-23.718
-21.805
-19.796
-17.682
-15.449
-13.092
-10.605
-7.985
-5.234
-2.353
0.654
3.78
7.017
10.357
13.792
17.316
20.923
24.607
28.356
32.162
36.011
39.891
43.786
47.682
51.561
55.406
59.2
62.927
66.569
70.111
73.536
76.828
79.973
82.955
85.761
88.378
90.793
92.994
94.971
96.714
98.213
99.463
100.455
101.186
101.65
101.846
101.772
101.428
100.813
99.931
98.784
97.375
95.709
93.794
91.635
89.243
86.625
83.793
80.758
77.532
74.128
70.559
66.837
62.978
58.996
54.904
50.717
46.451
42.121
37.741
33.326
28.891
24.452
20.022
15.616
11.248
6.932
2.68
-1.494
-5.578
-9.56
-13.428
-17.172
-20.782
-24.247
-27.56
-30.712
-33.696
-36.505
-39.136
-41.582
-43.841
-45.909
-47.785
-49.468
-50.956
-52.251
-53.353
-54.264
-54.987
-55.526
-55.883
-56.064
-56.074
-55.919
-55.604
-55.138
-54.527
-53.779
-52.902
-51.906
-50.799
-49.59
-48.29
-46.908
-45.455
-43.939
-42.372
-40.763
-39.122
-37.457
-35.779
-34.095
-32.415
-30.744
-29.091
-27.463
-25.864
-24.302
-22.781
-21.305
-19.877
-18.502
-17.181
-15.916
-14.707
-13.556
-12.46
-11.419
-10.431
-9.493
-8.603
-7.756
-6.949
-6.177
-5.433
-4.713
-4.01
-3.317
-2.628
-1.936
-1.234
-0.518
0.22
0.985
1.782
2.614
3.487
4.402
5.364
6.373
7.432
8.539
9.693
10.893
12.135
13.415
14.725
16.056
17.4
18.747
20.087
21.408
22.698
23.942
25.124
26.233
27.254
28.175
28.978
29.648
30.169
30.528
30.717
30.724
30.541
30.153
29.55
28.732
27.698
26.451
24.991
23.308
21.396
19.259
16.905
14.345
11.592
8.656
5.549
2.308
-1.031
-4.425
-7.828
-11.221
-14.581
-17.887
-21.124
-24.245
-27.194
-29.934
-32.425
-34.636
-36.581
-38.25
-39.619
-40.757
-41.771
-42.851
-44.299
-46.265
-48.745
-51.722
-55.173
-59.078
-63.381
-67.714
-71.369
-73.838
-74.938
-74.711
-73.339
-70.836
-67.2
-62.842
-58.753
-56.014
-55.321
-56.895
-60.612
-66.35
-74.011
-83.187
-92.665
-100.516
-104.787
-103.673
-95.655
-79.428
-53.48
-16.384
32.616
92.685
161.28
234.973
309.935
383.913
456.746
528.113
596.263
655.512
695.33
703.922
672.588
599.547
490.743
358.714
217.383
77.78
-49.996
-160.078
-248.935
-311.783
-348.603
-360.156
-348.05
-319.597
-282.302
-245.353
-217.381
-200.503
-192.693
-188.013
-181.061
-170.928
-159.281
-149.967
-145.471
-145.3
-147.954
-151.088
-152.72
-151.981
-148.6
-142.75
-134.834
-125.334
-114.73
-103.6
-92.77
-83.1
-75.112
-69.019
-64.798
-62.24
-61.144
-61.306
-62.38
-63.945
-65.719
-67.55
-69.365
-71.156
-72.854
-74.318
-75.441
-76.183
-76.512
-76.421
-75.897
-74.909
-73.465
-71.617
-69.43
-66.982
-64.323
-61.476
-58.469
-55.348
-52.175
-49.041
-46.018
-43.147
-40.457
-37.965
-35.679
-33.608
-31.742
-30.048
-28.49
-27.033
-25.652
-24.335
-23.065
-21.814
-20.548
-19.225
-17.813
-16.291
-14.64
-12.845
-10.895
-8.78
-6.498
-4.061
-1.476
1.251
4.116
7.118
10.25
13.503
16.867
20.329
23.879
27.503
31.19
34.925
38.693
42.48
46.272
50.056
53.817
57.54
61.207
64.801
68.304
71.7
74.971
78.101
81.074
83.875
86.489
88.906
91.112
93.098
94.853
96.369
97.637
98.652
99.408
99.901
100.127
100.084
99.773
99.194
98.347
97.237
95.865
94.239
92.363
90.246
87.895
85.319
82.53
79.539
76.357
72.999
69.476
65.804
61.998
58.071
54.04
49.92
45.725
41.471
37.173
32.847
28.506
24.165
19.838
15.539
11.283
7.081
2.948
-1.106
-5.069
-8.93
-12.677
-16.303
-19.798
-23.153
-26.361
-29.416
-32.313
-35.045
-37.61
-40.005
-42.228
-44.277
-46.153
-47.857
-49.389
-50.752
-51.949
-52.984
-53.86
-54.583
-55.157
-55.588
-55.883
-56.047
-56.088
-56.012
-55.827
-55.541
-55.16
-54.694
-54.15
-53.536
-52.86
-52.129
-51.352
-50.535
-49.686
-48.811
-47.917
-47.008
-46.092
-45.171
-44.25
-43.333
-42.422
-41.519
-40.626
-39.742
-38.869
-38.006
-37.151
-36.303
-35.459
-34.619
-33.778
-32.935
-32.085
-31.225
-30.351
-29.459
-28.543
-27.601
-26.625
-25.612
-24.556
-23.454
-22.3
-21.091
-19.823
-18.492
-17.098
-15.637
-14.109
-12.514
-10.851
-9.124
-7.335
-5.487
-3.587
-1.64
0.345
2.359
4.391
6.43
8.463
10.478
12.462
14.401
16.282
18.092
19.819
21.448
22.965
24.354
25.6
26.686
27.598
28.322
28.843
29.15
29.233
29.088
28.71
28.095
27.239
26.13
24.762
23.134
21.247
19.106
16.723
14.114
11.306
8.338
5.247
2.069
-1.163
-4.428
-7.696
-10.94
-14.12
-17.191
-20.11
-22.843
-25.357
-27.625
-29.633
-31.387
-32.923
-34.31
-35.607
-36.866
-38.137
-39.468
-40.924
-42.583
-44.527
-46.825
-49.558
-52.835
-56.693
-61.106
-65.937
-70.873
-75.557
-79.633
-82.695
-84.333
-84.307
-82.507
-79.12
-74.809
-70.221
-66.01
-62.857
-61.117
-61.038
-62.802
-65.846
-68.81
-69.506
-64.716
-51.789
-29.513
0.996
37.148
77.639
123.2
178.457
247.895
331.573
425.894
521.409
608.229
679.708
729.073
750.919
738.742
684.97
587.369
450.961
288.673
119.693
-36.106
-164.534
-258.921
-318.694
-349.6
-356.36
-340.88
-308.274
-262.883
-212.691
-170.439
-141.86
-128.466
-127.133
-128.595
-128.442
-126.123
-122.899
-123.045
-127.539
-134.584
-141.897
-146.365
-146.703
-143.311
-136.784
-128.067
-118.074
-107.413
-96.927
-87.572
-79.835
-73.923
-69.884
-67.511
-66.558
-66.789
-67.829
-69.225
-70.685
-72.005
-73.046
-73.787
-74.199
-74.248
-73.962
-73.368
-72.471
-71.258
-69.686
-67.719
-65.363
-62.649
-59.621
-56.347
-52.901
-49.365
-45.844
-42.41
-39.111
-35.973
-32.999
-30.193
-27.563
-25.115
-22.853
-20.78
-18.89
-17.174
-15.624
-14.217
-12.926
-11.712
-10.52
-9.31
-8.056
-6.735
-5.334
-3.841
-2.245
-0.539
1.28
3.214
5.269
7.452
9.77
12.227
14.822
17.552
20.408
23.381
26.466
29.654
32.936
36.305
39.752
43.268
46.847
50.48
54.156
57.861
61.581
65.301
69.005
72.676
76.298
79.853
83.325
86.697
89.955
93.084
96.068
98.895
101.549
104.019
106.292
108.357
110.203
111.82
113.2
114.335
115.219
115.848
116.217
116.324
116.168
115.748
115.065
114.12
112.917
111.458
109.749
107.797
105.608
103.192
100.558
97.717
94.681
91.462
88.074
84.53
80.846
77.034
73.111
69.092
64.992
60.828
56.615
52.37
48.109
43.848
39.603
35.388
31.218
27.108
23.072
19.123
15.274
11.536
7.921
4.44
1.102
-2.083
-5.107
-7.963
-10.645
-13.148
-15.468
-17.602
-19.548
-21.305
-22.875
-24.257
-25.455
-26.472
-27.312
-27.979
-28.481
-28.825
-29.017
-29.067
-28.983
-28.774
-28.451
-28.024
-27.503
-26.898
-26.22
-25.481
-24.689
-23.857
-22.994
-22.111
-21.219
-20.325
-19.44
-18.572
-17.729
-16.918
-16.145
-15.416
-14.737
-14.111
-13.541
-13.03
-12.579
-12.189
-11.858
-11.586
-11.37
-11.205
-11.088
-11.013
-10.974
-10.965
-10.979
-11.008
-11.044
-11.08
-11.105
-11.112
-11.093
-11.037
-10.937
-10.783
-10.569
-10.285
-9.926
-9.485
-8.956
-8.334
-7.616
-6.797
-5.878
-4.855
-3.73
-2.504
-1.18
0.238
1.744
3.331
4.991
6.71
8.476
10.276
12.094
13.915
15.721
17.494
19.219
20.88
22.461
23.945
25.316
26.554
27.642
28.563
29.304
29.849
30.187
30.304
30.193
29.852
29.278
28.466
27.409
26.091
24.502
22.641
20.51
18.118
15.478
12.605
9.526
6.283
2.918
-0.527
-4.016
-7.526
-11.024
-14.466
-17.799
-20.953
-23.869
-26.51
-28.846
-30.857
-32.542
-33.912
-35.007
-35.9
-36.672
-37.403
-38.175
-39.062
-40.149
-41.529
-43.319
-45.695
-48.754
-52.497
-56.818
-61.456
-66.116
-70.545
-74.384
-77.159
-78.549
-78.407
-76.898
-74.651
-72.282
-70.266
-69.119
-69.279
-70.969
-74.177
-78.278
-81.864
-83.31
-80.84
-72.646
-57.134
-32.619
2.431
48.826
106.697
174.513
248.698
325.475
400.674
471.681
539.251
603.095
661.197
707.73
730.483
717.474
660.184
556.822
416.235
253.325
86.121
-67.716
-196.254
-292.2
-353.599
-383.448
-385.246
-365.571
-332.462
-293.408
-257.986
-230.989
-212.296
-199.209
-185.04
-166.92
-146.303
-126.221
-111.608
-104.392
-103.468
-107.048
-112.493
-117.93
-122.392
-124.919
-125.136
-123.157
-119.245
-113.943
-107.862
-101.611
-95.919
-91.497
-88.709
-87.545
-87.754
-88.959
-90.799
-92.96
-95.114
-96.918
-98.149
-98.715
-98.589
-97.789
-96.344
-94.269
-91.599
-88.417
-84.808
-80.865
-76.711
-72.453
-68.181
-63.989
-59.932
-56.045
-52.362
-48.9
-45.665
-42.677
-39.943
-37.461
-35.239
-33.267
-31.525
-29.983
-28.589
-27.291
-26.049
-24.829
-23.603
-22.354
-21.062
-19.716
-18.315
-16.853
-15.32
-13.709
-12.007
-10.203
-8.291
-6.268
-4.132
-1.886
0.471
2.937
5.509
8.186
10.965
13.844
16.823
19.898
23.066
26.319
29.648
33.042
36.491
39.982
43.501
47.034
50.566
54.082
57.569
61.01
64.392
67.698
70.914
74.026
77.018
79.876
82.587
85.136
87.512
89.701
91.694
93.48
95.049
96.393
97.505
98.38
99.012
99.397
99.532
99.415
99.046
98.426
97.555
96.437
95.077
93.479
91.65
89.598
87.332
84.861
82.195
79.345
76.323
73.141
69.812
66.35
62.77
59.085
55.31
51.461
47.552
43.599
39.616
35.619
31.621
27.639
23.685
19.774
15.92
12.136
8.434
4.827
1.326
-2.058
-5.315
-8.435
-11.41
-14.232
-16.894
-19.39
-21.714
-23.863
-25.834
-27.625
-29.234
-30.664
-31.914
-32.988
-33.889
-34.622
-35.191
-35.602
-35.861
-35.974
-35.949
-35.793
-35.515
-35.124
-34.628
-34.039
-33.365
-32.618
-31.808
-30.945
-30.04
-29.104
-28.147
-27.18
-26.213
-25.258
-24.325
-23.424
-22.565
-21.756
-21.005
-20.32
-19.704
-19.163
-18.7
-18.315
-18.008
-17.781
-17.633
-17.564
-17.573
-17.659
-17.819
-18.055
-18.363
-18.738
-19.173
-19.66
-20.19
-20.754
-21.339
-21.934
-22.525
-23.101
-23.65
-24.167
-24.641
-25.059
-25.405
-25.658
-25.806
-25.842
-25.756
-25.543
-25.205
-24.745
-24.183
-23.547
-22.859
-22.125
-21.347
-20.515
-19.62
-18.659
-17.626
-16.512
-15.31
-14.009
-12.605
-11.104
-9.497
-7.762
-5.858
-3.716
-1.297
1.406
4.387
7.615
11.047
14.636
18.312
21.983
25.568
28.993
32.198
35.149
37.796
40.066
41.871
43.086
43.619
43.418
42.452
40.715
38.229
35.032
31.207
26.888
22.201
17.253
12.131
6.892
1.601
-3.658
-8.778
-13.632
-18.108
-22.118
-25.603
-28.515
-30.823
-32.539
-33.727
-34.516
-35.057
-35.466
-35.83
-36.219
-36.715
-37.428
-38.482
-39.976
-42.01
-44.709
-48.136
-52.313
-57.16
-62.373
-67.571
-72.377
-76.332
-78.973
-79.995
-79.191
-76.687
-73.178
-69.394
-65.951
-63.613
-63.026
-64.618
-68.813
-74.545
-78.922
-79.51
-74.016
-62.21
-46.545
-26.788
-0.612
36.771
92.38
167.705
258.998
359.084
457.649
547.784
625.527
685.749
723.003
729.438
696.774
622.994
511.532
372.046
218.753
64.033
-79.291
-201.792
-298.793
-365.525
-403.708
-416.218
-403.854
-373.319
-330.208
-282.427
-243.025
-217.569
-207.098
-207.582
-208.079
-202.931
-191.122
-174.536
-159.24
-147.817
-139.813
-134.366
-129.147
-123.134
-116.755
-110.042
-103.088
-96.207
-89.424
-82.81
-76.636
-71.005
-65.973
-61.83
-58.953
-57.45
-57.275
-58.269
-60.14
-62.709
-65.837
-69.26
-72.611
-75.567
-77.92
-79.583
-80.571
-80.899
-80.554
-79.548
-77.934
-75.797
-73.232
-70.322
-67.126
-63.678
-60.036
-56.273
-52.486
-48.792
-45.272
-41.963
-38.891
-36.067
-33.5
-31.199
-29.15
-27.311
-25.646
-24.12
-22.708
-21.396
-20.16
-18.964
-17.768
-16.525
-15.201
-13.775
-12.23
-10.552
-8.729
-6.751
-4.619
-2.342
0.073
2.623
5.306
8.122
11.068
14.135
17.315
20.597
23.973
27.433
30.966
34.56
38.203
41.882
45.586
49.304
53.023
56.73
60.408
64.042
67.616
71.114
74.522
77.821
80.998
84.037
86.924
89.648
92.196
94.556
96.718
98.672
100.41
101.924
103.206
104.252
105.055
105.613
105.923
105.982
105.791
105.349
104.658
103.722
102.542
101.126
99.477
97.603
95.51
93.209
90.707
88.016
85.144
82.105
78.909
75.569
72.099
68.51
64.817
61.033
57.17
53.243
49.265
45.248
41.207
37.153
33.1
29.061
25.048
21.074
17.149
13.286
9.496
5.789
2.175
-1.336
-4.735
-8.014
-11.165
-14.181
-17.055
-19.782
-22.355
-24.772
-27.029
-29.124
-31.054
-32.82
-34.422
-35.86
-37.137
-38.256
-39.219
-40.029
-40.691
-41.209
-41.587
-41.832
-41.947
-41.941
-41.819
-41.588
-41.255
-40.83
-40.318
-39.728
-39.067
-38.345
-37.569
-36.747
-35.887
-34.999
-34.09
-33.168
-32.242
-31.319
-30.405
-29.506
-28.626
-27.771
-26.942
-26.142
-25.37
-24.627
-23.914
-23.231
-22.576
-21.95
-21.352
-20.783
-20.243
-19.73
-19.241
-18.773
-18.32
-17.874
-17.43
-16.978
-16.511
-16.021
-15.501
-14.945
-14.352
-13.714
-13.026
-12.278
-11.456
-10.55
-9.559
-8.479
-7.313
-6.069
-4.763
-3.42
-2.07
-0.732
0.581
1.866
3.131
4.38
5.618
6.854
8.082
9.301
10.514
11.713
12.898
14.085
15.3
16.593
18.022
19.615
21.38
23.31
25.365
27.503
29.666
31.775
33.767
35.593
37.208
38.589
39.708
40.509
40.924
40.865
40.231
38.965
37.034
34.424
31.168
27.32
22.974
18.266
13.311
8.201
3.009
-2.21
-7.393
-12.445
-17.265
-21.744
-25.777
-29.289
-32.22
-34.526
-36.216
-37.338
-37.987
-38.307
-38.425
-38.447
-38.479
-38.614
-38.951
-39.624
-40.797
-42.576
-44.986
-47.963
-51.315
-54.823
-58.279
-61.374
-63.676
-64.867
-64.787
-63.523
-61.56
-59.434
-57.5
-56.204
-55.987
-57.04
-59.46
-62.895
-66.181
-67.928
-66.776
-61.118
-49.478
-30.538
-2.704
35.109
83.092
140.414
204.616
272.256
339.703
404.585
466.77
526.728
583.368
631.329
660.191
657.562
614.189
527.946
404.354
256.039
98.012
-55.197
-189.976
-297.689
-373.023
-415.54
-429.43
-418.824
-391.037
-352.808
-310.895
-274.337
-246.827
-228.9
-217.301
-205.6
-192.187
-178.686
-169.6
-168.534
-172.941
-177.86
-176.729
-166.544
-150.634
-132.989
-117.953
-106.971
-97.533
-88.17
-78.164
-68.021
-59.628
-53.71
-50.212
-48.934
-49.322
-51.029
-53.819
-57.234
-60.937
-64.725
-68.437
-71.955
-75.086
-77.639
-79.51
-80.668
-81.124
-80.889
-79.951
-78.319
-76.061
-73.27
-70.055
-66.518
-62.718
-58.722
-54.613
-50.492
-46.484
-42.681
-39.131
-35.866
-32.9
-30.243
-27.905
-25.869
-24.092
-22.531
-21.145
-19.901
-18.777
-17.745
-16.764
-15.793
-14.781
-13.692
-12.501
-11.19
-9.74
-8.14
-6.377
-4.451
-2.371
-0.141
2.235
4.756
7.425
10.238
13.188
16.268
19.469
22.784
26.204
29.72
33.319
36.992
40.726
44.51
48.334
52.185
56.048
59.907
63.745
67.546
71.293
74.968
78.554
82.033
85.389
88.607
91.672
94.57
97.286
99.809
102.125
104.224
106.096
107.73
109.12
110.256
111.134
111.749
112.095
112.171
111.974
111.506
110.766
109.758
108.485
106.951
105.165
103.131
100.86
98.361
95.645
92.722
89.605
86.308
82.844
79.227
75.472
71.595
67.61
63.532
59.378
55.162
50.901
46.609
42.302
37.996
33.706
29.447
25.234
21.083
17.006
13.017
9.13
5.357
1.708
-1.805
-5.173
-8.386
-11.436
-14.317
-17.022
-19.546
-21.885
-24.036
-25.998
-27.77
-29.353
-30.749
-31.959
-32.988
-33.837
-34.513
-35.019
-35.361
-35.545
-35.579
-35.468
-35.223
-34.85
-34.361
-33.764
-33.071
-32.291
-31.434
-30.512
-29.536
-28.515
-27.461
-26.385
-25.297
-24.208
-23.127
-22.066
-21.031
-20.031
-19.072
-18.161
-17.302
-16.498
-15.749
-15.059
-14.428
-13.859
-13.35
-12.903
-12.519
-12.198
-11.941
-11.747
-11.614
-11.536
-11.507
-11.52
-11.567
-11.639
-11.724
-11.812
-11.894
-11.961
-12.009
-12.029
-12.011
-11.942
-11.805
-11.588
-11.287
-10.897
-10.415
-9.847
-9.201
-8.497
-7.77
-7.04
-6.318
-5.606
-4.893
-4.171
-3.437
-2.683
-1.905
-1.097
-0.245
0.654
1.596
2.597
3.679
4.89
6.304
7.965
9.883
12.053
14.441
17.003
19.696
22.454
25.187
27.823
30.289
32.532
34.528
36.224
37.548
38.402
38.654
38.208
37.026
35.084
32.386
28.966
24.871
20.198
15.1
9.709
4.132
-1.541
-7.264
-12.961
-18.52
-23.815
-28.697
-33.048
-36.807
-39.933
-42.381
-44.151
-45.273
-45.831
-46.004
-45.962
-45.835
-45.744
-45.785
-46.049
-46.697
-47.921
-49.846
-52.523
-55.874
-59.699
-63.849
-68.205
-72.532
-76.464
-79.661
-81.898
-83.244
-84.041
-84.552
-84.896
-85.169
-85.571
-86.183
-86.81
-87.051
-86.19
-83.454
-78.204
-69.114
-54.073
-31.637
-1.403
34.914
74.014
114.643
157.981
207.75
268.038
338.702
416.179
494.694
567.897
631.123
678.967
703.888
696.97
650.822
563.822
440.864
294.448
140.04
-8.635
-138.654
-243.734
-321.549
-370.279
-391.928
-386.625
-356.637
-309.664
-255.11
-205.891
-170.71
-150.891
-142.908
-138.381
-132.265
-124.118
-115.775
-111.818
-113.946
-120.667
-129.766
-137.679
-142.052
-142.54
-139.279
-132.9
-124.242
-113.966
-102.843
-91.959
-82.35
-74.552
-68.762
-64.933
-62.775
-62.02
-62.405
-63.513
-64.937
-66.461
-67.971
-69.436
-70.891
-72.282
-73.504
-74.494
-75.183
-75.514
-75.462
-74.984
-74.054
-72.685
-70.913
-68.795
-66.393
-63.743
-60.863
-57.785
-54.542
-51.192
-47.818
-44.481
-41.237
-38.132
-35.189
-32.426
-29.856
-27.47
-25.246
-23.158
-21.173
-19.273
-17.447
-15.677
-13.944
-12.218
-10.46
-8.641
-6.739
-4.734
-2.611
-0.36
2.03
4.559
7.219
10.003
12.904
15.919
19.044
22.274
25.602
29.017
32.508
36.064
39.675
43.33
47.016
50.722
54.434
58.141
61.833
65.498
69.121
72.69
76.188
79.6
82.914
86.113
89.183
92.11
94.882
97.486
99.911
102.146
104.183
106.011
107.622
109.01
110.168
111.091
111.774
112.214
112.408
112.356
112.058
111.512
110.722
109.689
108.417
106.909
105.173
103.213
101.038
98.654
96.072
93.3
90.35
87.232
83.959
80.541
76.992
73.325
69.553
65.69
61.748
57.741
53.684
49.589
45.471
41.342
37.217
33.108
29.028
24.99
21.008
17.091
13.253
9.504
5.856
2.317
-1.102
-4.393
-7.548
-10.559
-13.42
-16.125
-18.67
-21.05
-23.262
-25.304
-27.175
-28.875
-30.403
-31.761
-32.952
-33.977
-34.841
-35.548
-36.102
-36.51
-36.779
-36.914
-36.923
-36.814
-36.596
-36.276
-35.865
-35.371
-34.804
-34.174
-33.489
-32.761
-31.997
-31.209
-30.405
-29.594
-28.783
-27.982
-27.198
-26.437
-25.705
-25.009
-24.354
-23.742
-23.178
-22.663
-22.2
-21.789
-21.43
-21.121
-20.861
-20.647
-20.474
-20.34
-20.238
-20.163
-20.109
-20.069
-20.036
-20.001
-19.957
-19.896
-19.807
-19.684
-19.517
-19.297
-19.016
-18.667
-18.241
-17.733
-17.135
-16.442
-15.649
-14.752
-13.749
-12.638
-11.417
-10.087
-8.651
-7.112
-5.473
-3.743
-1.928
-0.04
1.91
3.909
5.944
7.998
10.056
12.101
14.116
16.085
17.992
19.819
21.548
23.162
24.639
25.962
27.113
28.076
28.835
29.377
29.687
29.762
29.593
29.176
28.5
27.552
26.319
24.797
22.987
20.893
18.526
15.902
13.046
9.999
6.801
3.493
0.112
-3.314
-6.754
-10.168
-13.508
-16.716
-19.733
-22.52
-25.044
-27.277
-29.217
-30.874
-32.288
-33.535
-34.69
-35.83
-37.037
-38.383
-39.948
-41.83
-44.117
-46.921
-50.376
-54.525
-59.337
-64.71
-70.381
-76.063
-81.464
-86.17
-89.735
-91.887
-92.481
-91.617
-89.749
-87.318
-84.739
-82.485
-80.863
-80.046
-80.128
-80.733
-80.949
-78.923
-71.93
-57.831
-35.525
-6.26
27.166
64.163
106.57
158.872
225.705
306.594
396.562
487.955
573.364
648.214
707.905
746.012
753.113
719.459
641.244
521.596
372.003
209.112
48.828
-93.501
-206.983
-286.723
-332.822
-351.891
-353.214
-344.809
-331.188
-313.275
-290.312
-261.697
-229.59
-197.27
-167.868
-144.667
-128.923
-120.09
-117.114
-118.239
-121.65
-126.2
-130.814
-134.067
-134.849
-132.717
-127.732
-120.504
-111.92
-102.663
-93.367
-84.903
-78.083
-73.333
-70.771
-70.203
-71.231
-73.519
-76.742
-80.454
-84.206
-87.673
-90.65
-93.058
-94.887
-96.091
-96.622
-96.48
-95.684
-94.273
-92.287
-89.756
-86.721
-83.253
-79.445
-75.404
-71.233
-67.031
-62.869
-58.805
-54.889
-51.162
-47.652
-44.376
-41.337
-38.526
-35.931
-33.54
-31.333
-29.285
-27.364
-25.532
-23.747
-21.97
-20.167
-18.315
-16.394
-14.389
-12.287
-10.082
-7.769
-5.352
-2.833
-0.208
2.521
5.354
8.29
11.322
14.444
17.648
20.927
24.272
27.676
31.13
34.627
38.158
41.714
45.289
48.873
52.455
56.023
59.563
63.063
66.508
69.886
73.181
76.38
79.47
82.437
85.27
87.957
90.488
92.851
95.038
97.038
98.843
100.446
101.839
103.016
103.973
104.704
105.207
105.48
105.522
105.332
104.91
104.259
103.382
102.281
100.961
99.427
97.685
95.742
93.606
91.286
88.79
86.129
83.313
80.354
77.261
74.047
70.723
67.302
63.794
60.213
56.569
52.876
49.146
45.39
41.621
37.852
34.093
30.357
26.655
22.997
19.394
15.857
12.395
9.017
5.731
2.547
-0.528
-3.488
-6.326
-9.036
-11.614
-14.055
-16.357
-18.516
-20.53
-22.399
-24.122
-25.698
-27.129
-28.416
-29.56
-30.565
-31.433
-32.17
-32.779
-33.265
-33.634
-33.893
-34.047
-34.104
-34.07
-33.952
-33.758
-33.496
-33.173
-32.798
-32.378
-31.922
-31.438
-30.934
-30.417
-29.896
-29.377
-28.867
-28.373
-27.901
-27.457
-27.045
-26.671
-26.34
-26.054
-25.818
-25.634
-25.502
-25.424
-25.399
-25.427
-25.505
-25.631
-25.8
-26.009
-26.253
-26.53
-26.834
-27.159
-27.501
-27.854
-28.212
-28.569
-28.915
-29.241
-29.536
-29.79
-29.994
-30.141
-30.222
-30.229
-30.153
-29.987
-29.73
-29.377
-28.919
-28.344
-27.638
-26.798
-25.827
-24.738
-23.538
-22.234
-20.836
-19.358
-17.821
-16.239
-14.618
-12.946
-11.213
-9.421
-7.583
-5.727
-3.879
-2.054
-0.248
1.544
3.32
5.072
6.802
8.526
10.271
12.039
13.795
15.472
17.005
18.352
19.49
20.417
21.124
21.586
21.767
21.634
21.165
20.344
19.14
17.499
15.367
12.726
9.622
6.15
2.406
-1.54
-5.639
-9.856
-14.14
-18.428
-22.652
-26.749
-30.67
-34.366
-37.771
-40.808
-43.407
-45.542
-47.253
-48.644
-49.802
-50.811
-51.752
-52.696
-53.746
-55.016
-56.594
-58.581
-61.093
-64.193
-67.876
-72.082
-76.615
-81.224
-85.665
-89.585
-92.576
-94.383
-94.887
-94.146
-92.535
-90.5
-88.365
-86.519
-85.306
-84.824
-85.077
-85.827
-86.386
-85.124
-79.742
-68.243
-48.668
-21.644
9.539
43.774
80.624
122.728
177.471
247.235
331.217
425.824
520.981
609.334
683.201
732.627
750.389
728.303
664.369
563.814
434.714
290.482
141.551
-2.739
-131.287
-237.456
-314.047
-358.523
-374.647
-365.798
-339.862
-303.802
-263.579
-228.001
-200.409
-182.093
-171.935
-163.872
-155.773
-147.554
-139.803
-136.17
-137.554
-142.377
-149.08
-154.75
-157.342
-156.64
-152.747
-146.105
-137.424
-127.297
-116.369
-105.633
-96.119
-88.349
-82.52
-78.611
-76.365
-75.538
-75.914
-77.103
-78.651
-80.295
-81.892
-83.382
-84.801
-86.102
-87.165
-87.92
-88.312
-88.299
-87.87
-87.003
-85.667
-83.876
-81.669
-79.104
-76.261
-73.191
-69.917
-66.473
-62.889
-59.22
-55.549
-51.939
-48.439
-45.087
-41.901
-38.896
-36.086
-33.465
-31.01
-28.695
-26.486
-24.362
-22.316
-20.33
-18.387
-16.46
-14.513
-12.516
-10.453
-8.306
-6.063
-3.714
-1.25
1.331
4.018
6.806
9.687
12.657
15.714
18.855
22.07
25.351
28.689
32.072
35.494
38.943
42.409
45.881
49.349
52.803
56.234
59.632
62.987
66.287
69.519
72.672
75.733
78.692
81.536
84.253
86.833
89.266
91.544
93.658
95.599
97.361
98.936
100.318
101.502
102.482
103.255
103.817
104.166
104.3
104.217
103.918
103.404
102.674
101.731
100.579
99.22
97.66
95.902
93.954
91.821
89.512
87.032
84.392
81.6
78.664
75.597
72.407
69.106
65.705
62.214
58.646
55.012
51.325
47.596
43.839
40.065
36.288
32.52
28.774
25.063
21.398
17.793
14.258
10.804
7.444
4.186
1.042
-1.98
-4.871
-7.622
-10.227
-12.679
-14.971
-17.099
-19.059
-20.847
-22.461
-23.9
-25.162
-26.247
-27.157
-27.893
-28.457
-28.854
-29.086
-29.161
-29.085
-28.863
-28.504
-28.017
-27.41
-26.693
-25.875
-24.967
-23.979
-22.92
-21.802
-20.636
-19.432
-18.201
-16.955
-15.703
-14.457
-13.227
-12.022
-10.851
-9.724
-8.647
-7.63
-6.679
-5.801
-5.001
-4.285
-3.657
-3.121
-2.679
-2.332
-2.081
-1.923
-1.857
-1.88
-1.987
-2.173
-2.432
-2.757
-3.144
-3.585
-4.075
-4.605
-5.167
-5.755
-6.36
-6.971
-7.578
-8.166
-8.722
-9.237
-9.698
-10.098
-10.424
-10.667
-10.819
-10.875
-10.828
-10.672
-10.395
-9.98
-9.419
-8.713
-7.869
-6.9
-5.818
-4.632
-3.359
-2.022
-0.637
0.788
2.255
3.784
5.379
7.033
8.729
10.434
12.129
13.813
15.485
17.151
18.819
20.489
22.181
23.935
25.757
27.631
29.512
31.312
32.973
34.46
35.745
36.823
37.679
38.276
38.589
38.591
38.24
37.501
36.318
34.604
32.326
29.491
26.149
22.41
18.372
14.103
9.673
5.137
0.539
-4.053
-8.58
-12.993
-17.209
-21.146
-24.72
-27.819
-30.379
-32.389
-33.877
-34.936
-35.678
-36.196
-36.592
-36.967
-37.411
-38.028
-38.913
-40.169
-41.961
-44.398
-47.509
-51.244
-55.385
-59.645
-63.734
-67.229
-69.61
-70.527
-69.828
-67.665
-64.656
-61.492
-58.807
-57.376
-57.856
-60.523
-65.392
-71.907
-78.67
-83.985
-85.303
-79.216
-62.999
-35.037
3.686
50.152
102.174
159.269
224.374
300.815
388.808
485.158
581.262
667.209
733.303
770.044
770.895
730.59
648.284
528.08
378.551
213.355
46.578
-106.737
-234.629
-329.878
-387.944
-411.245
-403.827
-371.375
-323.88
-269.643
-218.749
-180.756
-158.061
-149.828
-150.715
-152.657
-152.312
-149.354
-145.847
-145.353
-148.238
-152.697
-156.168
-156.111
-151.946
-144.297
-134.061
-122.406
-110.256
-98.483
-88.178
-79.997
-74.15
-70.634
-69.172
-69.448
-71.16
-73.884
-77.121
-80.488
-83.758
-86.792
-89.517
-91.854
-93.7
-94.975
-95.654
-95.73
-95.192
-94.042
-92.287
-89.948
-87.098
-83.822
-80.205
-76.341
-72.309
-68.185
-64.067
-60.035
-56.147
-52.46
-49.004
-45.792
-42.839
-40.146
-37.697
-35.477
-33.461
-31.615
-29.918
-28.338
-26.844
-25.404
-23.976
-22.527
-21.031
-19.467
-17.82
-16.079
-14.232
-12.273
-10.205
-8.027
-5.738
-3.341
-0.831
1.791
4.522
7.357
10.289
13.312
16.42
19.608
22.868
26.192
29.573
33.002
36.474
39.98
43.508
47.048
50.587
54.111
57.607
61.062
64.46
67.788
71.032
74.178
77.214
80.126
82.903
85.531
87.999
90.295
92.41
94.332
96.054
97.566
98.86
99.931
100.774
101.384
101.756
101.889
101.781
101.431
100.84
100.008
98.939
97.634
96.1
94.341
92.363
90.174
87.782
85.195
82.423
79.477
76.368
73.107
69.707
66.18
62.541
58.802
54.979
51.084
47.135
43.144
39.127
35.099
31.076
27.07
23.097
19.171
15.306
11.516
7.812
4.208
0.716
-2.653
-5.889
-8.981
-11.921
-14.699
-17.309
-19.744
-21.999
-24.067
-25.947
-27.634
-29.127
-30.426
-31.531
-32.444
-33.166
-33.703
-34.057
-34.235
-34.244
-34.089
-33.78
-33.324
-32.73
-32.009
-31.171
-30.227
-29.187
-28.064
-26.868
-25.613
-24.309
-22.971
-21.608
-20.234
-18.86
-17.498
-16.16
-14.856
-13.597
-12.393
-11.254
-10.189
-9.205
-8.311
-7.512
-6.813
-6.22
-5.735
-5.362
-5.1
-4.952
-4.917
-4.992
-5.177
-5.467
-5.858
-6.345
-6.922
-7.581
-8.314
-9.113
-9.967
-10.867
-11.802
-12.76
-13.73
-14.7
-15.659
-16.594
-17.492
-18.341
-19.129
-19.844
-20.474
-21.008
-21.435
-21.746
-21.932
-21.985
-21.897
-21.663
-21.278
-20.737
-20.038
-19.179
-18.159
-16.979
-15.644
-14.156
-12.521
-10.749
-8.848
-6.829
-4.707
-2.497
-0.214
2.124
4.499
6.892
9.283
11.653
13.982
16.252
18.44
20.529
22.495
24.32
25.983
27.464
28.745
29.808
30.636
31.216
31.538
31.594
31.376
30.874
30.074
28.97
27.558
25.838
23.816
21.503
18.917
16.087
13.059
9.878
6.588
3.228
-0.17
-3.572
-6.939
-10.23
-13.393
-16.386
-19.175
-21.732
-24.034
-26.072
-27.857
-29.441
-30.915
-32.376
-33.911
-35.583
-37.443
-39.559
-42.004
-44.864
-48.21
-52.074
-56.491
-61.514
-67.156
-73.355
-79.894
-86.342
-92.218
-97.108
-100.587
-102.235
-101.716
-98.847
-93.866
-87.484
-80.477
-73.457
-67.019
-61.775
-58.216
-56.667
-55.867
-53.006
-45.725
-31.829
-11.712
11.608
38.095
68.983
108.071
163.024
235.436
322.822
420.026
515.293
600.392
668.901
712.502
726.859
705.883
645.195
547.483
417.563
266.907
109.505
-43.069
-178.145
-288.926
-371.334
-421.649
-440.878
-429.038
-390.828
-336.823
-278.346
-229.138
-196.033
-177.843
-169.763
-163.134
-154.096
-143.682
-134.129
-129.771
-131.808
-138.279
-146.973
-154.578
-158.813
-159.327
-156.214
-149.982
-141.383
-130.978
-119.381
-107.588
-96.652
-87.196
-79.529
-73.671
-69.369
-66.373
-64.446
-63.218
-62.317
-61.545
-60.819
-60.142
-59.598
-59.23
-59.043
-59.041
-59.191
-59.393
-59.526
-59.495
-59.233
-58.721
-57.978
-57.016
-55.844
-54.475
-52.917
-51.174
-49.25
-47.131
-44.807
-42.288
-39.616
-36.862
-34.113
-31.428
-28.837
-26.358
-23.993
-21.741
-19.596
-17.538
-15.54
-13.584
-11.657
-9.755
-7.881
-6.021
-4.154
-2.249
-0.266
1.821
4.033
6.385
8.885
11.538
14.346
17.299
20.381
23.58
26.888
30.296
33.801
37.393
41.061
44.79
48.566
52.374
56.199
60.024
63.832
67.606
71.332
74.995
78.581
82.076
85.466
88.735
91.869
94.851
97.668
100.306
102.751
104.99
107.012
108.806
110.364
111.678
112.74
113.545
114.087
114.363
114.371
114.109
113.575
112.771
111.699
110.359
108.758
106.899
104.79
102.437
99.851
97.04
94.016
90.791
87.377
83.788
80.038
76.142
72.115
67.972
63.732
59.409
55.02
50.583
46.114
41.63
37.146
32.68
28.246
23.861
19.539
15.295
11.144
7.099
3.173
-0.623
-4.275
-7.775
-11.113
-14.28
-17.268
-20.072
-22.686
-25.106
-27.328
-29.352
-31.175
-32.799
-34.224
-35.454
-36.491
-37.339
-38.005
-38.494
-38.812
-38.967
-38.967
-38.821
-38.537
-38.126
-37.596
-36.959
-36.226
-35.406
-34.511
-33.553
-32.542
-31.49
-30.408
-29.306
-28.195
-27.085
-25.987
-24.908
-23.86
-22.849
-21.884
-20.971
-20.118
-19.331
-18.613
-17.971
-17.407
-16.924
-16.524
-16.209
-15.98
-15.835
-15.776
-15.8
-15.905
-16.088
-16.346
-16.676
-17.072
-17.529
-18.041
-18.601
-19.204
-19.841
-20.505
-21.187
-21.878
-22.572
-23.258
-23.929
-24.575
-25.187
-25.758
-26.278
-26.74
-27.136
-27.457
-27.697
-27.85
-27.909
-27.871
-27.729
-27.48
-27.122
-26.652
-26.07
-25.374
-24.567
-23.648
-22.621
-21.491
-20.262
-18.94
-17.534
-16.052
-14.505
-12.907
-11.269
-9.607
-7.934
-6.267
-4.62
-3.01
-1.45
0.044
1.459
2.779
3.988
5.069
6.008
6.792
7.407
7.841
8.082
8.121
7.957
7.587
7.009
6.217
5.2
3.95
2.466
0.752
-1.188
-3.341
-5.691
-8.216
-10.873
-13.624
-16.429
-19.252
-22.071
-24.861
-27.582
-30.19
-32.634
-34.862
-36.848
-38.572
-40.004
-41.145
-42.01
-42.642
-43.128
-43.548
-43.963
-44.444
-45.055
-45.875
-47.016
-48.561
-50.594
-53.245
-56.551
-60.499
-65.022
-69.846
-74.615
-79.019
-82.651
-85.045
-85.927
-85.095
-82.607
-79.055
-75.112
-71.336
-68.245
-66.373
-66.215
-67.964
-71.274
-74.316
-74.153
-69.038
-58.039
-41.027
-19.332
8.946
48.128
100.617
168.429
248.505
332.133
413.099
486.835
550.839
605.765
647.957
669.238
660.671
614.139
527.322
404.448
255.894
96.185
-59.289
-194.272
-297.979
-367.201
-403.621
-415.057
-409.654
-391.438
-364.467
-332.626
-298.825
-268.18
-243.096
-221.662
-202.924
-185.172
-168.377
-155.519
-147.624
-144.631
-145.559
-147.829
-149.664
-149.972
-147.766
-142.928
-135.749
-126.63
-116.306
-105.508
-94.872
-85.121
-76.952
-70.749
-66.589
-64.34
-63.689
-64.296
-65.844
-67.996
-70.41
-72.84
-75.129
-77.142
-78.759
-79.898
-80.499
-80.538
-80.039
-79.012
-77.456
-75.402
-72.9
-70.016
-66.836
-63.416
-59.783
-55.987
-52.085
-48.155
-44.307
-40.613
-37.108
-33.826
-30.784
-27.991
-25.457
-23.165
-21.073
-19.144
-17.346
-15.655
-14.058
-12.532
-11.048
-9.569
-8.053
-6.467
-4.793
-3.01
-1.103
0.941
3.132
5.468
7.939
10.539
13.264
16.112
19.083
22.172
25.371
28.674
32.071
35.554
39.113
42.738
46.418
50.141
53.895
57.671
61.457
65.243
69.015
72.759
76.459
80.101
83.67
87.151
90.528
93.787
96.913
99.894
102.716
105.369
107.841
110.122
112.202
114.072
115.723
117.15
118.345
119.303
120.02
120.493
120.718
120.695
120.423
119.902
119.135
118.123
116.87
115.381
113.662
111.718
109.559
107.192
104.626
101.872
98.94
95.842
92.59
89.196
85.674
82.037
78.297
74.47
70.569
66.609
62.603
58.567
54.515
50.462
46.422
42.409
38.438
34.521
30.672
26.904
23.229
19.659
16.205
12.878
9.688
6.644
3.754
1.026
-1.534
-3.92
-6.127
-8.152
-9.992
-11.645
-13.109
-14.385
-15.472
-16.373
-17.09
-17.627
-17.989
-18.181
-18.21
-18.084
-17.81
-17.397
-16.854
-16.191
-15.418
-14.543
-13.579
-12.535
-11.423
-10.254
-9.039
-7.791
-6.52
-5.237
-3.954
-2.681
-1.427
-0.204
0.981
2.117
3.197
4.211
5.153
6.016
6.793
7.479
8.071
8.566
8.961
9.259
9.458
9.561
9.573
9.496
9.335
9.094
8.777
8.389
7.936
7.423
6.857
6.243
5.593
4.915
4.221
3.526
2.84
2.176
1.544
0.954
0.419
-0.054
-0.457
-0.782
-1.018
-1.154
-1.172
-1.058
-0.808
-0.423
0.09
0.717
1.447
2.266
3.152
4.088
5.07
6.097
7.186
8.354
9.603
10.928
12.307
13.72
15.165
16.641
18.151
19.714
21.344
23.063
24.912
26.915
29.061
31.319
33.621
35.884
38.05
40.076
41.932
43.599
45.04
46.221
47.114
47.672
47.843
47.561
46.736
45.302
43.246
40.586
37.392
33.77
29.808
25.584
21.177
16.645
12.048
7.444
2.882
-1.576
-5.845
-9.828
-13.41
-16.496
-19.039
-21.031
-22.514
-23.579
-24.33
-24.86
-25.274
-25.667
-26.127
-26.75
-27.626
-28.833
-30.483
-32.747
-35.734
-39.485
-43.927
-48.793
-53.758
-58.499
-62.578
-65.506
-66.938
-66.657
-64.768
-61.88
-58.636
-55.659
-53.668
-53.193
-54.57
-57.929
-62.686
-67.382
-70.31
-69.403
-62.443
-47.639
-23.091
12.946
61.183
121.528
192.277
269.231
347.907
423.822
493.872
558.96
619.1
671.5
709.943
721.287
693.525
621.629
506.755
361.226
201.994
43.451
-99.872
-219.399
-310.019
-366.521
-388.696
-377.435
-338.787
-284.779
-227.99
-182.427
-154.578
-142.793
-141.363
-140.284
-134.926
-126.127
-116.594
-111.745
-113.447
-119.94
-129.027
-137.313
-142.615
-144.768
-143.941
-140.623
-135.488
-129.016
-121.729
-114.474
-108.103
-103.044
-99.44
-97.221
-96.111
-95.834
-96.144
-96.663
-96.973
-96.847
-96.179
-94.955
-93.259
-91.146
-88.641
-85.806
-82.724
-79.453
-76.043
-72.53
-68.929
-65.285
-61.655
-58.098
-54.674
-51.421
-48.357
-45.494
-42.836
-40.379
-38.115
-36.03
-34.104
-32.32
-30.663
-29.119
-27.672
-26.303
-24.991
-23.713
-22.447
-21.173
-19.877
-18.544
-17.163
-15.721
-14.212
-12.626
-10.958
-9.2
-7.346
-5.389
-3.323
-1.142
1.154
3.569
6.103
8.755
11.522
14.4
17.385
20.47
23.648
26.91
30.248
33.651
37.108
40.608
44.137
47.683
51.231
54.769
58.28
61.752
65.168
68.515
71.778
74.942
77.995
80.921
83.709
86.346
88.82
91.119
93.233
95.153
96.869
98.374
99.661
100.724
101.559
102.161
102.529
102.661
102.556
102.216
101.641
100.835
99.801
98.544
97.069
95.382
93.491
91.403
89.128
86.673
84.049
81.267
78.336
75.269
72.076
68.769
65.361
61.864
58.29
54.653
50.964
47.237
43.485
39.72
35.956
32.203
28.475
24.784
21.14
17.555
14.039
10.602
7.255
4.005
0.861
-2.168
-5.076
-7.856
-10.503
-13.01
-15.374
-17.591
-19.658
-21.572
-23.332
-24.936
-26.383
-27.675
-28.812
-29.795
-30.627
-31.312
-31.852
-32.254
-32.521
-32.661
-32.679
-32.583
-32.38
-32.078
-31.686
-31.21
-30.66
-30.045
-29.373
-28.653
-27.896
-27.11
-26.304
-25.489
-24.673
-23.865
-23.075
-22.31
-21.578
-20.888
-20.248
-19.664
-19.144
-18.693
-18.318
-18.023
-17.813
-17.69
-17.657
-17.713
-17.86
-18.094
-18.415
-18.818
-19.298
-19.851
-20.473
-21.158
-21.902
-22.698
-23.54
-24.422
-25.336
-26.272
-27.219
-28.166
-29.097
-29.999
-30.862
-31.671
-32.416
-33.085
-33.668
-34.156
-34.54
-34.81
-34.954
-34.953
-34.792
-34.47
-33.984
-33.343
-32.561
-31.649
-30.622
-29.504
-28.31
-27.048
-25.719
-24.309
-22.801
-21.196
-19.502
-17.74
-15.936
-14.092
-12.211
-10.295
-8.326
-6.292
-4.177
-1.939
0.441
2.948
5.55
8.175
10.737
13.176
15.448
17.519
19.369
20.961
22.261
23.24
23.851
24.039
23.741
22.867
21.351
19.183
16.381
13.02
9.207
5.038
0.593
-4.045
-8.817
-13.663
-18.522
-23.345
-28.063
-32.589
-36.824
-40.651
-43.971
-46.73
-48.918
-50.575
-51.794
-52.684
-53.339
-53.862
-54.349
-54.888
-55.581
-56.522
-57.786
-59.484
-61.77
-64.731
-68.394
-72.673
-77.282
-81.868
-86.067
-89.425
-91.47
-91.914
-90.608
-87.685
-83.789
-79.659
-76.023
-73.661
-73.065
-74.41
-77.74
-82.518
-87.288
-89.648
-86.417
-74.601
-52.418
-20.705
18.523
64.115
115.913
176.995
250.403
336.039
431.701
531.154
626.45
708.552
766.726
789.936
768.348
698.912
584.987
437.302
272.643
105.71
-48.228
-177.64
-277.889
-344.972
-381.564
-392
-377.79
-345.534
-300.756
-251.079
-208.771
-178.759
-161.849
-154.619
-147.926
-138.111
-125.8
-113.232
-105.453
-104.082
-107.644
-114.268
-121.037
-126.09
-128.849
-129.102
-127.177
-123.494
-118.379
-112.284
-105.791
-99.573
-94.357
-90.51
-88.017
-86.703
-86.262
-86.393
-86.847
-87.322
-87.483
-87.149
-86.263
-84.845
-83
-80.796
-78.252
-75.403
-72.286
-68.952
-65.487
-61.96
-58.425
-54.948
-51.586
-48.392
-45.419
-42.691
-40.207
-37.96
-35.93
-34.104
-32.48
-31.055
-29.833
-28.802
-27.931
-27.19
-26.551
-25.986
-25.468
-24.969
-24.455
-23.902
-23.301
-22.646
-21.929
-21.142
-20.272
-19.304
-18.229
-17.036
-15.719
-14.27
-12.684
-10.954
-9.08
-7.061
-4.901
-2.602
-0.165
2.408
5.113
7.944
10.894
13.952
17.112
20.362
23.689
27.078
30.517
33.988
37.478
40.971
44.45
47.9
51.304
54.647
57.912
61.084
64.148
67.089
69.893
72.546
75.034
77.346
79.469
81.394
83.11
84.608
85.882
86.924
87.73
88.295
88.616
88.691
88.52
88.103
87.442
86.541
85.402
84.033
82.438
80.626
78.604
76.382
73.968
71.375
68.611
65.689
62.62
59.416
56.091
52.657
49.127
45.514
41.832
38.095
34.316
30.509
26.687
22.864
19.054
15.27
11.523
7.828
4.195
0.636
-2.838
-6.219
-9.496
-12.662
-15.708
-18.628
-21.416
-24.067
-26.575
-28.937
-31.149
-33.21
-35.117
-36.87
-38.468
-39.911
-41.201
-42.338
-43.324
-44.163
-44.856
-45.408
-45.824
-46.109
-46.268
-46.307
-46.235
-46.059
-45.786
-45.425
-44.984
-44.471
-43.894
-43.262
-42.582
-41.862
-41.111
-40.336
-39.546
-38.747
-37.948
-37.156
-36.378
-35.62
-34.89
-34.191
-33.532
-32.916
-32.35
-31.838
-31.386
-30.996
-30.674
-30.422
-30.242
-30.135
-30.101
-30.139
-30.248
-30.424
-30.662
-30.959
-31.31
-31.711
-32.156
-32.641
-33.162
-33.714
-34.292
-34.891
-35.504
-36.123
-36.737
-37.336
-37.909
-38.446
-38.937
-39.371
-39.741
-40.038
-40.257
-40.393
-40.435
-40.373
-40.192
-39.881
-39.437
-38.856
-38.143
-37.31
-36.373
-35.353
-34.276
-33.156
-32.007
-30.828
-29.612
-28.352
-27.036
-25.666
-24.254
-22.811
-21.345
-19.863
-18.362
-16.829
-15.235
-13.55
-11.732
-9.759
-7.63
-5.367
-3.018
-0.645
1.674
3.876
5.916
7.757
9.373
10.735
11.808
12.538
12.862
12.706
11.99
10.656
8.677
6.057
2.845
-0.871
-4.973
-9.351
-13.908
-18.574
-23.301
-28.048
-32.769
-37.391
-41.815
-45.934
-49.639
-52.852
-55.548
-57.709
-59.329
-60.501
-61.41
-62.324
-63.524
-65.149
-67.168
-69.525
-72.251
-75.381
-78.882
-82.442
-85.624
-88.185
-90.099
-91.529
-92.516
-92.881
-92.471
-91.522
-90.48
-89.742
-89.691
-90.317
-91.59
-93.702
-96.704
-100.372
-104.375
-108.211
-110.143
-107.79
-99.139
-82.099
-57.606
-29.719
0.149
32.04
69.798
123.012
195.578
286.338
389.794
491.721
581.835
653.961
701.885
725.214
720.176
680.258
604.096
490.893
347.748
189.835
31.316
-111.137
-226.324
-311.553
-365.325
-391.948
-395.557
-377.486
-343.356
-299.408
-254.263
-217.76
-193.91
-181.715
-175.785
-170.316
-163.185
-155.439
-150.739
-151.28
-156.299
-163.747
-170.347
-173.714
-173.36
-169.422
-162.439
-153.155
-142.21
-130.288
-118.391
-107.574
-98.438
-91.247
-86.024
-82.544
-80.54
-79.771
-79.858
-80.359
-81.021
-81.702
-82.349
-83.015
-83.706
-84.371
-84.966
-85.417
-85.628
-85.538
-85.1
-84.272
-83.06
-81.481
-79.569
-77.383
-74.974
-72.373
-69.604
-66.671
-63.584
-60.376
-57.095
-53.817
-50.612
-47.522
-44.579
-41.798
-39.183
-36.735
-34.44
-32.267
-30.183
-28.165
-26.197
-24.276
-22.392
-20.524
-18.644
-16.717
-14.712
-12.608
-10.387
-8.035
-5.544
-2.906
-0.123
2.794
5.834
8.988
12.252
15.622
19.092
22.652
26.29
29.994
33.752
37.553
41.382
45.226
49.069
52.9
56.704
60.472
64.189
67.844
71.421
74.906
78.285
81.544
84.669
87.647
90.464
93.109
95.569
97.836
99.9
101.752
103.384
104.79
105.964
106.902
107.598
108.051
108.258
108.219
107.934
107.404
106.63
105.616
104.366
102.884
101.177
99.251
97.114
94.774
92.24
89.522
86.63
83.575
80.369
77.022
73.549
69.96
66.271
62.493
58.64
54.726
50.764
46.769
42.753
38.731
34.716
30.721
26.76
22.845
18.99
15.206
11.505
7.898
4.396
1.009
-2.254
-5.385
-8.375
-11.217
-13.905
-16.432
-18.795
-20.988
-23.008
-24.852
-26.52
-28.008
-29.317
-30.447
-31.4
-32.177
-32.781
-33.215
-33.483
-33.591
-33.544
-33.349
-33.011
-32.54
-31.942
-31.226
-30.402
-29.477
-28.462
-27.366
-26.198
-24.969
-23.688
-22.366
-21.012
-19.636
-18.247
-16.855
-15.468
-14.097
-12.748
-11.432
-10.155
-8.926
-7.752
-6.64
-5.596
-4.625
-3.733
-2.923
-2.2
-1.566
-1.022
-0.569
-0.208
0.062
0.243
0.336
0.346
0.275
0.129
-0.087
-0.368
-0.705
-1.093
-1.522
-1.984
-2.471
-2.974
-3.484
-3.991
-4.486
-4.958
-5.397
-5.794
-6.137
-6.416
-6.621
-6.742
-6.771
-6.697
-6.514
-6.214
-5.79
-5.237
-4.551
-3.728
-2.766
-1.664
-0.421
0.96
2.476
4.122
5.892
7.779
9.773
11.863
14.036
16.278
18.575
20.911
23.27
25.635
27.988
30.313
32.592
34.81
36.947
38.984
40.902
42.682
44.305
45.755
47.014
48.069
48.906
49.519
49.902
50.048
49.952
49.601
48.985
48.102
46.952
45.538
43.869
41.962
39.842
37.546
35.115
32.586
29.99
27.352
24.7
22.064
19.486
17.011
14.684
12.543
10.619
8.944
7.532
6.368
5.413
4.589
3.819
3.049
2.227
1.291
0.178
-1.197
-2.923
-5.051
-7.66
-10.855
-14.678
-19.112
-23.992
-28.946
-33.538
-37.378
-40.053
-41.133
-40.327
-37.516
-32.997
-27.555
-22.116
-17.443
-14.058
-12.479
-13.104
-15.893
-20.043
-23.264
-22.242
-14.229
2.404
27.168
58.377
95.519
139.401
193.747
262.019
344.357
438.234
534.809
623.953
697.155
745.137
763.599
749.431
699.481
615.664
500.251
359.072
203.402
45.415
-99.456
-217.417
-301.178
-349.25
-367.474
-363.831
-343.734
-311.234
-268.794
-220.852
-175.971
-140.886
-118.932
-108.767
-103.572
-98.529
-92.252
-85.884
-82.933
-84.423
-88.671
-92.704
-93.298
-89.073
-80.765
-70.815
-61.749
-55.089
-49.617
-40.597
