Name,Criss Capps
Date of Birth,"Feb 5, 1952"
Recorded Date,2024-03-23 10:25:52 -0400
Classification,Sinus Rhythm
Symptoms,
Software Version,1.90
Device,"Watch5,4"
Sample Rate,512.844 hertz


Lead,Lead I
Unit,µV

-287.26
-363.802
-407.649
-419.112
-412.87
-400.172
-389.571
-382.084
-370.796
-353.957
-332.664
-308.46
-285.382
-265.459
-249.021
-236.948
-228.92
-223.273
-218.431
-213.302
-207.149
-199.807
-191.095
-180.118
-166.368
-150.549
-133.543
-115.929
-98.319
-79.556
-58.605
-37.285
-16.288
1.819
14.333
25.386
37.457
54.241
80.849
112.922
146.95
180.064
206.986
230.067
252.033
272.963
294.185
313.92
329.682
341.482
349.792
355.035
357.685
357.88
355.601
351.424
346.449
341.143
335.458
329.616
323.822
318.447
314.214
311.42
309.863
309.308
309.372
309.483
309.13
307.856
305.115
300.301
293.21
284.749
276.257
270.502
271.892
282.214
302.209
331.602
364.945
400.457
441.782
491.804
559.813
651.341
756.502
861.358
943.164
976.322
954.335
881.726
771.406
645.648
515.171
380.752
245.902
113.131
-9.682
-107.562
-175.733
-219.24
-242.682
-253.494
-253.323
-235
-200.341
-157.611
-116.452
-91.067
-85.665
-93.992
-110.29
-126.94
-141.13
-156.604
-174.596
-195.423
-217.755
-237.618
-253.25
-264.501
-271.538
-275.54
-277.48
-277.973
-278.093
-278.701
-280.105
-282.425
-285.497
-288.98
-292.595
-295.958
-298.556
-300.056
-300.31
-299.278
-297.056
-293.718
-289.296
-283.883
-277.584
-270.481
-262.642
-254.106
-244.899
-235.084
-224.748
-213.987
-202.892
-191.523
-179.932
-168.165
-156.263
-144.27
-132.221
-120.136
-108.044
-95.976
-83.966
-72.049
-60.254
-48.599
-37.098
-25.768
-14.621
-3.674
7.058
17.559
27.813
37.805
47.52
56.943
66.062
74.871
83.364
91.537
99.387
106.913
114.113
120.988
127.538
133.765
139.669
145.252
150.516
155.466
160.103
164.431
168.453
172.17
175.585
178.7
181.517
184.034
186.253
188.173
189.791
191.107
192.117
192.817
193.202
193.27
193.013
192.429
191.51
190.252
188.649
186.697
184.39
181.724
178.695
175.297
171.527
167.384
162.865
157.97
152.7
147.058
141.046
134.671
127.938
120.856
113.433
105.679
97.605
89.226
80.557
71.612
62.411
52.972
43.318
33.472
23.457
13.3
3.026
-7.338
-17.763
-28.222
-38.687
-49.127
-59.515
-69.822
-80.017
-90.071
-99.958
-109.65
-119.121
-128.347
-137.306
-145.978
-154.346
-162.394
-170.108
-177.475
-184.483
-191.122
-197.382
-203.258
-208.74
-213.826
-218.514
-222.805
-226.708
-230.232
-233.387
-236.187
-238.649
-240.792
-242.636
-244.202
-245.506
-246.567
-247.408
-248.053
-248.538
-248.888
-249.125
-249.265
-249.322
-249.308
-249.232
-249.09
-248.863
-248.535
-248.092
-247.533
-246.879
-246.146
-245.346
-244.49
-243.585
-242.652
-241.739
-240.877
-240.093
-239.415
-238.869
-238.51
-238.425
-238.681
-239.327
-240.38
-241.811
-243.594
-245.699
-248.069
-250.64
-253.31
-255.937
-258.416
-260.662
-262.579
-264.099
-265.109
-265.446
-264.994
-263.662
-261.36
-258.074
-253.8
-248.475
-242.11
-234.791
-226.597
-217.682
-208.252
-198.424
-188.28
-178.121
-168.246
-158.6
-149.286
-140.511
-131.831
-124.016
-118.093
-112.695
-107.318
-99.554
-85.287
-65.949
-44.5
-26.445
-20.073
-27.057
-42.918
-59.017
-64.972
-55.113
-32.414
-5.675
16.999
29.813
33.323
33.33
33.603
36.623
42.706
49.527
56.181
62.674
68.919
75.315
81.936
88.453
94.78
100.952
106.933
112.721
118.35
123.841
129.238
134.607
139.968
145.3
150.602
155.877
161.12
166.327
171.488
176.585
181.607
186.548
191.4
196.151
200.79
205.305
209.682
213.909
217.971
221.855
225.544
229.024
232.277
235.29
238.045
240.526
242.715
244.596
246.153
247.371
248.235
248.732
248.851
248.586
247.933
246.89
245.454
243.626
241.405
238.798
235.81
232.45
228.728
224.659
220.259
215.55
210.56
205.312
199.826
194.12
188.202
182.084
175.786
169.331
162.74
156.043
149.272
142.469
135.692
128.995
122.427
116.036
109.855
103.927
98.302
93.036
88.19
83.828
79.987
76.675
73.908
71.67
69.935
68.675
67.795
67.173
66.693
66.226
65.646
64.88
63.803
62.202
59.968
57.091
53.687
50.148
46.875
44.073
42.017
41.158
41.723
43.667
46.595
49.344
50.625
49.804
46.477
39.908
29.796
16.807
2.036
-11.079
-17.192
-14.017
-0.653
22.916
52.179
86.337
129.488
184.277
257.284
351.681
459.334
568.129
659.831
714.673
723.119
684.067
604.282
495.571
366.599
224.389
75.853
-69.365
-196.104
-293.062
-355.54
-387.038
-400.374
-404.657
-402.985
-394.756
-375.447
-344.615
-306.212
-265.364
-227.61
-196.395
-173.646
-160.185
-155.481
-158.69
-168.47
-182.817
-200.087
-218.378
-235.152
-248.848
-258.779
-264.626
-266.853
-266.249
-263.379
-259.204
-255.133
-251.965
-250.054
-249.543
-250.081
-251.286
-252.953
-254.689
-255.986
-256.594
-256.394
-255.362
-253.67
-251.432
-248.693
-245.55
-242.091
-238.366
-234.438
-230.346
-226.108
-221.774
-217.39
-212.984
-208.59
-204.221
-199.88
-195.571
-191.288
-187.018
-182.759
-178.511
-174.279
-170.07
-165.884
-161.716
-157.56
-153.406
-149.245
-145.071
-140.872
-136.642
-132.378
-128.078
-123.744
-119.377
-114.977
-110.54
-106.063
-101.541
-96.971
-92.353
-87.681
-82.956
-78.177
-73.344
-68.462
-63.532
-58.558
-53.543
-48.489
-43.401
-38.284
-33.141
-27.98
-22.806
-17.627
-12.449
-7.283
-2.136
2.981
8.057
13.082
18.045
22.933
27.734
32.436
37.025
41.489
45.814
49.988
53.996
57.827
61.467
64.904
68.125
71.119
73.875
76.381
78.629
80.608
82.309
83.725
84.847
85.67
86.186
86.391
86.279
85.848
85.094
84.017
82.615
80.889
78.841
76.474
73.791
70.798
67.501
63.909
60.029
55.872
51.448
46.77
41.851
36.704
31.345
25.79
20.054
14.156
8.114
1.946
-4.328
-10.689
-17.116
-23.588
-30.085
-36.586
-43.069
-49.512
-55.894
-62.194
-68.39
-74.462
-80.389
-86.151
-91.729
-97.104
-102.258
-107.176
-111.84
-116.237
-120.353
-124.177
-127.696
-130.901
-133.784
-136.339
-138.559
-140.44
-141.98
-143.178
-144.032
-144.546
-144.721
-144.561
-144.072
-143.262
-142.136
-140.706
-138.981
-136.974
-134.696
-132.162
-129.387
-126.385
-123.174
-119.771
-116.192
-112.455
-108.579
-104.581
-100.48
-96.294
-92.04
-87.737
-83.401
-79.048
-74.695
-70.357
-66.049
-61.783
-57.573
-53.431
-49.369
-45.395
-41.52
-37.752
-34.098
-30.563
-27.154
-23.874
-20.725
-17.71
-14.829
-12.083
-9.469
-6.985
-4.629
-2.396
-0.283
1.717
3.609
5.399
7.093
8.698
10.221
11.668
13.046
14.362
15.621
16.83
17.993
19.116
20.203
21.259
22.288
23.292
24.274
25.236
26.18
27.106
28.016
28.91
29.786
30.644
31.482
32.299
33.091
33.857
34.592
35.293
35.957
36.579
37.157
37.685
38.161
38.581
38.943
39.243
39.479
39.648
39.75
39.782
39.745
39.639
39.462
39.218
38.907
38.531
38.094
37.598
37.046
36.44
35.786
35.087
34.346
33.568
32.755
31.913
31.046
30.157
29.251
28.329
27.396
26.453
25.503
24.546
23.582
22.608
21.624
20.626
19.612
18.578
17.521
16.437
15.324
14.181
13.006
11.796
10.545
9.249
7.903
6.502
5.042
3.517
1.925
0.265
-1.458
-3.239
-5.074
-6.965
-8.92
-10.945
-13.04
-15.204
-17.433
-19.715
-22.033
-24.355
-26.633
-28.825
-30.887
-32.788
-34.51
-36.026
-37.31
-38.327
-39.031
-39.391
-39.382
-38.978
-38.165
-36.954
-35.392
-33.564
-31.598
-29.598
-27.649
-25.831
-24.225
-22.917
-22.001
-21.568
-21.666
-22.381
-23.865
-26.137
-29.101
-32.48
-35.729
-38.299
-39.764
-39.564
-37.08
-32.134
-24.83
-15.806
-6.435
2.179
9.299
13.983
15.525
14.083
10.424
6.44
5.257
9.679
22.25
45.803
82.926
133.83
196.29
267.26
342.081
420.093
504.853
593.981
680.771
751.224
783.551
767.716
705.765
608.107
494.762
376.028
252.253
124.521
-5.607
-126.452
-220.833
-279.292
-301.608
-297.973
-281.132
-257.967
-230.063
-194.907
-151.5
-103.159
-54.627
-11.208
22.976
46.281
58.632
60.959
54.956
42.77
26.423
8.062
-9.664
-24.474
-35.043
-40.811
-42.065
-39.664
-34.423
-27.277
-19.563
-12.535
-6.952
-3.147
-1.007
-0.132
-0.176
-0.818
-1.633
-2.214
-2.342
-1.939
-1.063
0.131
1.535
3.077
4.682
6.278
7.822
9.277
10.619
11.833
12.885
13.743
14.39
14.81
15.002
14.972
14.726
14.281
13.656
12.868
11.925
10.837
9.612
8.266
6.824
5.309
3.749
2.171
0.602
-0.931
-2.401
-3.784
-5.061
-6.212
-7.218
-8.058
-8.708
-9.147
-9.352
-9.302
-8.977
-8.36
-7.432
-6.179
-4.589
-2.65
-0.356
2.304
5.334
8.74
12.525
16.687
21.227
26.139
31.42
37.06
43.049
49.374
56.021
62.973
70.211
77.715
85.462
93.428
101.588
109.914
118.378
126.95
135.6
144.296
153.005
161.696
170.334
178.886
187.319
195.6
203.695
211.573
219.202
226.55
233.588
240.287
246.619
252.558
258.079
263.159
267.776
271.911
275.547
278.668
281.262
283.316
284.823
285.776
286.172
286.008
285.286
284.008
282.182
279.814
276.915
273.497
269.576
265.166
260.287
254.959
249.204
243.045
236.507
229.617
222.402
214.891
207.113
199.1
190.881
182.488
173.953
165.307
156.582
147.81
139.023
130.25
121.523
112.871
104.323
95.906
87.647
79.573
71.706
64.069
56.685
49.572
42.75
36.234
30.041
24.183
18.672
13.52
8.733
4.32
0.284
-3.37
-6.642
-9.53
-12.038
-14.167
-15.923
-17.311
-18.34
-19.018
-19.356
-19.364
-19.057
-18.448
-17.551
-16.382
-14.959
-13.298
-11.418
-9.337
-7.074
-4.648
-2.079
0.613
3.407
6.284
9.224
12.207
15.213
18.223
21.217
24.177
27.086
29.925
32.679
35.33
37.863
40.264
42.518
44.614
46.539
48.282
49.834
51.186
52.33
53.261
53.971
54.459
54.72
54.752
54.556
54.13
53.478
52.6
51.502
50.187
48.661
46.929
45
42.879
40.577
38.1
35.46
32.666
29.729
26.66
23.47
20.171
16.775
13.295
9.743
6.133
2.477
-1.213
-4.922
-8.638
-12.349
-16.042
-19.704
-23.324
-26.891
-30.394
-33.823
-37.169
-40.423
-43.577
-46.622
-49.553
-52.361
-55.041
-57.588
-59.996
-62.262
-64.382
-66.354
-68.175
-69.844
-71.361
-72.727
-73.943
-75.01
-75.931
-76.71
-77.352
-77.863
-78.25
-78.52
-78.684
-78.749
-78.728
-78.631
-78.469
-78.253
-77.998
-77.714
-77.414
-77.112
-76.822
-76.559
-76.34
-76.181
-76.099
-76.111
-76.232
-76.479
-76.867
-77.409
-78.114
-78.994
-80.057
-81.316
-82.781
-84.459
-86.355
-88.473
-90.816
-93.384
-96.176
-99.186
-102.402
-105.813
-109.413
-113.199
-117.177
-121.344
-125.688
-130.195
-134.847
-139.626
-144.51
-149.462
-154.43
-159.36
-164.205
-168.922
-173.48
-177.833
-181.927
-185.695
-189.066
-191.987
-194.428
-196.372
-197.801
-198.717
-199.131
-199.079
-198.66
-197.977
-197.137
-196.255
-195.43
-194.752
-194.364
-194.469
-195.176
-196.501
-198.327
-200.345
-202.292
-203.982
-205.124
-205.318
-204.282
-201.875
-198.306
-194.301
-190.486
-187.28
-185.152
-184.462
-185.372
-187.887
-191.344
-194.13
-194.525
-190.706
-180.698
-162.803
-135.249
-96.289
-45.043
18.361
91.792
171.022
251.948
329.657
402.172
471.185
533.862
586.903
622.277
623.538
583.122
497.79
369.18
215.7
54.673
-96.085
-215.134
-296.468
-341.722
-358.07
-360.146
-355.317
-343.226
-321.266
-288.458
-247.402
-206.377
-174.382
-152.228
-139.581
-134.068
-130.79
-131.171
-136.122
-144.241
-155.759
-168.051
-177.842
-184.383
-187.24
-186.513
-183.181
-177.994
-171.383
-164.206
-157.597
-152.106
-147.981
-145.319
-143.779
-143.036
-142.896
-142.948
-142.726
-141.998
-140.627
-138.581
-135.976
-132.868
-129.29
-125.333
-121.08
-116.593
-111.928
-107.111
-102.162
-97.131
-92.085
-87.101
-82.239
-77.538
-73.024
-68.719
-64.634
-60.782
-57.161
-53.758
-50.568
-47.589
-44.818
-42.253
-39.885
-37.698
-35.677
-33.801
-32.053
-30.416
-28.875
-27.415
-26.024
-24.689
-23.4
-22.147
-20.917
-19.695
-18.467
-17.216
-15.928
-14.589
-13.184
-11.7
-10.125
-8.449
-6.661
-4.753
-2.718
-0.548
1.762
4.217
6.82
9.572
12.473
15.522
18.717
22.051
25.52
29.117
32.832
36.657
40.581
44.593
48.68
52.829
57.026
61.257
65.505
69.754
73.987
78.187
82.337
86.416
90.409
94.295
98.058
101.679
105.141
108.428
111.522
114.409
117.072
119.498
121.674
123.586
125.223
126.576
127.635
128.393
128.844
128.981
128.803
128.305
127.486
126.346
124.886
123.108
121.015
118.613
115.908
112.908
109.622
106.059
102.231
98.152
93.833
89.291
84.539
79.594
74.473
69.194
63.774
58.232
52.588
46.859
41.067
35.229
29.366
23.496
17.638
11.811
6.033
0.321
-5.306
-10.833
-16.242
-21.518
-26.647
-31.614
-36.407
-41.013
-45.422
-49.623
-53.608
-57.369
-60.9
-64.194
-67.248
-70.059
-72.623
-74.94
-77.009
-78.831
-80.408
-81.743
-82.84
-83.702
-84.335
-84.744
-84.937
-84.921
-84.702
-84.289
-83.692
-82.918
-81.979
-80.882
-79.639
-78.259
-76.753
-75.131
-73.402
-71.576
-69.663
-67.672
-65.611
-63.489
-61.314
-59.093
-56.832
-54.539
-52.22
-49.879
-47.521
-45.151
-42.773
-40.389
-38.004
-35.618
-33.234
-30.853
-28.477
-26.107
-23.742
-21.383
-19.029
-16.68
-14.335
-11.994
-9.656
-7.319
-4.984
-2.648
-0.313
2.022
4.358
6.693
9.026
11.357
13.683
16.001
18.309
20.603
22.878
25.131
27.356
29.548
31.7
33.806
35.86
37.854
39.781
41.633
43.403
45.082
46.663
48.139
49.5
50.74
51.851
52.827
53.66
54.344
54.872
55.24
55.443
55.476
55.337
55.022
54.529
53.858
53.01
51.987
50.789
49.422
47.888
46.192
44.341
42.342
40.201
37.926
35.527
33.012
30.393
27.679
24.88
22.009
19.074
16.088
13.06
10.002
6.922
3.83
0.736
-2.353
-5.427
-8.478
-11.501
-14.488
-17.435
-20.336
-23.19
-25.994
-28.751
-31.463
-34.133
-36.765
-39.363
-41.934
-44.483
-47.015
-49.533
-52.04
-54.54
-57.041
-59.548
-62.07
-64.612
-67.178
-69.775
-72.406
-75.076
-77.782
-80.518
-83.279
-86.063
-88.874
-91.723
-94.617
-97.56
-100.551
-103.584
-106.649
-109.732
-112.807
-115.829
-118.759
-121.559
-124.2
-126.663
-128.922
-130.947
-132.697
-134.123
-135.188
-135.861
-136.118
-135.959
-135.399
-134.473
-133.254
-131.826
-130.276
-128.709
-127.215
-125.886
-124.839
-124.138
-123.866
-124.174
-125.13
-126.73
-128.887
-131.251
-133.376
-134.952
-135.589
-134.782
-132.254
-127.891
-121.911
-115.25
-109.109
-104.341
-101.579
-101.691
-105.249
-112.01
-121.255
-129.954
-132.817
-127.224
-112.076
-87.487
-58.238
-24.538
18.825
75.891
155.043
259.63
380.478
504.591
612.166
681.842
703.286
674.579
601.299
495.765
369.429
231.238
91.387
-38.562
-148.434
-230.695
-284.696
-317.761
-337.376
-347.937
-349.542
-338.106
-312.42
-275.293
-231.506
-187.561
-147.656
-113.766
-87.872
-70.554
-61.347
-59.556
-63.517
-71.027
-80.483
-90.075
-97.451
-101.205
-100.723
-95.76
-86.874
-74.932
-60.571
-44.805
-29.045
-14.117
-0.446
11.732
22.606
32.396
41.191
49.303
57.174
64.975
72.713
80.301
87.502
94.155
100.186
105.481
109.933
113.492
116.133
117.894
118.873
119.155
118.829
117.971
116.63
114.892
112.87
110.664
108.37
106.061
103.788
101.602
99.545
97.647
95.923
94.362
92.937
91.607
90.318
89.033
87.734
86.398
85.002
83.533
81.983
80.362
78.696
77.011
75.327
73.673
72.08
70.588
69.246
68.107
67.229
66.657
66.43
66.578
67.129
68.1
69.506
71.352
73.631
76.339
79.471
83.022
86.984
91.346
96.09
101.197
106.646
112.413
118.475
124.808
131.386
138.183
145.172
152.326
159.619
167.023
174.506
182.035
189.578
197.099
204.564
211.94
219.19
226.28
233.177
239.849
246.264
252.392
258.204
263.672
268.769
273.47
277.752
281.594
284.976
287.88
290.292
292.197
293.585
294.447
294.778
294.573
293.831
292.552
290.74
288.4
285.539
282.167
278.297
273.943
269.12
263.848
258.146
252.035
245.539
238.683
231.492
223.993
216.214
208.184
199.933
191.49
182.885
174.149
165.314
156.408
147.463
138.509
129.573
120.685
111.871
103.158
94.571
86.134
77.868
69.796
61.935
54.304
46.919
39.794
32.943
26.376
20.103
14.133
8.471
3.122
-1.91
-6.623
-11.019
-15.097
-18.861
-22.314
-25.463
-28.313
-30.873
-33.15
-35.154
-36.895
-38.385
-39.633
-40.653
-41.457
-42.056
-42.464
-42.694
-42.757
-42.667
-42.435
-42.074
-41.595
-41.009
-40.327
-39.559
-38.715
-37.805
-36.838
-35.822
-34.765
-33.675
-32.559
-31.424
-30.274
-29.116
-27.955
-26.794
-25.638
-24.491
-23.358
-22.241
-21.144
-20.07
-19.024
-18.006
-17.02
-16.067
-15.151
-14.271
-13.431
-12.631
-11.873
-11.159
-10.492
-9.872
-9.303
-8.787
-8.325
-7.919
-7.571
-7.283
-7.057
-6.896
-6.8
-6.771
-6.812
-6.925
-7.111
-7.371
-7.705
-8.114
-8.595
-9.147
-9.767
-10.45
-11.191
-11.984
-12.826
-13.711
-14.636
-15.596
-16.588
-17.613
-18.667
-19.743
-20.836
-21.938
-23.038
-24.128
-25.195
-26.226
-27.211
-28.14
-29.007
-29.812
-30.544
-31.193
-31.744
-32.18
-32.488
-32.668
-32.714
-32.621
-32.401
-32.069
-31.655
-31.208
-30.753
-30.306
-29.869
-29.425
-28.981
-28.545
-28.121
-27.72
-27.321
-26.894
-26.439
-25.959
-25.439
-24.876
-24.166
-23.165
-21.913
-20.459
-18.876
-17.31
-15.685
-13.878
-12.029
-10.277
-8.503
-6.688
-4.642
-2.077
0.628
3.026
5.015
6.365
6.753
6.052
3.835
-0.353
-6.07
-12.845
-20.498
-28.671
-37.131
-45.791
-54.212
-61.967
-69.277
-76.316
-83.076
-89.631
-95.849
-101.568
-106.891
-111.922
-116.514
-120.562
-124.024
-126.839
-129.069
-130.77
-131.892
-132.391
-132.297
-131.657
-130.542
-129.061
-127.277
-125.259
-123.12
-120.971
-118.928
-117.107
-115.556
-114.356
-113.676
-113.602
-114.142
-115.149
-116.178
-116.762
-116.562
-115.14
-112.023
-106.989
-99.988
-91.51
-82.828
-75.229
-69.787
-67.51
-69.043
-74.504
-83.553
-94.706
-105.049
-111.394
-110.608
-99.496
-75.451
-36.531
18.84
89.518
170.723
257.318
343.753
426.49
507.141
585.283
655.435
708.569
729.232
703.124
627.009
503.986
344.559
168.459
-8.15
-168.079
-292.343
-375.559
-417.628
-425.53
-416.478
-398.921
-375.989
-348.841
-312.578
-267.531
-218.95
-171.178
-129.742
-98.52
-77.849
-67.051
-64.905
-69.386
-78.273
-89.826
-102.005
-112.275
-119.235
-122.376
-121.558
-117.528
-111.37
-103.827
-95.949
-89.135
-84.066
-80.979
-79.922
-80.453
-82.101
-84.571
-87.388
-90
-92.141
-93.671
-94.529
-94.817
-94.554
-93.72
-92.396
-90.678
-88.665
-86.479
-84.2
-81.881
-79.613
-77.48
-75.546
-73.858
-72.421
-71.224
-70.271
-69.57
-69.138
-68.985
-69.1
-69.466
-70.055
-70.823
-71.729
-72.729
-73.768
-74.8
-75.788
-76.698
-77.512
-78.217
-78.798
-79.237
-79.512
-79.601
-79.485
-79.146
-78.567
-77.733
-76.63
-75.249
-73.582
-71.621
-69.36
-66.794
-63.915
-60.717
-57.197
-53.352
-49.182
-44.693
-39.89
-34.782
-29.379
-23.696
-17.748
-11.554
-5.13
1.502
8.322
15.306
22.431
29.672
37.002
44.394
51.821
59.253
66.66
74.013
81.28
88.43
95.432
102.256
108.87
115.244
121.349
127.155
132.634
137.76
142.507
146.851
150.769
154.24
157.246
159.771
161.799
163.319
164.322
164.799
164.746
164.159
163.037
161.382
159.196
156.484
153.255
149.517
145.282
140.565
135.382
129.751
123.693
117.23
110.387
103.19
95.666
87.845
79.758
71.437
62.914
54.222
45.395
36.468
27.475
18.449
9.424
0.432
-8.495
-17.326
-26.032
-34.584
-42.956
-51.121
-59.056
-66.737
-74.143
-81.254
-88.052
-94.52
-100.645
-106.414
-111.816
-116.843
-121.489
-125.751
-129.625
-133.113
-136.216
-138.939
-141.289
-143.273
-144.902
-146.186
-147.138
-147.772
-148.103
-148.146
-147.918
-147.435
-146.712
-145.768
-144.618
-143.28
-141.768
-140.1
-138.291
-136.357
-134.314
-132.176
-129.958
-127.673
-125.336
-122.959
-120.553
-118.13
-115.701
-113.273
-110.856
-108.457
-106.081
-103.735
-101.422
-99.146
-96.909
-94.712
-92.557
-90.443
-88.37
-86.338
-84.346
-82.393
-80.478
-78.602
-76.765
-74.965
-73.204
-71.482
-69.8
-68.159
-66.559
-65.002
-63.488
-62.02
-60.599
-59.226
-57.903
-56.632
-55.416
-54.256
-53.156
-52.117
-51.142
-50.236
-49.399
-48.638
-47.953
-47.35
-46.832
-46.403
-46.065
-45.821
-45.675
-45.627
-45.678
-45.829
-46.078
-46.424
-46.865
-47.397
-48.016
-48.719
-49.499
-50.353
-51.274
-52.255
-53.289
-54.371
-55.492
-56.645
-57.822
-59.015
-60.217
-61.419
-62.614
-63.794
-64.951
-66.078
-67.168
-68.212
-69.204
-70.138
-71.005
-71.802
-72.522
-73.163
-73.72
-74.193
-74.58
-74.883
-75.103
-75.243
-75.308
-75.302
-75.23
-75.1
-74.92
-74.699
-74.445
-74.167
-73.875
-73.582
-73.3
-73.043
-72.821
-72.648
-72.535
-72.497
-72.545
-72.689
-72.936
-73.293
-73.767
-74.366
-75.096
-75.964
-76.974
-78.128
-79.43
-80.879
-82.473
-84.204
-86.058
-88.023
-90.086
-92.239
-94.475
-96.788
-99.166
-101.597
-104.065
-106.548
-109.017
-111.437
-113.758
-115.938
-117.942
-119.733
-121.284
-122.563
-123.537
-124.173
-124.44
-124.3
-123.719
-122.666
-121.126
-119.127
-116.71
-113.934
-110.869
-107.559
-104.058
-100.455
-96.844
-93.308
-89.916
-86.691
-83.694
-81.093
-78.995
-77.346
-75.913
-74.256
-71.965
-68.776
-64.335
-58.123
-49.849
-39.617
-28.063
-16.378
-5.531
3.62
9.93
12.487
10.777
6.161
2.289
1.517
5.183
13.045
22.213
36.486
63.169
106.802
174.077
261.735
359.372
462.554
562.141
649.864
720.061
758.674
755.999
710.392
624.554
508.695
372.761
225.299
76.448
-60.416
-167.897
-235.461
-261.738
-255.449
-234.229
-208.993
-183.837
-158.71
-128.598
-93.292
-56.533
-21.693
6.733
26.121
36.941
40.359
38.043
32.021
23.586
13.587
3.44
-5.057
-10.862
-13.587
-13.35
-10.871
-6.716
-1.205
4.942
10.672
15.31
18.526
20.276
20.901
20.714
19.911
18.816
17.842
17.237
17.122
17.529
18.343
19.464
20.844
22.401
24.056
25.764
27.488
29.199
30.885
32.504
34
35.337
36.485
37.426
38.157
38.675
38.981
39.091
39.029
38.811
38.45
37.956
37.337
36.613
35.807
34.944
34.05
33.15
32.269
31.433
30.664
29.984
29.411
28.962
28.655
28.507
28.541
28.775
29.23
29.925
30.876
32.1
33.614
35.429
37.557
40.008
42.789
45.907
49.369
53.177
57.332
61.833
66.677
71.857
77.365
83.189
89.316
95.729
102.411
109.339
116.493
123.846
131.371
139.041
146.824
154.689
162.602
170.529
178.435
186.283
194.036
201.659
209.113
216.363
223.37
230.099
236.513
242.579
248.262
253.53
258.351
262.696
266.539
269.854
272.621
274.817
276.428
277.44
277.841
277.625
276.786
275.324
273.242
270.544
267.239
263.34
258.861
253.822
248.243
242.147
235.563
228.517
221.043
213.172
204.94
196.384
187.543
178.456
169.166
159.715
150.145
140.5
130.824
121.16
111.55
102.036
92.66
83.461
74.476
65.743
57.296
49.167
41.386
33.98
26.975
20.393
14.253
8.572
3.362
-1.363
-5.598
-9.336
-12.574
-15.312
-17.554
-19.303
-20.567
-21.357
-21.685
-21.565
-21.014
-20.051
-18.696
-16.971
-14.899
-12.504
-9.812
-6.849
-3.641
-0.214
3.404
7.187
11.109
15.142
19.263
23.447
27.67
31.909
36.144
40.354
44.519
48.623
52.648
56.579
60.402
64.103
67.673
71.1
74.375
77.493
80.445
83.229
85.839
88.275
90.535
92.619
94.529
96.265
97.831
99.23
100.466
101.543
102.466
103.239
103.867
104.355
104.706
104.926
105.018
104.987
104.834
104.565
104.18
103.684
103.079
102.366
101.547
100.625
99.6
98.473
97.246
95.918
94.491
92.964
91.338
89.612
87.786
85.86
83.833
81.705
79.475
77.143
74.708
72.171
69.533
66.796
63.96
61.03
58.008
54.898
51.706
48.437
45.098
41.693
38.232
34.721
31.169
27.584
23.975
20.351
16.722
13.098
9.489
5.903
2.352
-1.156
-4.612
-8.005
-11.327
-14.569
-17.721
-20.776
-23.725
-26.56
-29.274
-31.86
-34.313
-36.629
-38.805
-40.838
-42.727
-44.472
-46.076
-47.541
-48.87
-50.068
-51.14
-52.094
-52.937
-53.679
-54.328
-54.895
-55.391
-55.83
-56.227
-56.595
-56.948
-57.3
-57.666
-58.06
-58.495
-58.982
-59.53
-60.149
-60.85
-61.644
-62.543
-63.554
-64.686
-65.943
-67.331
-68.854
-70.511
-72.294
-74.196
-76.209
-78.333
-80.571
-82.925
-85.39
-87.96
-90.626
-93.369
-96.169
-98.995
-101.8
-104.541
-107.176
-109.668
-111.993
-114.12
-116.009
-117.623
-118.91
-119.826
-120.344
-120.428
-120.054
-119.243
-118.023
-116.455
-114.635
-112.622
-110.484
-108.33
-106.249
-104.355
-102.766
-101.547
-100.804
-100.717
-101.347
-102.661
-104.485
-106.341
-107.767
-108.453
-107.953
-105.777
-101.725
-95.801
-88.489
-81.02
-74.521
-69.719
-67.389
-68.111
-71.886
-78.172
-85.428
-90.722
-91.096
-84.127
-67.1
-37.529
5.992
64.061
134.692
212.449
293.295
374.073
451.957
526.638
591.814
636.234
651.176
628.72
570.035
486.316
384.966
270.842
148.163
17.954
-109.113
-213.792
-284.046
-314.254
-310.305
-290.101
-265.359
-241.243
-218.781
-193.229
-163.898
-134.037
-106.723
-85.757
-72.89
-67.486
-68.354
-73.566
-81.033
-89.138
-96.441
-101.908
-104.837
-104.851
-102.045
-96.95
-90.394
-83.299
-76.601
-70.907
-66.569
-63.781
-62.472
-62.447
-63.413
-64.925
-66.473
-67.745
-68.581
-68.912
-68.796
-68.256
-67.302
-66.014
-64.497
-62.825
-61.056
-59.214
-57.296
-55.338
-53.4
-51.549
-49.865
-48.394
-47.155
-46.166
-45.433
-44.96
-44.75
-44.785
-45.039
-45.493
-46.133
-46.945
-47.921
-49.039
-50.271
-51.589
-52.963
-54.367
-55.779
-57.177
-58.54
-59.848
-61.083
-62.231
-63.277
-64.205
-64.999
-65.64
-66.111
-66.396
-66.483
-66.355
-66.001
-65.41
-64.57
-63.475
-62.117
-60.491
-58.591
-56.415
-53.961
-51.23
-48.223
-44.944
-41.398
-37.592
-33.534
-29.235
-24.706
-19.961
-15.015
-9.883
-4.583
0.866
6.445
12.135
17.914
23.761
29.653
35.568
41.482
47.371
53.213
58.981
64.652
70.2
75.602
80.833
85.87
90.689
95.267
99.582
103.614
107.341
110.746
113.809
116.514
118.846
120.79
122.335
123.469
124.184
124.473
124.33
123.751
122.734
121.279
119.388
117.064
114.311
111.137
107.55
103.56
99.18
94.423
89.305
83.843
78.057
71.967
65.594
58.963
52.098
45.023
37.766
30.353
22.812
15.171
7.459
-0.295
-8.064
-15.817
-23.527
-31.166
-38.706
-46.121
-53.384
-60.47
-67.356
-74.018
-80.434
-86.584
-92.448
-98.009
-103.251
-108.16
-112.722
-116.928
-120.767
-124.235
-127.325
-130.034
-132.363
-134.311
-135.88
-137.076
-137.904
-138.371
-138.487
-138.261
-137.706
-136.835
-135.663
-134.204
-132.476
-130.495
-128.279
-125.849
-123.221
-120.417
-117.456
-114.357
-111.142
-107.829
-104.439
-100.991
-97.503
-93.994
-90.481
-86.98
-83.507
-80.075
-76.698
-73.389
-70.158
-67.015
-63.968
-61.026
-58.196
-55.482
-52.89
-50.422
-48.082
-45.87
-43.786
-41.831
-40.001
-38.296
-36.711
-35.243
-33.887
-32.638
-31.49
-30.437
-29.472
-28.59
-27.783
-27.044
-26.367
-25.745
-25.172
-24.644
-24.154
-23.698
-23.274
-22.876
-22.503
-22.152
-21.822
-21.509
-21.215
-20.938
-20.678
-20.435
-20.21
-20.004
-19.819
-19.656
-19.517
-19.405
-19.322
-19.27
-19.251
-19.269
-19.325
-19.423
-19.563
-19.75
-19.984
-20.267
-20.601
-20.985
-21.419
-21.902
-22.432
-23.005
-23.62
-24.27
-24.951
-25.658
-26.386
-27.129
-27.879
-28.63
-29.375
-30.107
-30.819
-31.503
-32.152
-32.757
-33.312
-33.81
-34.245
-34.609
-34.898
-35.106
-35.229
-35.263
-35.203
-35.048
-34.794
-34.441
-33.99
-33.441
-32.797
-32.061
-31.241
-30.344
-29.382
-28.365
-27.305
-26.214
-25.106
-23.994
-22.892
-21.808
-20.754
-19.741
-18.781
-17.891
-17.082
-16.367
-15.756
-15.261
-14.891
-14.658
-14.566
-14.614
-14.802
-15.133
-15.616
-16.271
-17.108
-18.13
-19.336
-20.719
-22.27
-23.976
-25.809
-27.721
-29.667
-31.601
-33.492
-35.322
-37.058
-38.657
-40.069
-41.224
-42.081
-42.62
-42.816
-42.664
-42.179
-41.388
-40.36
-39.203
-38.009
-36.881
-35.917
-35.202
-34.847
-34.942
-35.613
-37.04
-39.293
-42.351
-46.072
-50.115
-54.12
-57.792
-60.717
-62.395
-62.484
-60.767
-57.495
-53.462
-49.405
-45.947
-43.581
-42.609
-43.341
-45.918
-49.507
-52.338
-52.353
-47.348
-35.625
-15.667
14.507
56.774
112.21
179.148
253.2
330.099
405.835
480.488
558.333
637.891
713.116
771.145
791.565
763.603
687.159
569.872
428.18
276.438
124.149
-16.956
-133.355
-216.189
-260.456
-270.647
-261.91
-244.626
-224.314
-202.366
-173.865
-138.286
-99.566
-61.475
-29.064
-5.438
9.554
16.787
17.679
14.095
7.729
-0.16
-8.154
-14.525
-18.414
-19.639
-18.298
-15.103
-10.918
-6.274
-1.924
1.114
2.363
1.705
-0.78
-4.655
-9.479
-14.962
-20.718
-26.287
-31.419
-35.967
-39.861
-43.152
-45.846
-47.922
-49.415
-50.391
-50.922
-51.102
-51.04
-50.821
-50.548
-50.325
-50.221
-50.284
-50.543
-51.005
-51.672
-52.555
-53.667
-55.008
-56.583
-58.383
-60.388
-62.566
-64.868
-67.237
-69.623
-71.975
-74.256
-76.431
-78.476
-80.369
-82.099
-83.651
-85.004
-86.14
-87.036
-87.668
-88.018
-88.07
-87.81
-87.228
-86.315
-85.063
-83.463
-81.51
-79.196
-76.515
-73.46
-70.027
-66.212
-62.018
-57.449
-52.511
-47.213
-41.568
-35.589
-29.292
-22.695
-15.817
-8.68
-1.304
6.285
14.06
21.994
30.057
38.22
46.451
54.716
62.984
71.219
79.389
87.459
95.395
103.163
110.729
118.06
125.125
131.891
138.327
144.406
150.098
155.376
160.215
164.593
168.488
171.88
174.752
177.089
178.878
180.108
180.771
180.861
180.375
179.312
177.674
175.465
172.692
169.365
165.495
161.098
156.19
150.79
144.92
138.603
131.864
124.73
117.231
109.397
101.259
92.85
84.204
75.357
66.342
57.196
47.955
38.655
29.332
20.023
10.762
1.586
-7.472
-16.377
-25.099
-33.605
-41.867
-49.856
-57.546
-64.912
-71.933
-78.587
-84.857
-90.727
-96.183
-101.213
-105.809
-109.965
-113.675
-116.938
-119.754
-122.126
-124.058
-125.556
-126.629
-127.286
-127.541
-127.405
-126.894
-126.024
-124.814
-123.281
-121.445
-119.328
-116.952
-114.337
-111.507
-108.485
-105.294
-101.956
-98.495
-94.934
-91.295
-87.6
-83.869
-80.125
-76.385
-72.668
-68.993
-65.374
-61.827
-58.367
-55.005
-51.752
-48.621
-45.619
-42.756
-40.037
-37.469
-35.056
-32.803
-30.711
-28.783
-27.018
-25.417
-23.979
-22.701
-21.581
-20.617
-19.803
-19.135
-18.609
-18.219
-17.959
-17.823
-17.804
-17.896
-18.092
-18.384
-18.767
-19.235
-19.779
-20.396
-21.077
-21.818
-22.612
-23.455
-24.34
-25.262
-26.216
-27.197
-28.201
-29.223
-30.257
-31.301
-32.348
-33.396
-34.438
-35.471
-36.49
-37.489
-38.464
-39.41
-40.323
-41.196
-42.027
-42.809
-43.538
-44.21
-44.82
-45.363
-45.835
-46.231
-46.547
-46.778
-46.92
-46.967
-46.916
-46.762
-46.5
-46.129
-45.643
-45.039
-44.315
-43.468
-42.496
-41.397
-40.172
-38.82
-37.342
-35.74
-34.016
-32.175
-30.221
-28.16
-25.998
-23.742
-21.4
-18.982
-16.496
-13.952
-11.359
-8.731
-6.078
-3.412
-0.746
1.905
4.528
7.106
9.62
12.057
14.397
16.624
18.721
20.672
22.461
24.077
25.508
26.744
27.772
28.581
29.159
29.502
29.602
29.455
29.058
28.409
27.511
26.373
25.003
23.409
21.59
19.539
17.255
14.747
12.022
9.097
5.993
2.728
-0.658
-4.113
-7.586
-11.024
-14.386
-17.643
-20.755
-23.679
-26.36
-28.732
-30.746
-32.374
-33.591
-34.393
-34.794
-34.82
-34.538
-34.049
-33.455
-32.88
-32.433
-32.212
-32.331
-32.877
-33.976
-35.802
-38.422
-41.809
-45.822
-50.147
-54.464
-58.518
-61.929
-64.205
-65.022
-64.225
-62.046
-59.167
-56.235
-53.761
-52.193
-51.934
-53.19
-55.819
-58.957
-60.993
-60.004
-53.951
-41.089
-19.875
11.233
53.28
106.492
170.369
241.784
315.416
386.949
451.475
507.806
559.408
604.303
639.184
656.429
639.823
582.666
483.091
343.25
182.184
17.804
-130.702
-239.801
-303.651
-325.095
-314.804
-294.543
-276.016
-263.076
-255.206
-245.134
-230.782
-214.03
-196.58
-181.79
-170.415
-160.889
-152.479
-144.048
-134.765
-125.508
-117.172
-110.23
-105.353
-102.565
-101.184
-101.015
-101.893
-102.983
-103.703
-103.71
-102.627
-100.734
-98.695
-96.769
-95.122
-94.005
-93.401
-93.263
-93.591
-94.105
-94.417
-94.336
-93.753
-92.638
-91.085
-89.162
-86.893
-84.354
-81.67
-78.932
-76.217
-73.587
-71.067
-68.697
-66.53
-64.603
-62.936
-61.535
-60.39
-59.476
-58.777
-58.27
-57.934
-57.761
-57.722
-57.789
-57.94
-58.151
-58.397
-58.656
-58.897
-59.088
-59.207
-59.235
-59.156
-58.955
-58.616
-58.123
-57.46
-56.61
-55.558
-54.292
-52.795
-51.055
-49.059
-46.797
-44.263
-41.452
-38.358
-34.978
-31.31
-27.352
-23.106
-18.576
-13.766
-8.681
-3.329
2.278
8.129
14.21
20.505
26.998
33.669
40.498
47.463
54.542
61.71
68.941
76.21
83.489
90.749
97.963
105.1
112.132
119.028
125.76
132.298
138.614
144.679
150.466
155.949
161.101
165.898
170.316
174.333
177.928
181.081
183.774
185.991
187.718
188.944
189.658
189.852
189.523
188.667
187.284
185.375
182.945
180.002
176.553
172.613
168.194
163.313
157.99
152.246
146.103
139.586
132.723
125.541
118.069
110.337
102.379
94.226
85.912
77.471
68.939
60.351
51.742
43.147
34.602
26.141
17.797
9.604
1.592
-6.208
-13.766
-21.056
-28.052
-34.73
-41.069
-47.049
-52.653
-57.866
-62.676
-67.074
-71.053
-74.606
-77.733
-80.433
-82.706
-84.559
-85.996
-87.026
-87.659
-87.906
-87.784
-87.305
-86.489
-85.354
-83.919
-82.206
-80.237
-78.034
-75.62
-73.019
-70.255
-67.352
-64.334
-61.225
-58.048
-54.827
-51.582
-48.336
-45.108
-41.916
-38.779
-35.711
-32.728
-29.843
-27.066
-24.409
-21.88
-19.486
-17.234
-15.127
-13.168
-11.36
-9.701
-8.19
-6.824
-5.601
-4.515
-3.559
-2.729
-2.016
-1.413
-0.91
-0.5
-0.171
0.086
0.28
0.424
0.525
0.596
0.645
0.682
0.715
0.752
0.802
0.871
0.964
1.089
1.248
1.446
1.686
1.97
2.299
2.674
3.094
3.559
4.066
4.614
5.2
5.82
6.471
7.15
7.853
8.576
9.316
10.067
10.827
11.592
12.357
13.12
13.876
14.624
15.359
16.079
16.782
17.467
18.131
18.775
19.397
19.998
20.58
21.143
21.69
22.224
22.747
23.264
23.779
24.296
24.819
25.354
25.905
26.477
27.074
27.701
28.362
29.059
29.794
30.571
31.39
32.251
33.154
34.097
35.079
36.098
37.15
38.233
39.342
40.472
41.619
42.776
43.937
45.093
46.233
47.346
48.42
49.444
50.404
51.287
52.082
52.777
53.363
53.833
54.175
54.381
54.441
54.348
54.096
53.684
53.107
52.362
51.452
50.381
49.159
47.796
46.295
44.653
42.867
40.934
38.86
36.654
34.322
31.874
29.326
26.706
24.055
21.421
18.843
16.354
13.986
11.781
9.792
8.085
6.717
5.736
5.177
5.061
5.405
6.212
7.465
9.128
11.119
13.333
15.663
17.989
20.187
22.156
23.731
24.688
24.907
24.365
23.181
21.684
20.185
18.894
18.13
18.318
19.727
22.47
26.205
30.024
33.049
34.628
34.228
31.45
26.121
18.35
9.156
0.63
-4.679
-4.232
4.111
22.42
52.69
96.57
155.023
226.031
304.568
385.935
465.502
542.314
619.798
695.801
763.811
811.723
821.491
784.562
702.127
581.762
438.245
284.697
130.949
-9.96
-123.646
-201.604
-240.282
-246.03
-234.939
-217.169
-197.619
-177.165
-150.428
-116.711
-80.041
-44.13
-13.984
7.186
19.569
24.148
22.224
15.593
5.998
-5.274
-16.638
-26.116
-32.7
-36.094
-36.257
-33.827
-29.622
-24.169
-18.321
-13.242
-9.535
-7.454
-7.067
-8.02
-9.947
-12.607
-15.582
-18.395
-20.798
-22.658
-23.943
-24.769
-25.205
-25.284
-25.088
-24.694
-24.15
-23.501
-22.766
-21.957
-21.114
-20.291
-19.545
-18.917
-18.426
-18.081
-17.882
-17.825
-17.901
-18.092
-18.375
-18.737
-19.164
-19.644
-20.167
-20.714
-21.263
-21.791
-22.276
-22.695
-23.029
-23.262
-23.377
-23.364
-23.209
-22.904
-22.439
-21.804
-20.985
-19.973
-18.755
-17.323
-15.667
-13.78
-11.655
-9.287
-6.674
-3.812
-0.702
2.659
6.268
10.125
14.226
18.568
23.144
27.95
32.975
38.212
43.65
49.277
55.079
61.041
67.149
73.384
79.728
86.162
92.665
99.215
105.791
112.369
118.926
125.438
131.88
138.229
144.458
150.543
156.459
162.181
167.684
172.944
177.937
182.64
187.03
191.085
194.783
198.104
201.029
203.539
205.618
207.25
208.42
209.117
209.33
209.05
208.272
206.99
205.202
202.909
200.112
196.816
193.027
188.754
184.007
178.797
173.14
167.052
160.549
153.653
146.385
138.767
130.824
122.583
114.071
105.316
96.347
87.196
77.892
68.468
58.956
49.388
39.796
30.212
20.67
11.2
1.832
-7.403
-16.477
-25.363
-34.034
-42.469
-50.642
-58.534
-66.125
-73.399
-80.338
-86.928
-93.159
-99.019
-104.5
-109.596
-114.303
-118.618
-122.541
-126.072
-129.216
-131.976
-134.359
-136.372
-138.026
-139.33
-140.296
-140.939
-141.272
-141.31
-141.071
-140.569
-139.823
-138.849
-137.665
-136.288
-134.734
-133.02
-131.162
-129.177
-127.079
-124.885
-122.607
-120.261
-117.859
-115.414
-112.937
-110.438
-107.928
-105.416
-102.909
-100.416
-97.942
-95.495
-93.078
-90.697
-88.355
-86.055
-83.8
-81.592
-79.431
-77.319
-75.256
-73.242
-71.277
-69.362
-67.497
-65.682
-63.917
-62.204
-60.543
-58.935
-57.38
-55.881
-54.438
-53.055
-51.732
-50.472
-49.278
-48.153
-47.101
-46.124
-45.227
-44.413
-43.685
-43.048
-42.505
-42.06
-41.716
-41.477
-41.345
-41.324
-41.416
-41.623
-41.947
-42.389
-42.948
-43.625
-44.416
-45.321
-46.337
-47.458
-48.681
-50
-51.41
-52.904
-54.474
-56.112
-57.809
-59.555
-61.341
-63.155
-64.985
-66.82
-68.648
-70.456
-72.233
-73.966
-75.642
-77.25
-78.777
-80.211
-81.542
-82.758
-83.848
-84.805
-85.619
-86.284
-86.793
-87.143
-87.33
-87.352
-87.21
-86.903
-86.434
-85.807
-85.025
-84.095
-83.026
-81.824
-80.501
-79.068
-77.54
-75.933
-74.264
-72.55
-70.811
-69.066
-67.334
-65.636
-63.99
-62.412
-60.918
-59.527
-58.255
-57.121
-56.14
-55.326
-54.691
-54.245
-53.997
-53.955
-54.12
-54.489
-55.059
-55.83
-56.808
-58.006
-59.43
-61.079
-62.948
-65.029
-67.311
-69.781
-72.41
-75.153
-77.966
-80.805
-83.634
-86.429
-89.149
-91.749
-94.166
-96.33
-98.182
-99.683
-100.803
-101.517
-101.821
-101.715
-101.229
-100.449
-99.468
-98.387
-97.321
-96.362
-95.595
-95.151
-95.223
-95.938
-97.347
-99.355
-101.664
-103.972
-106.02
-107.459
-107.842
-106.827
-104.241
-100.294
-95.813
-91.719
-88.797
-87.903
-89.757
-94.688
-102.733
-113.109
-123.732
-132.152
-135.883
-131.902
-117.329
-89.913
-47.295
10.698
80.819
159.712
243.566
330.106
421.356
516.851
610.713
691.467
741.23
745.686
700.608
611.807
492.866
356.112
210.935
64.475
-74.659
-192.048
-277.173
-325.627
-341.547
-338.945
-327.531
-311.549
-291.641
-263.77
-228.03
-188.413
-148.795
-113.899
-86.754
-68.154
-58.088
-55.461
-58.653
-66.038
-76.18
-87.785
-99.088
-108.291
-114.361
-116.891
-116.069
-112.499
-106.651
-98.989
-90.447
-82.115
-74.676
-68.488
-63.556
-59.619
-56.496
-54.007
-51.81
-49.519
-46.89
-43.838
-40.44
-36.891
-33.364
-30.021
-27.004
-24.436
-22.419
-20.994
-20.136
-19.781
-19.899
-20.488
-21.549
-23.09
-25.067
-27.395
-30.053
-33.044
-36.127
-39
-41.694
-44.138
-46.241
-48.389
-49.5
-48.536
-47.052
-45.545
-46.787
-54.083
-63.772
-73.399
-79.337
-76.602
-69.589
-62.04
-56.514
-57.232
-61.172
-65.253
-68.764
-69.801
-69.392
-68.878
-67.958
-66.784
-65.241
-63.041
-60.357
-57.336
-53.936
-50.149
-45.996
-41.477
-36.584
-31.318
-25.667
-19.618
-13.205
-6.468
0.572
7.89
15.457
23.249
31.237
39.387
47.679
56.085
64.576
73.119
81.682
90.226
98.718
107.12
115.395
123.504
131.411
139.079
146.474
153.562
160.309
166.684
172.656
178.195
183.275
187.868
191.951
195.502
198.501
200.93
202.775
204.024
204.666
204.695
204.106
202.897
201.068
198.622
195.565
191.905
187.651
182.818
177.423
171.483
165.022
158.064
150.637
142.77
134.494
125.842
116.851
107.555
97.993
88.202
78.222
68.094
57.858
47.555
37.225
26.91
16.649
6.482
-3.552
-13.417
-23.075
-32.493
-41.637
-50.476
-58.979
-67.119
-74.869
-82.206
-89.108
-95.557
-101.535
-107.03
-112.03
-116.528
-120.519
-123.999
-126.969
-129.432
-131.393
-132.861
-133.845
-134.357
-134.413
-134.028
-133.221
-132.013
-130.425
-128.479
-126.2
-123.613
-120.743
-117.616
-114.258
-110.697
-106.96
-103.073
-99.064
-94.957
-90.781
-86.559
-82.317
-78.078
-73.865
-69.697
-65.596
-61.578
-57.661
-53.859
-50.186
-46.653
-43.269
-40.043
-36.981
-34.088
-31.367
-28.82
-26.446
-24.244
-22.211
-20.344
-18.637
-17.085
-15.681
-14.418
-13.289
-12.283
-11.394
-10.61
-9.923
-9.324
-8.801
-8.345
-7.948
-7.599
-7.289
-7.011
-6.757
-6.52
-6.293
-6.071
-5.849
-5.625
-5.395
-5.158
-4.912
-4.658
-4.397
-4.129
-3.857
-3.585
-3.316
-3.053
-2.801
-2.565
-2.348
-2.155
-1.992
-1.861
-1.768
-1.716
-1.709
-1.751
-1.844
-1.992
-2.195
-2.456
-2.777
-3.156
-3.593
-4.087
-4.635
-5.236
-5.883
-6.573
-7.299
-8.054
-8.83
-9.621
-10.416
-11.206
-11.982
-12.734
-13.45
-14.122
-14.738
-15.289
-15.764
-16.155
-16.452
-16.648
-16.736
-16.709
-16.561
-16.289
-15.89
-15.361
-14.7
-13.908
-12.985
-11.934
-10.758
-9.462
-8.053
-6.537
-4.926
-3.232
-1.469
0.347
2.201
4.076
5.953
7.814
9.643
11.423
13.142
14.783
16.329
17.764
19.07
20.234
21.245
22.088
22.754
23.232
23.519
23.617
23.528
23.252
22.782
22.106
21.215
20.107
18.784
17.253
15.525
13.614
11.55
9.379
7.146
4.892
2.651
0.448
-1.681
-3.695
-5.544
-7.165
-8.515
-9.55
-10.233
-10.553
-10.519
-10.156
-9.526
-8.699
-7.74
-6.742
-5.802
-5.01
-4.454
-4.195
-4.331
-5.033
-6.422
-8.512
-11.138
-13.931
-16.516
-18.569
-19.665
-19.286
-17.032
-12.762
-6.961
-0.64
5.315
9.851
11.798
10.416
5.002
-3.505
-11.57
-16.959
-18.39
-15.885
-12.367
-4.421
16.543
58.567
129.397
224.672
330.547
434.428
526.684
607.953
681.746
745.384
788.409
793.549
751.478
663.7
542.166
405.412
263.956
124.716
-5.508
-119.487
-205.539
-256.24
-273.379
-266.417
-247.315
-224.098
-199.383
-171.162
-138.345
-103.12
-68.802
-39.511
-18.128
-5.202
-0.056
-1.333
-7.439
-16.902
-28.543
-41.165
-53.119
-62.887
-69.703
-73.366
-74.176
-72.72
-69.43
-64.788
-59.687
-55.12
-51.685
-49.617
-48.831
-49.024
-49.966
-51.457
-53.165
-54.697
-55.818
-56.432
-56.564
-56.335
-55.835
-55.108
-54.221
-53.252
-52.256
-51.275
-50.343
-49.476
-48.71
-48.1
-47.683
-47.488
-47.535
-47.826
-48.36
-49.131
-50.123
-51.314
-52.691
-54.238
-55.942
-57.788
-59.755
-61.816
-63.945
-66.111
-68.286
-70.439
-72.54
-74.564
-76.484
-78.279
-79.926
-81.404
-82.689
-83.758
-84.586
-85.15
-85.428
-85.397
-85.038
-84.331
-83.261
-81.812
-79.972
-77.731
-75.08
-72.01
-68.517
-64.599
-60.256
-55.489
-50.302
-44.704
-38.704
-32.316
-25.553
-18.434
-10.978
-3.208
4.854
13.18
21.743
30.515
39.465
48.56
57.767
67.053
76.381
85.716
95.02
104.256
113.387
122.374
131.181
139.769
148.103
156.146
163.863
171.221
178.186
184.729
190.819
196.429
201.535
206.112
210.142
213.607
216.491
218.783
220.473
221.555
222.024
221.879
221.123
219.759
217.795
215.241
212.109
208.414
204.173
199.407
194.138
188.39
182.19
175.566
168.549
161.17
153.463
145.462
137.204
128.725
120.062
111.253
102.335
93.347
84.324
75.303
66.32
57.409
48.602
39.932
31.429
23.121
15.035
7.195
-0.376
-7.656
-14.628
-21.275
-27.583
-33.539
-39.133
-44.358
-49.207
-53.676
-57.765
-61.474
-64.805
-67.764
-70.357
-72.593
-74.482
-76.038
-77.273
-78.203
-78.843
-79.211
-79.325
-79.203
-78.865
-78.328
-77.614
-76.741
-75.73
-74.598
-73.364
-72.048
-70.665
-69.234
-67.77
-66.289
-64.806
-63.334
-61.889
-60.481
-59.122
-57.825
-56.597
-55.448
-54.385
-53.416
-52.544
-51.775
-51.112
-50.558
-50.113
-49.778
-49.553
-49.437
-49.429
-49.525
-49.724
-50.021
-50.413
-50.897
-51.467
-52.122
-52.855
-53.664
-54.544
-55.491
-56.501
-57.57
-58.695
-59.87
-61.091
-62.355
-63.658
-64.994
-66.362
-67.756
-69.173
-70.609
-72.062
-73.528
-75.003
-76.484
-77.969
-79.453
-80.935
-82.41
-83.876
-85.331
-86.77
-88.19
-89.588
-90.96
-92.301
-93.607
-94.871
-96.09
-97.257
-98.366
-99.412
-100.389
-101.29
-102.108
-102.839
-103.475
-104.01
-104.437
-104.75
-104.943
-105.011
-104.948
-104.75
-104.411
-103.928
-103.298
-102.517
-101.584
-100.497
-99.254
-97.856
-96.302
-94.595
-92.737
-90.732
-88.585
-86.301
-83.89
-81.358
-78.717
-75.976
-73.148
-70.245
-67.283
-64.276
-61.24
-58.192
-55.149
-52.133
-49.164
-46.262
-43.449
-40.745
-38.171
-35.75
-33.499
-31.436
-29.576
-27.934
-26.525
-25.363
-24.463
-23.836
-23.493
-23.443
-23.695
-24.254
-25.119
-26.285
-27.743
-29.485
-31.505
-33.801
-36.366
-39.191
-42.265
-45.574
-49.099
-52.811
-56.667
-60.615
-64.602
-68.583
-72.519
-76.376
-80.115
-83.7
-87.085
-90.228
-93.093
-95.64
-97.829
-99.624
-101.02
-102.045
-102.768
-103.272
-103.623
-103.861
-104.025
-104.176
-104.39
-104.753
-105.347
-106.2
-107.378
-109.036
-111.246
-113.949
-116.866
-119.401
-120.91
-120.912
-118.925
-114.449
-107.3
-97.614
-86.151
-74.546
-64.487
-57.298
-54.071
-55.484
-61.481
-71.253
-82.706
-92.14
-95.554
-89.393
-70.435
-36.129
15.003
83.146
165.278
254.974
345.456
430.719
508.211
577.529
634.664
672.501
680.193
646.788
570.01
454.067
308.335
147.871
-13.873
-162.655
-282.622
-365.722
-410.727
-423.965
-418.128
-401.723
-376.569
-341.143
-295.512
-242.796
-191.019
-148.758
-116.699
-94.343
-79.511
-67.973
-61.431
-60.779
-64.877
-74.173
-86.207
-98.073
-108.706
-116.729
-121.73
-124.363
-124.929
-123.568
-120.711
-116.88
-112.692
-108.996
-106.221
-104.252
-102.899
-101.957
-101.235
-100.624
-99.916
-98.719
-96.796
-94.121
-90.778
-86.973
-82.864
-78.505
-73.968
-69.362
-64.791
-60.353
-56.111
-52.059
-48.184
-44.499
-41.025
-37.806
-34.877
-32.239
-29.869
-27.735
-25.816
-24.102
-22.586
-21.248
-20.059
-18.988
-18.019
-17.148
-16.37
-15.672
-15.034
-14.431
-13.839
-13.246
-12.638
-12.002
-11.32
-10.573
-9.742
-8.813
-7.772
-6.604
-5.291
-3.813
-2.153
-0.298
1.764
4.043
6.552
9.3
12.294
15.54
19.039
22.796
26.812
31.085
35.615
40.395
45.42
50.682
56.172
61.877
67.785
73.881
80.147
86.568
93.122
99.79
106.548
113.374
120.243
127.13
134.008
140.85
147.628
154.314
160.881
167.299
173.541
179.578
185.381
190.924
196.179
201.121
205.725
209.968
213.826
217.278
220.305
222.891
225.017
226.671
227.839
228.512
228.68
228.338
227.481
226.108
224.219
221.818
218.908
215.499
211.601
207.226
202.389
197.108
191.402
185.292
178.804
171.961
164.792
157.326
149.594
141.626
133.456
125.117
116.644
108.071
99.432
90.763
82.096
73.467
64.909
56.454
48.135
39.983
32.029
24.3
16.825
9.629
2.737
-3.83
-10.052
-15.91
-21.389
-26.475
-31.158
-35.429
-39.282
-42.714
-45.724
-48.312
-50.484
-52.245
-53.603
-54.57
-55.158
-55.381
-55.254
-54.795
-54.022
-52.954
-51.612
-50.016
-48.19
-46.155
-43.934
-41.55
-39.028
-36.391
-33.662
-30.864
-28.02
-25.152
-22.28
-19.426
-16.608
-13.845
-11.152
-8.546
-6.04
-3.646
-1.374
0.766
2.767
4.625
6.335
7.896
9.306
10.566
11.679
12.646
13.473
14.164
14.726
15.164
15.487
15.703
15.82
15.848
15.797
15.677
15.498
15.271
15.005
14.712
14.402
14.085
13.77
13.467
13.184
12.928
12.708
12.528
12.395
12.313
12.285
12.314
12.4
12.546
12.749
13.01
13.327
13.697
14.118
14.585
15.095
15.645
16.229
16.843
17.484
18.145
18.822
19.511
20.207
20.905
21.599
22.287
22.963
23.623
24.265
24.884
25.478
26.045
26.583
27.092
27.571
28.02
28.438
28.829
29.192
29.53
29.847
30.144
30.427
30.698
30.963
31.225
31.488
31.756
32.033
32.322
32.625
32.946
33.285
33.644
34.023
34.425
34.847
35.29
35.751
36.229
36.72
37.22
37.723
38.22
38.704
39.166
39.597
39.987
40.326
40.603
40.813
40.946
40.996
40.954
40.81
40.554
40.178
39.675
39.037
38.261
37.34
36.27
35.055
33.698
32.203
30.572
28.797
26.867
24.775
22.524
20.12
17.57
14.883
12.075
9.173
6.22
3.26
0.332
-2.533
-5.313
-7.973
-10.47
-12.747
-14.744
-16.413
-17.728
-18.673
-19.233
-19.411
-19.22
-18.7
-17.951
-17.079
-16.193
-15.406
-14.812
-14.502
-14.617
-15.344
-16.775
-18.919
-21.648
-24.657
-27.691
-30.532
-32.848
-34.254
-34.476
-33.369
-31.186
-28.692
-26.533
-25.259
-25.508
-27.574
-31.548
-37.649
-45.154
-52.197
-57.176
-56.926
-48.23
-30.589
-2.28
35.826
81.507
137.05
201.165
274.01
356.467
442.037
529.001
613.115
685.638
742.081
768.534
751.786
686.854
570.167
414.392
241.27
71.994
-68.483
-168.092
-227.87
-255.286
-267.144
-274.148
-278.092
-276.904
-263.797
-237.213
-201.337
-161.488
-123.91
-92.005
-66.931
-49.7
-40.155
-37.45
-40.404
-47.075
-55.802
-65.335
-74.005
-80.346
-83.607
-83.509
-80.409
-75.2
-68.591
-61.289
-54.322
-48.438
-44.013
-41.228
-39.884
-39.577
-39.992
-40.722
-41.283
-41.395
-40.92
-39.803
-38.129
-35.98
-33.406
-30.501
-27.367
-24.062
-20.635
-17.111
-13.505
-9.868
-6.266
-2.767
0.573
3.726
6.678
9.419
11.947
14.261
16.373
18.304
20.066
21.668
23.114
24.411
25.572
26.616
27.565
28.44
29.263
30.05
30.819
31.583
32.356
33.148
33.97
34.831
35.742
36.716
37.767
38.91
40.157
41.522
43.016
44.651
46.437
48.382
50.495
52.782
55.248
57.9
60.738
63.766
66.984
70.39
73.983
77.757
81.707
85.827
90.106
94.535
99.102
103.794
108.597
113.494
118.47
123.505
128.582
133.679
138.777
143.853
148.884
153.848
158.72
163.477
168.092
172.54
176.797
180.837
184.636
188.168
191.411
194.341
196.937
199.178
201.046
202.522
203.591
204.238
204.451
204.218
203.531
202.382
200.768
198.686
196.134
193.115
189.633
185.693
181.305
176.478
171.225
165.56
159.501
153.066
146.276
139.153
131.722
124.01
116.044
107.854
99.472
90.927
82.254
73.485
64.654
55.793
46.937
38.117
29.367
20.718
12.202
3.848
-4.315
-12.258
-19.957
-27.386
-34.522
-41.344
-47.832
-53.969
-59.74
-65.13
-70.129
-74.726
-78.913
-82.686
-86.04
-88.975
-91.491
-93.591
-95.282
-96.569
-97.464
-97.975
-98.117
-97.903
-97.349
-96.471
-95.287
-93.815
-92.074
-90.085
-87.867
-85.441
-82.828
-80.049
-77.124
-74.076
-70.923
-67.686
-64.385
-61.039
-57.666
-54.286
-50.916
-47.573
-44.274
-41.035
-37.87
-34.794
-31.82
-28.959
-26.223
-23.622
-21.164
-18.857
-16.709
-14.723
-12.907
-11.263
-9.795
-8.506
-7.396
-6.467
-5.719
-5.152
-4.764
-4.555
-4.523
-4.666
-4.981
-5.465
-6.116
-6.929
-7.901
-9.027
-10.303
-11.722
-13.281
-14.971
-16.789
-18.726
-20.777
-22.934
-25.192
-27.543
-29.98
-32.497
-35.086
-37.742
-40.456
-43.222
-46.034
-48.884
-51.767
-54.675
-57.603
-60.543
-63.488
-66.433
-69.37
-72.292
-75.192
-78.064
-80.899
-83.692
-86.435
-89.121
-91.745
-94.298
-96.776
-99.172
-101.48
-103.694
-105.808
-107.818
-109.717
-111.5
-113.161
-114.697
-116.101
-117.371
-118.501
-119.488
-120.328
-121.016
-121.551
-121.928
-122.147
-122.203
-122.097
-121.826
-121.392
-120.795
-120.035
-119.116
-118.039
-116.808
-115.428
-113.903
-112.239
-110.443
-108.523
-106.486
-104.342
-102.102
-99.777
-97.378
-94.92
-92.419
-89.89
-87.349
-84.814
-82.302
-79.831
-77.418
-75.079
-72.83
-70.687
-68.664
-66.778
-65.045
-63.481
-62.1
-60.917
-59.942
-59.19
-58.667
-58.378
-58.324
-58.505
-58.926
-59.596
-60.524
-61.712
-63.159
-64.863
-66.813
-68.994
-71.38
-73.928
-76.596
-79.34
-82.122
-84.916
-87.692
-90.414
-93.037
-95.512
-97.787
-99.829
-101.61
-103.091
-104.261
-105.14
-105.777
-106.269
-106.707
-107.148
-107.655
-108.298
-109.155
-110.333
-111.93
-114.011
-116.67
-120.04
-124.177
-129.053
-134.464
-139.944
-144.974
-149.106
-151.854
-152.69
-151.289
-147.633
-142.14
-135.907
-130.138
-125.664
-123.231
-123.537
-126.799
-132.589
-139.605
-145.123
-146.035
-139.902
-124.174
-96.362
-54.692
2.176
72.907
152.565
236.209
319.065
399.668
480.26
557.785
625.541
670.463
675.364
635.531
553.599
440.645
313.744
178.077
37.948
-100.774
-231.512
-337.121
-404.376
-429.403
-416.017
-377.293
-327.15
-277.273
-234.554
-202.27
-179.8
-161.491
-143.861
-124.549
-104.278
-88.459
-79.784
-79.106
-85.481
-95.22
-105.867
-115.628
-122.752
-126.807
-127.661
-125.274
-120.173
-112.916
-104.072
-94.658
-85.771
-78.064
-71.834
-67.053
-63.414
-60.634
-58.458
-56.515
-54.401
-51.879
-48.863
-45.378
-41.556
-37.496
-33.262
-28.929
-24.58
-20.271
-16.046
-11.941
-7.98
-4.21
-0.696
2.513
5.379
7.877
9.997
11.733
13.086
14.067
14.694
14.978
14.929
14.557
13.872
12.893
11.645
10.153
8.448
6.56
4.521
2.36
0.108
-2.208
-4.562
-6.928
-9.28
-11.591
-13.831
-15.971
-17.982
-19.836
-21.504
-22.961
-24.18
-25.139
-25.817
-26.195
-26.255
-25.98
-25.356
-24.372
-23.018
-21.286
-19.171
-16.67
-13.784
-10.515
-6.869
-2.855
1.517
6.233
11.276
16.627
22.264
28.164
34.302
40.648
47.173
53.846
60.634
67.504
74.42
81.346
88.247
95.086
101.826
108.43
114.862
121.087
127.069
132.775
138.171
143.226
147.909
152.192
156.047
159.451
162.38
164.814
166.734
168.127
168.979
169.281
169.027
168.213
166.84
164.911
162.43
159.408
155.856
151.789
147.225
142.183
136.687
130.761
124.431
117.728
110.682
103.324
95.689
87.812
79.727
71.473
63.085
54.602
46.062
37.502
28.959
20.471
12.075
3.806
-4.301
-12.215
-19.902
-27.334
-34.482
-41.322
-47.829
-53.983
-59.766
-65.16
-70.153
-74.734
-78.895
-82.629
-85.934
-88.809
-91.255
-93.276
-94.88
-96.072
-96.865
-97.27
-97.301
-96.973
-96.303
-95.31
-94.014
-92.435
-90.595
-88.518
-86.226
-83.743
-81.093
-78.3
-75.388
-72.381
-69.301
-66.172
-63.014
-59.85
-56.699
-53.58
-50.511
-47.508
-44.587
-41.761
-39.042
-36.442
-33.968
-31.629
-29.432
-27.382
-25.482
-23.735
-22.144
-20.707
-19.424
-18.292
-17.309
-16.469
-15.768
-15.199
-14.756
-14.432
-14.22
-14.113
-14.102
-14.181
-14.343
-14.579
-14.883
-15.246
-15.661
-16.121
-16.619
-17.148
-17.704
-18.28
-18.872
-19.477
-20.092
-20.715
-21.343
-21.975
-22.609
-23.245
-23.884
-24.525
-25.169
-25.818
-26.474
-27.141
-27.82
-28.515
-29.228
-29.96
-30.713
-31.487
-32.282
-33.096
-33.925
-34.768
-35.623
-36.486
-37.357
-38.231
-39.108
-39.987
-40.867
-41.744
-42.613
-43.468
-44.3
-45.1
-45.858
-46.562
-47.203
-47.769
-48.251
-48.642
-48.938
-49.13
-49.208
-49.16
-48.967
-48.618
-48.107
-47.43
-46.588
-45.59
-44.453
-43.207
-41.885
-40.507
-39.09
-37.635
-36.13
-34.569
-32.944
-31.242
-29.467
-27.622
-25.698
-23.703
-21.637
-19.481
-17.21
-14.771
-12.099
-9.164
-5.963
-2.507
1.149
4.95
8.83
12.689
16.455
20.063
23.444
26.56
29.369
31.803
33.785
35.216
35.973
35.984
35.215
33.643
31.297
28.224
24.481
20.184
15.433
10.305
4.879
-0.79
-6.652
-12.616
-18.573
-24.407
-29.982
-35.19
-39.959
-44.214
-47.908
-51.017
-53.531
-55.476
-56.891
-57.798
-58.231
-58.223
-57.823
-57.103
-56.154
-55.078
-53.995
-53.035
-52.312
-51.943
-52.018
-52.635
-53.951
-56.028
-58.808
-62.08
-65.411
-68.341
-70.508
-71.497
-70.758
-67.974
-63.164
-56.797
-50.085
-44.296
-40.297
-38.939
-41.01
-46.743
-55.708
-66.503
-76.173
-81.412
-79.56
-67.74
-43.241
-4.223
50.697
120.165
198.799
281.006
361.246
436.427
508.954
578.494
640.96
688.397
703.414
671.438
585.86
445.259
264.855
68.878
-119.366
-272.777
-376.82
-433.161
-447.625
-436.85
-414.958
-384.332
-350.166
-312.146
-269.431
-229.341
-192.177
-158.901
-132.643
-111.285
-96.941
-91.518
-93.542
-102.226
-114.724
-127.606
-138.423
-145.459
-148.205
-146.712
-141.508
-133.603
-123.946
-113.795
-104.724
-97.577
-92.726
-90.282
-89.827
-90.9
-93.12
-95.889
-98.581
-100.859
-102.541
-103.563
-104.017
-103.914
-103.21
-101.94
-100.149
-97.882
-95.207
-92.184
-88.893
-85.442
-81.95
-78.526
-75.248
-72.163
-69.292
-66.65
-64.24
-62.08
-60.19
-58.579
-57.261
-56.237
-55.49
-54.992
-54.693
-54.542
-54.486
-54.476
-54.475
-54.453
-54.39
-54.272
-54.092
-53.839
-53.496
-53.048
-52.472
-51.749
-50.862
-49.797
-48.541
-47.083
-45.415
-43.527
-41.41
-39.056
-36.453
-33.592
-30.46
-27.048
-23.351
-19.363
-15.084
-10.516
-5.661
-0.527
4.879
10.546
16.464
22.619
28.998
35.584
42.362
49.31
56.41
63.64
70.977
78.398
85.878
93.39
100.908
108.405
115.853
123.223
130.486
137.612
144.573
151.339
157.881
164.171
170.182
175.886
181.257
186.273
190.908
195.142
198.956
202.332
205.254
207.71
209.686
211.175
212.169
212.664
212.657
212.148
211.14
209.636
207.644
205.173
202.233
198.839
195.006
190.752
186.097
181.062
175.671
169.949
163.923
157.622
151.074
144.31
137.362
130.261
123.04
115.732
108.371
100.989
93.619
86.293
79.044
71.901
64.894
58.052
51.402
44.969
38.778
32.849
27.205
21.863
16.839
12.15
7.806
3.819
0.197
-3.055
-5.932
-8.432
-10.555
-12.303
-13.681
-14.693
-15.347
-15.653
-15.622
-15.267
-14.601
-13.64
-12.402
-10.903
-9.164
-7.204
-5.042
-2.701
-0.199
2.44
5.197
8.05
10.979
13.963
16.983
20.019
23.052
26.067
29.045
31.973
34.834
37.617
40.308
42.897
45.373
47.727
49.953
52.042
53.989
55.79
57.443
58.945
60.296
61.497
62.549
63.455
64.219
64.844
65.336
65.7
65.942
66.069
66.088
66.006
65.831
65.57
65.23
64.821
64.348
63.818
63.239
62.616
61.956
61.263
60.543
59.801
59.041
58.267
57.482
56.691
55.895
55.096
54.296
53.495
52.695
51.894
51.092
50.289
49.483
48.673
47.859
47.038
46.21
45.374
44.527
43.668
42.797
41.912
41.013
40.1
39.172
38.232
37.279
36.316
35.345
34.37
33.392
32.416
31.446
30.486
29.541
28.614
27.712
26.84
26.005
25.214
24.471
23.785
23.162
22.609
22.132
21.737
21.429
21.214
21.096
21.08
21.169
21.367
21.675
22.094
22.626
23.269
24.022
24.882
25.843
26.902
28.051
29.283
30.588
31.954
33.37
34.824
36.302
37.791
39.275
40.739
42.171
43.558
44.886
46.142
47.309
48.371
49.316
50.128
50.798
51.312
51.659
51.83
51.827
51.646
51.287
50.742
49.998
49.044
47.882
46.509
44.932
43.162
41.212
39.106
36.888
34.594
32.26
29.916
27.575
25.261
23.007
20.851
18.849
17.042
15.45
14.105
13.029
12.205
11.609
11.178
10.804
10.423
9.969
9.362
8.547
7.432
5.909
3.915
1.333
-1.979
-6.07
-10.937
-16.439
-22.18
-27.724
-32.671
-36.492
-38.683
-38.934
-37.107
-33.572
-29.232
-25.103
-22.117
-21.107
-22.775
-27.513
-35.22
-44.836
-54.288
-60.895
-61.869
-54.789
-37.16
-6.729
38.032
97.791
170.208
250.035
332.246
411.306
485.259
556.558
622.365
678.306
714.77
713.414
665.998
568.958
424.126
251.202
67.798
-106.567
-247.04
-346.014
-402.762
-423.585
-427.572
-424.841
-418.144
-407.334
-385.837
-352.275
-311.091
-267.464
-227.517
-194.972
-170.829
-154.942
-146.204
-143.31
-144.574
-148.069
-152.232
-155.337
-155.923
-153.449
-147.797
-139.347
-129.126
-118.159
-107.407
-98.012
-90.744
-85.876
-83.505
-83.374
-84.973
-87.806
-91.258
-94.696
-97.751
-100.225
-102.008
-103.085
-103.405
-102.917
-101.663
-99.71
-97.117
-93.937
-90.199
-85.968
-81.381
-76.608
-71.843
-67.227
-62.834
-58.725
-54.945
-51.543
-48.576
-46.071
-44.015
-42.405
-41.24
-40.512
-40.224
-40.342
-40.804
-41.544
-42.487
-43.574
-44.769
-46.033
-47.334
-48.644
-49.934
-51.185
-52.388
-53.526
-54.574
-55.507
-56.296
-56.919
-57.361
-57.609
-57.646
-57.458
-57.031
-56.35
-55.404
-54.18
-52.663
-50.843
-48.706
-46.245
-43.456
-40.338
-36.893
-33.124
-29.039
-24.645
-19.954
-14.981
-9.74
-4.246
1.481
7.421
13.553
19.852
26.293
32.85
39.493
46.191
52.915
59.63
66.304
72.904
79.395
85.744
91.916
97.88
103.603
109.053
114.2
119.013
123.464
127.528
131.178
134.392
137.148
139.428
141.216
142.497
143.259
143.494
143.195
142.357
140.978
139.06
136.606
133.622
130.117
126.103
121.594
116.609
111.168
105.293
99.008
92.342
85.323
77.981
70.349
62.46
54.348
46.049
37.598
29.033
20.39
11.706
3.017
-5.64
-14.228
-22.714
-31.062
-39.24
-47.216
-54.959
-62.441
-69.635
-76.514
-83.055
-89.238
-95.042
-100.45
-105.45
-110.028
-114.176
-117.887
-121.158
-123.986
-126.373
-128.322
-129.838
-130.928
-131.602
-131.869
-131.743
-131.238
-130.368
-129.151
-127.603
-125.745
-123.596
-121.175
-118.504
-115.604
-112.496
-109.203
-105.746
-102.146
-98.426
-94.607
-90.71
-86.755
-82.762
-78.749
-74.734
-70.733
-66.761
-62.831
-58.956
-55.147
-51.412
-47.761
-44.2
-40.736
-37.374
-34.117
-30.97
-27.933
-25.009
-22.199
-19.501
-16.916
-14.441
-12.076
-9.818
-7.665
-5.612
-3.658
-1.798
-0.028
1.656
3.259
4.785
6.239
7.625
8.948
10.211
11.418
12.572
13.674
14.726
15.729
16.684
17.59
18.447
19.253
20.009
20.712
21.361
21.954
22.489
22.965
23.381
23.735
24.025
24.25
24.411
24.508
24.539
24.506
24.41
24.251
24.032
23.754
23.419
23.03
22.589
22.099
21.565
20.991
20.383
19.746
19.088
18.416
17.739
17.065
16.404
15.766
15.16
14.596
14.085
13.637
13.262
12.969
12.769
12.669
12.679
12.807
13.058
13.438
13.953
14.606
15.4
16.335
17.413
18.632
19.99
21.486
23.116
24.874
26.755
28.75
30.851
33.047
35.327
37.675
40.075
42.51
44.961
47.411
49.84
52.226
54.552
56.799
58.95
60.988
62.895
64.649
66.232
67.627
68.817
69.789
70.527
71.017
71.252
71.23
70.951
70.412
69.608
68.522
67.146
65.482
63.527
61.288
58.777
56.006
53.006
49.824
46.502
43.085
39.607
36.088
32.561
29.067
25.648
22.363
19.257
16.352
13.689
11.294
9.158
7.257
5.527
3.862
2.196
0.463
-1.424
-3.54
-5.974
-8.806
-12.064
-15.814
-20.193
-25.272
-31.037
-37.313
-43.707
-49.861
-55.537
-60.359
-63.793
-65.399
-65.012
-63.014
-60.322
-57.638
-55.344
-54.059
-54.692
-58.078
-63.419
-67.732
-67.65
-61.508
-51.808
-42.816
-35.137
-23.475
2.813
53.019
129.294
225.383
330.086
433.68
527.279
602.81
651.357
663.368
636.314
574.632
487.987
385.324
269.681
142.948
9.264
-118.962
-225.115
-298.528
-336.956
-349.508
-348.248
-339.414
-324.361
-300.104
-265.041
-222.36
-177.599
-136.708
-103.917
-81.247
-68.996
-66.35
-72.08
-84.181
-100.201
-117.884
-134.771
-148.779
-158.876
-164.575
-165.971
-163.908
-159.399
-153.559
-147.796
-143.14
-140.054
-138.766
-139.158
-140.861
-143.507
-146.604
-149.555
-152.007
-153.822
-154.961
-155.514
-155.56
-155.138
-154.338
-153.268
-151.986
-150.528
-148.901
-147.101
-145.16
-143.138
-141.099
-139.095
-137.15
-135.278
-133.488
-131.787
-130.182
-128.671
-127.242
-125.89
-124.617
-123.425
-122.316
-121.287
-120.324
-119.412
-118.536
-117.68
-116.833
-115.983
-115.12
-114.236
-113.324
-112.375
-111.383
-110.338
-109.227
-108.037
-106.753
-105.36
-103.846
-102.196
-100.396
-98.433
-96.293
-93.965
-91.436
-88.695
-85.729
-82.529
-79.084
-75.386
-71.427
-67.202
-62.705
-57.935
-52.888
-47.567
-41.974
-36.111
-29.985
-23.603
-16.975
-10.112
-3.026
4.266
11.75
19.407
27.216
35.157
43.205
51.336
59.525
67.742
75.959
84.146
92.273
100.307
108.218
115.973
123.539
130.884
137.975
144.782
151.272
157.416
163.185
168.549
173.485
177.965
181.969
185.476
188.466
190.925
192.837
194.192
194.982
195.2
194.843
193.91
192.404
190.329
187.695
184.511
180.791
176.551
171.811
166.593
160.92
154.818
148.316
141.445
134.237
126.726
118.947
110.937
102.733
94.373
85.896
77.341
68.745
60.148
51.587
43.099
34.718
26.48
18.418
10.562
2.943
-4.413
-11.479
-18.232
-24.65
-30.716
-36.414
-41.729
-46.65
-51.171
-55.283
-58.986
-62.278
-65.161
-67.641
-69.723
-71.418
-72.737
-73.694
-74.305
-74.587
-74.56
-74.244
-73.661
-72.835
-71.788
-70.546
-69.133
-67.573
-65.891
-64.113
-62.262
-60.361
-58.435
-56.505
-54.594
-52.72
-50.904
-49.163
-47.513
-45.969
-44.544
-43.25
-42.095
-41.089
-40.238
-39.547
-39.019
-38.655
-38.456
-38.42
-38.542
-38.819
-39.244
-39.809
-40.505
-41.324
-42.254
-43.285
-44.406
-45.606
-46.874
-48.197
-49.563
-50.962
-52.383
-53.813
-55.243
-56.662
-58.061
-59.431
-60.764
-62.055
-63.298
-64.488
-65.621
-66.696
-67.711
-68.665
-69.558
-70.391
-71.167
-71.889
-72.561
-73.19
-73.781
-74.341
-74.877
-75.397
-75.91
-76.42
-76.936
-77.464
-78.008
-78.575
-79.169
-79.792
-80.448
-81.14
-81.872
-82.646
-83.465
-84.327
-85.232
-86.179
-87.166
-88.185
-89.229
-90.284
-91.34
-92.386
-93.41
-94.401
-95.345
-96.228
-97.035
-97.758
-98.38
-98.885
-99.252
-99.449
-99.458
-99.269
-98.876
-98.282
-97.49
-96.494
-95.301
-93.924
-92.366
-90.624
-88.68
-86.496
-84.053
-81.344
-78.376
-75.175
-71.751
-68.098
-64.21
-60.076
-55.685
-51.038
-46.112
-40.864
-35.286
-29.397
-23.253
-16.961
-10.599
-4.219
2.132
8.431
14.636
20.683
26.519
32.1
37.371
42.288
46.774
50.713
54.039
56.719
58.769
60.275
61.291
61.845
61.978
61.719
61.116
60.252
59.185
57.953
56.611
55.202
53.807
52.556
51.539
50.821
50.436
50.347
50.542
51.026
51.756
52.681
53.718
54.738
55.659
56.42
56.927
57.097
56.806
55.888
54.259
51.819
48.431
44.091
38.864
32.925
26.734
20.784
15.426
11.1
8.292
7.251
8.072
10.424
13.362
15.886
17.394
17.566
15.85
11.808
5.664
-1.684
-7.266
-6.466
2.667
20.628
46.979
78.181
116.39
166.682
230.573
312.106
407.313
506.2
605.347
696.873
774.017
833.163
859.15
839.395
768.977
645.017
480.897
299.133
119.8
-32.936
-142.906
-208.959
-235.2
-235.511
-226.913
-215.854
-204.115
-189.376
-166.05
-134.695
-99.736
-65.46
-36.864
-16.88
-5.471
-1.787
-4.592
-12.117
-22.519
-34.34
-45.792
-54.719
-59.953
-61.046
-57.894
-51.151
-41.758
-30.471
-18.394
-6.901
3.256
11.712
18.3
23.258
26.874
29.355
31.119
32.675
34.247
35.918
37.713
39.534
41.392
43.37
45.454
47.601
49.795
52.016
54.282
56.633
59.045
61.473
63.878
66.229
68.554
70.891
73.241
75.586
77.875
80.037
82.038
83.857
85.463
86.84
87.976
88.86
89.517
89.976
90.254
90.363
90.29
90.023
89.571
88.954
88.203
87.363
86.467
85.546
84.639
83.778
82.989
82.297
81.713
81.241
80.896
80.694
80.654
80.799
81.144
81.701
82.481
83.49
84.735
86.219
87.943
89.905
92.106
94.545
97.224
100.143
103.3
106.689
110.305
114.138
118.178
122.411
126.824
131.4
136.123
140.974
145.935
150.988
156.113
161.289
166.494
171.706
176.901
182.053
187.139
192.131
197.004
201.731
206.286
210.644
214.777
218.661
222.271
225.585
228.579
231.232
233.524
235.437
236.955
238.062
238.744
238.992
238.795
238.146
237.042
235.477
233.452
230.967
228.024
224.628
220.785
216.503
211.791
206.664
201.133
195.216
188.932
182.3
175.343
168.086
160.553
152.773
144.773
136.584
128.235
119.758
111.183
102.543
93.868
85.189
76.537
67.941
59.429
51.029
42.767
34.669
26.757
19.055
11.582
4.358
-2.599
-9.273
-15.65
-21.715
-27.458
-32.869
-37.94
-42.666
-47.044
-51.071
-54.749
-58.081
-61.071
-63.727
-66.057
-68.073
-69.786
-71.21
-72.362
-73.256
-73.91
-74.341
-74.569
-74.61
-74.485
-74.211
-73.806
-73.29
-72.678
-71.99
-71.24
-70.445
-69.622
-68.785
-67.949
-67.128
-66.336
-65.585
-64.888
-64.254
-63.695
-63.218
-62.831
-62.539
-62.349
-62.263
-62.284
-62.412
-62.648
-62.989
-63.434
-63.978
-64.618
-65.348
-66.163
-67.057
-68.025
-69.06
-70.157
-71.31
-72.513
-73.76
-75.048
-76.37
-77.722
-79.099
-80.496
-81.91
-83.334
-84.766
-86.202
-87.639
-89.073
-90.501
-91.921
-93.332
-94.731
-96.119
-97.495
-98.858
-100.21
-101.552
-102.886
-104.215
-105.54
-106.863
-108.188
-109.516
-110.849
-112.188
-113.535
-114.888
-116.249
-117.615
-118.986
-120.361
-121.736
-123.109
-124.476
-125.834
-127.18
-128.507
-129.811
-131.087
-132.328
-133.529
-134.684
-135.786
-136.829
-137.806
-138.709
-139.533
-140.269
-140.909
-141.447
-141.874
-142.183
-142.368
-142.422
-142.341
-142.119
-141.755
-141.245
-140.589
-139.788
-138.842
-137.754
-136.526
-135.164
-133.674
-132.062
-130.335
-128.503
-126.577
-124.57
-122.496
-120.369
-118.204
-116.017
-113.823
-111.641
-109.483
-107.364
-105.294
-103.288
-101.361
-99.527
-97.801
-96.194
-94.717
-93.381
-92.197
-91.171
-90.305
-89.596
-89.041
-88.638
-88.393
-88.314
-88.409
-88.678
-89.123
-89.736
-90.51
-91.432
-92.476
-93.601
-94.77
-95.943
-97.092
-98.19
-99.206
-100.104
-100.841
-101.363
-101.628
-101.595
-101.227
-100.517
-99.471
-98.115
-96.512
-94.727
-92.832
-90.928
-89.116
-87.51
-86.229
-85.332
-84.911
-85.128
-86.079
-87.804
-90.19
-92.834
-95.321
-97.374
-98.632
-98.656
-97.15
-93.926
-89.324
-84.47
-80.466
-78.062
-78.05
-81.198
-88.001
-98.641
-111.02
-120.62
-123.784
-118.238
-105.299
-88.975
-68.849
-40.473
3.645
71.924
164.448
273.59
389.056
498.058
589.759
656.674
689.423
679.152
623.313
522.829
384.03
220.779
46.465
-123.483
-269.549
-378.224
-443.484
-467.373
-463.539
-447.326
-426.775
-405.431
-381.621
-351.485
-316.383
-279.686
-244.747
-215.915
-195.439
-183.358
-178.938
-180.318
-185.434
-193.222
-202.943
-213.512
-223.384
-230.952
-235.364
-236.679
-235.458
-232.164
-227.091
-220.641
-213.631
-207.144
-201.84
-197.886
-195.13
-193.234
-191.95
-191.119
-190.447
-189.532
-188.141
-186.177
-183.661
-180.753
-177.566
-174.148
-170.573
-166.912
-163.213
-159.535
-155.924
-152.407
-149.04
-145.867
-142.913
-140.213
-137.78
-135.621
-133.738
-132.117
-130.73
-129.562
-128.602
-127.842
-127.274
-126.88
-126.635
-126.514
-126.491
-126.54
-126.636
-126.75
-126.852
-126.921
-126.933
-126.872
-126.718
-126.452
-126.048
-125.485
-124.74
-123.791
-122.618
-121.2
-119.517
-117.554
-115.295
-112.727
-109.841
-106.626
-103.073
-99.176
-94.93
-90.334
-85.387
-80.089
-74.446
-68.464
-62.152
-55.522
-48.585
-41.358
-33.858
-26.104
-18.116
-9.919
-1.534
7.011
15.692
24.48
33.346
42.26
51.193
60.114
68.991
77.793
86.49
95.049
103.442
111.637
119.606
127.321
134.754
141.879
148.671
155.106
161.162
166.818
172.056
176.859
181.213
185.105
188.524
191.463
193.914
195.876
197.345
198.322
198.811
198.817
198.346
197.407
196.014
194.178
191.915
189.241
186.176
182.739
178.95
174.833
170.411
165.708
160.749
155.561
150.169
144.6
138.882
133.042
127.107
121.104
115.059
108.998
102.947
96.931
90.972
85.095
79.322
73.672
68.166
62.821
57.655
52.683
47.918
43.372
39.057
34.98
31.149
27.57
24.247
21.185
18.384
15.845
13.567
11.549
9.786
8.275
7.01
5.985
5.192
4.625
4.274
4.13
4.185
4.427
4.847
5.433
6.174
7.059
8.076
9.212
10.458
11.8
13.227
14.729
16.295
17.915
19.579
21.278
23.003
24.746
26.499
28.254
30.006
31.747
33.472
35.176
36.854
38.502
40.116
41.692
43.226
44.715
46.156
47.546
48.882
50.161
51.38
52.539
53.633
54.663
55.626
56.522
57.349
58.105
58.792
59.406
59.948
60.417
60.811
61.131
61.374
61.54
61.629
61.638
61.568
61.416
61.182
60.865
60.463
59.976
59.404
58.747
58.006
57.181
56.274
55.289
54.227
53.092
51.889
50.621
49.294
47.914
46.487
45.018
43.514
41.983
40.431
38.866
37.297
35.731
34.178
32.645
31.143
29.681
28.269
26.917
25.634
24.431
23.317
22.303
21.397
20.61
19.95
19.424
19.04
18.805
18.724
18.801
19.039
19.44
20.006
20.735
21.627
22.677
23.883
25.24
26.741
28.379
30.147
32.033
34.029
36.123
38.302
40.552
42.858
45.202
47.567
49.933
52.284
54.599
56.859
59.044
61.139
63.127
64.992
66.72
68.293
69.697
70.918
71.943
72.76
73.36
73.733
73.875
73.789
73.476
72.94
72.181
71.193
69.973
68.527
66.858
64.973
62.887
60.619
58.204
55.691
53.124
50.551
48.008
45.52
43.126
40.862
38.77
36.901
35.292
33.966
32.959
32.302
31.99
31.994
32.244
32.626
33.056
33.477
33.82
34.015
33.969
33.578
32.753
31.44
29.573
27.024
23.736
19.775
15.386
11.072
7.389
4.794
3.769
4.895
8.433
14.262
21.892
30.081
37.53
43.353
46.501
45.984
41.692
34.365
25.526
18.033
15.091
19.557
34.813
64.392
109.233
166.97
234.474
307.448
384.705
471.115
567.519
667.432
757.405
814.548
819.339
767.263
663.598
523.286
368.074
212.105
67.921
-50.219
-138.126
-193.816
-220.755
-232.983
-238.456
-240.39
-238.925
-228.014
-206.383
-177.497
-145.148
-114.193
-87.139
-64.496
-47.385
-36.567
-32.079
-33.41
-39.481
-49.364
-62.293
-77.178
-92.25
-105.554
-115.907
-122.944
-126.816
-127.831
-126.278
-122.618
-117.804
-113.023
-109.002
-106.008
-103.97
-102.601
-101.712
-101.153
-100.614
-99.707
-98.206
-96.032
-93.243
-90.009
-86.44
-82.59
-78.529
-74.329
-70.055
-65.767
-61.51
-57.314
-53.208
-49.224
-45.39
-41.735
-38.275
-35.02
-31.969
-29.113
-26.448
-23.978
-21.708
-19.646
-17.794
-16.144
-14.689
-13.417
-12.316
-11.375
-10.579
-9.908
-9.348
-8.884
-8.506
-8.203
-7.96
-7.762
-7.589
-7.424
-7.249
-7.046
-6.796
-6.481
-6.083
-5.587
-4.978
-4.243
-3.368
-2.34
-1.147
0.222
1.776
3.523
5.472
7.627
9.992
12.57
15.359
18.36
21.567
24.975
28.578
32.366
36.329
40.454
44.729
49.137
53.664
58.291
63
67.771
72.583
77.415
82.245
87.048
91.803
96.484
101.069
105.533
109.854
114.007
117.97
121.72
125.235
128.494
131.478
134.166
136.542
138.589
140.293
141.641
142.622
143.226
143.447
143.28
142.721
141.769
140.426
138.693
136.576
134.083
131.221
128.002
124.438
120.544
116.337
111.835
107.057
102.025
96.76
91.286
85.628
79.81
73.859
67.8
61.661
55.468
49.248
43.029
36.836
30.696
24.633
18.673
12.837
7.148
1.626
-3.709
-8.839
-13.749
-18.423
-22.848
-27.014
-30.911
-34.531
-37.868
-40.919
-43.681
-46.155
-48.342
-50.246
-51.872
-53.227
-54.318
-55.156
-55.75
-56.114
-56.259
-56.202
-55.956
-55.537
-54.963
-54.25
-53.415
-52.476
-51.449
-50.353
-49.205
-48.019
-46.814
-45.604
-44.405
-43.231
-42.097
-41.014
-39.994
-39.05
-38.191
-37.426
-36.762
-36.206
-35.764
-35.439
-35.236
-35.155
-35.2
-35.369
-35.662
-36.078
-36.615
-37.268
-38.033
-38.906
-39.881
-40.952
-42.112
-43.355
-44.673
-46.06
-47.509
-49.013
-50.564
-52.156
-53.78
-55.43
-57.1
-58.782
-60.47
-62.157
-63.839
-65.51
-67.164
-68.799
-70.409
-71.991
-73.541
-75.056
-76.533
-77.97
-79.364
-80.713
-82.015
-83.27
-84.475
-85.631
-86.736
-87.79
-88.791
-89.738
-90.63
-91.464
-92.24
-92.955
-93.607
-94.194
-94.714
-95.165
-95.543
-95.847
-96.074
-96.221
-96.285
-96.263
-96.151
-95.946
-95.647
-95.249
-94.752
-94.154
-93.453
-92.648
-91.74
-90.729
-89.613
-88.395
-87.076
-85.657
-84.141
-82.534
-80.839
-79.063
-77.212
-75.295
-73.321
-71.301
-69.245
-67.164
-65.071
-62.979
-60.903
-58.857
-56.855
-54.915
-53.053
-51.288
-49.64
-48.125
-46.764
-45.574
-44.572
-43.776
-43.2
-42.856
-42.755
-42.905
-43.316
-43.998
-44.958
-46.202
-47.733
-49.552
-51.658
-54.049
-56.715
-59.643
-62.817
-66.22
-69.842
-73.676
-77.717
-81.951
-86.363
-90.934
-95.635
-100.437
-105.296
-110.158
-114.969
-119.675
-124.23
-128.598
-132.739
-136.612
-140.165
-143.335
-146.066
-148.312
-150.029
-151.186
-151.793
-151.873
-151.486
-150.726
-149.653
-148.342
-146.892
-145.395
-143.953
-142.658
-141.558
-140.745
-140.409
-140.652
-141.452
-142.605
-143.641
-144.138
-143.836
-142.339
-139.107
-133.822
-126.511
-117.782
-108.9
-100.885
-94.37
-90.225
-89.39
-92.35
-97.745
-102.012
-101.212
-92.985
-79.201
-63.94
-47.542
-25.6
11.41
73.782
163.563
274.673
394.867
509.756
609.435
685.986
733.577
747.67
721.643
655.154
551.403
414.51
258.213
95.436
-58.913
-183.677
-269.936
-315.559
-326.034
-318.892
-304.151
-285.685
-264.457
-235.21
-197.657
-156.247
-115.084
-79.451
-52.655
-35.154
-26.59
-25.599
-30.289
-38.862
-49.803
-61.746
-72.985
-81.945
-87.803
-90.347
-89.96
-87.375
-83.147
-77.784
-72.153
-67.205
-63.499
-61.248
-60.336
-60.409
-61.19
-62.455
-63.862
-65.023
-65.696
-65.778
-65.281
-64.318
-62.974
-61.291
-59.335
-57.178
-54.877
-52.475
-50.002
-47.477
-44.934
-42.425
-39.987
-37.647
-35.423
-33.318
-31.335
-29.471
-27.715
-26.052
-24.473
-22.97
-21.539
-20.173
-18.859
-17.582
-16.324
-15.068
-13.796
-12.491
-11.136
-9.718
-8.225
-6.649
-4.98
-3.212
-1.334
0.664
2.792
5.061
7.479
10.054
12.795
15.709
18.8
22.073
25.53
29.174
33.008
37.031
41.245
45.647
50.236
55.007
59.956
65.076
70.358
75.793
81.368
87.071
92.886
98.798
104.79
110.841
116.934
123.047
129.159
135.249
141.293
147.269
153.154
158.925
164.557
170.028
175.314
180.392
185.24
189.834
194.153
198.176
201.883
205.255
208.272
210.919
213.179
215.038
216.484
217.505
218.093
218.242
217.946
217.204
216.016
214.384
212.313
209.809
206.883
203.545
199.809
195.69
191.205
186.373
181.215
175.753
170.01
164.012
157.785
151.356
144.753
138.006
131.145
124.2
117.2
110.178
103.164
96.188
89.28
82.469
75.785
69.254
62.903
56.757
50.839
45.171
39.772
34.66
29.851
25.357
21.191
17.361
13.875
10.737
7.952
5.519
3.438
1.706
0.317
-0.734
-1.457
-1.861
-1.958
-1.762
-1.286
-0.547
0.44
1.656
3.084
4.704
6.497
8.443
10.521
12.712
14.994
17.35
19.759
22.202
24.662
27.121
29.564
31.975
34.34
36.647
38.882
41.035
43.098
45.06
46.915
48.656
50.279
51.779
53.155
54.403
55.524
56.517
57.384
58.126
58.746
59.247
59.634
59.911
60.084
60.158
60.14
60.036
59.853
59.596
59.274
58.893
58.458
57.976
57.452
56.892
56.301
55.683
55.042
54.382
53.706
53.018
52.318
51.61
50.895
50.173
49.445
48.713
47.975
47.231
46.481
45.724
44.959
44.185
43.4
42.602
41.789
40.96
40.112
39.243
38.352
37.437
36.496
35.529
34.534
33.512
32.464
31.39
30.291
29.169
28.026
26.864
25.688
24.5
23.304
22.105
20.908
19.717
18.539
17.378
16.24
15.13
14.056
13.021
12.033
11.097
10.219
9.404
8.659
7.989
7.4
6.897
6.484
6.164
5.943
5.821
5.801
5.883
6.067
6.352
6.737
7.218
7.792
8.453
9.195
10.012
10.895
11.835
12.82
13.84
14.88
15.928
16.97
17.993
18.98
19.92
20.801
21.609
22.335
22.966
23.489
23.892
24.163
24.29
24.262
24.072
23.709
23.169
22.453
21.562
20.497
19.257
17.834
16.223
14.425
12.44
10.273
7.935
5.443
2.826
0.127
-2.612
-5.35
-8.05
-10.687
-13.229
-15.642
-17.889
-19.92
-21.69
-23.17
-24.326
-25.129
-25.579
-25.707
-25.571
-25.283
-24.938
-24.604
-24.366
-24.306
-24.518
-25.12
-26.211
-27.837
-30.064
-33.022
-36.764
-41.247
-46.256
-51.278
-55.792
-59.44
-61.826
-62.413
-60.9
-57.274
-51.911
-46.05
-40.879
-36.872
-34.713
-35.4
-39.327
-46.324
-54.235
-58.147
-53.904
-39.835
-18.134
7.17
34.518
65.886
110.498
177.782
271.369
391.241
525.239
653.937
759.307
821.096
826.002
773.377
667.954
521.707
352.933
176.579
7.377
-137.964
-249.106
-321.014
-354.047
-358.937
-348.525
-330.231
-308.581
-282.862
-249.502
-210.453
-170.175
-133.324
-105.646
-89.264
-83.113
-85.917
-95.572
-109.498
-125.648
-141.85
-155.548
-165.324
-170.826
-172.017
-169.479
-164.19
-157.015
-149.075
-141.819
-136.066
-132.099
-130.019
-129.535
-130.293
-132.031
-134.289
-136.473
-138.249
-139.464
-140.071
-140.189
-139.882
-139.154
-138.077
-136.739
-135.202
-133.518
-131.712
-129.777
-127.746
-125.678
-123.639
-121.705
-119.922
-118.313
-116.898
-115.685
-114.68
-113.885
-113.291
-112.88
-112.641
-112.561
-112.63
-112.839
-113.168
-113.593
-114.088
-114.627
-115.184
-115.74
-116.275
-116.77
-117.21
-117.578
-117.859
-118.042
-118.111
-118.05
-117.844
-117.476
-116.932
-116.198
-115.26
-114.107
-112.728
-111.114
-109.256
-107.148
-104.785
-102.162
-99.277
-96.129
-92.72
-89.051
-85.127
-80.955
-76.542
-71.898
-67.035
-61.967
-56.709
-51.277
-45.689
-39.965
-34.125
-28.192
-22.187
-16.133
-10.056
-3.979
2.072
8.071
13.992
19.809
25.495
31.023
36.367
41.501
46.401
51.04
55.396
59.446
63.169
66.545
69.554
72.181
74.41
76.227
77.622
78.585
79.109
79.191
78.826
78.017
76.765
75.076
72.955
70.413
67.46
64.109
60.376
56.277
51.831
47.058
41.981
36.623
31.01
25.167
19.123
12.907
6.546
0.073
-6.484
-13.094
-19.726
-26.349
-32.934
-39.452
-45.873
-52.17
-58.317
-64.287
-70.059
-75.608
-80.917
-85.966
-90.74
-95.224
-99.406
-103.275
-106.824
-110.045
-112.934
-115.488
-117.706
-119.59
-121.141
-122.365
-123.269
-123.859
-124.147
-124.142
-123.857
-123.306
-122.503
-121.464
-120.205
-118.743
-117.096
-115.282
-113.32
-111.228
-109.025
-106.728
-104.356
-101.926
-99.454
-96.956
-94.447
-91.942
-89.452
-86.991
-84.571
-82.202
-79.894
-77.656
-75.496
-73.42
-71.435
-69.547
-67.758
-66.072
-64.492
-63.019
-61.654
-60.397
-59.249
-58.206
-57.268
-56.433
-55.696
-55.055
-54.506
-54.043
-53.663
-53.361
-53.133
-52.974
-52.879
-52.844
-52.866
-52.94
-53.063
-53.23
-53.439
-53.685
-53.967
-54.28
-54.624
-54.994
-55.389
-55.808
-56.247
-56.706
-57.183
-57.676
-58.184
-58.705
-59.239
-59.782
-60.335
-60.896
-61.463
-62.035
-62.611
-63.188
-63.766
-64.342
-64.913
-65.476
-66.029
-66.568
-67.089
-67.589
-68.062
-68.506
-68.914
-69.282
-69.605
-69.877
-70.091
-70.243
-70.324
-70.331
-70.255
-70.091
-69.834
-69.476
-69.012
-68.437
-67.745
-66.931
-65.991
-64.92
-63.714
-62.371
-60.89
-59.267
-57.503
-55.599
-53.556
-51.378
-49.068
-46.63
-44.071
-41.397
-38.616
-35.738
-32.773
-29.731
-26.625
-23.472
-20.287
-17.086
-13.888
-10.71
-7.571
-4.489
-1.483
1.431
4.238
6.922
9.464
11.845
14.048
16.06
17.864
19.448
20.801
21.909
22.768
23.378
23.739
23.851
23.706
23.291
22.6
21.635
20.4
18.905
17.161
15.183
12.996
10.646
8.173
5.619
3.018
0.388
-2.237
-4.81
-7.281
-9.583
-11.668
-13.508
-15.071
-16.336
-17.305
-17.987
-18.426
-18.703
-18.885
-19.047
-19.273
-19.636
-20.239
-21.177
-22.551
-24.526
-27.176
-30.48
-34.34
-38.471
-42.518
-46.201
-49.163
-50.909
-51.142
-49.707
-46.744
-42.991
-39.262
-36.252
-34.587
-34.78
-37.368
-42.597
-49.836
-57.558
-62.608
-61.794
-53.801
-36.402
-9.676
26.027
74.369
134.225
205.513
289.108
379.305
475.845
576.039
669.493
747.529
794.07
793.397
741.654
639.429
497.694
336.462
173.047
25.841
-91.384
-176.281
-231.781
-267.278
-292.736
-311.144
-321.119
-317.873
-298.766
-266.479
-226.577
-185.8
-148.654
-117.047
-91.969
-73.883
-62.839
-58.279
-58.598
-61.703
-65.82
-69.433
-71.436
-70.935
-67.381
-60.845
-52.021
-42.018
-31.994
-23.037
-15.826
-10.767
-8.095
-7.716
-9.328
-12.442
-16.391
-20.495
-24.337
-27.699
-30.462
-32.61
-34.08
-34.789
-34.755
-34.048
-32.722
-30.82
-28.36
-25.36
-21.913
-18.176
-14.331
-10.534
-6.88
-3.417
-0.186
2.776
5.421
7.712
9.646
11.231
12.474
13.375
13.933
14.161
14.101
13.817
13.384
12.862
12.292
11.704
11.126
10.586
10.108
9.711
9.4
9.188
9.09
9.127
9.324
9.701
10.268
11.035
12.01
13.202
14.62
16.275
18.173
20.321
22.728
25.401
28.35
31.578
35.088
38.876
42.938
47.268
51.857
56.695
61.767
67.06
72.556
78.24
84.093
90.094
96.222
102.456
108.771
115.143
121.547
127.956
134.344
140.684
146.948
153.109
159.139
165.011
170.698
176.173
181.412
186.39
191.081
195.465
199.518
203.221
206.555
209.503
212.051
214.186
215.897
217.175
218.013
218.409
218.357
217.86
216.917
215.533
213.714
211.467
208.801
205.728
202.262
198.417
194.209
189.659
184.784
179.605
174.146
168.428
162.477
156.318
149.975
143.476
136.847
130.114
123.306
116.448
109.567
102.688
95.838
89.041
82.32
75.698
69.197
62.838
56.639
50.619
44.793
39.177
33.784
28.624
23.709
19.046
14.643
10.503
6.632
3.03
-0.302
-3.365
-6.161
-8.694
-10.97
-12.995
-14.776
-16.324
-17.646
-18.754
-19.659
-20.373
-20.908
-21.277
-21.493
-21.57
-21.521
-21.36
-21.101
-20.758
-20.344
-19.872
-19.356
-18.806
-18.235
-17.653
-17.071
-16.497
-15.939
-15.405
-14.902
-14.434
-14.008
-13.626
-13.292
-13.006
-12.771
-12.586
-12.45
-12.362
-12.32
-12.321
-12.363
-12.442
-12.554
-12.697
-12.864
-13.053
-13.259
-13.477
-13.701
-13.926
-14.146
-14.355
-14.549
-14.721
-14.868
-14.985
-15.069
-15.115
-15.123
-15.09
-15.014
-14.895
-14.732
-14.526
-14.278
-13.99
-13.666
-13.309
-12.922
-12.511
-12.08
-11.635
-11.179
-10.717
-10.253
-9.791
-9.333
-8.882
-8.442
-8.013
-7.599
-7.205
-6.836
-6.495
-6.185
-5.911
-5.677
-5.485
-5.335
-5.226
-5.153
-5.111
-5.099
-5.111
-5.146
-5.198
-5.263
-5.336
-5.416
-5.497
-5.573
-5.631
-5.649
-5.615
-5.528
-5.391
-5.216
-5.011
-4.78
-4.534
-4.295
-4.071
-3.864
-3.658
-3.417
-3.122
-2.766
-2.353
-1.909
-1.437
-0.923
-0.353
0.292
1.031
1.875
2.854
4.027
5.41
6.994
8.729
10.52
12.303
14.043
15.709
17.293
18.768
20.084
21.205
22.104
22.739
23.075
23.047
22.553
21.551
20.045
18.077
15.745
13.108
10.195
7.045
3.688
0.158
-3.49
-7.222
-11.013
-14.801
-18.517
-22.067
-25.326
-28.224
-30.722
-32.797
-34.458
-35.686
-36.448
-36.738
-36.565
-35.932
-34.862
-33.363
-31.438
-29.174
-26.684
-24.098
-21.588
-19.276
-17.247
-15.653
-14.697
-14.492
-15.077
-16.306
-17.798
-19.247
-20.45
-21.108
-20.857
-19.452
-16.799
-13.315
-10.019
-7.865
-7.539
-9.608
-14.463
-22.091
-32.169
-43.682
-54.333
-61.472
-63.005
-55.623
-36.246
-4.476
41.223
98.053
159.367
224.738
292.441
364.576
449.49
544.224
640.531
724.969
774.673
776.277
727.295
632.092
505.241
361.036
209.678
62.367
-69.187
-174.982
-248.296
-289.631
-308.347
-313.962
-311.694
-302.708
-283.751
-253.875
-216.466
-176.716
-140.298
-110.848
-90.019
-78.046
-73.968
-76.447
-83.76
-93.821
-105.07
-116.062
-124.961
-130.785
-133.289
-132.517
-129.166
-124.127
-117.961
-111.429
-105.61
-101.066
-98.01
-96.502
-96.195
-96.723
-97.864
-99.228
-100.356
-101.01
-101.061
-100.477
-99.375
-97.822
-95.851
-93.548
-90.996
-88.253
-85.375
-82.389
-79.311
-76.187
-73.077
-70.046
-67.144
-64.398
-61.822
-59.423
-57.203
-55.161
-53.285
-51.555
-49.959
-48.487
-47.129
-45.878
-44.718
-43.629
-42.591
-41.581
-40.579
-39.566
-38.526
-37.443
-36.307
-35.105
-33.826
-32.464
-31.006
-29.44
-27.756
-25.941
-23.984
-21.876
-19.608
-17.173
-14.564
-11.778
-8.81
-5.659
-2.324
1.198
4.905
8.795
12.867
17.116
21.536
26.122
30.865
35.755
40.78
45.929
51.188
56.541
61.973
67.465
73.001
78.561
84.124
89.672
95.182
100.632
106.001
111.266
116.405
121.395
126.213
130.838
135.248
139.422
143.338
146.977
150.319
153.345
156.037
158.378
160.352
161.944
163.142
163.932
164.306
164.256
163.773
162.856
161.499
159.705
157.472
154.806
151.711
148.195
144.268
139.941
135.228
130.143
124.705
118.93
112.84
106.456
99.801
92.899
85.775
78.455
70.968
63.341
55.604
47.786
39.916
32.026
24.145
16.303
8.53
0.855
-6.694
-14.09
-21.307
-28.319
-35.103
-41.637
-47.9
-53.873
-59.539
-64.884
-69.893
-74.555
-78.862
-82.804
-86.378
-89.578
-92.404
-94.854
-96.931
-98.638
-99.98
-100.963
-101.597
-101.892
-101.859
-101.512
-100.865
-99.934
-98.735
-97.286
-95.606
-93.712
-91.624
-89.361
-86.944
-84.391
-81.721
-78.955
-76.111
-73.206
-70.26
-67.288
-64.307
-61.331
-58.376
-55.454
-52.579
-49.761
-47.012
-44.342
-41.759
-39.272
-36.887
-34.609
-32.444
-30.396
-28.465
-26.655
-24.965
-23.394
-21.942
-20.606
-19.384
-18.273
-17.268
-16.365
-15.559
-14.846
-14.22
-13.676
-13.208
-12.81
-12.478
-12.206
-11.989
-11.824
-11.704
-11.627
-11.588
-11.585
-11.613
-11.67
-11.753
-11.859
-11.986
-12.133
-12.298
-12.479
-12.677
-12.892
-13.122
-13.369
-13.633
-13.915
-14.214
-14.532
-14.869
-15.226
-15.602
-15.999
-16.417
-16.855
-17.314
-17.792
-18.289
-18.804
-19.334
-19.876
-20.428
-20.986
-21.546
-22.103
-22.652
-23.189
-23.708
-24.205
-24.674
-25.108
-25.501
-25.849
-26.143
-26.379
-26.548
-26.647
-26.667
-26.605
-26.456
-26.215
-25.879
-25.444
-24.909
-24.271
-23.53
-22.685
-21.737
-20.687
-19.539
-18.296
-16.964
-15.55
-14.061
-12.507
-10.9
-9.252
-7.577
-5.888
-4.202
-2.532
-0.896
0.69
2.214
3.66
5.014
6.262
7.388
8.377
9.213
9.883
10.374
10.676
10.776
10.668
10.348
9.817
9.071
8.109
6.918
5.49
3.822
1.915
-0.228
-2.593
-5.162
-7.908
-10.783
-13.746
-16.751
-19.759
-22.743
-25.671
-28.508
-31.212
-33.729
-36.009
-38.016
-39.718
-41.084
-42.115
-42.839
-43.312
-43.639
-43.915
-44.205
-44.587
-45.139
-45.943
-47.104
-48.712
-50.831
-53.559
-57.036
-61.306
-66.303
-71.786
-77.254
-82.206
-86.23
-88.858
-89.559
-88.043
-84.326
-78.867
-72.808
-67.252
-62.86
-60.285
-60.108
-62.411
-66.767
-71.884
-75.037
-73.385
-64.803
-46.934
-17.591
24.643
81.026
150.386
227.666
307.869
386.404
460.532
532.384
601.727
662.942
707.383
721.073
691.54
616.485
498.082
344.495
173.494
0.806
-154.142
-269.992
-340.667
-365.711
-354.893
-327.198
-291.278
-255.182
-221.727
-187.661
-156.902
-129.129
-104.537
-86.343
-72.756
-65.07
-64.493
-69.363
-78.965
-90.944
-102.505
-111.798
-117.612
-119.819
-118.725
-114.872
-109.08
-101.959
-94.35
-87.433
-81.817
-77.773
-75.408
-74.398
-74.412
-75.197
-76.315
-77.282
-77.844
-77.855
-77.282
-76.234
-74.769
-72.924
-70.795
-68.468
-66.006
-63.46
-60.85
-58.192
-55.534
-52.941
-50.489
-48.233
-46.206
-44.428
-42.911
-41.661
-40.68
-39.955
-39.463
-39.19
-39.124
-39.253
-39.567
-40.048
-40.669
-41.406
-42.231
-43.115
-44.035
-44.967
-45.888
-46.777
-47.616
-48.387
-49.072
-49.653
-50.108
-50.419
-50.563
-50.523
-50.281
-49.819
-49.122
-48.176
-46.969
-45.492
-43.735
-41.691
-39.352
-36.715
-33.777
-30.537
-26.997
-23.158
-19.027
-14.61
-9.917
-4.957
0.257
5.71
11.388
17.271
23.342
29.578
35.958
42.46
49.057
55.725
62.438
69.168
75.889
82.573
89.191
95.717
102.121
108.376
114.455
120.33
125.975
131.364
136.472
141.275
145.751
149.878
153.636
157.008
159.976
162.526
164.644
166.32
167.543
168.307
168.608
168.441
167.807
166.707
165.146
163.13
160.665
157.764
154.437
150.698
146.563
142.049
137.175
131.962
126.431
120.607
114.515
108.18
101.63
94.892
87.996
80.971
73.846
66.649
59.412
52.162
44.929
37.74
30.624
23.608
16.715
9.973
3.402
-2.975
-9.138
-15.069
-20.751
-26.17
-31.311
-36.163
-40.715
-44.959
-48.889
-52.5
-55.788
-58.752
-61.393
-63.713
-65.718
-67.412
-68.803
-69.901
-70.716
-71.26
-71.546
-71.588
-71.401
-71.002
-70.406
-69.632
-68.697
-67.618
-66.415
-65.105
-63.705
-62.234
-60.708
-59.143
-57.558
-55.966
-54.383
-52.825
-51.305
-49.837
-48.434
-47.106
-45.866
-44.723
-43.686
-42.763
-41.96
-41.283
-40.736
-40.323
-40.046
-39.906
-39.903
-40.036
-40.304
-40.703
-41.23
-41.881
-42.65
-43.533
-44.523
-45.614
-46.799
-48.072
-49.425
-50.852
-52.345
-53.896
-55.498
-57.144
-58.825
-60.534
-62.262
-64.003
-65.75
-67.494
-69.23
-70.95
-72.649
-74.32
-75.959
-77.56
-79.118
-80.631
-82.094
-83.505
-84.861
-86.159
-87.397
-88.574
-89.687
-90.736
-91.719
-92.633
-93.479
-94.254
-94.957
-95.588
-96.144
-96.625
-97.029
-97.355
-97.602
-97.768
-97.852
-97.852
-97.766
-97.594
-97.335
-96.986
-96.547
-96.016
-95.391
-94.672
-93.856
-92.943
-91.931
-90.819
-89.605
-88.291
-86.875
-85.36
-83.746
-82.036
-80.232
-78.34
-76.362
-74.306
-72.175
-69.977
-67.72
-65.413
-63.064
-60.684
-58.283
-55.875
-53.473
-51.094
-48.752
-46.462
-44.24
-42.103
-40.067
-38.147
-36.353
-34.698
-33.195
-31.858
-30.699
-29.733
-28.969
-28.417
-28.085
-27.98
-28.106
-28.463
-29.043
-29.84
-30.851
-32.077
-33.528
-35.206
-37.109
-39.232
-41.562
-44.083
-46.776
-49.607
-52.527
-55.492
-58.455
-61.382
-64.247
-67.016
-69.649
-72.096
-74.291
-76.182
-77.726
-78.888
-79.655
-80.033
-80.042
-79.733
-79.184
-78.47
-77.688
-76.935
-76.301
-75.885
-75.769
-76.075
-76.989
-78.621
-80.964
-83.857
-86.929
-89.761
-92.014
-93.238
-92.852
-90.483
-86.054
-80.018
-73.423
-67.398
-62.879
-60.773
-61.982
-67.001
-75.57
-86.227
-96.463
-103.458
-104.198
-95.526
-74.227
-37.448
15.333
81.737
158.663
243.186
334.727
433.754
536.229
632.143
705.379
739.928
727.569
671.378
585.496
484.726
377.908
265.219
140.144
2.356
-138.344
-263.659
-353.314
-398.126
-401.95
-378.079
-341.472
-301.012
-259.179
-214.158
-165.859
-117.18
-72.667
-38.215
-16.687
-7.727
-9.915
-20.5
-36.353
-55.234
-74.571
-91.231
-103.422
-110.389
-111.931
-108.895
-102.511
-93.724
-83.849
-74.546
-66.731
-60.833
-56.994
-54.8
-53.769
-53.548
-53.628
-53.448
-52.735
-51.369
-49.336
-46.792
-43.846
-40.562
-37.044
-33.382
-29.625
-25.81
-21.963
-18.095
-14.253
-10.506
-6.904
-3.482
-0.264
2.742
5.53
8.095
10.44
12.579
14.521
16.264
17.811
19.161
20.323
21.314
22.155
22.866
23.471
23.992
24.448
24.858
25.238
25.603
25.966
26.34
26.738
27.18
27.683
28.264
28.941
29.729
30.644
31.701
32.912
34.288
35.84
37.576
39.506
41.638
43.978
46.531
49.303
52.295
55.509
58.943
62.595
66.46
70.532
74.802
79.26
83.893
88.69
93.634
98.71
103.9
109.186
114.546
119.962
125.411
130.871
136.318
141.73
147.083
152.352
157.514
162.545
167.421
172.119
176.615
180.887
184.913
188.671
192.141
195.303
198.138
200.631
202.764
204.524
205.899
206.879
207.455
207.62
207.37
206.701
205.614
204.11
202.191
199.863
197.133
194.01
190.504
186.628
182.397
177.824
172.928
167.728
162.241
156.491
150.498
144.286
137.878
131.3
124.576
117.734
110.799
103.797
96.755
89.7
82.656
75.649
68.704
61.844
55.092
48.469
41.998
35.696
29.582
23.672
17.983
12.528
7.32
2.368
-2.317
-6.728
-10.859
-14.704
-18.261
-21.529
-24.506
-27.194
-29.596
-31.716
-33.56
-35.133
-36.445
-37.505
-38.321
-38.906
-39.272
-39.429
-39.392
-39.174
-38.787
-38.247
-37.566
-36.76
-35.841
-34.823
-33.721
-32.547
-31.315
-30.037
-28.726
-27.393
-26.049
-24.706
-23.372
-22.058
-20.773
-19.524
-18.318
-17.163
-16.064
-15.026
-14.053
-13.15
-12.318
-11.56
-10.878
-10.272
-9.742
-9.288
-8.91
-8.607
-8.377
-8.218
-8.129
-8.108
-8.152
-8.258
-8.423
-8.645
-8.921
-9.247
-9.619
-10.036
-10.492
-10.986
-11.513
-12.071
-12.655
-13.264
-13.894
-14.542
-15.205
-15.88
-16.565
-17.258
-17.955
-18.655
-19.356
-20.054
-20.748
-21.435
-22.112
-22.778
-23.428
-24.059
-24.67
-25.255
-25.813
-26.34
-26.832
-27.285
-27.697
-28.063
-28.379
-28.642
-28.847
-28.99
-29.068
-29.075
-29.009
-28.866
-28.641
-28.332
-27.935
-27.447
-26.865
-26.187
-25.411
-24.533
-23.554
-22.473
-21.29
-20.006
-18.622
-17.14
-15.565
-13.901
-12.152
-10.325
-8.424
-6.458
-4.434
-2.363
-0.252
1.887
4.043
6.201
8.347
10.465
12.541
14.558
16.5
18.352
20.099
21.729
23.23
24.591
25.8
26.841
27.703
28.374
28.843
29.103
29.144
28.962
28.553
27.923
27.076
26.014
24.737
23.234
21.499
19.534
17.341
14.931
12.321
9.533
6.6
3.573
0.499
-2.578
-5.618
-8.599
-11.488
-14.25
-16.839
-19.201
-21.284
-23.059
-24.492
-25.569
-26.315
-26.764
-26.99
-27.105
-27.189
-27.332
-27.631
-28.165
-29.032
-30.343
-32.159
-34.561
-37.703
-41.626
-46.267
-51.442
-56.68
-61.469
-65.468
-68.279
-69.396
-68.582
-65.875
-61.666
-57.069
-53.29
-50.918
-50.292
-51.967
-56.133
-62.18
-68.978
-73.231
-70.142
-57.734
-35.439
-4.064
32.442
73.996
123.457
183.188
257.15
345.101
441.705
537.536
619.582
674.183
688.101
656.744
583.385
477.688
357.09
234.036
115.457
5.378
-97.258
-190.662
-270.188
-331.755
-371.69
-389.323
-386.542
-366.533
-333.808
-292.95
-248.323
-204.287
-163.992
-129.883
-104.317
-88.109
-80.682
-80.874
-86.752
-96.064
-107.176
-118.33
-127.299
-132.852
-134.608
-132.572
-127.5
-120.358
-111.798
-102.746
-94.443
-87.565
-82.405
-79.057
-77.164
-76.327
-76.279
-76.588
-76.774
-76.603
-75.955
-74.8
-73.263
-71.423
-69.325
-67.068
-64.732
-62.368
-60.017
-57.696
-55.414
-53.213
-51.146
-49.266
-47.612
-46.2
-45.035
-44.117
-43.44
-42.994
-42.756
-42.7
-42.805
-43.056
-43.437
-43.93
-44.51
-45.15
-45.821
-46.494
-47.142
-47.739
-48.263
-48.693
-49.012
-49.203
-49.25
-49.14
-48.857
-48.384
-47.707
-46.809
-45.676
-44.298
-42.663
-40.762
-38.587
-36.135
-33.401
-30.383
-27.082
-23.498
-19.634
-15.496
-11.089
-6.421
-1.501
3.66
9.047
14.648
20.447
26.427
32.568
38.852
45.258
51.765
58.348
64.987
71.655
78.329
84.982
91.591
98.127
104.565
110.878
117.04
123.025
128.806
134.359
139.66
144.685
149.411
153.819
157.888
161.599
164.935
167.882
170.423
172.548
174.244
175.502
176.316
176.68
176.589
176.043
175.041
173.586
171.683
169.336
166.555
163.349
159.73
155.711
151.309
146.54
141.423
135.978
130.228
124.196
117.907
111.386
104.659
97.753
90.696
83.516
76.24
68.896
61.512
54.116
46.735
39.395
32.125
24.948
17.89
10.974
4.223
-2.341
-8.7
-14.834
-20.727
-26.363
-31.73
-36.814
-41.606
-46.098
-50.283
-54.155
-57.713
-60.955
-63.882
-66.497
-68.804
-70.808
-72.517
-73.94
-75.086
-75.966
-76.591
-76.974
-77.13
-77.071
-76.813
-76.371
-75.761
-75
-74.103
-73.087
-71.969
-70.764
-69.488
-68.156
-66.782
-65.381
-63.965
-62.548
-61.14
-59.753
-58.397
-57.081
-55.811
-54.596
-53.441
-52.35
-51.327
-50.375
-49.495
-48.688
-47.954
-47.293
-46.705
-46.186
-45.735
-45.35
-45.026
-44.76
-44.547
-44.384
-44.264
-44.184
-44.139
-44.122
-44.131
-44.159
-44.204
-44.261
-44.326
-44.397
-44.47
-44.544
-44.617
-44.686
-44.752
-44.814
-44.872
-44.927
-44.98
-45.033
-45.087
-45.145
-45.209
-45.279
-45.36
-45.451
-45.556
-45.676
-45.812
-45.965
-46.138
-46.331
-46.545
-46.781
-47.039
-47.318
-47.618
-47.937
-48.273
-48.625
-48.987
-49.356
-49.729
-50.099
-50.461
-50.811
-51.141
-51.444
-51.713
-51.942
-52.121
-52.244
-52.303
-52.289
-52.197
-52.018
-51.748
-51.381
-50.912
-50.338
-49.655
-48.862
-47.958
-46.943
-45.816
-44.578
-43.234
-41.787
-40.241
-38.603
-36.88
-35.081
-33.218
-31.304
-29.352
-27.377
-25.392
-23.415
-21.461
-19.548
-17.69
-15.9
-14.193
-12.586
-11.095
-9.735
-8.522
-7.468
-6.585
-5.884
-5.378
-5.072
-4.965
-5.058
-5.352
-5.851
-6.567
-7.506
-8.666
-10.046
-11.639
-13.432
-15.41
-17.546
-19.794
-22.112
-24.457
-26.791
-29.089
-31.314
-33.419
-35.361
-37.079
-38.529
-39.69
-40.525
-41.009
-41.154
-40.984
-40.558
-39.98
-39.317
-38.641
-38.048
-37.624
-37.489
-37.75
-38.472
-39.763
-41.745
-44.468
-47.928
-51.953
-56.154
-60.191
-63.747
-66.365
-67.573
-66.972
-64.349
-60.056
-54.888
-49.479
-44.336
-40.243
-37.99
-38.153
-41.088
-44.681
-46.025
-44.35
-37.694
-26.326
-10.684
15.772
56.328
112.427
185.978
268.902
356.039
447.536
538.244
624.892
698.728
741.946
742.657
696.463
606.517
485.338
346.342
199.574
55.737
-72.907
-175.998
-246.372
-284.018
-298.559
-300.156
-294.809
-284.343
-265.507
-236.689
-200.752
-162.519
-127.576
-99.633
-79.956
-68.394
-63.988
-65.634
-71.717
-80.23
-89.41
-97.478
-103.054
-105.613
-104.971
-101.292
-95.313
-87.902
-79.953
-72.561
-66.469
-61.942
-59.09
-57.771
-57.65
-58.404
-59.606
-60.711
-61.393
-61.514
-61.014
-59.965
-58.428
-56.422
-54.021
-51.332
-48.421
-45.344
-42.133
-38.797
-35.38
-31.948
-28.571
-25.322
-22.245
-19.359
-16.68
-14.211
-11.954
-9.906
-8.051
-6.369
-4.845
-3.468
-2.228
-1.113
-0.105
0.819
1.685
2.518
3.339
4.167
5.019
5.911
6.857
7.87
8.963
10.145
11.43
12.832
14.365
16.043
17.878
19.882
22.064
24.433
26.997
29.762
32.731
35.908
39.295
42.892
46.699
50.714
54.935
59.357
63.973
68.777
73.76
78.91
84.216
89.665
95.241
100.928
106.71
112.567
118.481
124.431
130.396
136.354
142.283
148.16
153.961
159.663
165.241
170.673
175.935
181.003
185.855
190.468
194.82
198.892
202.662
206.111
209.221
211.974
214.354
216.345
217.934
219.109
219.859
220.175
220.05
219.478
218.455
216.982
215.056
212.682
209.863
206.606
202.917
198.809
194.291
189.379
184.086
178.43
172.429
166.103
159.473
152.562
145.392
137.989
130.378
122.586
114.639
106.564
98.391
90.148
81.863
73.564
65.281
57.04
48.87
40.797
32.848
25.046
17.417
9.981
2.76
-4.227
-10.962
-17.429
-23.614
-29.504
-35.088
-40.357
-45.303
-49.922
-54.209
-58.162
-61.782
-65.068
-68.026
-70.658
-72.972
-74.975
-76.676
-78.086
-79.215
-80.078
-80.689
-81.061
-81.211
-81.156
-80.912
-80.497
-79.928
-79.224
-78.4
-77.475
-76.464
-75.385
-74.252
-73.08
-71.885
-70.679
-69.476
-68.288
-67.125
-65.999
-64.918
-63.892
-62.928
-62.033
-61.212
-60.471
-59.815
-59.245
-58.766
-58.379
-58.085
-57.884
-57.776
-57.757
-57.827
-57.982
-58.219
-58.534
-58.922
-59.379
-59.901
-60.484
-61.123
-61.814
-62.553
-63.336
-64.159
-65.018
-65.909
-66.83
-67.776
-68.744
-69.731
-70.734
-71.75
-72.775
-73.807
-74.842
-75.876
-76.905
-77.925
-78.933
-79.924
-80.893
-81.838
-82.755
-83.641
-84.491
-85.304
-86.074
-86.799
-87.475
-88.098
-88.663
-89.166
-89.601
-89.964
-90.249
-90.452
-90.566
-90.588
-90.511
-90.331
-90.043
-89.644
-89.127
-88.491
-87.733
-86.85
-85.842
-84.71
-83.455
-82.079
-80.585
-78.979
-77.266
-75.452
-73.542
-71.544
-69.467
-67.317
-65.106
-62.842
-60.536
-58.201
-55.849
-53.497
-51.162
-48.86
-46.606
-44.42
-42.318
-40.319
-38.437
-36.685
-35.074
-33.617
-32.328
-31.221
-30.305
-29.591
-29.085
-28.795
-28.725
-28.877
-29.249
-29.829
-30.609
-31.584
-32.755
-34.128
-35.707
-37.487
-39.462
-41.618
-43.94
-46.404
-48.971
-51.587
-54.197
-56.752
-59.208
-61.533
-63.684
-65.617
-67.274
-68.595
-69.531
-70.04
-70.09
-69.683
-68.832
-67.579
-65.997
-64.178
-62.226
-60.271
-58.44
-56.85
-55.623
-54.849
-54.652
-55.223
-56.651
-58.906
-61.812
-64.956
-67.912
-70.37
-71.905
-71.943
-70.134
-66.412
-61.158
-55.421
-50.244
-46.29
-44.214
-44.666
-47.873
-53.418
-59.921
-64.789
-65.25
-58.801
-42.868
-15.098
26.658
82.611
150.048
225.324
304.16
384.768
469.179
556.044
639.36
707.886
744.217
736.285
681.713
585.151
458.544
314.15
161.673
12.791
-119.346
-223.302
-292.613
-330.37
-345.91
-346.767
-335.512
-308.301
-263.401
-207.23
-150.425
-106.909
-82.907
-73.946
-74.207
-75.666
-75.39
-77.561
-83.572
-94.179
-108.315
-121.03
-129.893
-134.611
-135.005
-132.244
-127.546
-121.294
-114.359
-108.06
-103.004
-99.462
-97.552
-96.936
-97.257
-98.294
-99.607
-100.667
-101.211
-101.11
-100.337
-99.006
-97.176
-94.876
-92.2
-89.24
-86.067
-82.728
-79.246
-75.634
-71.937
-68.221
-64.559
-61.005
-57.588
-54.329
-51.239
-48.326
-45.602
-43.058
-40.678
-38.454
-36.379
-34.449
-32.659
-30.996
-29.438
-27.967
-26.558
-25.189
-23.842
-22.499
-21.14
-19.752
-18.32
-16.831
-15.271
-13.628
-11.882
-10.02
-8.023
-5.877
-3.567
-1.08
1.596
4.473
7.559
10.862
14.389
18.145
22.135
26.362
30.827
35.53
40.47
45.642
51.041
56.659
62.486
68.51
74.717
81.092
87.618
94.274
101.042
107.897
114.818
121.78
128.756
135.721
142.645
149.501
156.261
162.895
169.374
175.669
181.75
187.59
193.161
198.435
203.386
207.989
212.218
216.05
219.464
222.438
224.955
226.996
228.547
229.595
230.13
230.144
229.63
228.586
227.01
224.904
222.273
219.123
215.463
211.306
206.665
201.557
196.001
190.017
183.628
176.86
169.737
162.289
154.543
146.532
138.286
129.837
121.22
112.469
103.617
94.7
85.753
76.808
67.902
59.066
50.333
41.736
33.303
25.065
17.048
9.277
1.778
-5.428
-12.321
-18.883
-25.099
-30.955
-36.44
-41.546
-46.266
-50.595
-54.532
-58.075
-61.227
-63.993
-66.377
-68.387
-70.034
-71.327
-72.28
-72.908
-73.225
-73.247
-72.994
-72.482
-71.732
-70.762
-69.592
-68.242
-66.734
-65.085
-63.318
-61.45
-59.5
-57.488
-55.43
-53.344
-51.244
-49.145
-47.061
-45.005
-42.988
-41.02
-39.111
-37.269
-35.5
-33.812
-32.208
-30.693
-29.269
-27.939
-26.702
-25.56
-24.51
-23.552
-22.683
-21.9
-21.198
-20.575
-20.026
-19.545
-19.128
-18.769
-18.463
-18.204
-17.987
-17.807
-17.659
-17.538
-17.44
-17.361
-17.297
-17.244
-17.201
-17.162
-17.127
-17.092
-17.056
-17.016
-16.97
-16.917
-16.855
-16.783
-16.699
-16.602
-16.491
-16.365
-16.222
-16.061
-15.881
-15.682
-15.461
-15.218
-14.952
-14.661
-14.343
-13.996
-13.619
-13.207
-12.759
-12.271
-11.74
-11.163
-10.536
-9.854
-9.115
-8.315
-7.45
-6.517
-5.512
-4.433
-3.278
-2.045
-0.733
0.658
2.13
3.68
5.306
7.005
8.775
10.612
12.51
14.464
16.468
18.514
20.595
22.701
24.823
26.945
29.056
31.14
33.184
35.171
37.087
38.913
40.636
42.241
43.715
45.044
46.213
47.205
48.006
48.604
48.989
49.15
49.08
48.767
48.208
47.407
46.362
45.074
43.538
41.741
39.678
37.357
34.784
31.972
28.938
25.697
22.275
18.721
15.076
11.383
7.68
3.99
0.354
-3.177
-6.547
-9.688
-12.551
-15.111
-17.336
-19.21
-20.736
-21.93
-22.841
-23.544
-24.119
-24.673
-25.319
-26.165
-27.333
-28.882
-30.89
-33.513
-36.736
-40.43
-44.405
-48.292
-51.803
-54.889
-57.371
-58.905
-59.541
-59.514
-59.073
-58.776
-58.853
-58.897
-59.649
-63.081
-69.671
-78.391
-84.661
-79.2
-56.059
-17.154
28.776
65.641
79.124
70.481
52.158
44.079
70.223
137.73
240.559
367.047
495.446
610.761
702.56
758.721
772.856
738.679
654.977
527.565
366.914
191.233
18.765
-131.069
-241.188
-308.538
-336.993
-337.164
-325.603
-307.718
-283.927
-256.893
-223.868
-189.216
-161.49
-139.999
-126.329
-120.306
-116.859
-117.624
-123.367
-132.119
-144.159
-157.12
-167.895
-175.485
-179.238
-179.149
-176.031
-170.772
-163.98
-156.448
-149.251
-143.087
-138.306
-135.102
-133.281
-132.484
-132.471
-132.836
-133.051
-132.822
-131.983
-130.453
-128.317
-125.632
-122.412
-118.743
-114.727
-110.426
-105.896
-101.164
-96.232
-91.143
-85.966
-80.779
-75.671
-70.699
-65.899
-61.306
-56.941
-52.822
-48.962
-45.355
-41.986
-38.851
-35.947
-33.272
-30.825
-28.594
-26.56
-24.706
-23.009
-21.453
-20.022
-18.698
-17.466
-16.311
-15.22
-14.181
-13.181
-12.206
-11.239
-10.262
-9.258
-8.21
-7.1
-5.913
-4.632
-3.242
-1.731
-0.086
1.705
3.65
5.759
8.038
10.494
13.13
15.95
18.955
22.143
25.514
29.062
32.783
36.67
40.714
44.904
49.23
53.677
58.231
62.876
67.595
72.37
77.18
82.005
86.824
91.614
96.352
101.015
105.578
110.017
114.308
118.426
122.348
126.052
129.514
132.714
135.63
138.243
140.535
142.489
144.088
145.318
146.165
146.62
146.672
146.313
145.537
144.341
142.722
140.681
138.218
135.339
132.049
128.355
124.269
119.801
114.965
109.778
104.256
98.419
92.288
85.885
79.234
72.36
65.288
58.045
50.66
43.158
35.57
27.923
20.245
12.564
4.91
-2.692
-10.213
-17.627
-24.909
-32.035
-38.981
-45.725
-52.246
-58.525
-64.543
-70.286
-75.737
-80.884
-85.715
-90.221
-94.393
-98.226
-101.716
-104.859
-107.656
-110.108
-112.217
-113.989
-115.429
-116.545
-117.346
-117.841
-118.041
-117.959
-117.608
-117.001
-116.154
-115.08
-113.797
-112.318
-110.662
-108.842
-106.876
-104.778
-102.564
-100.249
-97.849
-95.377
-92.848
-90.275
-87.671
-85.049
-82.419
-79.794
-77.183
-74.594
-72.036
-69.518
-67.046
-64.625
-62.263
-59.963
-57.731
-55.57
-53.483
-51.473
-49.539
-47.683
-45.906
-44.206
-42.582
-41.034
-39.56
-38.159
-36.83
-35.572
-34.383
-33.262
-32.208
-31.217
-30.289
-29.422
-28.614
-27.863
-27.167
-26.526
-25.938
-25.403
-24.918
-24.481
-24.089
-23.74
-23.431
-23.155
-22.908
-22.684
-22.477
-22.286
-22.104
-21.93
-21.759
-21.589
-21.421
-21.253
-21.083
-20.904
-20.71
-20.494
-20.249
-19.968
-19.641
-19.258
-18.809
-18.289
-17.695
-17.024
-16.268
-15.418
-14.457
-13.377
-12.177
-10.859
-9.427
-7.887
-6.251
-4.545
-2.809
-1.08
0.617
2.272
3.891
5.474
7.022
8.532
10.005
11.456
12.909
14.376
15.859
17.368
18.924
20.576
22.402
24.466
26.796
29.391
32.221
35.258
38.461
41.771
45.108
48.359
51.419
54.211
56.678
58.761
60.385
61.447
61.812
61.372
60.061
57.841
54.705
50.659
45.733
39.996
33.566
26.601
19.249
11.637
3.868
-3.961
-11.735
-19.328
-26.586
-33.378
-39.601
-45.153
-49.963
-53.977
-57.157
-59.509
-61.115
-62.089
-62.558
-62.664
-62.495
-62.138
-61.715
-61.338
-61.149
-61.284
-61.833
-62.911
-64.659
-67.149
-70.369
-74.168
-78.16
-81.886
-84.927
-86.818
-87.077
-85.331
-81.43
-75.677
-68.8
-61.754
-55.469
-50.578
-47.732
-47.731
-50.629
-55.362
-60.429
-62.438
-57.678
-44.925
-21.712
12.666
56.494
111.268
176.332
251.181
338.142
435.937
541.94
648.342
740.504
802.083
816.389
776.347
684.788
550.752
391.426
222.123
56.575
-88.248
-200.422
-273.796
-307.815
-313.268
-304.503
-289.546
-272.355
-251.45
-221.977
-184.56
-143.403
-102.908
-68.441
-43.208
-27.347
-20.151
-20.395
-26.279
-35.975
-48.068
-60.74
-71.712
-79.732
-84.287
-85.206
-83.092
-78.759
-72.744
-65.977
-59.76
-54.81
-51.465
-49.829
-49.546
-50.236
-51.645
-53.366
-54.9
-55.981
-56.483
-56.376
-55.794
-54.837
-53.557
-52.045
-50.395
-48.665
-46.903
-45.15
-43.426
-41.784
-40.296
-39.012
-37.97
-37.195
-36.692
-36.465
-36.511
-36.82
-37.367
-38.138
-39.123
-40.313
-41.7
-43.268
-44.994
-46.851
-48.814
-50.854
-52.946
-55.062
-57.18
-59.279
-61.339
-63.343
-65.274
-67.113
-68.838
-70.427
-71.859
-73.112
-74.166
-75.002
-75.602
-75.949
-76.03
-75.833
-75.347
-74.561
-73.466
-72.057
-70.327
-68.274
-65.895
-63.192
-60.167
-56.824
-53.172
-49.22
-44.978
-40.46
-35.681
-30.658
-25.409
-19.955
-14.316
-8.517
-2.579
3.47
9.604
15.796
22.019
28.242
34.438
40.577
46.629
52.565
58.357
63.975
69.392
74.581
79.516
84.171
88.521
92.545
96.221
99.53
102.453
104.975
107.083
108.765
110.012
110.816
111.174
111.081
110.539
109.548
108.114
106.243
103.943
101.226
98.105
94.596
90.715
86.483
81.919
77.046
71.889
66.471
60.82
54.963
48.928
42.745
36.443
30.052
23.602
17.124
10.647
4.2
-2.189
-8.491
-14.681
-20.732
-26.621
-32.324
-37.819
-43.088
-48.111
-52.873
-57.358
-61.554
-65.451
-69.04
-72.315
-75.27
-77.903
-80.214
-82.204
-83.874
-85.231
-86.279
-87.028
-87.486
-87.664
-87.575
-87.232
-86.649
-85.842
-84.827
-83.62
-82.237
-80.698
-79.018
-77.216
-75.308
-73.313
-71.249
-69.131
-66.976
-64.801
-62.619
-60.447
-58.297
-56.181
-54.112
-52.099
-50.154
-48.283
-46.495
-44.796
-43.192
-41.688
-40.286
-38.99
-37.801
-36.72
-35.746
-34.879
-34.117
-33.458
-32.898
-32.435
-32.066
-31.785
-31.587
-31.469
-31.424
-31.448
-31.533
-31.675
-31.868
-32.104
-32.379
-32.686
-33.02
-33.375
-33.745
-34.126
-34.512
-34.898
-35.281
-35.655
-36.016
-36.361
-36.686
-36.986
-37.259
-37.502
-37.709
-37.879
-38.007
-38.091
-38.126
-38.109
-38.038
-37.908
-37.716
-37.46
-37.136
-36.741
-36.271
-35.724
-35.096
-34.387
-33.592
-32.71
-31.74
-30.679
-29.525
-28.279
-26.939
-25.504
-23.974
-22.348
-20.628
-18.814
-16.909
-14.914
-12.833
-10.67
-8.43
-6.121
-3.748
-1.319
1.158
3.671
6.211
8.766
11.323
13.87
16.392
18.873
21.296
23.644
25.901
28.05
30.073
31.952
33.673
35.22
36.579
37.739
38.684
39.401
39.877
40.1
40.058
39.744
39.148
38.262
37.085
35.619
33.869
31.84
29.536
26.953
24.093
20.967
17.585
13.962
10.116
6.073
1.868
-2.445
-6.819
-11.205
-15.564
-19.868
-24.078
-28.152
-32.047
-35.706
-39.089
-42.168
-44.909
-47.276
-49.265
-50.894
-52.219
-53.339
-54.327
-55.227
-56.092
-56.977
-57.963
-59.132
-60.548
-62.265
-64.334
-66.871
-69.961
-73.557
-77.441
-81.222
-84.436
-86.651
-87.455
-86.313
-82.825
-76.997
-69.266
-60.516
-51.763
-44.05
-38.275
-35.263
-35.82
-38.635
-41.511
-43.376
-41.673
-36.451
-28.103
-10.306
21.487
72.236
145.187
230.974
320.831
406.739
482.826
554.772
622.515
681.104
721.35
723.271
677.402
583.928
448.322
289.771
124.984
-32.262
-164.774
-262.693
-320.579
-338.871
-327.516
-298.814
-264.721
-231.974
-202.951
-177.81
-152.861
-127.537
-102.549
-78.337
-59.64
-48.605
-44.695
-47.8
-54.849
-63.298
-72.327
-80.16
-85.611
-88.416
-88.254
-85.392
-80.708
-74.764
-68.137
-61.814
-56.509
-52.545
-50.093
-48.963
-48.758
-49.211
-49.978
-50.603
-50.821
-50.498
-49.577
-48.146
-46.29
-44.054
-41.527
-38.805
-35.944
-32.995
-29.986
-26.933
-23.879
-20.888
-18.024
-15.336
-12.852
-10.584
-8.537
-6.713
-5.106
-3.702
-2.477
-1.413
-0.499
0.277
0.923
1.458
1.905
2.29
2.638
2.974
3.32
3.697
4.125
4.621
5.199
5.874
6.66
7.57
8.623
9.832
11.216
12.788
14.562
16.551
18.767
21.219
23.913
26.856
30.051
33.501
37.207
41.167
45.379
49.838
54.539
59.473
64.632
70.004
75.576
81.333
87.26
93.339
99.55
105.873
112.287
118.768
125.294
131.839
138.38
144.889
151.342
157.711
163.969
170.09
176.046
181.811
187.358
192.66
197.694
202.436
206.864
210.956
214.693
218.057
221.032
223.603
225.758
227.484
228.774
229.619
230.014
229.956
229.445
228.482
227.069
225.213
222.92
220.199
217.063
213.522
209.593
205.292
200.636
195.646
190.342
184.749
178.889
172.789
166.476
159.975
153.315
146.525
139.631
132.663
125.649
118.615
111.591
104.601
97.673
90.831
84.1
77.503
71.06
64.793
58.72
52.858
47.224
41.831
36.692
31.818
27.22
22.904
18.878
15.145
11.71
8.573
5.734
3.19
0.938
-1.028
-2.714
-4.129
-5.283
-6.184
-6.846
-7.28
-7.498
-7.516
-7.347
-7.005
-6.506
-5.863
-5.093
-4.209
-3.225
-2.156
-1.016
0.184
1.429
2.708
4.01
5.322
6.634
7.936
9.218
10.471
11.687
12.859
13.981
15.045
16.049
16.986
17.855
18.651
19.374
20.023
20.596
21.094
21.517
21.868
22.149
22.361
22.506
22.589
22.611
22.576
22.486
22.344
22.152
21.914
21.632
21.308
20.946
20.548
20.117
19.657
19.169
18.657
18.123
17.572
17.005
16.425
15.837
15.242
14.644
14.046
13.452
12.863
12.283
11.714
11.159
10.62
10.1
9.6
9.123
8.671
8.248
7.855
7.496
7.174
6.893
6.656
6.468
6.331
6.25
6.228
6.267
6.371
6.543
6.786
7.1
7.488
7.952
8.491
9.107
9.798
10.562
11.398
12.303
13.275
14.309
15.402
16.549
17.745
18.984
20.26
21.566
22.895
24.237
25.583
26.923
28.246
29.536
30.782
31.967
33.078
34.1
35.017
35.813
36.476
36.992
37.351
37.54
37.55
37.368
36.984
36.387
35.568
34.522
33.241
31.721
29.961
27.965
25.738
23.286
20.61
17.706
14.57
11.206
7.621
3.824
-0.165
-4.324
-8.616
-12.988
-17.391
-21.774
-26.093
-30.32
-34.422
-38.36
-42.093
-45.565
-48.725
-51.539
-53.978
-56.012
-57.646
-58.913
-59.877
-60.656
-61.357
-62.053
-62.83
-63.763
-64.934
-66.444
-68.382
-70.814
-73.837
-77.584
-82.11
-87.354
-93.073
-98.788
-103.986
-108.209
-110.963
-111.667
-109.942
-105.789
-99.67
-92.661
-85.912
-80.181
-76.178
-74.674
-76.016
-79.821
-84.768
-88.312
-87.62
-80.27
-63.746
-35.494
6.761
63.536
132.589
210.068
291.187
373.493
457.832
543.872
628.595
703.437
754.09
765.9
728.079
638.083
500.706
329.011
142.967
-37.314
-189.583
-297.609
-358.806
-377.965
-369.55
-350.272
-327.349
-303.744
-277.784
-245.042
-207.395
-169.104
-134.509
-109.246
-95.277
-91.398
-96.226
-107.35
-121.985
-138.466
-154.928
-168.914
-179.159
-185.269
-187.14
-185.506
-181.448
-175.682
-169.239
-163.519
-159.241
-156.732
-156.132
-157.098
-159.251
-162.328
-165.854
-169.249
-172.198
-174.53
-176.184
-177.273
-177.853
-177.937
-177.606
-176.946
-176.014
-174.86
-173.498
-171.925
-170.173
-168.299
-166.365
-164.439
-162.563
-160.758
-159.042
-157.423
-155.909
-154.496
-153.175
-151.93
-150.752
-149.632
-148.564
-147.538
-146.537
-145.545
-144.54
-143.5
-142.408
-141.25
-140.012
-138.684
-137.255
-135.717
-134.062
-132.283
-130.373
-128.321
-126.118
-123.753
-121.217
-118.502
-115.602
-112.508
-109.216
-105.722
-102.023
-98.116
-94.001
-89.678
-85.149
-80.416
-75.484
-70.359
-65.047
-59.559
-53.904
-48.094
-42.143
-36.065
-29.874
-23.589
-17.225
-10.801
-4.337
2.148
8.635
15.102
21.527
27.889
34.165
40.331
46.365
52.243
57.942
63.439
68.71
73.735
78.491
82.958
87.117
90.948
94.435
97.561
100.313
102.677
104.642
106.199
107.341
108.061
108.357
108.226
107.67
106.689
105.287
103.471
101.247
98.626
95.617
92.233
88.491
84.405
79.994
75.279
70.279
65.02
59.523
53.815
47.923
41.872
35.691
29.408
23.052
16.652
10.236
3.832
-2.532
-8.828
-15.029
-21.111
-27.048
-32.818
-38.398
-43.766
-48.904
-53.792
-58.415
-62.756
-66.803
-70.542
-73.963
-77.059
-79.821
-82.245
-84.329
-86.07
-87.47
-88.53
-89.256
-89.653
-89.728
-89.49
-88.951
-88.121
-87.013
-85.641
-84.021
-82.166
-80.093
-77.818
-75.357
-72.729
-69.949
-67.034
-64.003
-60.872
-57.658
-54.378
-51.048
-47.685
-44.304
-40.922
-37.552
-34.208
-30.906
-27.656
-24.47
-21.361
-18.337
-15.408
-12.581
-9.864
-7.262
-4.779
-2.421
-0.19
1.911
3.881
5.719
7.423
8.993
10.431
11.736
12.91
13.954
14.87
15.66
16.326
16.873
17.302
17.617
17.823
17.923
17.921
17.822
17.631
17.353
16.993
16.556
16.046
15.47
14.831
14.135
13.386
12.588
11.746
10.865
9.948
8.999
8.025
7.029
6.017
4.995
3.968
2.943
1.926
0.923
-0.057
-1.009
-1.925
-2.797
-3.619
-4.381
-5.078
-5.701
-6.242
-6.696
-7.054
-7.309
-7.455
-7.487
-7.397
-7.181
-6.833
-6.349
-5.722
-4.951
-4.03
-2.956
-1.727
-0.342
1.2
2.899
4.752
6.758
8.911
11.206
13.637
16.194
18.869
21.651
24.529
27.49
30.518
33.6
36.719
39.859
42.999
46.121
49.201
52.219
55.154
57.983
60.686
63.24
65.625
67.824
69.819
71.595
73.134
74.415
75.424
76.147
76.572
76.688
76.488
75.962
75.111
73.942
72.459
70.669
68.571
66.157
63.427
60.389
57.053
53.435
49.556
45.435
41.11
36.634
32.054
27.421
22.774
18.138
13.553
9.068
4.739
0.64
-3.174
-6.667
-9.795
-12.531
-14.869
-16.814
-18.408
-19.72
-20.811
-21.753
-22.625
-23.502
-24.479
-25.638
-27.095
-29.027
-31.531
-34.616
-38.164
-41.85
-45.312
-48.255
-50.287
-50.935
-49.877
-46.956
-42.503
-37.446
-32.763
-29.316
-27.823
-28.816
-32.692
-39.524
-48.32
-56.968
-62.891
-63.393
-55.976
-38.364
-8.257
36.566
95.746
166.095
244.224
325.765
409.895
499.267
590.427
676.245
743.06
771.961
756.294
697.563
604.895
493.507
367.198
228.473
82.721
-61.217
-181.748
-262.85
-299.974
-299.138
-279.599
-255.332
-232.02
-210.264
-184.605
-154.164
-122.502
-93.383
-71.446
-58.659
-54.016
-56.038
-62.443
-70.782
-79.392
-86.792
-91.915
-94.179
-93.35
-89.638
-83.703
-76.501
-68.988
-62.112
-56.489
-52.436
-50.119
-49.453
-50.21
-52.071
-54.592
-57.262
-59.728
-61.8
-63.385
-64.508
-65.195
-65.455
-65.354
-64.989
-64.442
-63.774
-63.021
-62.194
-61.322
-60.466
-59.694
-59.084
-58.701
-58.583
-58.752
-59.221
-59.995
-61.074
-62.445
-64.083
-65.958
-68.044
-70.322
-72.771
-75.368
-78.083
-80.878
-83.719
-86.569
-89.398
-92.177
-94.876
-97.467
-99.924
-102.222
-104.341
-106.258
-107.951
-109.397
-110.573
-111.456
-112.027
-112.268
-112.163
-111.695
-110.853
-109.627
-108.008
-105.991
-103.573
-100.75
-97.525
-93.899
-89.878
-85.469
-80.681
-75.526
-70.017
-64.171
-58.007
-51.544
-44.806
-37.816
-30.601
-23.188
-15.607
-7.886
-0.058
7.845
15.792
23.749
31.682
39.558
47.344
55.004
62.508
69.821
76.913
83.754
90.313
96.562
102.476
108.027
113.193
117.952
122.282
126.165
129.585
132.526
134.978
136.93
138.375
139.309
139.729
139.637
139.035
137.93
136.329
134.244
131.688
128.676
125.225
121.356
117.091
112.453
107.467
102.16
96.561
90.697
84.601
78.302
71.833
65.225
58.512
51.726
44.9
38.067
31.26
24.51
17.85
11.308
4.915
-1.302
-7.316
-13.103
-18.64
-23.907
-28.883
-33.554
-37.905
-41.923
-45.6
-48.926
-51.899
-54.514
-56.771
-58.672
-60.22
-61.42
-62.281
-62.81
-63.02
-62.921
-62.528
-61.855
-60.919
-59.736
-58.326
-56.705
-54.896
-52.917
-50.789
-48.534
-46.171
-43.723
-41.208
-38.648
-36.06
-33.465
-30.878
-28.317
-25.797
-23.332
-20.935
-18.619
-16.394
-14.268
-12.249
-10.343
-8.557
-6.893
-5.355
-3.943
-2.66
-1.504
-0.476
0.428
1.21
1.872
2.42
2.857
3.19
3.424
3.564
3.619
3.593
3.494
3.328
3.102
2.822
2.494
2.124
1.717
1.279
0.814
0.326
-0.181
-0.704
-1.24
-1.789
-2.35
-2.921
-3.503
-4.096
-4.7
-5.316
-5.946
-6.59
-7.249
-7.925
-8.619
-9.333
-10.068
-10.825
-11.606
-12.411
-13.239
-14.093
-14.97
-15.869
-16.789
-17.729
-18.684
-19.654
-20.634
-21.621
-22.61
-23.597
-24.575
-25.54
-26.483
-27.398
-28.276
-29.109
-29.889
-30.608
-31.256
-31.825
-32.307
-32.693
-32.975
-33.145
-33.196
-33.119
-32.908
-32.557
-32.062
-31.418
-30.621
-29.671
-28.567
-27.309
-25.9
-24.344
-22.643
-20.804
-18.833
-16.74
-14.531
-12.219
-9.815
-7.333
-4.789
-2.201
0.413
3.034
5.641
8.216
10.735
13.18
15.533
17.776
19.892
21.861
23.664
25.283
26.702
27.906
28.883
29.619
30.103
30.329
30.299
30.012
29.469
28.666
27.591
26.238
24.61
22.71
20.544
18.126
15.467
12.593
9.546
6.368
3.099
-0.222
-3.576
-6.922
-10.215
-13.402
-16.413
-19.197
-21.72
-23.942
-25.832
-27.384
-28.602
-29.527
-30.229
-30.771
-31.224
-31.668
-32.181
-32.88
-33.857
-35.214
-37.117
-39.649
-42.824
-46.584
-50.649
-54.639
-58.275
-61.202
-62.933
-63.192
-61.797
-58.842
-55.122
-51.619
-49.058
-48.058
-49.353
-53.526
-60.776
-70.783
-80.914
-86.761
-86.103
-77.644
-61.472
-40.597
-11.861
30.963
90.518
171.149
268.764
372.523
478.442
580.309
671.491
748.209
796.614
800.882
754.841
655.25
508.681
335.543
153.561
-16.38
-150.768
-242.784
-292.612
-308.596
-310.663
-308.655
-304.569
-297.097
-278.898
-248.588
-210.892
-171.154
-135.411
-107.133
-86.995
-74.707
-69.313
-69.703
-74.314
-81.282
-88.953
-95.527
-99.593
-100.625
-98.433
-93.227
-85.802
-77.008
-67.792
-59.419
-52.745
-48.089
-45.558
-44.905
-45.718
-47.664
-50.273
-52.944
-55.292
-57.115
-58.32
-58.986
-59.159
-58.828
-58.013
-56.73
-55.002
-52.882
-50.425
-47.704
-44.806
-41.822
-38.85
-35.996
-33.329
-30.892
-28.703
-26.746
-25.02
-23.526
-22.271
-21.273
-20.537
-20.049
-19.786
-19.71
-19.779
-19.958
-20.205
-20.47
-20.719
-20.921
-21.059
-21.131
-21.128
-21.036
-20.837
-20.512
-20.042
-19.413
-18.61
-17.62
-16.43
-15.03
-13.411
-11.571
-9.503
-7.203
-4.664
-1.878
1.16
4.453
8
11.801
15.853
20.152
24.69
29.457
34.44
39.629
45.009
50.566
56.283
62.143
68.127
74.214
80.384
86.613
92.88
99.158
105.424
111.65
117.812
123.882
129.834
135.642
141.28
146.722
151.943
156.919
161.626
166.041
170.144
173.912
177.328
180.372
183.029
185.283
187.124
188.539
189.52
190.06
190.154
189.799
188.995
187.742
186.045
183.907
181.339
178.348
174.949
171.155
166.982
162.45
157.579
152.389
146.904
141.148
135.147
128.927
122.515
115.939
109.229
102.411
95.517
88.574
81.611
74.658
67.741
60.887
54.124
47.475
40.966
34.619
28.455
22.496
16.759
11.262
6.018
1.042
-3.655
-8.066
-12.183
-16.001
-19.518
-22.734
-25.65
-28.268
-30.594
-32.634
-34.396
-35.889
-37.125
-38.115
-38.873
-39.412
-39.748
-39.895
-39.871
-39.691
-39.371
-38.93
-38.382
-37.746
-37.038
-36.274
-35.47
-34.641
-33.803
-32.97
-32.154
-31.37
-30.627
-29.936
-29.307
-28.747
-28.264
-27.863
-27.548
-27.324
-27.193
-27.156
-27.214
-27.367
-27.613
-27.951
-28.378
-28.89
-29.484
-30.156
-30.901
-31.713
-32.588
-33.52
-34.505
-35.536
-36.608
-37.715
-38.853
-40.015
-41.197
-42.393
-43.598
-44.808
-46.02
-47.228
-48.431
-49.626
-50.809
-51.98
-53.138
-54.28
-55.407
-56.519
-57.614
-58.694
-59.758
-60.808
-61.844
-62.867
-63.879
-64.88
-65.871
-66.854
-67.827
-68.793
-69.75
-70.699
-71.637
-72.566
-73.481
-74.383
-75.27
-76.14
-76.989
-77.816
-78.616
-79.387
-80.124
-80.822
-81.477
-82.083
-82.634
-83.126
-83.552
-83.908
-84.188
-84.386
-84.499
-84.519
-84.445
-84.269
-83.989
-83.601
-83.1
-82.485
-81.756
-80.91
-79.948
-78.871
-77.682
-76.384
-74.981
-73.479
-71.882
-70.197
-68.432
-66.597
-64.7
-62.752
-60.767
-58.756
-56.736
-54.724
-52.736
-50.789
-48.9
-47.086
-45.365
-43.754
-42.266
-40.915
-39.715
-38.68
-37.824
-37.16
-36.701
-36.458
-36.442
-36.662
-37.13
-37.846
-38.809
-40.017
-41.466
-43.157
-45.097
-47.283
-49.709
-52.368
-55.25
-58.34
-61.618
-65.042
-68.558
-72.112
-75.654
-79.136
-82.529
-85.787
-88.863
-91.719
-94.301
-96.578
-98.534
-100.137
-101.362
-102.215
-102.721
-102.964
-103.074
-103.163
-103.326
-103.645
-104.197
-105.097
-106.445
-108.307
-110.732
-113.686
-117.189
-121.378
-126.242
-131.621
-137.238
-142.584
-147.191
-150.816
-152.971
-152.982
-150.594
-145.786
-138.903
-130.823
-122.254
-113.701
-106.17
-101.02
-97.438
-92.825
-85.119
-71.53
-54.126
-40.128
-30.312
-22.155
-7.851
29.089
95.043
188.48
304.734
427.644
542.613
636.57
692.018
698.805
653.768
561.139
434.613
287.556
131.577
-23.622
-168.347
-288.52
-374.406
-422.421
-437.47
-434.092
-422.059
-405.336
-383.949
-353.214
-313.22
-268.437
-223.307
-182.997
-150.727
-127.288
-112.708
-106.041
-105.722
-110.13
-117.819
-127.382
-136.967
-144.752
-149.684
-151.429
-150.31
-147.027
-142.146
-136.213
-130.166
-125.094
-121.631
-119.959
-119.923
-121.095
-123.119
-125.759
-128.631
-131.248
-133.303
-134.616
-135.109
-134.873
-133.974
-132.424
-130.304
-127.719
-124.768
-121.594
-118.311
-114.985
-111.698
-108.506
-105.44
-102.546
-99.848
-97.355
-95.091
-93.066
-91.272
-89.715
-88.391
-87.278
-86.352
-85.56
-84.845
-84.167
-83.487
-82.776
-82.012
-81.171
-80.234
-79.195
-78.043
-76.767
-75.357
-73.795
-72.065
-70.158
-68.064
-65.778
-63.298
-60.621
-57.74
-54.653
-51.358
-47.852
-44.133
-40.195
-36.037
-31.657
-27.06
-22.249
-17.232
-12.016
-6.613
-1.034
4.707
10.595
16.615
22.749
28.979
35.287
41.652
48.053
54.468
60.873
67.246
73.563
79.798
85.928
91.928
97.773
103.439
108.901
114.137
119.121
123.833
128.25
132.351
136.115
139.524
142.559
145.204
147.442
149.261
150.649
151.595
152.092
152.133
151.714
150.835
149.494
147.694
145.439
142.735
139.592
136.019
132.029
127.638
122.861
117.718
112.229
106.416
100.302
93.912
87.274
80.414
73.361
66.144
58.794
51.343
43.82
36.259
28.691
21.148
13.662
6.264
-1.015
-8.147
-15.101
-21.851
-28.371
-34.635
-40.622
-46.309
-51.677
-56.709
-61.39
-65.706
-69.646
-73.201
-76.365
-79.132
-81.501
-83.471
-85.045
-86.225
-87.02
-87.435
-87.483
-87.173
-86.519
-85.537
-84.243
-82.653
-80.788
-78.666
-76.309
-73.737
-70.973
-68.039
-64.957
-61.749
-58.437
-55.045
-51.592
-48.099
-44.587
-41.076
-37.582
-34.124
-30.717
-27.377
-24.117
-20.951
-17.889
-14.941
-12.115
-9.419
-6.858
-4.437
-2.158
-0.023
1.968
3.815
5.521
7.088
8.52
9.823
11.002
12.063
13.013
13.86
14.611
15.275
15.859
16.372
16.821
17.214
17.558
17.861
18.129
18.368
18.585
18.784
18.97
19.149
19.325
19.501
19.68
19.863
20.053
20.251
20.458
20.672
20.894
21.123
21.359
21.599
21.843
22.089
22.335
22.578
22.818
23.052
23.277
23.493
23.699
23.893
24.077
24.252
24.42
24.583
24.745
24.909
25.08
25.262
25.459
25.677
25.919
26.192
26.502
26.855
27.258
27.716
28.237
28.827
29.493
30.24
31.073
31.996
33.016
34.136
35.36
36.691
38.132
39.686
41.356
43.143
45.049
47.071
49.209
51.458
53.815
56.274
58.826
61.459
64.165
66.933
69.756
72.626
75.535
78.473
81.431
84.4
87.377
90.351
93.306
96.224
99.084
101.879
104.611
107.283
109.892
112.434
114.908
117.315
119.667
121.96
124.179
126.3
128.302
130.18
131.955
133.653
135.299
136.895
138.417
139.85
141.188
142.413
143.492
144.363
144.953
145.224
145.188
144.866
144.272
143.391
142.174
140.571
138.552
136.124
133.325
130.199
126.778
123.13
119.367
115.634
112.105
108.923
106.156
103.86
102.112
100.958
100.484
100.853
102.093
104.094
106.713
109.644
112.607
115.539
118.257
120.384
121.797
122.473
122.412
121.958
121.404
120.693
119.766
118.569
115.733
108.714
95.826
76.72
54.219
