Name,Criss Capps
Date of Birth,"Feb 5, 1952"
Recorded Date,2021-09-20 08:39:56 -0400
Classification,Sinus Rhythm
Symptoms,
Software Version,1.90
Device,"Watch5,4"
Sample Rate,512.844 hertz


Lead,Lead I
Unit,µV

-20.508
-21.324
-23.803
-27.633
-32.676
-38.672
-45.405
-52.723
-60.422
-68.327
-76.306
-84.213
-91.961
-99.494
-106.766
-113.728
-120.309
-126.477
-132.247
-137.667
-142.802
-147.675
-152.253
-156.516
-160.465
-164.094
-167.404
-170.321
-172.671
-174.313
-175.143
-175.076
-174.081
-172.105
-169.053
-164.841
-159.406
-152.713
-144.771
-135.585
-125.134
-113.426
-100.512
-86.524
-71.679
-56.169
-40.149
-23.766
-7.137
9.609
26.305
42.799
58.957
74.64
89.726
104.093
117.595
130.107
141.556
151.923
161.251
169.582
176.94
183.357
188.866
193.509
197.362
200.501
203.001
204.967
206.499
207.69
208.654
209.495
210.289
211.087
211.91
212.763
213.656
214.594
215.572
216.582
217.593
218.571
219.471
220.228
220.785
221.096
221.106
220.768
220.046
218.913
217.358
215.385
212.995
210.192
206.979
203.361
199.352
194.969
190.234
185.174
179.811
174.163
168.251
162.089
155.689
149.057
142.186
135.066
127.694
120.07
112.198
104.088
95.755
87.227
78.545
69.751
60.885
51.987
43.083
34.208
25.403
16.713
8.194
-0.105
-8.146
-15.897
-23.327
-30.423
-37.197
-43.709
-50.057
-56.344
-62.652
-69.038
-75.553
-82.268
-89.268
-96.639
-104.457
-112.756
-121.578
-131.021
-141.102
-151.707
-162.564
-173.142
-182.865
-191.296
-197.957
-202.315
-204.08
-203.217
-200.094
-195.736
-191.192
-187.169
-184.399
-183.543
-184.789
-187.814
-191.422
-193.147
-190.34
-180.797
-162.152
-132.099
-88.837
-31.11
39.409
117.521
198.101
275.728
349.19
422.163
492.526
555.897
601.415
608.669
568.371
477.307
338.67
174.91
5.865
-148.828
-266.245
-343.031
-382.283
-391.215
-385.07
-367.255
-337.71
-299.842
-257.748
-222.449
-202.841
-198.679
-203.342
-208.07
-208.131
-204.658
-202.194
-203.348
-207.497
-212.55
-215.801
-215.914
-212.722
-206.453
-197.892
-188.158
-178.466
-169.616
-161.904
-155.437
-150.335
-146.693
-144.519
-143.523
-143.115
-142.864
-142.54
-142.007
-141.21
-140.069
-138.483
-136.434
-133.997
-131.243
-128.219
-124.956
-121.45
-117.718
-113.805
-109.758
-105.631
-101.482
-97.362
-93.326
-89.43
-85.712
-82.199
-78.908
-75.843
-72.997
-70.358
-67.91
-65.632
-63.505
-61.512
-59.633
-57.844
-56.123
-54.447
-52.795
-51.146
-49.481
-47.782
-46.033
-44.221
-42.335
-40.366
-38.307
-36.152
-33.894
-31.529
-29.05
-26.455
-23.739
-20.901
-17.941
-14.858
-11.654
-8.334
-4.902
-1.368
2.262
5.978
9.768
13.621
17.523
21.46
25.418
29.38
33.331
37.253
41.13
44.943
48.676
52.31
55.828
59.214
62.451
65.523
68.415
71.113
73.603
75.872
77.909
79.702
81.24
82.517
83.522
84.25
84.696
84.855
84.725
84.305
83.595
82.597
81.314
79.75
77.911
75.803
73.434
70.815
67.954
64.864
61.557
58.047
54.346
50.469
46.432
42.249
37.937
33.51
28.986
24.379
19.707
14.984
10.228
5.454
0.676
-4.09
-8.829
-13.528
-18.172
-22.751
-27.25
-31.66
-35.969
-40.169
-44.251
-48.206
-52.029
-55.714
-59.256
-62.652
-65.9
-68.999
-71.948
-74.748
-77.401
-79.91
-82.276
-84.506
-86.602
-88.571
-90.419
-92.152
-93.778
-95.305
-96.739
-98.089
-99.362
-100.568
-101.712
-102.804
-103.85
-104.858
-105.835
-106.788
-107.723
-108.646
-109.565
-110.483
-111.405
-112.337
-113.281
-114.241
-115.218
-116.216
-117.233
-118.271
-119.33
-120.408
-121.503
-122.612
-123.732
-124.857
-125.98
-127.095
-128.193
-129.266
-130.306
-131.302
-132.247
-133.132
-133.949
-134.692
-135.352
-135.922
-136.392
-136.755
-136.999
-137.114
-137.089
-136.912
-136.573
-136.058
-135.358
-134.465
-133.368
-132.059
-130.526
-128.755
-126.736
-124.468
-121.95
-119.187
-116.191
-112.974
-109.559
-105.977
-102.258
-98.43
-94.515
-90.529
-86.487
-82.4
-78.283
-74.158
-70.028
-65.884
-61.711
-57.485
-53.178
-48.761
-44.19
-39.405
-34.36
-29.021
-23.373
-17.423
-11.189
-4.701
1.998
8.862
15.819
22.772
29.613
36.22
42.469
48.245
53.409
57.816
61.342
63.891
65.396
65.826
65.175
63.467
60.763
57.141
52.711
47.601
41.958
35.949
29.741
23.494
17.385
11.585
6.24
1.462
-2.657
-6.067
-8.743
-10.714
-12.084
-12.968
-13.506
-13.826
-14.038
-14.295
-14.764
-15.611
-16.989
-19.005
-21.684
-25.047
-29.183
-34.083
-39.592
-45.377
-50.868
-55.547
-59.095
-61.171
-61.245
-58.92
-54.074
-46.96
-38.378
-28.959
-19.022
-9.052
0.202
7.976
15.18
24.526
38.591
59.854
86.554
112.726
137.194
160.809
189.18
235.997
306.759
401.763
518.094
640.167
753.194
842.99
891.828
892.068
843.622
752.672
634.615
501.555
360.557
218.533
81.052
-40.283
-130.367
-181.91
-195.547
-181.596
-156.09
-129.326
-105.769
-85.705
-66.489
-48.029
-32.036
-20.147
-13.896
-12.699
-14.689
-17.635
-19.089
-17.909
-13.971
-7.577
0.48
9.429
18.638
27.296
34.615
40.235
44.085
46.328
47.332
47.388
46.734
45.645
44.363
43.097
42.026
41.28
40.955
41.127
41.847
43.138
45.01
47.443
50.392
53.795
57.569
61.642
65.947
70.421
75.009
79.647
84.262
88.786
93.156
97.325
101.266
104.958
108.387
111.554
114.466
117.141
119.605
121.878
123.972
125.902
127.68
129.32
130.842
132.264
133.601
134.869
136.083
137.254
138.396
139.518
140.629
141.734
142.84
143.952
145.078
146.227
147.404
148.616
149.87
151.168
152.517
153.919
155.375
156.886
158.452
160.071
161.742
163.464
165.231
167.042
168.89
170.77
172.676
174.599
176.532
178.465
180.387
182.29
184.16
185.986
187.757
189.461
191.084
192.614
194.04
195.349
196.529
197.567
198.454
199.178
199.729
200.098
200.275
200.252
200.021
199.577
198.911
198.02
196.898
195.542
193.947
192.113
190.037
187.72
185.161
182.364
179.329
176.063
172.569
168.854
164.924
160.789
156.456
151.937
147.242
142.384
137.374
132.225
126.953
121.571
116.093
110.535
104.912
99.238
93.531
87.804
82.074
76.356
70.665
65.017
59.427
53.91
48.479
43.148
37.932
32.841
27.889
23.086
18.443
13.968
9.67
5.556
1.632
-2.096
-5.625
-8.953
-12.079
-15.001
-17.722
-20.243
-22.567
-24.698
-26.641
-28.402
-29.987
-31.402
-32.657
-33.759
-34.717
-35.541
-36.241
-36.826
-37.308
-37.696
-38.002
-38.237
-38.412
-38.538
-38.626
-38.686
-38.729
-38.766
-38.805
-38.856
-38.927
-39.025
-39.157
-39.328
-39.543
-39.805
-40.116
-40.479
-40.893
-41.358
-41.872
-42.433
-43.038
-43.682
-44.36
-45.066
-45.793
-46.533
-47.28
-48.025
-48.759
-49.473
-50.158
-50.803
-51.399
-51.935
-52.4
-52.784
-53.075
-53.263
-53.338
-53.29
-53.11
-52.79
-52.323
-51.703
-50.925
-49.987
-48.884
-47.618
-46.188
-44.599
-42.852
-40.956
-38.916
-36.742
-34.447
-32.045
-29.548
-26.974
-24.338
-21.659
-18.954
-16.243
-13.543
-10.873
-8.253
-5.703
-3.245
-0.902
1.303
3.347
5.21
6.871
8.313
9.518
10.477
11.178
11.616
11.778
11.65
11.22
10.48
9.429
8.07
6.412
4.469
2.267
-0.161
-2.778
-5.551
-8.449
-11.451
-14.53
-17.658
-20.794
-23.887
-26.885
-29.74
-32.411
-34.864
-37.08
-39.062
-40.835
-42.454
-43.968
-45.409
-46.816
-48.231
-49.708
-51.321
-53.151
-55.261
-57.756
-60.779
-64.385
-68.549
-73.086
-77.603
-81.728
-85.127
-87.442
-88.338
-87.566
-85.014
-81.104
-76.747
-72.758
-69.899
-68.566
-68.704
-70.657
-74.743
-79.9
-84.381
-85.307
-78.371
-62.117
-36.7
-2.812
36.323
80.808
133.243
196.238
274.016
367.126
472.029
580.581
679.758
754.852
790.218
777.706
718.019
620.22
502.823
380.317
261.334
149.733
42.656
-58.715
-149.088
-223.329
-276.277
-306.888
-317.939
-312.598
-294.206
-266.987
-235.518
-204.314
-176.922
-155.015
-138.837
-128.416
-123.945
-124.564
-128.386
-133.023
-136.227
-136.956
-135.178
-130.852
-123.634
-113.646
-101.591
-88.712
-76.574
-66.071
-57.417
-50.759
-46.284
-44.065
-44.05
-45.86
-48.769
-52.28
-56.138
-60.124
-64.129
-68.004
-71.515
-74.543
-77.07
-79.042
-80.428
-81.201
-81.282
-80.655
-79.352
-77.409
-74.913
-71.957
-68.613
-64.973
-61.123
-57.146
-53.152
-49.227
-45.428
-41.81
-38.401
-35.214
-32.271
-29.577
-27.114
-24.869
-22.812
-20.909
-19.14
-17.475
-15.881
-14.323
-12.755
-11.14
-9.454
-7.678
-5.796
-3.799
-1.677
0.573
2.946
5.44
8.051
10.775
13.612
16.561
19.614
22.761
25.994
29.301
32.673
36.101
39.574
43.081
46.61
50.152
53.696
57.231
60.744
64.219
67.641
70.993
74.261
77.427
80.475
83.39
86.155
88.758
91.185
93.423
95.461
97.288
98.893
100.267
101.402
102.291
102.928
103.307
103.426
103.282
102.874
102.203
101.271
100.079
98.632
96.936
94.996
92.82
90.417
87.796
84.969
81.947
78.744
75.373
71.85
68.189
64.407
60.52
56.545
52.499
48.398
44.26
40.101
35.939
31.791
27.671
23.598
19.586
15.652
11.808
8.071
4.452
0.966
-2.378
-5.566
-8.588
-11.436
-14.099
-16.571
-18.842
-20.908
-22.764
-24.404
-25.827
-27.029
-28.01
-28.77
-29.311
-29.634
-29.743
-29.642
-29.337
-28.833
-28.138
-27.259
-26.206
-24.986
-23.61
-22.087
-20.427
-18.64
-16.738
-14.73
-12.628
-10.441
-8.182
-5.861
-3.489
-1.079
1.358
3.812
6.269
8.72
11.152
13.556
15.92
18.236
20.493
22.684
24.8
26.834
28.781
30.636
32.396
34.06
35.628
37.1
38.477
39.761
40.955
42.06
43.08
44.015
44.868
45.642
46.342
46.973
47.543
48.059
48.532
48.972
49.39
49.8
50.215
50.644
51.101
51.598
52.15
52.779
53.499
54.321
55.249
56.287
57.432
58.681
60.019
61.422
62.871
64.344
65.828
67.316
68.802
70.282
71.75
73.196
74.626
76.058
77.518
79.04
80.662
82.423
84.376
86.591
89.126
92.021
95.301
98.967
103.01
107.406
112.125
117.127
122.349
127.709
133.107
138.427
143.554
148.37
152.746
156.544
159.645
161.953
163.406
163.98
163.675
162.525
160.58
157.896
154.562
150.677
146.363
141.777
137.065
132.371
127.847
123.638
119.871
116.669
114.101
112.175
110.872
110.12
109.851
110.026
110.568
111.375
112.322
113.237
113.975
114.433
114.456
113.853
112.528
110.489
107.935
105.307
103.034
101.445
100.9
101.811
104.368
108.417
113.379
118.191
121.838
123.784
123.628
120.906
115.668
108.726
101.589
96.656
96.383
102.396
116.203
139.466
172.927
216.509
269.409
329.402
393.835
459.333
520.766
573.168
613.403
641.889
661.526
672.628
671.196
647.853
592.568
502.454
380.905
238.453
89.494
-53.087
-175.786
-268.999
-329.546
-360.257
-371.122
-371.741
-367.24
-358.537
-342.64
-318.653
-288.895
-256.541
-225.698
-198.932
-177.364
-161.982
-152.46
-147.78
-146.917
-148.733
-152.342
-156.811
-160.567
-162.021
-160.395
-155.562
-147.926
-138.164
-126.822
-114.627
-102.754
-92.224
-83.611
-77.156
-72.687
-69.896
-68.566
-68.364
-68.821
-69.608
-70.526
-71.474
-72.49
-73.567
-74.608
-75.535
-76.273
-76.745
-76.906
-76.71
-76.118
-75.133
-73.788
-72.131
-70.209
-68.048
-65.664
-63.075
-60.298
-57.378
-54.38
-51.378
-48.463
-45.71
-43.162
-40.851
-38.788
-36.966
-35.37
-33.972
-32.736
-31.635
-30.649
-29.763
-28.966
-28.237
-27.546
-26.856
-26.124
-25.314
-24.401
-23.365
-22.191
-20.873
-19.409
-17.803
-16.067
-14.21
-12.237
-10.153
-7.958
-5.658
-3.26
-0.774
1.788
4.416
7.097
9.819
12.568
15.332
18.097
20.854
23.591
26.297
28.96
31.565
34.098
36.546
38.896
41.133
43.245
45.219
47.043
48.706
50.2
51.514
52.64
53.57
54.296
54.814
55.115
55.196
55.052
54.679
54.075
53.236
52.163
50.854
49.313
47.539
45.537
43.311
40.866
38.208
35.344
32.283
29.031
25.6
22
18.241
14.335
10.293
6.129
1.856
-2.515
-6.969
-11.493
-16.073
-20.694
-25.344
-30.006
-34.667
-39.312
-43.926
-48.494
-53.002
-57.435
-61.78
-66.023
-70.151
-74.152
-78.014
-81.727
-85.28
-88.665
-91.873
-94.898
-97.734
-100.376
-102.822
-105.068
-107.114
-108.957
-110.6
-112.043
-113.289
-114.34
-115.202
-115.877
-116.374
-116.698
-116.857
-116.86
-116.716
-116.435
-116.027
-115.504
-114.877
-114.159
-113.361
-112.497
-111.58
-110.622
-109.637
-108.636
-107.632
-106.637
-105.661
-104.713
-103.804
-102.941
-102.131
-101.382
-100.698
-100.085
-99.547
-99.088
-98.709
-98.412
-98.197
-98.063
-98.01
-98.033
-98.129
-98.293
-98.521
-98.805
-99.139
-99.515
-99.923
-100.356
-100.801
-101.25
-101.689
-102.107
-102.493
-102.835
-103.12
-103.339
-103.479
-103.532
-103.489
-103.34
-103.079
-102.697
-102.19
-101.552
-100.778
-99.866
-98.815
-97.623
-96.293
-94.826
-93.228
-91.503
-89.66
-87.707
-85.655
-83.513
-81.295
-79.014
-76.685
-74.322
-71.942
-69.56
-67.194
-64.862
-62.584
-60.378
-58.264
-56.26
-54.387
-52.663
-51.105
-49.729
-48.546
-47.565
-46.797
-46.253
-45.948
-45.893
-46.094
-46.554
-47.273
-48.248
-49.47
-50.916
-52.55
-54.331
-56.226
-58.203
-60.243
-62.321
-64.411
-66.474
-68.468
-70.357
-72.11
-73.706
-75.119
-76.33
-77.339
-78.187
-78.967
-79.776
-80.699
-81.792
-83.074
-84.59
-86.413
-88.625
-91.308
-94.531
-98.307
-102.679
-107.772
-113.568
-119.909
-126.46
-132.59
-137.739
-141.585
-143.718
-143.685
-141.415
-137.01
-130.986
-124.594
-118.714
-113.738
-110.271
-108.675
-108.595
-109.453
-109.796
-106.94
-98.911
-84.272
-61.054
-27.718
16.589
72.615
138.195
207.837
277.263
342.343
402.642
463.025
523.198
577.85
615.134
616.301
571.26
481.341
355.395
209.505
58.476
-87.914
-217.768
-317.274
-379.552
-403.599
-396.601
-374.804
-346.582
-312.901
-274.042
-228.4
-183.649
-152.556
-141.929
-152.072
-172.906
-191.381
-200.007
-197.428
-188.745
-178.946
-169.282
-158.929
-145.943
-130.149
-113.494
-97.755
-83.961
-72.41
-62.968
-55.731
-50.854
-48.064
-46.746
-46.347
-46.519
-47.101
-47.998
-48.977
-49.77
-50.24
-50.357
-50.125
-49.535
-48.514
-46.96
-44.838
-42.159
-38.961
-35.305
-31.231
-26.81
-22.143
-17.369
-12.642
-8.079
-3.75
0.299
4.039
7.442
10.482
13.139
15.422
17.343
18.914
20.152
21.068
21.687
22.056
22.231
22.278
22.249
22.18
22.101
22.036
22.008
22.039
22.142
22.322
22.586
22.946
23.415
24.008
24.736
25.601
26.606
27.748
29.027
30.441
31.989
33.666
35.468
37.389
39.427
41.577
43.833
46.185
48.622
51.131
53.695
56.301
58.93
61.566
64.19
66.784
69.33
71.812
74.211
76.512
78.697
80.75
82.655
84.398
85.962
87.335
88.502
89.452
90.174
90.659
90.898
90.884
90.614
90.084
89.29
88.232
86.91
85.325
83.481
81.382
79.034
76.443
73.618
70.571
67.313
63.856
60.21
56.39
52.408
48.28
44.026
39.656
35.182
30.63
26.025
21.392
16.758
12.133
7.515
2.939
-1.565
-6.013
-10.416
-14.78
-19.121
-23.398
-27.539
-31.563
-35.511
-39.226
-42.526
-45.503
-48.137
-50.388
-52.616
-53.826
-53.05
-51.659
-50.069
-50.802
-56.883
-64.964
-72.817
-77.124
-73.327
-65.466
-56.969
-50.189
-49.007
-50.665
-52.367
-53.502
-52.373
-49.987
-47.634
-45.087
-42.525
-39.878
-36.904
-33.789
-30.688
-27.571
-24.448
-21.352
-18.295
-15.285
-12.332
-9.427
-6.555
-3.743
-1.015
1.621
4.15
6.563
8.851
11.002
13.004
14.852
16.545
18.079
19.452
20.664
21.717
22.615
23.36
23.959
24.414
24.733
24.924
24.994
24.952
24.808
24.573
24.26
23.886
23.467
23.019
22.555
22.089
21.637
21.212
20.831
20.504
20.242
20.057
19.961
19.977
20.123
20.411
20.842
21.409
22.108
22.935
23.887
24.95
26.106
27.342
28.657
30.062
31.574
33.191
34.9
36.672
38.48
40.31
42.166
44.055
45.974
47.917
49.881
51.887
53.961
56.104
58.279
60.413
62.432
64.294
65.977
67.476
68.779
69.854
70.653
71.135
71.279
71.062
70.447
69.378
67.794
65.688
63.12
60.195
57.012
53.642
50.124
46.494
42.807
39.134
35.553
32.131
28.912
25.943
23.294
21.032
19.204
17.792
16.697
15.789
14.974
14.172
13.311
12.308
11.045
9.403
7.295
4.612
1.205
-2.984
-7.899
-13.319
-18.791
-23.813
-27.959
-30.764
-31.673
-30.422
-27.162
-22.462
-17.46
-13.301
-10.611
-9.877
-11.664
-15.998
-22.078
-28.304
-31.953
-30.025
-20.413
-1.279
29.456
73.359
131.001
201.725
282.065
366.447
450.161
529.297
602.664
671.139
732.294
779.089
799.515
781.412
720.953
625.856
511.42
392.508
277.394
165.429
56.452
-43.46
-125.674
-178.858
-199.641
-195.732
-175.49
-148.69
-121.386
-93.022
-64.863
-38.661
-15.939
-0.08
6.992
5.506
-3.208
-16.631
-31.666
-45.757
-57.535
-66.128
-70.701
-71.05
-67.503
-60.813
-52.536
-44.318
-37.006
-31.117
-27.07
-24.954
-24.791
-26.525
-29.711
-33.74
-38.248
-42.992
-47.797
-52.631
-57.416
-62.011
-66.349
-70.421
-74.203
-77.69
-80.873
-83.69
-86.095
-88.054
-89.523
-90.502
-91.016
-91.083
-90.734
-90.009
-88.949
-87.624
-86.137
-84.553
-82.912
-81.237
-79.523
-77.782
-76.039
-74.308
-72.601
-70.923
-69.269
-67.643
-66.051
-64.49
-62.946
-61.393
-59.788
-58.103
-56.328
-54.453
-52.482
-50.415
-48.252
-45.997
-43.665
-41.264
-38.804
-36.29
-33.724
-31.11
-28.463
-25.793
-23.119
-20.455
-17.812
-15.203
-12.64
-10.132
-7.69
-5.319
-3.025
-0.813
1.308
3.331
5.248
7.049
8.728
10.276
11.687
12.952
14.069
15.031
15.839
16.488
16.98
17.313
17.488
17.507
17.371
17.084
16.647
16.064
15.339
14.477
13.483
12.361
11.117
9.758
8.288
6.713
5.04
3.273
1.418
-0.519
-2.533
-4.617
-6.765
-8.971
-11.227
-13.528
-15.865
-18.233
-20.625
-23.034
-25.455
-27.883
-30.312
-32.737
-35.155
-37.56
-39.949
-42.319
-44.664
-46.982
-49.268
-51.521
-53.736
-55.91
-58.041
-60.124
-62.156
-64.135
-66.057
-67.918
-69.714
-71.442
-73.098
-74.679
-76.182
-77.603
-78.941
-80.192
-81.356
-82.431
-83.416
-84.309
-85.111
-85.82
-86.437
-86.961
-87.391
-87.727
-87.971
-88.122
-88.182
-88.152
-88.033
-87.828
-87.54
-87.172
-86.725
-86.205
-85.614
-84.956
-84.236
-83.458
-82.628
-81.751
-80.832
-79.879
-78.897
-77.894
-76.875
-75.847
-74.815
-73.784
-72.761
-71.749
-70.754
-69.781
-68.833
-67.917
-67.037
-66.197
-65.401
-64.651
-63.949
-63.297
-62.695
-62.141
-61.632
-61.166
-60.741
-60.352
-59.998
-59.676
-59.382
-59.113
-58.868
-58.644
-58.435
-58.234
-58.033
-57.821
-57.59
-57.329
-57.029
-56.676
-56.26
-55.774
-55.214
-54.574
-53.848
-53.023
-52.083
-51.019
-49.829
-48.515
-47.079
-45.529
-43.878
-42.151
-40.389
-38.632
-36.905
-35.218
-33.569
-31.958
-30.389
-28.862
-27.381
-25.93
-24.489
-23.045
-21.596
-20.132
-18.631
-17.042
-15.288
-13.305
-11.065
-8.567
-5.838
-2.901
0.204
3.424
6.675
9.849
12.85
15.608
18.075
20.206
21.937
23.181
23.836
23.831
23.138
21.755
19.704
17.014
13.74
9.978
5.875
1.597
-2.717
-6.965
-11.074
-14.985
-18.629
-21.947
-24.909
-27.526
-29.838
-31.895
-33.727
-35.366
-36.877
-38.375
-40.015
-41.956
-44.32
-47.158
-50.519
-54.501
-59.062
-64.021
-69.04
-73.541
-76.987
-79.049
-79.306
-77.272
-72.841
-66.071
-57.37
-47.824
-38.227
-28.976
-20.718
-13.895
-8.266
-3.377
2.017
10.316
23.34
42.493
69.682
106.366
153.362
211.323
278.118
348.478
417.983
482.054
539.992
596.707
652.353
703.607
740.199
741.992
697.624
604.745
469.067
311.678
151.738
3.204
-118.654
-207.043
-259.718
-274.279
-256.881
-219.231
-173.265
-134.604
-114.406
-113.937
-128.894
-148.128
-161.371
-165.294
-161.074
-154.402
-149.309
-145.783
-142.491
-136.927
-128.137
-117.07
-104.788
-92.384
-80.69
-70.184
-61.188
-53.923
-48.408
-44.479
-42.015
-40.937
-41.111
-42.418
-44.716
-47.786
-51.442
-55.522
-59.809
-64.113
-68.27
-72.073
-75.381
-78.095
-80.104
-81.357
-81.837
-81.516
-80.407
-78.537
-75.94
-72.691
-68.885
-64.609
-59.972
-55.076
-50.014
-44.907
-39.842
-34.883
-30.093
-25.503
-21.133
-17.005
-13.127
-9.487
-6.081
-2.892
0.109
2.938
5.627
8.208
10.712
13.18
15.643
18.124
20.649
23.229
25.858
28.552
31.335
34.218
37.219
40.336
43.533
46.809
50.196
53.66
57.121
60.513
63.761
66.857
69.893
72.884
75.72
78.514
81.633
85.131
88.9
92.981
96.937
101.595
109.245
119.21
129.43
136.255
133.076
120.748
105.76
94.741
97.087
112.748
132.951
150.955
159.287
157.139
151.092
145.022
141.763
141.948
142.868
143.412
143.639
143.473
143.33
143.282
142.97
142.299
141.332
140.061
138.475
136.593
134.438
132.052
129.503
126.818
123.976
120.979
117.841
114.572
111.185
107.69
104.091
100.398
96.628
92.794
88.912
84.993
81.05
77.095
73.139
69.196
65.274
61.385
57.54
53.746
50.013
46.35
42.764
39.262
35.852
32.54
29.33
26.229
23.24
20.368
17.616
14.987
12.484
10.107
7.859
5.741
3.751
1.89
0.155
-1.456
-2.946
-4.319
-5.58
-6.734
-7.787
-8.743
-9.611
-10.394
-11.101
-11.738
-12.31
-12.825
-13.289
-13.71
-14.093
-14.446
-14.774
-15.083
-15.379
-15.669
-15.957
-16.249
-16.55
-16.866
-17.201
-17.561
-17.951
-18.373
-18.832
-19.329
-19.868
-20.45
-21.075
-21.743
-22.454
-23.204
-23.994
-24.819
-25.677
-26.564
-27.475
-28.404
-29.347
-30.298
-31.249
-32.193
-33.124
-34.034
-34.917
-35.764
-36.568
-37.323
-38.02
-38.652
-39.212
-39.691
-40.082
-40.377
-40.569
-40.652
-40.619
-40.465
-40.186
-39.777
-39.235
-38.558
-37.745
-36.795
-35.709
-34.487
-33.134
-31.653
-30.049
-28.329
-26.501
-24.575
-22.561
-20.474
-18.326
-16.132
-13.907
-11.665
-9.423
-7.197
-5.001
-2.848
-0.753
1.268
3.2
5.024
6.725
8.287
9.695
10.936
11.996
12.864
13.534
14.004
14.267
14.317
14.137
13.713
13.041
12.12
10.95
9.544
7.916
6.094
4.123
2.049
-0.082
-2.23
-4.369
-6.471
-8.496
-10.4
-12.125
-13.618
-14.85
-15.802
-16.445
-16.78
-16.843
-16.694
-16.453
-16.233
-16.111
-16.171
-16.501
-17.19
-18.355
-20.107
-22.518
-25.693
-29.743
-34.682
-40.433
-46.756
-53.194
-59.266
-64.545
-68.546
-70.726
-70.77
-68.685
-64.845
-60.113
-55.371
-51.102
-47.762
-45.978
-45.938
-47.154
-48.469
-47.739
-42.523
-31.09
-11.826
17.336
57.959
110.76
175.783
250.033
328.072
405.691
477.951
543.281
604.911
660.746
707.038
735.314
728.465
678.811
584.538
447.959
286.726
118.089
-40.851
-166.859
-248.992
-287.437
-287.753
-266.889
-239.649
-208.997
-178.375
-149.286
-121.63
-104.742
-101.577
-108.779
-124.974
-139.409
-146.406
-146.405
-136.533
-122.547
-108.817
-95.774
-86.993
-80.568
-74.272
-68.582
-62.519
-57.037
-53.357
-51.125
-50.185
-50.179
-50.628
-51.469
-52.658
-54.012
-55.366
-56.574
-57.508
-58.071
-58.206
-57.86
-56.993
-55.628
-53.81
-51.595
-49.06
-46.272
-43.294
-40.186
-37.003
-33.81
-30.677
-27.674
-24.866
-22.299
-20
-17.986
-16.266
-14.833
-13.676
-12.771
-12.086
-11.598
-11.288
-11.137
-11.127
-11.238
-11.447
-11.73
-12.066
-12.434
-12.818
-13.201
-13.566
-13.901
-14.195
-14.439
-14.626
-14.745
-14.786
-14.74
-14.596
-14.345
-13.98
-13.493
-12.878
-12.131
-11.249
-10.231
-9.077
-7.789
-6.37
-4.823
-3.153
-1.366
0.529
2.525
4.612
6.779
9.015
11.307
13.643
16.01
18.393
20.778
23.153
25.501
27.81
30.065
32.252
34.358
36.368
38.269
40.049
41.694
43.192
44.532
45.702
46.692
47.492
48.095
48.491
48.674
48.639
48.38
47.894
47.179
46.233
45.057
43.651
42.018
40.162
38.087
35.8
33.306
30.614
27.731
24.666
21.428
18.029
14.478
10.786
6.966
3.03
-1.009
-5.139
-9.345
-13.614
-17.93
-22.281
-26.649
-31.02
-35.379
-39.709
-43.996
-48.223
-52.375
-56.439
-60.4
-64.246
-67.963
-71.54
-74.968
-78.237
-81.337
-84.261
-87.003
-89.556
-91.916
-94.077
-96.037
-97.793
-99.343
-100.687
-101.823
-102.753
-103.478
-104
-104.322
-104.447
-104.382
-104.131
-103.703
-103.105
-102.347
-101.439
-100.391
-99.216
-97.925
-96.53
-95.043
-93.477
-91.843
-90.154
-88.421
-86.656
-84.871
-83.077
-81.284
-79.503
-77.744
-76.017
-74.33
-72.693
-71.114
-69.6
-68.16
-66.799
-65.525
-64.344
-63.259
-62.277
-61.399
-60.626
-59.958
-59.392
-58.926
-58.555
-58.274
-58.077
-57.959
-57.912
-57.93
-58.008
-58.138
-58.313
-58.525
-58.763
-59.016
-59.272
-59.519
-59.743
-59.931
-60.069
-60.142
-60.141
-60.055
-59.872
-59.579
-59.157
-58.592
-57.878
-57.008
-55.983
-54.806
-53.484
-52.03
-50.472
-48.834
-47.142
-45.417
-43.664
-41.885
-40.086
-38.273
-36.458
-34.639
-32.798
-30.909
-28.952
-26.906
-24.747
-22.443
-19.927
-17.144
-14.057
-10.636
-6.895
-2.86
1.444
5.978
10.688
15.502
20.309
24.982
29.429
33.557
37.274
40.479
43.026
44.783
45.662
45.594
44.55
42.533
39.549
35.637
30.895
25.439
19.422
13.024
6.367
-0.427
-7.226
-13.9
-20.277
-26.197
-31.561
-36.286
-40.302
-43.576
-46.099
-47.917
-49.165
-49.991
-50.533
-50.928
-51.278
-51.698
-52.33
-53.311
-54.79
-56.866
-59.618
-63.191
-67.613
-72.76
-78.348
-83.791
-88.464
-91.95
-93.753
-93.306
-90.517
-85.536
-78.929
-72.068
-66.023
-61.353
-58.876
-59.181
-61.901
-66.257
-70.483
-71.364
-66.355
-53.532
-30.391
5.159
54.104
116.674
190.188
268.905
348.001
423.623
494.562
561.451
621.186
667.016
687.794
671.942
615.526
521.026
396.922
257.078
113.6
-20.794
-131.499
-210.495
-255.9
-273.242
-274.922
-270.244
-261.668
-247.381
-226.844
-202.104
-179.822
-167.552
-164.511
-167.985
-173.975
-176.967
-177.893
-177.75
-175.874
-173.306
-169.001
-162.155
-153.791
-144.445
-134.809
-125.813
-117.891
-111.231
-105.981
-102.073
-99.274
-97.455
-96.554
-96.47
-97.116
-98.401
-100.185
-102.353
-104.816
-107.487
-110.295
-113.16
-115.993
-118.714
-121.239
-123.508
-125.485
-127.118
-128.344
-129.114
-129.396
-129.186
-128.516
-127.421
-125.94
-124.108
-121.953
-119.515
-116.844
-113.994
-111.029
-107.998
-104.927
-101.852
-98.811
-95.832
-92.94
-90.141
-87.421
-84.77
-82.179
-79.636
-77.134
-74.654
-72.174
-69.667
-67.103
-64.461
-61.728
-58.892
-55.942
-52.873
-49.682
-46.373
-42.959
-39.45
-35.854
-32.178
-28.431
-24.623
-20.769
-16.883
-12.978
-9.068
-5.164
-1.28
2.575
6.391
10.157
13.866
17.512
21.088
24.585
27.995
31.309
34.519
37.618
40.598
43.452
46.174
48.76
51.206
53.509
55.667
57.679
59.545
61.264
62.839
64.27
65.561
66.717
67.741
68.64
69.419
70.085
70.645
71.106
71.475
71.76
71.966
72.103
72.176
72.195
72.165
72.097
71.996
71.87
71.728
71.575
71.419
71.266
71.124
70.997
70.892
70.812
70.764
70.751
70.778
70.846
70.959
71.119
71.327
71.583
71.888
72.242
72.644
73.092
73.587
74.125
74.705
75.326
75.985
76.679
77.407
78.165
78.951
79.761
80.593
81.443
82.308
83.186
84.072
84.964
85.858
86.75
87.639
88.519
89.388
90.243
91.081
91.9
92.696
93.468
94.215
94.933
95.621
96.277
96.899
97.486
98.034
98.542
99.009
99.433
99.811
100.142
100.424
100.656
100.836
100.964
101.036
101.052
101.009
100.907
100.744
100.519
100.231
99.879
99.462
98.979
98.431
97.818
97.139
96.394
95.584
94.708
93.768
92.766
91.703
90.582
89.408
88.185
86.919
85.617
84.288
82.938
81.572
80.195
78.808
77.416
76.026
74.644
73.277
71.935
70.628
69.371
68.181
67.071
66.055
65.14
64.329
63.63
63.057
62.631
62.377
62.309
62.437
62.768
63.307
64.054
64.998
66.114
67.357
68.691
70.088
71.535
73.041
74.604
76.196
77.771
79.272
80.676
82.01
83.323
84.639
85.973
87.315
88.719
90.35
92.287
94.458
96.63
98.503
99.97
101.224
102.516
103.881
105.366
107.186
109.868
114.115
120.154
127.465
135.133
142.48
149.007
154.148
157.016
156.49
152.025
144.072
133.755
121.999
109.406
96.529
84.102
73.147
64.359
57.651
52.347
47.915
44.128
40.912
38.192
35.611
32.809
29.776
26.781
24.073
21.731
19.636
17.546
15.33
12.926
10.257
7.181
3.443
-1.102
-6.373
-12.051
-17.537
-22.211
-25.649
-27.424
-27.01
-24.142
-18.912
-11.914
-4.521
1.832
6.165
7.616
5.46
-0.404
-9.303
-19.484
-27.845
-31.055
-26.09
-10
19.839
65.596
127.245
201.513
283.764
368.658
452.842
537.752
623.121
703.571
770.479
808.229
801.233
745.213
640.977
495.915
328.817
156.277
-2.742
-125.316
-203.381
-238.264
-239.836
-227.136
-211.146
-193.739
-172.614
-145.802
-115.261
-87.947
-71.793
-67.144
-72.123
-82.655
-92.329
-100.518
-107.106
-111.432
-114.62
-115.244
-111.887
-105.102
-95.671
-85.338
-75.878
-67.872
-61.477
-56.798
-53.902
-52.815
-53.304
-54.81
-56.793
-58.956
-61.158
-63.334
-65.373
-67.097
-68.401
-69.273
-69.738
-69.823
-69.537
-68.866
-67.822
-66.454
-64.821
-62.988
-61.01
-58.932
-56.807
-54.692
-52.647
-50.729
-48.979
-47.419
-46.062
-44.91
-43.952
-43.178
-42.568
-42.094
-41.731
-41.455
-41.241
-41.072
-40.927
-40.785
-40.626
-40.427
-40.172
-39.845
-39.433
-38.923
-38.307
-37.576
-36.725
-35.751
-34.65
-33.418
-32.053
-30.554
-28.918
-27.147
-25.243
-23.209
-21.05
-18.772
-16.384
-13.895
-11.315
-8.655
-5.928
-3.145
-0.321
2.531
5.397
8.26
11.108
13.923
16.69
19.394
22.02
24.55
26.972
29.268
31.426
33.432
35.273
36.935
38.41
39.685
40.752
41.603
42.23
42.628
42.792
42.718
42.404
41.847
41.048
40.007
38.726
37.207
35.454
33.471
31.264
28.838
26.201
23.36
20.323
17.1
13.701
10.135
6.413
2.548
-1.449
-5.565
-9.789
-14.106
-18.504
-22.97
-27.491
-32.055
-36.647
-41.257
-45.871
-50.477
-55.064
-59.618
-64.13
-68.586
-72.977
-77.291
-81.517
-85.647
-89.67
-93.576
-97.358
-101.008
-104.516
-107.877
-111.084
-114.132
-117.014
-119.728
-122.268
-124.633
-126.821
-128.83
-130.659
-132.309
-133.78
-135.072
-136.188
-137.13
-137.9
-138.502
-138.939
-139.215
-139.336
-139.307
-139.133
-138.822
-138.38
-137.813
-137.131
-136.34
-135.449
-134.467
-133.402
-132.265
-131.064
-129.809
-128.51
-127.176
-125.817
-124.442
-123.061
-121.681
-120.313
-118.964
-117.642
-116.357
-115.115
-113.924
-112.792
-111.724
-110.726
-109.805
-108.965
-108.211
-107.545
-106.971
-106.491
-106.107
-105.82
-105.63
-105.537
-105.538
-105.633
-105.817
-106.088
-106.439
-106.866
-107.362
-107.921
-108.534
-109.194
-109.893
-110.622
-111.372
-112.134
-112.897
-113.651
-114.387
-115.093
-115.76
-116.376
-116.933
-117.42
-117.828
-118.15
-118.377
-118.501
-118.518
-118.419
-118.202
-117.861
-117.394
-116.8
-116.077
-115.227
-114.253
-113.159
-111.952
-110.638
-109.227
-107.73
-106.157
-104.522
-102.839
-101.121
-99.386
-97.647
-95.922
-94.227
-92.578
-90.993
-89.491
-88.088
-86.802
-85.651
-84.651
-83.819
-83.17
-82.716
-82.464
-82.423
-82.599
-83.001
-83.639
-84.52
-85.646
-87.014
-88.623
-90.461
-92.514
-94.755
-97.141
-99.628
-102.178
-104.756
-107.333
-109.881
-112.363
-114.735
-116.955
-118.975
-120.762
-122.288
-123.519
-124.441
-125.058
-125.411
-125.593
-125.696
-125.799
-125.965
-126.23
-126.641
-127.281
-128.233
-129.568
-131.366
-133.663
-136.504
-140.018
-144.166
-148.751
-153.428
-157.613
-160.77
-162.572
-162.609
-160.391
-155.838
-149.117
-140.793
-132.048
-123.7
-116.177
-110.017
-105.498
-102.513
-100.697
-98.454
-93.486
-83.176
-63.758
-33.577
7.521
58.075
111.351
163.872
217.541
275.1
346.354
436.924
537.103
632.945
702.138
721.384
686.459
602.409
482.336
345.424
200.865
54.138
-87.774
-215.661
-315.554
-377.719
-401.415
-395.873
-375.942
-351.117
-325.183
-297.561
-265.138
-229.168
-193.488
-161.387
-136.317
-119.802
-111.196
-108.984
-110.91
-114.337
-117.104
-118.196
-116.99
-112.761
-105.342
-95.087
-82.735
-69.756
-57.701
-47.29
-38.894
-32.839
-29.089
-27.523
-27.91
-29.565
-31.68
-33.757
-35.497
-36.752
-37.547
-37.837
-37.533
-36.643
-35.193
-33.214
-30.75
-27.798
-24.343
-20.423
-16.121
-11.573
-6.957
-2.415
1.967
6.135
10.068
13.741
17.126
20.206
22.977
25.451
27.637
29.538
31.155
32.502
33.614
34.547
35.377
36.162
36.941
37.746
38.598
39.516
40.519
41.618
42.814
44.109
45.51
47.028
48.676
50.464
52.394
54.464
56.671
59.009
61.478
64.071
66.784
69.612
72.547
75.587
78.728
81.965
85.289
88.69
92.156
95.675
99.234
102.819
106.414
110.005
113.576
117.113
120.602
124.03
127.384
130.65
133.816
136.87
139.802
142.599
145.252
147.75
150.084
152.245
154.225
156.017
157.615
159.012
160.206
161.192
161.967
162.53
162.878
163.012
162.931
162.637
162.131
161.416
160.496
159.375
158.058
156.552
154.862
152.995
150.958
148.757
146.4
143.894
141.247
138.467
135.561
132.539
129.408
126.179
122.86
119.462
115.993
112.464
108.885
105.266
101.617
97.948
94.269
90.59
86.922
83.274
79.656
76.077
72.547
69.073
65.665
62.331
59.078
55.912
52.841
49.871
47.007
44.255
41.62
39.107
36.72
34.462
32.337
30.347
28.494
26.78
25.204
23.767
22.468
21.305
20.277
19.381
18.614
17.973
17.454
17.052
16.763
16.58
16.499
16.514
16.617
16.803
17.065
17.396
17.79
18.24
18.74
19.282
19.86
20.467
21.096
21.742
22.397
23.055
23.71
24.356
24.989
25.602
26.193
26.756
27.289
27.788
28.251
28.675
29.06
29.403
29.705
29.965
30.184
30.363
30.504
30.61
30.683
30.726
30.744
30.741
30.721
30.688
30.648
30.606
30.568
30.538
30.524
30.531
30.565
30.633
30.741
30.896
31.103
31.368
31.696
32.092
32.562
33.109
33.737
34.449
35.248
36.136
37.113
38.18
39.335
40.577
41.901
43.303
44.776
46.313
47.906
49.544
51.216
52.91
54.615
56.317
58.002
59.658
61.272
62.829
64.317
65.72
67.024
68.213
69.273
70.187
70.943
71.525
71.923
72.13
72.14
71.947
71.543
70.917
70.06
68.968
67.636
66.065
64.259
62.225
59.986
57.579
55.036
52.391
49.67
46.89
44.074
41.249
38.448
35.713
33.079
30.572
28.219
26.046
24.073
22.299
20.672
19.108
17.528
15.87
14.112
12.24
10.194
7.896
5.26
2.194
-1.34
-5.403
-10.148
-15.635
-21.779
-28.313
-34.651
-40.166
-44.426
-46.972
-47.278
-45.144
-40.701
-34.594
-28.255
-23.126
-20.185
-20.352
-24.397
-32.368
-43.469
-55.754
-65.924
-70.578
-66.608
-50.889
-20.62
26.336
89.242
164.153
246.421
330.743
415.466
502.766
589.295
668
726.062
744.344
714.327
637.799
525.911
400.142
275.656
159.933
55.359
-41.071
-128.443
-202.476
-259.353
-295.829
-312.439
-312.179
-297.647
-272.602
-241.391
-208.135
-177.128
-151.127
-130.943
-117.107
-110.227
-109.792
-114.477
-122.2
-130.118
-136.553
-141.085
-143.23
-142.446
-138.655
-132.093
-123.704
-115.141
-107.361
-100.633
-95.184
-91.112
-88.442
-87.201
-87.054
-87.296
-87.466
-87.352
-86.867
-86.127
-85.223
-84.157
-82.989
-81.839
-80.776
-79.854
-79.067
-78.315
-77.541
-76.73
-75.891
-75.076
-74.339
-73.693
-73.133
-72.622
-72.094
-71.504
-70.818
-69.995
-69.017
-67.876
-66.591
-65.227
-63.842
-62.466
-61.114
-59.777
-58.44
-57.101
-55.76
-54.416
-53.079
-51.756
-50.451
-49.176
-47.928
-46.694
-45.45
-44.153
-42.762
-41.249
-39.595
-37.786
-35.817
-33.681
-31.376
-28.911
-26.288
-23.513
-20.586
-17.508
-14.283
-10.918
-7.425
-3.819
-0.115
3.672
7.528
11.439
15.391
19.371
23.368
27.372
31.371
35.353
39.304
43.208
47.051
50.817
54.49
58.054
61.493
64.793
67.939
70.919
73.721
76.332
78.742
80.942
82.922
84.677
86.199
87.482
88.523
89.317
89.863
90.158
90.202
89.996
89.541
88.84
87.894
86.709
85.288
83.637
81.762
79.669
77.368
74.866
72.173
69.3
66.258
63.06
59.718
56.245
52.655
48.961
45.177
41.317
37.394
33.421
29.413
25.383
21.343
17.306
13.285
9.291
5.337
1.433
-2.41
-6.181
-9.871
-13.471
-16.971
-20.364
-23.642
-26.797
-29.824
-32.716
-35.47
-38.079
-40.542
-42.855
-45.018
-47.029
-48.889
-50.598
-52.157
-53.569
-54.836
-55.96
-56.946
-57.796
-58.515
-59.107
-59.577
-59.93
-60.173
-60.311
-60.35
-60.298
-60.161
-59.946
-59.659
-59.309
-58.9
-58.443
-57.942
-57.407
-56.845
-56.262
-55.667
-55.067
-54.468
-53.878
-53.301
-52.745
-52.214
-51.713
-51.248
-50.822
-50.441
-50.107
-49.825
-49.598
-49.428
-49.317
-49.265
-49.274
-49.34
-49.463
-49.639
-49.866
-50.14
-50.458
-50.816
-51.212
-51.641
-52.101
-52.588
-53.096
-53.62
-54.153
-54.684
-55.206
-55.709
-56.182
-56.614
-56.994
-57.31
-57.556
-57.724
-57.804
-57.786
-57.652
-57.393
-57.006
-56.488
-55.842
-55.077
-54.201
-53.231
-52.197
-51.125
-50.042
-48.968
-47.907
-46.861
-45.836
-44.837
-43.875
-42.949
-42.039
-41.118
-40.169
-39.168
-38.093
-36.908
-35.545
-33.943
-32.061
-29.872
-27.385
-24.622
-21.603
-18.357
-14.931
-11.39
-7.839
-4.39
-1.126
1.871
4.522
6.732
8.358
9.271
9.382
8.624
6.977
4.441
1.017
-3.266
-8.325
-14.041
-20.254
-26.788
-33.507
-40.287
-46.991
-53.472
-59.537
-65.014
-69.775
-73.725
-76.806
-78.978
-80.216
-80.524
-79.962
-78.654
-76.772
-74.514
-72.061
-69.586
-67.245
-65.252
-63.904
-63.364
-63.654
-64.621
-65.875
-67.065
-67.956
-68.189
-67.278
-64.972
-61.278
-56.715
-52.421
-49.415
-48.397
-50.009
-54.749
-62.674
-73.3
-85.054
-95.254
-101.015
-99.571
-88.266
-64.769
-27.402
24.931
92.049
171.851
261.142
354.898
446.139
529.321
600.076
655.369
695.26
716.639
713.977
682.403
615.952
514.007
381.455
227.673
67.933
-79.656
-196.599
-272.597
-306.873
-307.984
-292.411
-270.628
-247.468
-224.224
-196.995
-166.298
-136.194
-109.817
-91.228
-82.499
-82.545
-89.473
-100.732
-113.168
-124.316
-132.9
-138.007
-138.837
-135.268
-127.683
-116.849
-104.287
-91.545
-79.389
-68.315
-58.757
-50.828
-44.577
-39.949
-36.496
-33.676
-31.24
-29.045
-27.007
-25.185
-23.579
-22.158
-20.987
-20.143
-19.655
-19.522
-19.691
-20.047
-20.485
-20.929
-21.317
-21.605
-21.739
-21.673
-21.379
-20.838
-20.042
-18.986
-17.667
-16.083
-14.239
-12.157
-9.872
-7.442
-4.945
-2.441
0.027
2.42
4.704
6.852
8.843
10.671
12.346
13.879
15.277
16.549
17.708
18.774
19.776
20.751
21.74
22.779
23.891
25.1
26.421
27.868
29.45
31.167
33.011
34.974
37.053
39.242
41.538
43.933
46.416
48.974
51.595
54.267
56.978
59.718
62.473
65.234
67.99
70.731
73.448
76.13
78.765
81.339
83.839
86.25
88.557
90.747
92.804
94.715
96.466
98.046
99.445
100.653
101.661
102.46
103.046
103.411
103.553
103.468
103.154
102.61
101.838
100.837
99.611
98.163
96.496
94.617
92.529
90.241
87.759
85.093
82.251
79.244
76.083
72.781
69.351
65.806
62.161
58.432
54.633
50.78
46.889
42.976
39.055
35.143
31.252
27.398
23.594
19.853
16.186
12.606
9.123
5.747
2.487
-0.648
-3.651
-6.514
-9.231
-11.796
-14.205
-16.453
-18.537
-20.454
-22.202
-23.78
-25.19
-26.431
-27.506
-28.417
-29.168
-29.764
-30.21
-30.511
-30.675
-30.708
-30.617
-30.41
-30.095
-29.68
-29.172
-28.579
-27.91
-27.172
-26.374
-25.522
-24.624
-23.688
-22.722
-21.733
-20.729
-19.718
-18.707
-17.705
-16.719
-15.757
-14.825
-13.932
-13.084
-12.288
-11.549
-10.875
-10.27
-9.74
-9.289
-8.922
-8.641
-8.452
-8.355
-8.355
-8.452
-8.648
-8.946
-9.346
-9.849
-10.457
-11.168
-11.983
-12.901
-13.922
-15.043
-16.261
-17.574
-18.978
-20.468
-22.037
-23.681
-25.392
-27.161
-28.982
-30.844
-32.739
-34.657
-36.588
-38.521
-40.446
-42.352
-44.229
-46.066
-47.853
-49.58
-51.236
-52.812
-54.3
-55.69
-56.973
-58.142
-59.189
-60.107
-60.89
-61.533
-62.03
-62.38
-62.58
-62.629
-62.529
-62.282
-61.892
-61.367
-60.715
-59.945
-59.068
-58.098
-57.047
-55.93
-54.764
-53.561
-52.34
-51.115
-49.904
-48.724
-47.594
-46.531
-45.554
-44.681
-43.93
-43.318
-42.861
-42.572
-42.459
-42.536
-42.815
-43.312
-44.043
-45.015
-46.232
-47.698
-49.407
-51.353
-53.511
-55.844
-58.31
-60.868
-63.481
-66.12
-68.756
-71.351
-73.861
-76.237
-78.433
-80.416
-82.164
-83.658
-84.886
-85.856
-86.616
-87.268
-87.919
-88.674
-89.605
-90.755
-92.183
-93.976
-96.224
-99.022
-102.446
-106.518
-111.27
-116.796
-123.057
-129.882
-136.933
-143.595
-149.296
-153.657
-156.211
-156.432
-154.168
-149.451
-142.689
-135.006
-127.236
-119.784
-113.351
-108.502
-105.052
-102.524
-99.578
-93.564
-82.426
-64.686
-38.182
-0.932
48.111
109.413
180.464
255.491
329.864
400.405
467.038
532.034
593.427
643.924
670.372
658.701
602.395
503.66
374.8
233.442
95.596
-24.115
-116.787
-180.198
-216.664
-234.914
-243.553
-247.106
-246.867
-240.088
-225.649
-206.214
-185.794
-168.703
-156.93
-149.983
-146.697
-145.703
-145.735
-145.59
-144.009
-140.321
-134.607
-127.355
-119.248
-110.88
-102.727
-95.334
-89.262
-84.784
-81.886
-80.377
-79.94
-80.313
-81.304
-82.698
-84.251
-85.748
-86.993
-87.836
-88.206
-88.054
-87.341
-86.054
-84.189
-81.769
-78.855
-75.517
-71.824
-67.842
-63.629
-59.241
-54.747
-50.223
-45.741
-41.371
-37.158
-33.131
-29.309
-25.701
-22.311
-19.13
-16.14
-13.314
-10.632
-8.079
-5.641
-3.308
-1.063
1.112
3.235
5.321
7.384
9.437
11.491
13.557
15.644
17.758
19.904
22.087
24.311
26.585
28.915
31.309
33.772
36.309
38.926
41.626
44.41
47.278
50.23
53.262
56.371
59.553
62.803
66.115
69.482
72.897
76.352
79.84
83.349
86.871
90.393
93.906
97.397
100.854
104.264
107.615
110.894
114.088
117.185
120.172
123.035
125.763
128.342
130.763
133.012
135.08
136.956
138.632
140.101
141.355
142.39
143.201
143.784
144.138
144.259
144.148
143.805
143.231
142.427
141.398
140.146
138.678
137
135.118
133.042
130.778
128.337
125.729
122.964
120.053
117.009
113.844
110.57
107.2
103.748
100.228
96.652
93.034
89.387
85.723
82.055
78.395
74.753
71.142
67.57
64.05
60.591
57.201
53.89
50.665
47.533
44.501
41.573
38.756
36.051
33.463
30.993
28.642
26.412
24.303
22.313
20.442
18.687
17.046
15.515
14.091
12.769
11.546
10.416
9.376
8.42
7.543
6.742
6.011
5.345
4.74
4.189
3.688
3.231
2.813
2.429
2.074
1.742
1.43
1.133
0.847
0.567
0.29
0.012
-0.269
-0.558
-0.858
-1.171
-1.5
-1.847
-2.214
-2.603
-3.016
-3.455
-3.921
-4.416
-4.942
-5.502
-6.096
-6.726
-7.394
-8.102
-8.849
-9.636
-10.463
-11.331
-12.238
-13.184
-14.166
-15.185
-16.236
-17.319
-18.431
-19.567
-20.724
-21.897
-23.081
-24.272
-25.462
-26.645
-27.816
-28.966
-30.089
-31.177
-32.224
-33.22
-34.158
-35.03
-35.826
-36.538
-37.157
-37.676
-38.085
-38.377
-38.546
-38.585
-38.487
-38.248
-37.864
-37.331
-36.648
-35.812
-34.823
-33.683
-32.395
-30.962
-29.39
-27.688
-25.863
-23.927
-21.894
-19.776
-17.591
-15.354
-13.084
-10.8
-8.522
-6.269
-4.06
-1.915
0.145
2.101
3.932
5.616
7.133
8.464
9.586
10.482
11.136
11.533
11.664
11.523
11.101
10.391
9.379
8.058
6.427
4.482
2.225
-0.337
-3.189
-6.302
-9.633
-13.139
-16.782
-20.523
-24.338
-28.192
-32.046
-35.858
-39.577
-43.155
-46.559
-49.751
-52.688
-55.346
-57.721
-59.867
-61.872
-63.82
-65.769
-67.744
-69.778
-71.942
-74.317
-76.972
-79.964
-83.304
-87.055
-91.397
-96.389
-101.91
-107.682
-113.156
-117.806
-121.277
-123.06
-122.513
-119.39
-113.865
-106.515
-98.515
-91.013
-84.958
-81.608
-82.208
-86.008
-90.426
-92.919
-91.089
-86.175
-81.663
-76.471
-65.298
-38.224
16.008
100.567
211.333
339.086
469.612
590.601
689.607
752.671
772.795
748.708
687.59
604.593
510.445
408.286
294.44
164.807
22.854
-116.113
-230.154
-305.277
-336.265
-330.747
-304.923
-268.18
-229.423
-192.704
-157.367
-128.065
-104.484
-86.131
-74.557
-67.324
-65.726
-70.494
-79.531
-91.603
-103.457
-112.391
-117.554
-118.305
-114.921
-108.21
-98.968
-88.492
-78.259
-69.174
-61.846
-56.559
-53.245
-51.792
-51.965
-53.232
-54.947
-56.641
-57.99
-58.859
-59.274
-59.217
-58.67
-57.673
-56.289
-54.593
-52.647
-50.454
-48.001
-45.285
-42.32
-39.188
-35.988
-32.799
-29.701
-26.74
-23.944
-21.348
-18.98
-16.84
-14.925
-13.215
-11.682
-10.322
-9.132
-8.106
-7.239
-6.5
-5.852
-5.271
-4.73
-4.208
-3.689
-3.15
-2.571
-1.943
-1.261
-0.52
0.28
1.151
2.103
3.144
4.282
5.523
6.868
8.322
9.892
11.577
13.379
15.295
17.322
19.458
21.702
24.048
26.491
29.023
31.637
34.323
37.073
39.873
42.714
45.581
48.462
51.343
54.211
57.053
59.855
62.604
65.287
67.892
70.408
72.823
75.126
77.308
79.358
81.267
83.027
84.629
86.066
87.331
88.418
89.322
90.039
90.565
90.896
91.032
90.971
90.714
90.259
89.61
88.769
87.738
86.522
85.127
83.559
81.824
79.931
77.887
75.702
73.384
70.942
68.386
65.725
62.968
60.126
57.206
54.22
51.176
48.083
44.95
41.788
38.604
35.409
32.21
29.017
25.839
22.683
19.559
16.475
13.439
10.459
7.542
4.695
1.924
-0.764
-3.365
-5.875
-8.289
-10.605
-12.819
-14.932
-16.94
-18.845
-20.644
-22.34
-23.931
-25.419
-26.805
-28.089
-29.273
-30.359
-31.347
-32.239
-33.038
-33.745
-34.362
-34.893
-35.341
-35.709
-36.001
-36.222
-36.376
-36.469
-36.506
-36.492
-36.434
-36.338
-36.21
-36.056
-35.882
-35.695
-35.5
-35.302
-35.107
-34.921
-34.747
-34.591
-34.457
-34.35
-34.274
-34.234
-34.234
-34.278
-34.371
-34.518
-34.722
-34.988
-35.318
-35.717
-36.186
-36.729
-37.345
-38.037
-38.804
-39.644
-40.558
-41.542
-42.592
-43.706
-44.877
-46.099
-47.367
-48.672
-50.007
-51.363
-52.732
-54.105
-55.473
-56.826
-58.157
-59.454
-60.709
-61.911
-63.05
-64.116
-65.098
-65.986
-66.769
-67.437
-67.981
-68.391
-68.66
-68.778
-68.739
-68.536
-68.164
-67.619
-66.897
-65.997
-64.918
-63.663
-62.235
-60.639
-58.883
-56.977
-54.931
-52.759
-50.473
-48.088
-45.621
-43.087
-40.505
-37.891
-35.262
-32.637
-30.033
-27.473
-24.974
-22.558
-20.242
-18.048
-15.995
-14.103
-12.394
-10.883
-9.583
-8.508
-7.669
-7.081
-6.761
-6.719
-6.96
-7.484
-8.291
-9.377
-10.735
-12.342
-14.16
-16.148
-18.263
-20.468
-22.737
-25.037
-27.33
-29.575
-31.723
-33.743
-35.612
-37.306
-38.807
-40.097
-41.174
-42.069
-42.863
-43.653
-44.529
-45.571
-46.828
-48.341
-50.168
-52.389
-55.079
-58.299
-62.09
-66.435
-71.373
-77.008
-83.286
-89.989
-96.675
-102.644
-107.292
-110.238
-111.017
-109.112
-104.382
-96.942
-87.533
-77.657
-68.504
-60.832
-55.434
-52.759
-52.564
-54.118
-55.388
-53.107
-44.498
-27
2.088
44.632
101.509
171.315
249.307
329.95
409.043
485.75
560.743
630.7
686.905
715.253
703.195
647.154
553.159
433.932
301.593
165.675
34.03
-84.294
-177.815
-239.355
-269.524
-276.68
-272.237
-263.453
-251.407
-233.148
-207.682
-177.579
-146.924
-120.536
-100.574
-86.905
-79.65
-78.098
-80.637
-85.62
-91.194
-95.481
-97.72
-97.625
-94.42
-87.819
-78.211
-66.223
-52.971
-39.782
-27.306
-15.895
-6.107
1.776
7.673
11.577
13.906
15.26
15.949
16.154
16.005
15.475
14.595
13.455
12.015
10.211
8.056
5.595
2.974
0.426
-1.899
-3.916
-5.583
-6.911
-7.9
-8.536
-8.825
-8.779
-8.411
-7.741
-6.768
-5.476
-3.88
-2.017
0.04
2.174
4.309
6.397
8.408
10.337
12.18
13.928
15.595
17.208
18.791
20.361
21.925
23.482
25.041
26.627
28.27
30.015
31.893
33.922
36.117
38.486
41.032
43.758
46.652
49.695
52.87
56.166
59.571
63.079
66.679
70.355
74.092
77.873
81.682
85.503
89.321
93.118
96.878
100.587
104.231
107.798
111.278
114.654
117.915
121.046
124.034
126.866
129.529
132.009
134.296
136.377
138.243
139.885
141.295
142.466
143.39
144.063
144.48
144.638
144.533
144.165
143.53
142.631
141.467
140.041
138.355
136.414
134.224
131.79
129.119
126.22
123.101
119.77
116.238
112.514
108.61
104.534
100.301
95.921
91.408
86.774
82.033
77.2
72.287
67.31
62.283
57.219
52.135
47.044
41.962
36.903
31.881
26.912
22.008
17.184
12.452
7.823
3.309
-1.08
-5.334
-9.445
-13.406
-17.208
-20.845
-24.312
-27.603
-30.714
-33.641
-36.382
-38.932
-41.292
-43.461
-45.438
-47.225
-48.823
-50.234
-51.463
-52.513
-53.391
-54.101
-54.652
-55.052
-55.309
-55.432
-55.431
-55.317
-55.098
-54.787
-54.392
-53.925
-53.395
-52.812
-52.187
-51.529
-50.848
-50.153
-49.452
-48.756
-48.073
-47.412
-46.78
-46.186
-45.639
-45.145
-44.713
-44.348
-44.057
-43.846
-43.718
-43.677
-43.726
-43.867
-44.099
-44.423
-44.838
-45.34
-45.928
-46.598
-47.345
-48.163
-49.049
-49.994
-50.994
-52.039
-53.123
-54.238
-55.376
-56.527
-57.684
-58.838
-59.978
-61.096
-62.182
-63.224
-64.213
-65.137
-65.986
-66.749
-67.416
-67.977
-68.422
-68.745
-68.937
-68.992
-68.903
-68.667
-68.279
-67.737
-67.04
-66.187
-65.178
-64.018
-62.709
-61.257
-59.668
-57.951
-56.116
-54.172
-52.132
-50.009
-47.816
-45.567
-43.279
-40.967
-38.65
-36.343
-34.063
-31.83
-29.662
-27.579
-25.599
-23.741
-22.023
-20.464
-19.081
-17.894
-16.916
-16.158
-15.627
-15.334
-15.29
-15.508
-15.995
-16.753
-17.778
-19.065
-20.607
-22.39
-24.39
-26.567
-28.874
-31.269
-33.717
-36.191
-38.662
-41.095
-43.448
-45.675
-47.739
-49.615
-51.287
-52.736
-53.948
-54.933
-55.73
-56.428
-57.136
-57.947
-58.937
-60.163
-61.649
-63.45
-65.643
-68.281
-71.433
-75.141
-79.382
-84.207
-89.691
-95.73
-102.085
-108.307
-113.709
-117.744
-120.014
-119.99
-117.282
-111.844
-103.872
-94.176
-83.994
-74.228
-65.672
-59.152
-54.93
-52.674
-51.411
-49.11
-43.405
-32.059
-12.59
17.408
59.789
114.06
176.959
244.748
313.405
382.567
455.65
530.741
601.83
655.978
673.029
642.786
565.298
451.267
322.851
196.072
78.96
-26.261
-123.389
-212.093
-288.058
-347.136
-385.515
-403.123
-402.536
-386.078
-357.192
-319.77
-277.417
-234.096
-192.834
-155.507
-124.086
-100.346
-84.763
-77.008
-76.082
-80.092
-87.493
-96.845
-106.002
-113.127
-117.256
-117.934
-115.419
-110.558
-103.99
-96.518
-89.413
-83.582
-79.466
-77.231
-76.593
-77.092
-78.394
-80.081
-81.603
-82.612
-82.914
-82.397
-81.106
-79.109
-76.432
-73.15
-69.378
-65.207
-60.731
-56.069
-51.306
-46.531
-41.84
-37.291
-32.926
-28.776
-24.857
-21.175
-17.752
-14.593
-11.693
-9.057
-6.675
-4.528
-2.591
-0.812
0.86
2.469
4.055
5.647
7.269
8.944
10.685
12.497
14.389
16.37
18.448
20.636
22.946
25.384
27.955
30.658
33.492
36.455
39.544
42.756
46.088
49.533
53.089
56.752
60.517
64.376
68.319
72.335
76.408
80.524
84.667
88.819
92.96
97.072
101.135
105.129
109.035
112.832
116.5
120.018
123.368
126.53
129.487
132.221
134.715
136.955
138.925
140.614
142.01
143.103
143.882
144.342
144.476
144.28
143.75
142.886
141.687
140.154
138.291
136.101
133.591
130.768
127.64
124.218
120.515
116.542
112.313
107.844
103.151
98.25
93.159
87.897
82.481
76.931
71.265
65.504
59.665
53.768
47.832
41.875
35.915
29.969
24.055
18.189
12.387
6.664
1.035
-4.486
-9.886
-15.154
-20.277
-25.244
-30.046
-34.675
-39.121
-43.379
-47.441
-51.304
-54.962
-58.414
-61.658
-64.692
-67.517
-70.134
-72.545
-74.752
-76.759
-78.57
-80.189
-81.621
-82.87
-83.944
-84.846
-85.585
-86.165
-86.594
-86.878
-87.024
-87.038
-86.928
-86.701
-86.364
-85.924
-85.388
-84.763
-84.056
-83.275
-82.427
-81.518
-80.556
-79.547
-78.497
-77.414
-76.302
-75.167
-74.014
-72.848
-71.674
-70.495
-69.317
-68.142
-66.974
-65.817
-64.675
-63.551
-62.447
-61.368
-60.315
-59.291
-58.3
-57.342
-56.42
-55.536
-54.691
-53.887
-53.124
-52.403
-51.724
-51.087
-50.49
-49.933
-49.413
-48.928
-48.476
-48.052
-47.653
-47.276
-46.917
-46.572
-46.237
-45.908
-45.581
-45.25
-44.91
-44.557
-44.185
-43.788
-43.361
-42.899
-42.396
-41.847
-41.247
-40.592
-39.877
-39.099
-38.252
-37.335
-36.343
-35.276
-34.132
-32.911
-31.615
-30.245
-28.806
-27.303
-25.743
-24.133
-22.483
-20.8
-19.096
-17.382
-15.667
-13.965
-12.284
-10.637
-9.035
-7.491
-6.018
-4.629
-3.338
-2.158
-1.103
-0.185
0.582
1.192
1.637
1.915
2.02
1.945
1.679
1.215
0.55
-0.317
-1.383
-2.643
-4.082
-5.674
-7.381
-9.164
-10.988
-12.824
-14.652
-16.451
-18.193
-19.847
-21.376
-22.742
-23.922
-24.893
-25.631
-26.127
-26.394
-26.483
-26.484
-26.487
-26.562
-26.748
-27.082
-27.612
-28.406
-29.543
-31.093
-33.103
-35.64
-38.814
-42.672
-47.115
-51.875
-56.461
-60.316
-62.999
-64.061
-62.979
-59.481
-53.72
-46.26
-38.2
-30.741
-24.673
-20.711
-19.697
-21.869
-26.541
-32.209
-36.356
-36.133
-29.289
-13.584
13.507
53.644
107.085
172.721
247.801
328.477
410.722
489.775
559.976
615.739
652.295
665.952
654.077
616.927
557.382
478.814
386.028
280.645
160.373
28.546
-107.239
-233.33
-329.628
-385.98
-401.097
-379.629
-335.284
-278.717
-218.702
-166.641
-129.171
-109.592
-106.683
-111.947
-117.711
-119.753
-117.474
-114.798
-113.986
-114.901
-116.299
-115.065
-109.749
-100.925
-89.449
-76.996
-65.287
-55.014
-46.619
-40.58
-36.893
-35.426
-36.055
-38.258
-41.339
-44.844
-48.381
-51.631
-54.521
-56.974
-58.88
-60.233
-61.023
-61.199
-60.754
-59.675
-57.927
-55.53
-52.519
-48.944
-44.912
-40.551
-35.997
-31.391
-26.823
-22.348
-18.018
-13.868
-9.937
-6.261
-2.85
0.301
3.192
5.826
8.21
10.351
12.284
14.057
15.719
17.326
18.914
20.507
22.129
23.799
25.529
27.335
29.219
31.18
33.221
35.349
37.573
39.901
42.336
44.873
47.512
50.247
53.073
55.988
58.986
62.061
65.208
68.423
71.701
75.038
78.427
81.858
85.32
88.802
92.289
95.768
99.225
102.645
106.011
109.311
112.528
115.65
118.661
121.548
124.296
126.891
129.32
131.569
133.627
135.479
137.116
138.527
139.702
140.634
141.316
141.741
141.906
141.808
141.444
140.813
139.918
138.758
137.338
135.662
133.736
131.568
129.164
126.534
123.689
120.637
117.392
113.965
110.367
106.612
102.713
98.685
94.541
90.297
85.968
81.569
77.115
72.623
68.108
63.584
59.068
54.573
50.114
45.704
41.357
37.083
32.895
28.803
24.817
20.946
17.197
13.578
10.096
6.755
3.561
0.518
-2.37
-5.1
-7.668
-10.074
-12.315
-14.391
-16.301
-18.045
-19.624
-21.041
-22.296
-23.392
-24.333
-25.122
-25.762
-26.258
-26.613
-26.832
-26.92
-26.881
-26.72
-26.442
-26.051
-25.551
-24.946
-24.242
-23.442
-22.549
-21.569
-20.505
-19.362
-18.144
-16.857
-15.504
-14.092
-12.626
-11.112
-9.556
-7.963
-6.34
-4.694
-3.029
-1.353
0.329
2.009
3.682
5.341
6.98
8.593
10.174
11.716
13.214
14.662
16.055
17.387
18.653
19.847
20.966
22.004
22.957
23.822
24.595
25.274
25.857
26.343
26.732
27.025
27.224
27.331
27.348
27.28
27.131
26.906
26.61
26.25
25.832
25.364
24.854
24.311
23.742
23.156
22.563
21.971
21.389
20.824
20.286
19.782
19.32
18.907
18.549
18.252
18.022
17.863
17.777
17.767
17.834
17.976
18.19
18.473
18.818
19.217
19.664
20.148
20.659
21.187
21.718
22.243
22.749
23.223
23.65
24.015
24.301
24.491
24.57
24.52
24.327
23.975
23.452
22.749
21.859
20.773
19.48
17.966
16.217
14.227
11.993
9.514
6.797
3.854
0.709
-2.601
-6.04
-9.574
-13.175
-16.823
-20.494
-24.16
-27.786
-31.328
-34.744
-38.005
-41.083
-43.957
-46.615
-49.073
-51.381
-53.625
-55.892
-58.255
-60.757
-63.439
-66.356
-69.576
-73.187
-77.255
-81.803
-86.864
-92.513
-98.761
-105.515
-112.516
-119.284
-125.353
-130.437
-134.26
-136.429
-136.663
-134.94
-131.623
-127.601
-123.683
-120.006
-116.654
-114.21
-113.185
-113.639
-113.952
-110.455
-100.052
-82.132
-59.74
-37.35
-16.061
7.562
41.707
94.864
169.058
260.212
359.77
456.713
541.552
605.814
639.475
634.414
587.939
503.012
389.751
259.641
120.729
-19.356
-152.87
-268.022
-350.995
-394.853
-400.851
-379.932
-347.491
-313.239
-281.469
-251.583
-220.348
-188.327
-158.353
-133.532
-117.333
-110.39
-111.193
-117.672
-127.102
-137.221
-146.332
-153.118
-156.565
-156.158
-151.979
-144.62
-135.099
-124.568
-114.199
-104.797
-96.888
-90.778
-86.442
-83.723
-82.309
-81.721
-81.404
-80.934
-80.07
-78.702
-76.843
-74.524
-71.755
-68.593
-65.129
-61.438
-57.563
-53.524
-49.319
-44.94
-40.425
-35.817
-31.168
-26.562
-22.059
-17.692
-13.493
-9.477
-5.649
-2.022
1.403
4.65
7.729
10.652
13.43
16.06
18.549
20.909
23.151
25.302
27.386
29.416
31.407
33.37
35.313
37.249
39.186
41.122
43.057
44.992
46.927
48.871
50.828
52.8
54.789
56.796
58.821
60.861
62.917
64.984
67.057
69.132
71.203
73.266
75.316
77.348
79.355
81.33
83.265
85.15
86.979
88.741
90.426
92.025
93.529
94.927
96.213
97.378
98.415
99.318
100.08
100.695
101.159
101.466
101.612
101.594
101.407
101.049
100.518
99.812
98.93
97.873
96.64
95.233
93.654
91.905
89.989
87.909
85.669
83.275
80.731
78.044
75.221
72.27
69.197
66.013
62.724
59.341
55.871
52.324
48.708
45.032
41.305
37.536
33.734
29.906
26.064
22.214
18.366
14.529
10.71
6.919
3.163
-0.55
-4.211
-7.813
-11.349
-14.811
-18.192
-21.485
-24.684
-27.783
-30.777
-33.661
-36.429
-39.079
-41.607
-44.008
-46.282
-48.425
-50.436
-52.312
-54.053
-55.658
-57.126
-58.457
-59.652
-60.711
-61.634
-62.424
-63.081
-63.608
-64.006
-64.278
-64.427
-64.456
-64.369
-64.169
-63.862
-63.451
-62.942
-62.341
-61.653
-60.884
-60.041
-59.13
-58.159
-57.134
-56.062
-54.952
-53.811
-52.646
-51.465
-50.276
-49.087
-47.905
-46.737
-45.592
-44.477
-43.399
-42.366
-41.385
-40.464
-39.609
-38.826
-38.122
-37.503
-36.974
-36.541
-36.208
-35.978
-35.855
-35.843
-35.942
-36.154
-36.479
-36.916
-37.464
-38.119
-38.879
-39.739
-40.692
-41.735
-42.859
-44.058
-45.325
-46.651
-48.027
-49.444
-50.893
-52.362
-53.842
-55.321
-56.787
-58.23
-59.638
-61.001
-62.305
-63.542
-64.698
-65.764
-66.73
-67.585
-68.321
-68.928
-69.401
-69.732
-69.918
-69.955
-69.841
-69.577
-69.165
-68.61
-67.917
-67.092
-66.144
-65.082
-63.915
-62.653
-61.307
-59.886
-58.401
-56.865
-55.291
-53.694
-52.09
-50.493
-48.919
-47.382
-45.898
-44.478
-43.133
-41.87
-40.699
-39.632
-38.689
-37.888
-37.243
-36.764
-36.459
-36.326
-36.359
-36.542
-36.842
-37.229
-37.67
-38.137
-38.614
-39.081
-39.514
-39.885
-40.148
-40.26
-40.191
-39.917
-39.413
-38.682
-37.747
-36.662
-35.52
-34.412
-33.408
-32.58
-31.997
-31.739
-31.895
-32.555
-33.793
-35.712
-38.453
-42.061
-46.475
-51.466
-56.613
-61.464
-65.622
-68.647
-70.001
-69.365
-66.807
-62.793
-58.288
-54.291
-51.406
-50.128
-51.086
-54.492
-59.766
-65.565
-69.533
-68.987
-61.829
-46.149
-19.969
18.319
69.483
133.035
206.92
286.808
367.185
442.92
509.53
565.883
612.782
648.909
670.243
666.963
628.875
550.92
433.327
288.969
135.664
-7.972
-120.914
-194.802
-230.202
-234.606
-225.21
-212.617
-201.541
-193.052
-182.281
-168.527
-154.206
-141.426
-133.537
-131.246
-132.781
-136.577
-140.497
-142.569
-142.168
-139.147
-133.699
-126.575
-118.506
-110.091
-102.088
-95.224
-89.85
-86.078
-83.824
-82.796
-82.747
-83.488
-84.783
-86.403
-88.15
-89.833
-91.297
-92.421
-93.107
-93.28
-92.893
-91.923
-90.369
-88.26
-85.646
-82.592
-79.16
-75.411
-71.398
-67.175
-62.808
-58.369
-53.93
-49.562
-45.313
-41.216
-37.295
-33.563
-30.021
-26.664
-23.472
-20.42
-17.49
-14.667
-11.94
-9.299
-6.729
-4.213
-1.737
0.713
3.151
5.586
8.028
10.485
12.964
15.469
18.003
20.567
23.166
25.805
28.489
31.223
34.012
36.86
39.769
42.743
45.783
48.887
52.054
55.282
58.565
61.901
65.284
68.708
72.165
75.648
79.149
82.66
86.171
89.674
93.157
96.612
100.028
103.396
106.705
109.944
113.103
116.172
119.139
121.994
124.726
127.325
129.779
132.078
134.214
136.176
137.955
139.544
140.934
142.118
143.091
143.847
144.381
144.691
144.773
144.626
144.25
143.643
142.809
141.747
140.461
138.953
137.228
135.29
133.143
130.793
128.246
125.509
122.589
119.493
116.23
112.81
109.241
105.534
101.699
97.747
93.688
89.535
85.299
80.991
76.624
72.211
67.762
63.289
58.806
54.323
49.851
45.402
40.984
36.608
32.283
28.018
23.82
19.698
15.659
11.709
7.856
4.104
0.46
-3.072
-6.488
-9.783
-12.955
-16.002
-18.921
-21.712
-24.372
-26.902
-29.301
-31.571
-33.712
-35.726
-37.614
-39.38
-41.025
-42.555
-43.971
-45.278
-46.48
-47.581
-48.585
-49.495
-50.317
-51.054
-51.711
-52.293
-52.804
-53.249
-53.634
-53.963
-54.241
-54.474
-54.667
-54.825
-54.953
-55.056
-55.138
-55.206
-55.264
-55.317
-55.37
-55.428
-55.496
-55.579
-55.68
-55.804
-55.954
-56.134
-56.347
-56.596
-56.884
-57.213
-57.585
-58.001
-58.464
-58.973
-59.528
-60.13
-60.777
-61.468
-62.201
-62.972
-63.779
-64.617
-65.482
-66.369
-67.273
-68.186
-69.103
-70.017
-70.92
-71.805
-72.662
-73.484
-74.262
-74.985
-75.647
-76.237
-76.745
-77.165
-77.486
-77.701
-77.802
-77.782
-77.634
-77.352
-76.93
-76.365
-75.653
-74.793
-73.781
-72.62
-71.311
-69.856
-68.259
-66.526
-64.664
-62.684
-60.596
-58.413
-56.147
-53.813
-51.427
-49.005
-46.563
-44.114
-41.674
-39.259
-36.885
-34.571
-32.337
-30.2
-28.177
-26.284
-24.536
-22.951
-21.54
-20.307
-19.26
-18.406
-17.754
-17.326
-17.139
-17.198
-17.509
-18.068
-18.865
-19.888
-21.114
-22.499
-24.001
-25.578
-27.193
-28.826
-30.449
-32.026
-33.508
-34.827
-35.925
-36.768
-37.325
-37.572
-37.519
-37.181
-36.614
-35.915
-35.164
-34.445
-33.85
-33.449
-33.33
-33.594
-34.322
-35.654
-37.769
-40.719
-44.441
-48.736
-53.202
-57.456
-61.182
-63.921
-65.101
-64.378
-61.773
-57.749
-53.257
-49.182
-45.975
-44.04
-43.945
-45.883
-49.321
-52.943
-54.431
-51.251
-41.585
-23.657
4.542
44.275
96.188
160.08
233.797
314.47
398.319
479.329
552.792
615.455
664.98
702.301
724.025
723.261
695.424
634.497
542.397
427.064
293.922
154.243
19.795
-97.866
-184.404
-234.324
-251.202
-244.323
-225.487
-201.956
-175.781
-146.2
-113.632
-80.925
-51.651
-29.791
-17.702
-15.127
-20.476
-30.988
-43.356
-55.015
-64.518
-70.937
-73.471
-71.898
-66.571
-58.368
-48.907
-39.774
-31.763
-25.312
-20.768
-18.176
-17.477
-18.468
-20.532
-22.933
-25.215
-27.076
-28.341
-29.009
-29.039
-28.375
-27.042
-25.187
-23.098
-21.018
-18.95
-16.638
-13.758
-10.168
-6.125
-1.927
2.7
7.994
13.548
18.372
21.025
21.388
21.516
23.362
26.569
26.333
16.04
-7.167
-39.755
-68.551
-78.552
-62.075
-19.169
36.134
84.677
114.846
120.724
108.748
91.586
74.012
56.954
37.175
11.206
-13.75
-27.118
-22.849
-1.721
25.267
45.428
53.877
53.979
52.393
53.187
55.049
50.954
38.476
23.057
11.197
11.908
26.853
47.346
66.342
77.238
78.352
75.357
71.914
69.971
69.987
70.107
69.673
68.891
67.868
67.072
66.609
66.56
67.251
68.397
69.666
70.915
71.9
72.629
73.197
73.438
73.167
72.482
71.467
70.189
68.777
67.186
65.353
63.322
61.116
58.724
56.151
53.38
50.389
47.206
43.858
40.357
36.724
32.962
29.075
25.073
20.964
16.76
12.471
8.108
3.68
-0.8
-5.323
-9.877
-14.45
-19.032
-23.611
-28.178
-32.724
-37.235
-41.699
-46.104
-50.439
-54.694
-58.861
-62.931
-66.897
-70.751
-74.488
-78.102
-81.589
-84.941
-88.155
-91.226
-94.149
-96.92
-99.535
-101.991
-104.286
-106.415
-108.377
-110.17
-111.793
-113.244
-114.523
-115.629
-116.563
-117.326
-117.919
-118.344
-118.604
-118.702
-118.641
-118.425
-118.058
-117.544
-116.887
-116.091
-115.161
-114.102
-112.916
-111.61
-110.189
-108.656
-107.018
-105.282
-103.452
-101.537
-99.543
-97.477
-95.349
-93.165
-90.935
-88.668
-86.371
-84.055
-81.728
-79.4
-77.081
-74.778
-72.501
-70.259
-68.059
-65.909
-63.817
-61.788
-59.83
-57.949
-56.148
-54.435
-52.813
-51.287
-49.86
-48.535
-47.316
-46.204
-45.199
-44.303
-43.514
-42.83
-42.249
-41.768
-41.381
-41.083
-40.868
-40.729
-40.658
-40.646
-40.685
-40.764
-40.873
-41.001
-41.138
-41.273
-41.395
-41.493
-41.557
-41.578
-41.546
-41.452
-41.287
-41.044
-40.714
-40.291
-39.769
-39.142
-38.407
-37.56
-36.599
-35.525
-34.337
-33.04
-31.636
-30.133
-28.538
-26.861
-25.112
-23.304
-21.45
-19.565
-17.665
-15.765
-13.882
-12.03
-10.229
-8.496
-6.847
-5.3
-3.874
-2.586
-1.454
-0.496
0.273
0.84
1.194
1.328
1.233
0.9
0.315
-0.532
-1.643
-3.019
-4.657
-6.551
-8.686
-11.036
-13.559
-16.208
-18.944
-21.728
-24.534
-27.335
-30.097
-32.774
-35.318
-37.687
-39.844
-41.768
-43.434
-44.827
-45.946
-46.836
-47.594
-48.32
-49.104
-49.999
-51.021
-52.204
-53.617
-55.341
-57.461
-60.05
-63.123
-66.722
-70.973
-75.857
-81.202
-86.642
-91.519
-95.241
-97.454
-97.717
-95.522
-90.797
-83.722
-74.931
-65.799
-57.322
-49.99
-44.577
-41.671
-40.971
-41.713
-42.081
-39.053
-30.435
-14.35
11.82
50.188
101.854
165.815
238.052
313.877
390.295
467.481
546.492
623.984
691.326
734.076
738.075
698.524
620.319
517.782
407.075
298.262
195.649
98.647
7.619
-73.398
-139.403
-186.299
-213.004
-221.384
-214.589
-196.053
-169.948
-141.213
-114.071
-91.113
-73.662
-61.983
-55.813
-55.038
-58.375
-63.172
-67.226
-69.355
-69.103
-66.731
-62.484
-56.1
-48.015
-39.551
-31.793
-25.412
-20.669
-17.308
-15.153
-14.373
-14.849
-16.114
-17.752
-19.353
-20.653
-21.632
-22.251
-22.393
-22.014
-21.123
-19.745
-17.96
-15.839
-13.411
-10.72
-7.815
-4.744
-1.573
1.626
4.784
7.831
10.703
13.357
15.764
17.904
19.769
21.355
22.673
23.743
24.592
25.244
25.712
26.015
26.172
26.207
26.146
26.012
25.826
25.609
25.378
25.153
24.949
24.781
24.661
24.6
24.606
24.691
24.865
25.139
25.524
26.026
26.655
27.415
28.313
29.352
30.532
31.855
33.317
34.916
36.647
38.506
40.484
42.576
44.772
47.062
49.435
51.882
54.388
56.943
59.531
62.14
64.755
67.362
69.947
72.493
74.987
77.415
79.761
82.012
84.155
86.175
88.061
89.801
91.383
92.799
94.038
95.092
95.955
96.621
97.083
97.339
97.385
97.218
96.838
96.244
95.436
94.415
93.185
91.746
90.105
88.264
86.229
84.007
81.605
79.029
76.288
73.39
70.346
67.166
63.859
60.437
56.911
53.292
49.593
45.825
41.999
38.128
34.223
30.296
26.358
22.42
18.494
14.591
10.723
6.899
3.131
-0.571
-4.196
-7.735
-11.179
-14.518
-17.744
-20.848
-23.823
-26.662
-29.359
-31.909
-34.305
-36.545
-38.625
-40.543
-42.297
-43.885
-45.309
-46.568
-47.663
-48.596
-49.369
-49.985
-50.445
-50.753
-50.913
-50.93
-50.807
-50.55
-50.165
-49.657
-49.034
-48.303
-47.472
-46.549
-45.542
-44.461
-43.315
-42.113
-40.864
-39.578
-38.262
-36.927
-35.58
-34.231
-32.888
-31.558
-30.248
-28.966
-27.718
-26.511
-25.35
-24.24
-23.186
-22.194
-21.267
-20.41
-19.628
-18.924
-18.301
-17.762
-17.308
-16.941
-16.66
-16.463
-16.349
-16.315
-16.357
-16.469
-16.646
-16.881
-17.169
-17.503
-17.877
-18.283
-18.714
-19.162
-19.619
-20.076
-20.524
-20.95
-21.341
-21.687
-21.977
-22.202
-22.352
-22.415
-22.38
-22.239
-21.985
-21.611
-21.103
-20.445
-19.619
-18.616
-17.437
-16.091
-14.582
-12.913
-11.089
-9.123
-7.032
-4.827
-2.506
-0.056
2.544
5.295
8.187
11.195
14.292
17.466
20.72
24.061
27.481
30.975
34.54
38.196
41.972
45.867
49.845
53.829
57.743
61.533
65.165
68.622
71.879
74.896
77.624
80.022
82.071
83.744
85.004
85.775
85.969
85.539
84.499
82.911
80.839
78.327
75.409
72.118
68.522
64.695
60.706
56.602
52.409
48.166
43.934
39.817
35.936
32.378
29.174
26.313
23.783
21.579
19.675
18.012
16.473
14.943
13.345
11.62
9.727
7.588
5.099
2.137
-1.413
-5.672
-10.787
-16.788
-23.585
-30.936
-38.386
-45.441
-51.661
-56.555
-59.54
-60.302
-58.94
-55.966
-52.41
-49.288
-47.158
-46.489
-47.855
-51.366
-56.332
-61.258
-63.616
-60.682
-50.54
-31.383
-1.256
40.943
95.635
162.375
238.745
321.697
407.34
489.608
563.996
627.564
678.581
718.609
743.904
746.878
722.189
662.794
571.613
458.006
326.455
187.674
50.159
-78.638
-182.114
-252.043
-285.853
-283.498
-256.214
-213.817
-165.587
-125.115
-99.804
-92.811
-102.252
-117.595
-130.008
-135.224
-132.716
-127.247
-122.375
-118.711
-115.531
-110.734
-103.405
-94.116
-84.129
-74.879
-67.205
-61.418
-57.583
-55.636
-55.551
-57.311
-60.585
-65.039
-70.425
-76.425
-82.853
-89.506
-96.074
-102.331
-108.155
-113.455
-118.179
-122.293
-125.712
-128.367
-130.252
-131.37
-131.758
-131.46
-130.507
-128.968
-126.95
-124.59
-122.048
-119.441
-116.836
-114.28
-111.803
-109.432
-107.197
-105.116
-103.179
-101.379
-99.711
-98.167
-96.748
-95.437
-94.199
-92.984
-91.735
-90.412
-88.989
-87.448
-85.774
-83.957
-81.986
-79.861
-77.59
-75.176
-72.619
-69.915
-67.059
-64.051
-60.895
-57.602
-54.179
-50.637
-46.984
-43.229
-39.383
-35.457
-31.46
-27.401
-23.287
-19.128
-14.936
-10.726
-6.513
-2.312
1.862
5.992
10.061
14.053
17.952
21.743
25.412
28.945
32.328
35.549
38.594
41.452
44.111
46.56
48.788
50.787
52.549
54.065
55.33
56.339
57.087
57.574
57.797
57.756
57.452
56.887
56.065
54.989
53.665
52.099
50.3
48.274
46.033
43.585
40.941
38.113
35.113
31.951
28.64
25.192
21.619
17.935
14.152
10.283
6.342
2.342
-1.703
-5.78
-9.876
-13.977
-18.071
-22.146
-26.19
-30.19
-34.136
-38.018
-41.825
-45.547
-49.177
-52.705
-56.124
-59.429
-62.612
-65.669
-68.595
-71.386
-74.038
-76.549
-78.916
-81.137
-83.21
-85.134
-86.909
-88.535
-90.012
-91.342
-92.526
-93.565
-94.463
-95.222
-95.846
-96.337
-96.699
-96.937
-97.055
-97.056
-96.946
-96.73
-96.412
-95.998
-95.493
-94.902
-94.23
-93.484
-92.667
-91.787
-90.848
-89.855
-88.816
-87.734
-86.618
-85.473
-84.305
-83.121
-81.928
-80.731
-79.537
-78.353
-77.184
-76.038
-74.919
-73.835
-72.791
-71.793
-70.849
-69.962
-69.14
-68.386
-67.708
-67.108
-66.593
-66.164
-65.827
-65.585
-65.439
-65.393
-65.448
-65.605
-65.864
-66.224
-66.686
-67.246
-67.901
-68.648
-69.481
-70.394
-71.382
-72.436
-73.549
-74.712
-75.915
-77.148
-78.402
-79.664
-80.923
-82.167
-83.383
-84.559
-85.681
-86.735
-87.708
-88.588
-89.36
-90.012
-90.531
-90.906
-91.125
-91.177
-91.051
-90.74
-90.234
-89.527
-88.614
-87.491
-86.155
-84.607
-82.849
-80.883
-78.715
-76.354
-73.809
-71.091
-68.213
-65.188
-62.034
-58.765
-55.401
-51.957
-48.453
-44.909
-41.346
-37.785
-34.248
-30.759
-27.341
-24.018
-20.813
-17.752
-14.854
-12.137
-9.617
-7.311
-5.239
-3.422
-1.876
-0.613
0.358
1.031
1.405
1.482
1.283
0.841
0.193
-0.629
-1.593
-2.679
-3.859
-5.099
-6.363
-7.608
-8.799
-9.914
-10.928
-11.815
-12.564
-13.177
-13.695
-14.212
-14.816
-15.591
-16.603
-17.878
-19.471
-21.457
-23.915
-26.923
-30.535
-34.758
-39.628
-45.251
-51.624
-58.6
-65.846
-72.763
-78.775
-83.481
-86.434
-87.101
-85.173
-80.649
-73.979
-66.281
-58.68
-51.898
-46.65
-43.659
-43.168
-44.777
-47.155
-47.803
-44.067
-33.515
-13.605
18.205
64.184
123.969
194.089
270.535
348.65
427.91
512.407
600.068
683.882
750.174
777.954
756.58
686.908
577.183
443.745
300.332
155.481
19.75
-94.169
-177.345
-224.814
-240.592
-238.877
-229.882
-218.315
-204.467
-183.514
-155.142
-123.432
-92.797
-67.869
-50.581
-40.935
-38.521
-41.82
-48.855
-57.274
-64.647
-69.726
-71.937
-70.649
-65.686
-57.295
-46.052
-33.287
-20.531
-8.603
2.024
10.946
18.062
23.305
26.653
28.488
29.367
29.612
29.437
28.978
28.223
27.212
26.027
24.678
23.157
21.508
19.798
18.112
16.559
15.227
14.188
13.495
13.165
13.199
13.582
14.293
15.315
16.636
18.231
20.065
22.094
24.262
26.503
28.766
31.009
33.187
35.265
37.216
39.026
40.698
42.246
43.683
45.019
46.265
47.436
48.552
49.641
50.734
51.865
53.06
54.339
55.721
57.217
58.836
60.582
62.451
64.432
66.517
68.699
70.972
73.328
75.759
78.253
80.797
83.379
85.986
88.607
91.232
93.849
96.448
99.019
101.554
104.044
106.481
108.854
111.153
113.365
115.481
117.49
119.381
121.145
122.773
124.257
125.591
126.769
127.787
128.641
129.328
129.846
130.192
130.366
130.368
130.198
129.856
129.345
128.666
127.821
126.812
125.643
124.316
122.836
121.205
119.429
117.512
115.46
113.28
110.976
108.556
106.028
103.398
100.675
97.866
94.979
92.023
89.006
85.934
82.816
79.661
76.474
73.264
70.037
66.802
63.565
60.333
57.113
53.912
50.737
47.595
44.492
41.435
38.431
35.486
32.606
29.798
27.067
24.418
21.857
19.389
17.018
14.747
12.58
10.52
8.569
6.73
5.003
3.39
1.891
0.507
-0.763
-1.92
-2.964
-3.899
-4.724
-5.444
-6.06
-6.577
-6.996
-7.324
-7.562
-7.717
-7.792
-7.794
-7.727
-7.598
-7.413
-7.177
-6.897
-6.58
-6.233
-5.862
-5.475
-5.077
-4.676
-4.278
-3.889
-3.517
-3.166
-2.843
-2.554
-2.303
-2.095
-1.936
-1.83
-1.779
-1.789
-1.861
-1.999
-2.204
-2.479
-2.823
-3.238
-3.724
-4.281
-4.908
-5.602
-6.362
-7.185
-8.068
-9.007
-9.997
-11.033
-12.11
-13.221
-14.36
-15.518
-16.689
-17.864
-19.035
-20.193
-21.328
-22.432
-23.495
-24.506
-25.457
-26.338
-27.138
-27.849
-28.462
-28.966
-29.354
-29.619
-29.752
-29.748
-29.6
-29.302
-28.852
-28.245
-27.48
-26.555
-25.47
-24.227
-22.828
-21.277
-19.581
-17.745
-15.78
-13.694
-11.501
-9.214
-6.847
-4.416
-1.939
0.568
3.086
5.596
8.081
10.521
12.895
15.185
17.368
19.423
21.328
23.064
24.61
25.949
27.062
27.938
28.565
28.932
29.028
28.834
28.338
27.53
26.404
24.96
23.202
21.142
18.802
16.218
13.427
10.466
7.369
4.161
0.873
-2.463
-5.804
-9.097
-12.293
-15.35
-18.237
-20.931
-23.414
-25.693
-27.82
-29.877
-31.956
-34.136
-36.464
-38.985
-41.78
-44.93
-48.54
-52.708
-57.484
-62.946
-69.209
-76.283
-84.063
-92.283
-100.445
-108.054
-114.758
-120.149
-123.737
-125.243
-124.662
-122.363
-119.215
-116.011
-113.082
-110.728
-109.461
-109.467
-110.368
-111.09
-109.564
-103.651
-92.034
-73.309
-45.512
-6.996
43.189
103.855
171.152
241.153
311.417
382.261
454.553
525.049
585.692
622.877
624.492
587.427
516.014
422.017
315.197
198.268
73.527
-55.308
-176.423
-273.073
-335.183
-362.509
-365.833
-358.896
-349.162
-337.227
-319.44
-294.211
-264.296
-234.18
-208.193
-188.093
-173.869
-165.63
-162.569
-163.198
-165.661
-167.827
-168.573
-167.801
-165.356
-160.797
-154.028
-145.426
-136.012
-127.255
-120
-114.433
-110.632
-108.647
-108.459
-109.963
-112.68
-115.846
-118.94
-121.686
-123.95
-125.729
-126.979
-127.606
-127.598
-127.005
-125.849
-124.156
-121.933
-119.168
-115.907
-112.245
-108.314
-104.254
-100.184
-96.197
-92.349
-88.675
-85.195
-81.923
-78.861
-76.013
-73.392
-70.997
-68.834
-66.901
-65.181
-63.641
-62.235
-60.907
-59.612
-58.312
-56.979
-55.597
-54.152
-52.638
-51.055
-49.402
-47.672
-45.86
-43.956
-41.951
-39.84
-37.62
-35.293
-32.86
-30.324
-27.689
-24.959
-22.135
-19.222
-16.22
-13.132
-9.958
-6.704
-3.376
0.019
3.471
6.971
10.507
14.067
17.638
21.206
24.761
28.288
31.776
35.212
38.585
41.883
45.094
48.207
51.212
54.098
56.855
59.471
61.939
64.248
66.39
68.356
70.14
71.734
73.133
74.331
75.323
76.107
76.679
77.036
77.177
77.101
76.81
76.304
75.586
74.66
73.53
72.201
70.679
68.969
67.079
65.015
62.785
60.395
57.853
55.169
52.352
49.409
46.353
43.192
39.938
36.602
33.196
29.73
26.217
22.669
19.097
15.514
11.931
8.361
4.816
1.307
-2.154
-5.557
-8.89
-12.145
-15.311
-18.379
-21.342
-24.19
-26.918
-29.517
-31.981
-34.303
-36.479
-38.503
-40.371
-42.079
-43.625
-45.006
-46.221
-47.27
-48.152
-48.871
-49.426
-49.82
-50.057
-50.141
-50.075
-49.864
-49.514
-49.03
-48.418
-47.684
-46.835
-45.876
-44.815
-43.658
-42.411
-41.08
-39.672
-38.193
-36.65
-35.05
-33.399
-31.704
-29.972
-28.209
-26.42
-24.612
-22.79
-20.958
-19.122
-17.284
-15.448
-13.617
-11.793
-9.979
-8.174
-6.381
-4.6
-2.831
-1.073
0.673
2.408
4.134
5.85
7.556
9.254
10.943
12.624
14.296
15.961
17.618
19.269
20.915
22.556
24.194
25.831
27.469
29.108
30.75
32.396
34.048
35.705
37.369
39.04
40.718
42.402
44.091
45.785
47.481
49.178
50.873
52.563
54.245
55.916
57.573
59.214
60.835
62.433
64.006
65.55
67.063
68.541
69.98
71.374
72.72
74.012
75.241
76.4
77.482
78.476
79.376
80.17
80.851
81.41
81.841
82.137
82.291
82.299
82.154
81.849
81.381
80.743
79.93
78.94
77.768
76.415
74.885
73.182
71.307
69.264
67.046
64.647
62.073
59.322
56.401
53.322
50.101
46.768
43.371
39.951
36.552
33.212
29.955
26.811
23.817
21.006
18.425
16.116
14.098
12.397
11.035
10.005
9.28
8.784
8.398
8.008
7.519
6.852
5.943
4.699
3.014
0.794
-2.062
-5.602
-9.881
-15.025
-21.023
-27.722
-34.819
-41.744
-47.93
-53.02
-56.551
-57.989
-57.233
-54.355
-49.804
-44.734
-39.929
-35.743
-32.797
-31.506
-31.59
-32.526
-32.925
-30.215
-22.527
-8.456
13.961
46.269
89.358
143.897
207.715
275.674
343.786
407.663
466.116
522.736
576.167
622.842
653.654
650.518
604.058
511.035
374.885
215.609
50.639
-103.263
-226.406
-314.206
-366.599
-388.481
-395.092
-393.737
-386.42
-373.412
-349.62
-314.843
-273.796
-230.888
-191.429
-159.077
-134.915
-119.162
-111.155
-109.46
-112.153
-117.514
-123.897
-129.216
-131.832
-130.879
-125.969
-117.52
-106.585
-94.065
-80.979
-68.695
-58.173
-49.932
-44.277
-41.052
-39.847
-40.314
-41.952
-44.141
-46.5
-48.797
-50.849
-52.599
-53.986
-54.903
-55.337
-55.326
-54.866
-53.953
-52.58
-50.731
-48.452
-45.836
-42.967
-39.911
-36.722
-33.442
-30.141
-26.916
-23.845
-20.987
-18.379
-16.037
-13.984
-12.237
-10.795
-9.638
-8.732
-8.035
-7.51
-7.134
-6.877
-6.709
-6.592
-6.479
-6.331
-6.124
-5.833
-5.442
-4.933
-4.289
-3.503
-2.578
-1.514
-0.313
1.024
2.503
4.123
5.882
7.774
9.793
11.936
14.198
16.572
19.054
21.633
24.304
27.058
29.888
32.786
35.741
38.741
41.773
44.825
47.882
50.931
53.958
56.949
59.892
62.772
65.58
68.303
70.931
73.454
75.861
78.144
80.294
82.303
84.164
85.869
87.414
88.793
90
91.034
91.889
92.565
93.06
93.374
93.509
93.465
93.245
92.854
92.296
91.576
90.701
89.677
88.511
87.212
85.787
84.245
82.596
80.848
79.01
77.091
75.101
73.049
70.944
68.797
66.616
64.413
62.197
59.978
57.768
55.576
53.413
51.29
49.215
47.199
45.251
43.379
41.592
39.897
38.301
36.81
35.431
34.169
33.028
32.012
31.125
30.369
29.747
29.261
28.912
28.7
28.626
28.689
28.888
29.223
29.69
30.286
31.009
31.852
32.81
33.878
35.046
36.307
37.651
39.07
40.552
42.087
43.664
45.271
46.895
48.525
50.149
51.753
53.325
54.851
56.32
57.717
59.03
60.246
61.352
62.336
63.185
63.886
64.428
64.8
64.991
64.989
64.787
64.374
63.745
62.892
61.811
60.497
58.95
57.167
55.151
52.902
50.424
47.722
44.801
41.67
38.337
34.811
31.103
27.225
23.191
19.015
14.712
10.299
5.792
1.21
-3.427
-8.101
-12.791
-17.477
-22.137
-26.752
-31.299
-35.757
-40.105
-44.325
-48.396
-52.3
-56.019
-59.537
-62.839
-65.913
-68.745
-71.326
-73.647
-75.702
-77.484
-78.991
-80.221
-81.174
-81.853
-82.26
-82.403
-82.29
-81.93
-81.334
-80.517
-79.495
-78.288
-76.916
-75.4
-73.762
-72.026
-70.216
-68.358
-66.474
-64.586
-62.718
-60.894
-59.139
-57.478
-55.934
-54.531
-53.289
-52.228
-51.369
-50.726
-50.306
-50.12
-50.174
-50.48
-51.058
-51.921
-53.074
-54.518
-56.251
-58.261
-60.533
-63.036
-65.726
-68.559
-71.494
-74.5
-77.558
-80.639
-83.706
-86.717
-89.612
-92.349
-94.906
-97.251
-99.361
-101.244
-102.932
-104.495
-106.041
-107.651
-109.376
-111.272
-113.387
-115.793
-118.576
-121.818
-125.582
-129.942
-135.005
-140.77
-147.126
-153.8
-160.329
-166.255
-171.23
-174.855
-176.663
-176.534
-174.66
-171.554
-168.182
-165.234
-162.935
-161.669
-161.886
-163.402
-165.529
-166.885
-165.329
-159.248
-147.559
-128.906
-102.009
-65.946
-20.304
33.76
94.171
157.841
219.915
277.092
326.811
367.619
401.512
425.046
429.867
408.347
351.494
260.921
149.595
29.986
-84.364
-186.046
-275.617
-351.542
-412.277
-456.289
-480.555
-485.226
-472.755
-446.265
-410.403
-370.02
-329.195
-291.407
-259.239
-234.185
-217.169
-208.309
-206.603
-210.278
-217.275
-225.574
-233.382
-239.412
-242.618
-242.372
-238.702
-232.13
-223.512
-213.871
-204.252
-195.349
-187.63
-181.364
-176.531
-172.953
-170.315
-168.147
-165.919
-163.311
-160.177
-156.466
-152.244
-147.558
-142.448
-137.015
-131.39
-125.662
-119.888
-114.099
-108.295
-102.513
-96.819
-91.28
-85.967
-80.922
-76.164
-71.708
-67.564
-63.737
-60.227
-57.02
-54.099
-51.447
-49.059
-46.926
-45.039
-43.38
-41.927
-40.655
-39.537
-38.551
-37.678
-36.898
-36.192
-35.543
-34.935
-34.352
-33.78
-33.201
-32.597
-31.949
-31.238
-30.447
-29.558
-28.557
-27.428
-26.161
-24.742
-23.162
-21.412
-19.486
-17.376
-15.079
-12.591
-9.91
-7.035
-3.969
-0.714
2.725
6.342
10.131
14.082
18.185
22.431
26.807
31.3
35.897
40.584
45.346
50.167
55.031
59.921
64.821
69.714
74.582
79.408
84.175
88.866
93.464
97.955
102.323
106.554
110.634
114.551
118.293
121.848
125.208
128.362
131.303
134.023
136.518
138.781
140.809
142.6
144.152
145.464
146.536
147.37
147.966
148.329
148.461
148.366
148.05
147.518
146.777
145.832
144.693
143.366
141.861
140.185
138.348
136.358
134.224
131.956
129.562
127.052
124.433
121.714
118.905
116.012
113.045
110.011
106.918
103.772
100.58
97.348
94.082
90.788
87.47
84.133
80.783
77.422
74.057
70.689
67.325
63.966
60.617
57.28
53.958
50.653
47.37
44.109
40.873
37.666
34.49
31.349
28.244
25.18
22.158
19.182
16.253
13.376
10.551
7.782
5.07
2.417
-0.172
-2.696
-5.151
-7.533
-9.841
-12.07
-14.219
-16.284
-18.263
-20.156
-21.96
-23.674
-25.297
-26.828
-28.265
-29.608
-30.856
-32.01
-33.071
-34.038
-34.913
-35.7
-36.4
-37.015
-37.547
-37.999
-38.371
-38.665
-38.882
-39.021
-39.082
-39.068
-38.98
-38.82
-38.591
-38.295
-37.938
-37.523
-37.056
-36.538
-35.97
-35.352
-34.681
-33.956
-33.176
-32.336
-31.434
-30.466
-29.433
-28.339
-27.183
-25.963
-24.673
-23.303
-21.847
-20.307
-18.686
-16.986
-15.219
-13.398
-11.549
-9.715
-7.92
-6.179
-4.499
-2.867
-1.279
0.268
1.78
3.264
4.729
6.19
7.656
9.123
10.612
12.155
13.807
15.653
17.746
20.1
22.716
25.566
28.612
31.813
35.101
38.39
41.606
44.686
47.581
50.267
52.69
54.768
56.403
57.469
57.88
57.596
56.599
54.904
52.566
49.668
46.332
42.719
38.96
35.157
31.398
27.749
24.295
21.153
18.441
16.272
14.743
13.918
13.828
14.472
15.775
17.601
19.783
22.141
24.536
26.861
28.995
30.823
32.226
33.082
33.349
32.975
31.829
29.91
27.325
24.334
21.509
19.388
18.272
18.607
20.917
25.328
31.834
40.059
48.8
57.298
65.452
72.49
77.58
80.973
82.932
85.523
93.435
108.321
130.021
157.703
187.605
220.671
261.424
313.742
382.561
466.379
559.208
653.752
738.012
801.57
834.003
825.312
773.78
684.157
565.949
431.746
293.178
158.336
36.524
-61.016
-129.86
-167.419
-176.245
-166.716
-141.743
-106.18
-68.41
-31.696
-5.25
6.945
10.759
9.207
7.345
7.534
5.581
0.459
-7.106
-16.119
-23.552
-27.694
-28.194
-25.035
-18.974
-11.22
-3.233
4.018
10.113
14.773
17.901
19.461
19.432
18.152
16.275
14.255
12.363
10.773
9.521
8.674
8.338
8.522
9.156
10.183
11.553
13.24
15.251
17.569
20.147
22.938
25.883
28.924
32.004
35.065
38.051
40.92
43.643
46.2
48.58
50.783
52.815
54.688
56.419
58.02
59.504
60.885
62.182
63.411
64.591
65.737
66.864
67.985
69.111
70.253
71.419
72.616
73.846
75.114
76.421
77.771
79.168
80.614
82.112
83.664
85.272
86.938
88.663
90.446
92.285
94.176
96.115
98.098
100.118
102.167
104.24
106.327
108.419
110.507
112.581
114.631
116.647
118.616
120.528
122.373
124.138
125.814
127.389
128.853
130.196
131.41
132.483
133.408
134.175
134.776
135.203
135.448
135.503
135.361
135.018
134.467
133.704
132.726
131.53
130.114
128.478
126.62
124.541
122.244
119.73
117.001
114.062
110.916
107.57
104.028
100.297
96.384
92.295
88.039
83.624
79.058
74.351
69.511
64.548
59.473
54.298
49.032
43.687
38.276
32.811
27.303
21.765
16.209
10.648
5.093
-0.443
-5.949
-11.412
-16.822
-22.168
-27.438
-32.623
-37.713
-42.699
-47.571
-52.322
-56.944
-61.429
-65.772
-69.965
-74.004
-77.883
-81.599
-85.147
-88.525
-91.73
-94.762
-97.621
-100.305
-102.816
-105.156
-107.326
-109.33
-111.169
-112.847
-114.369
-115.739
-116.961
-118.041
-118.984
-119.795
-120.481
-121.048
-121.502
-121.849
-122.095
-122.247
-122.312
-122.296
-122.206
-122.05
-121.833
-121.563
-121.246
-120.89
-120.499
-120.08
-119.638
-119.179
-118.709
-118.23
-117.748
-117.268
-116.793
-116.328
-115.875
-115.439
-115.022
-114.628
-114.258
-113.917
-113.604
-113.323
-113.074
-112.858
-112.677
-112.53
-112.418
-112.341
-112.296
-112.283
-112.299
-112.342
-112.408
-112.493
-112.594
-112.705
-112.823
-112.941
-113.056
-113.16
-113.25
-113.318
-113.359
-113.367
-113.335
-113.256
-113.123
-112.93
-112.67
-112.335
-111.919
-111.416
-110.82
-110.126
-109.327
-108.419
-107.397
-106.26
-105.003
-103.627
-102.13
-100.513
-98.779
-96.932
-94.976
-92.918
-90.765
-88.526
-86.213
-83.839
-81.416
-78.958
-76.483
-74.006
-71.543
-69.113
-66.73
-64.411
-62.171
-60.029
-58.002
-56.111
-54.372
-52.802
-51.419
-50.235
-49.267
-48.526
-48.016
-47.742
-47.71
-47.927
-48.409
-49.171
-50.217
-51.553
-53.177
-55.079
-57.247
-59.661
-62.283
-65.076
-68.005
-71.034
-74.138
-77.291
-80.454
-83.578
-86.598
-89.453
-92.092
-94.47
-96.548
-98.318
-99.781
-100.972
-101.959
-102.79
-103.524
-104.23
-104.983
-105.885
-107.036
-108.515
-110.459
-113.054
-116.402
-120.517
-125.219
-130.073
-134.681
-138.703
-141.681
-143.119
-142.695
-140.326
-136.536
-132.5
-129.225
-127.449
-128.077
-131.755
-138.653
-148.757
-159.578
-167.422
-170.472
-166.086
-154.03
-134.683
-102.478
-53.809
14.609
104.195
205.201
308.609
406.141
491.098
567.386
635.157
690.998
727.921
728.919
684.176
591.727
457.532
302.166
145.803
6.526
-101.562
-177.067
-224.152
-251.901
-270.032
-281.717
-286.433
-280.734
-262.857
-235.81
-204.71
-174.715
-149.064
-128.921
-114.533
-106.062
-103.415
-105.648
-111.044
-118.136
-125.625
-132.241
-137.255
-139.866
-139.509
-136.4
-131.163
-124.451
-117.108
-110.069
-103.885
-99.033
-95.812
-94.119
-93.756
-94.444
-95.712
-97.018
-97.981
-98.346
-97.986
-96.936
-95.223
-92.876
-89.982
-86.65
-82.967
-78.998
-74.789
-70.351
-65.726
-61.007
-56.305
-51.767
-47.539
-43.708
-40.329
-37.43
-34.996
-32.995
-31.37
-30.03
-28.9
-27.924
-27.048
-26.241
-25.466
-24.654
-23.721
-22.56
-21.044
-19.087
-16.632
-13.638
-10.116
-6.1
-1.651
3.122
8.129
13.308
18.601
23.978
29.414
34.859
40.264
45.568
50.685
55.554
60.126
64.36
68.249
71.814
75.09
78.154
81.074
83.888
86.631
89.315
91.943
94.528
97.078
99.594
102.097
104.599
107.111
109.644
112.196
114.747
117.273
119.729
122.075
124.283
126.331
128.202
129.891
131.388
132.691
133.804
134.724
135.447
135.97
136.283
136.382
136.268
135.943
135.411
134.678
133.75
132.63
131.321
129.827
128.148
126.287
124.243
122.015
119.609
117.028
114.279
111.37
108.308
105.102
101.76
98.293
94.709
91.017
87.226
83.344
79.38
75.344
71.245
67.093
62.898
58.669
54.418
50.155
45.89
41.634
37.398
33.191
29.025
24.91
20.856
16.873
12.971
9.16
5.449
1.845
-1.642
-5.006
-8.24
-11.34
-14.3
-17.117
-19.788
-22.31
-24.681
-26.898
-28.961
-30.867
-32.616
-34.208
-35.643
-36.921
-38.045
-39.015
-39.834
-40.505
-41.032
-41.417
-41.666
-41.782
-41.77
-41.636
-41.387
-41.029
-40.569
-40.014
-39.373
-38.654
-37.865
-37.015
-36.11
-35.159
-34.17
-33.148
-32.104
-31.042
-29.971
-28.899
-27.832
-26.778
-25.746
-24.743
-23.775
-22.85
-21.974
-21.154
-20.395
-19.704
-19.085
-18.545
-18.089
-17.72
-17.444
-17.264
-17.181
-17.196
-17.31
-17.521
-17.826
-18.222
-18.704
-19.267
-19.908
-20.622
-21.404
-22.248
-23.15
-24.107
-25.114
-26.164
-27.249
-28.357
-29.478
-30.601
-31.712
-32.8
-33.847
-34.842
-35.771
-36.627
-37.402
-38.082
-38.652
-39.094
-39.394
-39.545
-39.546
-39.393
-39.091
-38.645
-38.077
-37.418
-36.703
-35.951
-35.167
-34.346
-33.484
-32.58
-31.636
-30.654
-29.619
-28.51
-27.317
-26.034
-24.657
-23.163
-21.505
-19.605
-17.403
-14.871
-12.013
-8.862
-5.449
-1.815
1.982
5.865
9.721
13.45
16.984
20.268
23.251
25.856
27.965
29.433
30.148
30.043
29.084
27.274
24.624
21.18
17.037
12.33
7.231
1.886
-3.604
-9.155
-14.678
-20.059
-25.153
-29.799
-33.885
-37.327
-40.051
-42.027
-43.262
-43.81
-43.805
-43.41
-42.774
-42.038
-41.336
-40.791
-40.549
-40.755
-41.512
-42.955
-45.244
-48.418
-52.43
-57.061
-61.821
-66.222
-69.883
-72.344
-73.115
-71.974
-68.922
-64.366
-59.356
-54.819
-51.262
-49.175
-48.922
-50.388
-53.041
-55.59
-55.511
-50.308
-38.169
-17.152
14.461
57.85
114.089
181.807
256.086
332.049
405.092
474.206
543.529
613.114
678.013
726.065
738.404
704.486
623.766
505.148
365.353
217.167
70.465
-65.244
-180.768
-265.643
-313.879
-326.069
-308.051
-269.185
-218.519
-164.979
-118.412
-86.929
-74.429
-78.8
-92.177
-106.699
-117.822
-125.353
-132.773
-141.688
-151.498
-160.334
-164.763
-163.337
-156.733
-145.954
-132.841
-119.267
-105.991
-93.607
-82.815
-73.78
-66.592
-61.297
-57.492
-54.702
-52.715
-51.363
-50.533
-50.237
-50.403
-50.944
-51.873
-53.202
-54.918
-56.972
-59.255
-61.631
-63.963
-66.145
-68.086
-69.689
-70.884
-71.625
-71.883
-71.662
-70.992
-69.889
-68.378
-66.495
-64.258
-61.708
-58.902
-55.897
-52.777
-49.615
-46.461
-43.373
-40.39
-37.537
-34.836
-32.289
-29.88
-27.6
-25.434
-23.362
-21.375
-19.454
-17.568
-15.69
-13.779
-11.803
-9.74
-7.571
-5.281
-2.861
-0.307
2.38
5.19
8.113
11.142
14.268
17.485
20.785
24.154
27.58
31.047
34.542
38.051
41.562
45.061
48.536
51.974
55.364
58.695
61.958
65.137
68.22
71.191
74.038
76.745
79.3
81.689
83.899
85.918
87.736
89.345
90.736
91.9
92.832
93.524
93.973
94.175
94.127
93.827
93.276
92.474
91.422
90.124
88.583
86.806
84.796
82.562
80.111
77.452
74.594
71.549
68.327
64.942
61.405
57.731
53.934
50.029
46.032
41.957
37.82
33.638
29.424
25.194
20.964
16.746
12.557
8.409
4.316
0.291
-3.653
-7.505
-11.254
-14.888
-18.398
-21.775
-25.011
-28.098
-31.029
-33.8
-36.404
-38.838
-41.099
-43.183
-45.09
-46.819
-48.37
-49.746
-50.947
-51.978
-52.842
-53.545
-54.09
-54.485
-54.735
-54.846
-54.826
-54.682
-54.421
-54.051
-53.58
-53.016
-52.367
-51.642
-50.848
-49.995
-49.089
-48.14
-47.155
-46.144
-45.112
-44.07
-43.025
-41.984
-40.955
-39.945
-38.963
-38.013
-37.103
-36.238
-35.424
-34.665
-33.966
-33.331
-32.763
-32.264
-31.839
-31.488
-31.214
-31.018
-30.901
-30.864
-30.908
-31.031
-31.235
-31.518
-31.879
-32.317
-32.83
-33.415
-34.069
-34.789
-35.57
-36.407
-37.294
-38.226
-39.195
-40.194
-41.215
-42.25
-43.289
-44.322
-45.341
-46.335
-47.293
-48.206
-49.062
-49.852
-50.565
-51.191
-51.719
-52.14
-52.443
-52.62
-52.659
-52.552
-52.289
-51.863
-51.263
-50.485
-49.52
-48.363
-47.008
-45.453
-43.694
-41.731
-39.562
-37.188
-34.614
-31.842
-28.879
-25.734
-22.415
-18.933
-15.302
-11.537
-7.654
-3.671
0.392
4.517
8.683
12.869
17.054
21.217
25.339
29.396
33.369
37.232
40.964
44.54
47.936
51.129
54.098
56.821
59.281
61.465
63.359
64.952
66.232
67.179
67.78
68.028
67.914
67.439
66.609
65.438
63.954
62.199
60.215
58.041
55.715
53.263
50.716
48.109
45.479
42.876
40.346
37.929
35.665
33.583
31.699
30.007
28.456
26.962
25.44
23.818
22.046
20.084
17.865
15.316
12.356
8.909
4.928
0.345
-4.965
-11.028
-17.735
-24.822
-31.802
-38.175
-43.584
-47.648
-49.885
-50.042
-48.169
-44.676
-40.487
-36.494
-33.117
-30.664
-29.562
-29.9
-31.194
-32.309
-31.154
-25.405
-13.499
5.867
34.335
73.365
123.72
185.192
254.929
328.035
400.542
469.389
534.18
596.087
652.766
697.323
717.517
701.177
643.642
550.27
436.316
318.202
207.035
107.6
18.853
-59.496
-125.027
-175.156
-207.475
-222.407
-223.379
-214.097
-198.42
-180.371
-163.276
-149.295
-139.909
-134.42
-129.572
-123.453
-116.223
-111.166
-115.539
-133.301
-159.237
-180.762
-182.248
-153.482
-101.256
-44.967
-3.768
8.412
-5.521
-29.198
-49.717
-57.856
-53.523
-45.601
-39.1
-36.485
-38.156
-41.02
-43.824
-46.734
-49.486
-52.303
-55.181
-57.671
-59.582
-60.844
-61.322
-60.952
-59.765
-57.839
-55.265
-52.143
-48.559
-44.594
-40.366
-36.027
-31.711
-27.506
-23.478
-19.671
-16.122
-12.877
-9.967
-7.391
-5.138
-3.2
-1.564
-0.224
0.831
1.641
2.248
2.7
3.052
3.34
3.592
3.835
4.092
4.378
4.71
5.093
5.526
6.018
6.577
7.215
7.944
8.77
9.696
10.726
11.862
13.106
14.461
15.926
17.502
19.19
20.992
22.907
24.936
27.077
29.324
31.67
34.107
36.624
39.21
41.854
44.542
47.26
49.997
52.738
55.472
58.184
60.863
63.493
66.062
68.556
70.961
73.263
75.448
77.502
79.412
81.165
82.748
84.149
85.357
86.361
87.153
87.723
88.063
88.168
88.032
87.65
87.022
86.145
85.02
83.649
82.036
80.184
78.1
75.79
73.26
70.518
67.574
64.435
61.111
57.612
53.95
50.135
46.18
42.098
37.902
33.606
29.224
24.771
20.262
15.712
11.136
6.549
1.967
-2.595
-7.123
-11.602
-16.018
-20.359
-24.612
-28.766
-32.811
-36.738
-40.538
-44.205
-47.732
-51.112
-54.343
-57.418
-60.335
-63.09
-65.683
-68.11
-70.372
-72.469
-74.4
-76.169
-77.777
-79.227
-80.522
-81.667
-82.665
-83.522
-84.243
-84.836
-85.306
-85.662
-85.911
-86.061
-86.12
-86.096
-85.997
-85.83
-85.604
-85.323
-84.997
-84.63
-84.229
-83.8
-83.35
-82.883
-82.407
-81.926
-81.445
-80.968
-80.501
-80.047
-79.609
-79.191
-78.795
-78.424
-78.081
-77.769
-77.49
-77.245
-77.036
-76.863
-76.727
-76.626
-76.56
-76.527
-76.524
-76.55
-76.602
-76.679
-76.776
-76.892
-77.024
-77.167
-77.317
-77.471
-77.622
-77.765
-77.895
-78.005
-78.088
-78.14
-78.154
-78.127
-78.055
-77.933
-77.757
-77.523
-77.228
-76.866
-76.428
-75.908
-75.295
-74.583
-73.766
-72.839
-71.798
-70.639
-69.361
-67.966
-66.454
-64.824
-63.072
-61.19
-59.172
-57.025
-54.756
-52.381
-49.925
-47.409
-44.854
-42.292
-39.745
-37.225
-34.738
-32.273
-29.814
-27.362
-24.925
-22.526
-20.19
-17.921
-15.716
-13.569
-11.454
-9.35
-7.232
-5.051
-2.777
-0.414
2.018
4.454
6.812
9.038
11.1
12.981
14.677
16.161
17.397
18.353
18.979
19.231
19.053
18.356
17.084
15.231
12.833
9.992
6.841
3.481
-0.004
-3.545
-7.082
-10.538
-13.831
-16.889
-19.639
-22.01
-23.912
-25.233
-25.917
-25.959
-25.406
-24.379
-22.99
-21.343
-19.575
-17.816
-16.205
-14.892
-13.97
-13.561
-13.854
-14.924
-16.748
-19.169
-21.719
-23.925
-25.455
-25.841
-24.565
-21.411
-16.414
-10.097
-3.75
1.405
4.561
4.938
1.943
-4.423
-13.525
-23.714
-31.887
-34.751
-29.534
-13.439
16.027
60.586
121.242
196.229
280.115
367.087
451.219
530.049
605.809
676.971
738.413
778.751
780.76
735.682
644.174
515.242
365.219
207.386
52.242
-89.077
-205.159
-285.512
-325.314
-327.106
-299.499
-252.986
-196.38
-138.285
-88.057
-53.811
-39.572
-43.026
-55.727
-69.023
-78.226
-83.261
-87.894
-94.266
-101.962
-109.161
-112.601
-110.919
-104.799
-95.263
-84.026
-72.732
-62.019
-52.348
-44.277
-37.898
-33.178
-30.042
-28.02
-26.568
-25.416
-24.408
-23.468
-22.651
-21.954
-21.338
-20.849
-20.552
-20.47
-20.595
-20.855
-21.132
-21.354
-21.497
-21.563
-21.561
-21.483
-21.295
-20.951
-20.436
-19.745
-18.873
-17.819
-16.572
-15.13
-13.52
-11.8
-10.039
-8.29
-6.576
-4.903
-3.275
-1.703
-0.205
1.2
2.513
3.739
4.882
5.942
6.916
7.812
8.654
9.479
10.332
11.244
12.235
13.318
14.504
15.802
17.222
18.766
20.427
22.2
24.083
26.075
28.177
30.387
32.694
35.087
37.552
40.078
42.656
45.273
47.921
50.587
53.262
55.939
58.611
61.269
63.904
66.502
69.053
71.545
73.964
76.3
78.54
80.672
82.685
84.569
86.317
87.919
89.367
90.654
91.773
92.719
93.485
94.067
94.46
94.661
94.666
94.473
94.08
93.486
92.691
91.696
90.501
89.109
87.521
85.743
83.777
81.628
79.304
76.81
74.155
71.347
68.395
65.31
62.101
58.779
55.356
51.841
48.246
44.582
40.86
37.091
33.286
29.455
25.61
21.763
17.923
14.102
10.312
6.562
2.863
-0.776
-4.343
-7.831
-11.231
-14.535
-17.735
-20.825
-23.798
-26.65
-29.377
-31.975
-34.443
-36.778
-38.982
-41.054
-42.997
-44.81
-46.499
-48.063
-49.508
-50.837
-52.053
-53.16
-54.164
-55.068
-55.879
-56.601
-57.241
-57.805
-58.299
-58.729
-59.101
-59.423
-59.702
-59.942
-60.152
-60.338
-60.506
-60.663
-60.814
-60.965
-61.121
-61.286
-61.463
-61.656
-61.867
-62.096
-62.344
-62.613
-62.901
-63.21
-63.539
-63.887
-64.254
-64.639
-65.04
-65.457
-65.887
-66.327
-66.776
-67.231
-67.688
-68.146
-68.601
-69.049
-69.486
-69.909
-70.314
-70.694
-71.045
-71.359
-71.632
-71.856
-72.025
-72.132
-72.17
-72.135
-72.022
-71.829
-71.55
-71.183
-70.725
-70.172
-69.524
-68.774
-67.918
-66.949
-65.859
-64.646
-63.306
-61.836
-60.233
-58.494
-56.618
-54.608
-52.465
-50.188
-47.773
-45.207
-42.49
-39.63
-36.641
-33.542
-30.354
-27.091
-23.776
-20.439
-17.102
-13.777
-10.464
-7.145
-3.816
-0.486
2.826
6.083
9.266
12.374
15.406
18.368
21.269
24.109
26.911
29.717
32.538
35.356
38.122
40.742
43.151
45.311
47.192
48.787
50.077
51.024
51.6
51.78
51.524
50.796
49.536
47.652
45.104
41.902
38.098
33.812
29.143
24.163
18.941
13.532
7.987
2.373
-3.258
-8.864
-14.372
-19.704
-24.766
-29.44
-33.642
-37.352
-40.601
-43.484
-46.113
-48.571
-50.919
-53.226
-55.559
-58.004
-60.65
-63.564
-66.811
-70.503
-74.814
-79.851
-85.583
-91.78
-97.981
-103.683
-108.497
-112.01
-113.682
-113.185
-110.605
-106.483
-101.985
-98.326
-96.184
-96.108
-98.846
-104.693
-113.095
-122.567
-130.296
-133.157
-128.986
-115.638
-90.43
-51.216
3.064
70.882
147.507
227.82
308.461
389.037
469.941
547.829
614.216
654.823
656.065
612.696
529.042
419.669
301.117
184.73
76.146
-24.668
-117.089
-197.654
-261.859
-305.476
-328.152
-332.866
-323.47
-304.657
-280.041
-251.31
-222.035
-195.659
-175.057
-165.074
-164.165
-165.53
-162.497
-146.269
-116.324
-81.16
-48.472
-26.452
-17.436
-16.325
-19.67
-24.539
-29.251
-34.974
-41.241
-46.618
-50.261
-51.315
-49.682
-46.163
-41.661
-36.768
-32.032
-27.851
-24.327
-21.485
-19.215
-17.16
-14.866
-12.082
-8.703
-4.756
-0.433
4.126
8.832
13.553
18.154
22.524
26.58
30.3
33.726
36.884
39.778
42.396
44.708
46.706
48.416
49.875
51.127
52.206
53.134
53.939
54.65
55.301
55.917
56.508
57.076
57.623
58.161
58.708
59.285
59.909
60.586
61.324
62.132
63.015
63.985
65.045
66.199
67.448
68.793
70.24
71.791
73.448
75.207
77.065
79.014
81.05
83.165
85.349
87.592
89.882
92.207
94.555
96.913
99.268
101.606
103.914
106.175
108.377
110.504
112.542
114.475
116.29
117.973
119.508
120.883
122.084
123.098
123.914
124.52
124.908
125.067
124.991
124.674
124.11
123.297
122.233
120.916
119.347
117.527
115.46
113.15
110.602
107.824
104.822
101.604
98.18
94.561
90.756
86.778
82.637
78.347
73.92
69.371
64.714
59.963
55.133
50.239
45.298
40.325
35.335
30.345
25.369
20.422
15.52
10.677
5.904
1.217
-3.374
-7.858
-12.223
-16.459
-20.559
-24.513
-28.315
-31.958
-35.437
-38.747
-41.884
-44.846
-47.631
-50.236
-52.662
-54.908
-56.975
-58.867
-60.584
-62.13
-63.51
-64.728
-65.79
-66.702
-67.471
-68.102
-68.604
-68.984
-69.25
-69.409
-69.469
-69.438
-69.324
-69.134
-68.877
-68.559
-68.19
-67.776
-67.325
-66.844
-66.342
-65.825
-65.3
-64.772
-64.249
-63.736
-63.237
-62.759
-62.305
-61.879
-61.484
-61.123
-60.799
-60.514
-60.268
-60.063
-59.9
-59.779
-59.702
-59.667
-59.676
-59.728
-59.823
-59.96
-60.139
-60.359
-60.617
-60.911
-61.239
-61.596
-61.979
-62.379
-62.792
-63.21
-63.629
-64.04
-64.437
-64.814
-65.165
-65.487
-65.775
-66.024
-66.227
-66.378
-66.472
-66.501
-66.459
-66.336
-66.124
-65.814
-65.397
-64.869
-64.221
-63.442
-62.523
-61.446
-60.202
-58.791
-57.211
-55.468
-53.573
-51.539
-49.393
-47.17
-44.901
-42.612
-40.328
-38.058
-35.825
-33.645
-31.532
-29.503
-27.567
-25.707
-23.907
-22.143
-20.366
-18.533
-16.581
-14.426
-12.009
-9.288
-6.23
-2.835
0.899
4.962
9.318
13.925
18.724
23.621
28.514
33.287
37.791
41.884
45.414
48.203
50.111
51.021
50.844
49.534
47.059
43.415
38.64
32.797
25.979
18.318
9.958
1.061
-8.176
-17.569
-26.926
-36.034
-44.704
-52.769
-60.099
-66.596
-72.192
-76.859
-80.602
-83.472
-85.554
-86.942
-87.744
-88.105
-88.183
-88.14
-88.148
-88.34
-88.889
-90.011
-91.782
-94.19
-97.067
-100.011
-102.667
-104.772
-105.933
-105.734
-103.943
-100.447
-95.66
-90.525
-85.784
-81.975
-79.495
-78.557
-79.355
-81.839
-84.927
-86.637
-84.948
-77.931
-64.223
-42.566
-11.243
31.224
85.401
149.169
218.165
288.43
356.141
421.357
488.278
556.038
620.982
672.645
690.371
661.561
580.972
453.502
301.748
147.474
9.945
-96.486
-171.949
-221.257
-252.622
-274.83
-289.755
-296.259
-291.979
-275.993
-252.071
-225.999
-202.799
-185.123
-173.202
-166.034
-162.178
-160.35
-158.852
-155.7
-149.845
-141.018
-129.5
-116.088
-101.506
-86.356
-71.48
-57.78
-45.799
-35.794
-27.777
-21.514
-16.819
-13.551
-11.503
-10.474
-10.272
-10.708
-11.617
-12.867
-14.341
-15.926
-17.526
-19.017
-20.265
-21.169
-21.641
-21.645
-21.179
-20.242
-18.845
-17.007
-14.774
-12.216
-9.419
-6.463
-3.398
-0.276
2.853
5.919
8.833
11.526
13.951
16.082
17.909
19.423
20.616
21.496
22.088
22.424
22.542
22.472
22.233
21.853
21.362
20.799
20.214
19.647
19.125
18.673
18.311
18.059
17.934
17.946
18.096
18.384
18.814
19.388
20.115
20.997
22.032
23.22
24.554
26.032
27.65
29.406
31.292
33.303
35.434
37.678
40.032
42.488
45.039
47.672
50.378
53.143
55.954
58.798
61.661
64.527
67.383
70.214
73.008
75.75
78.428
81.029
83.54
85.949
88.246
90.42
92.46
94.358
96.107
97.698
99.126
100.384
101.468
102.372
103.094
103.629
103.976
104.133
104.099
103.874
103.46
102.857
102.07
101.102
99.958
98.643
97.165
95.531
93.748
91.825
89.771
87.596
85.309
82.92
80.44
77.879
75.248
72.557
69.818
67.04
64.234
61.411
58.58
55.751
52.935
50.139
47.375
44.65
41.974
39.356
36.803
34.324
31.925
29.614
27.394
25.273
23.253
21.337
19.529
17.83
16.241
14.763
13.393
12.132
10.977
9.926
8.976
8.122
7.361
6.689
6.099
5.587
5.148
4.775
4.462
4.204
3.994
3.825
3.691
3.584
3.497
3.422
3.353
3.282
3.202
3.106
2.988
2.841
2.66
2.441
2.177
1.864
1.5
1.08
0.601
0.061
-0.542
-1.209
-1.941
-2.738
-3.601
-4.528
-5.518
-6.57
-7.681
-8.849
-10.071
-11.344
-12.664
-14.027
-15.427
-16.859
-18.317
-19.796
-21.287
-22.785
-24.282
-25.771
-27.244
-28.694
-30.113
-31.494
-32.829
-34.11
-35.33
-36.483
-37.559
-38.553
-39.457
-40.265
-40.97
-41.567
-42.05
-42.413
-42.653
-42.764
-42.743
-42.588
-42.296
-41.865
-41.295
-40.587
-39.741
-38.76
-37.647
-36.407
-35.046
-33.569
-31.985
-30.302
-28.53
-26.68
-24.765
-22.796
-20.788
-18.756
-16.715
-14.68
-12.667
-10.69
-8.765
-6.907
-5.131
-3.453
-1.89
-0.457
0.829
1.952
2.898
3.654
4.209
4.557
4.692
4.61
4.305
3.768
2.99
1.969
0.706
-0.797
-2.532
-4.483
-6.627
-8.925
-11.339
-13.835
-16.379
-18.951
-21.523
-24.069
-26.551
-28.927
-31.157
-33.205
-35.044
-36.65
-38.011
-39.137
-40.08
-40.921
-41.749
-42.635
-43.619
-44.746
-46.073
-47.67
-49.624
-52.015
-54.899
-58.357
-62.514
-67.411
-72.942
-78.831
-84.571
-89.612
-93.53
-95.878
-96.111
-93.922
-89.411
-83.099
-76.076
-69.529
-64.169
-60.619
-59.683
-61.676
-66.08
-71.556
-75.599
-75.202
-68.079
-52.166
-24.922
15.71
70.632
139.475
218.736
302.409
385.44
463.529
534.971
600.127
655.932
695.93
709.286
684.121
615.422
505.039
363.211
206.662
51.672
-85.531
-192.695
-266.046
-308.331
-328.692
-336.811
-337.113
-329.206
-309.759
-277.968
-237.388
-193.639
-152.67
-118.059
-91.032
-72.224
-61.415
-57.545
-58.948
-63.438
-68.902
-73.669
-76.564
-76.608
-73.274
-66.725
-57.709
-47.355
-36.906
-27.521
-19.943
-14.687
-12.037
-11.912
-14.041
-17.968
-23.06
-28.642
-34.255
-39.564
-44.355
-48.545
-52.018
-54.696
-56.586
-57.723
-58.14
-57.857
-56.876
-55.206
-52.91
-50.079
-46.83
-43.297
-39.592
-35.831
-32.115
-28.519
-25.122
-21.975
-19.106
-16.534
-14.265
-12.295
-10.621
-9.232
-8.103
-7.208
-6.513
-5.973
-5.551
-5.2
-4.882
-4.573
-4.251
-3.898
-3.506
-3.068
-2.579
-2.042
-1.456
-0.817
-0.125
0.626
1.437
2.308
3.239
4.228
5.273
6.374
7.531
8.746
10.018
11.348
12.734
14.18
15.683
17.24
18.847
20.499
22.19
23.912
25.661
27.427
29.204
30.983
32.758
34.522
36.268
37.988
39.674
41.318
42.913
44.451
45.924
47.324
48.644
49.874
51.008
52.038
52.959
53.763
54.444
54.997
55.418
55.701
55.845
55.846
55.702
55.413
54.976
54.394
53.665
52.791
51.775
50.617
49.322
47.893
46.333
44.646
42.838
40.913
38.878
36.739
34.503
32.178
29.771
27.292
24.75
22.154
19.514
16.841
14.146
11.438
8.729
6.027
3.345
0.691
-1.926
-4.495
-7.009
-9.458
-11.833
-14.128
-16.334
-18.444
-20.452
-22.352
-24.138
-25.805
-27.349
-28.767
-30.055
-31.211
-32.232
-33.118
-33.868
-34.483
-34.963
-35.311
-35.53
-35.622
-35.593
-35.448
-35.19
-34.827
-34.364
-33.807
-33.162
-32.437
-31.637
-30.772
-29.848
-28.873
-27.856
-26.805
-25.728
-24.634
-23.531
-22.426
-21.326
-20.241
-19.177
-18.141
-17.141
-16.183
-15.275
-14.424
-13.636
-12.916
-12.271
-11.704
-11.22
-10.823
-10.516
-10.302
-10.182
-10.16
-10.237
-10.416
-10.696
-11.077
-11.559
-12.14
-12.818
-13.588
-14.444
-15.38
-16.392
-17.474
-18.619
-19.822
-21.075
-22.375
-23.715
-25.093
-26.499
-27.926
-29.362
-30.796
-32.218
-33.615
-34.975
-36.284
-37.528
-38.698
-39.787
-40.788
-41.691
-42.482
-43.143
-43.663
-44.039
-44.268
-44.352
-44.292
-44.097
-43.789
-43.401
-42.964
-42.5
-42.014
-41.502
-40.962
-40.398
-39.812
-39.209
-38.574
-37.891
-37.147
-36.34
-35.462
-34.49
-33.378
-32.053
-30.458
-28.572
-26.401
-23.977
-21.329
-18.497
-15.533
-12.508
-9.519
-6.656
-3.987
-1.564
0.553
2.285
3.523
4.134
4.019
3.122
1.429
-1.04
-4.251
-8.148
-12.645
-17.619
-22.926
-28.435
-34.044
-39.666
-45.199
-50.528
-55.522
-60.041
-63.976
-67.267
-69.903
-71.906
-73.34
-74.279
-74.805
-75.041
-75.142
-75.252
-75.514
-76.054
-76.97
-78.408
-80.567
-83.544
-87.29
-91.576
-95.941
-99.906
-103.112
-105.154
-105.516
-103.933
-100.508
-95.773
-90.832
-86.777
-84.186
-83.499
-85.278
-89.577
-95.671
-102.057
-106.136
-105.013
-96.638
-79.211
-50.575
-9.072
45.869
113.656
190.885
272.004
352.479
428.485
498.522
562.943
618.865
659.343
672.96
648.578
582.626
481.216
359.459
233.514
114.163
6.362
-89.739
-173.516
-241.716
-290.942
-318.633
-324.83
-312.454
-285.598
-249.295
-208.812
-169.141
-134.389
-107.189
-89.121
-80.616
-81.02
-88.732
-101.323
-115.786
-129.409
-140.451
-147.71
-150.604
-149.177
-143.872
-135.639
-125.959
-116.322
-107.665
-100.583
-95.325
-91.823
-89.967
-89.498
-89.896
-90.546
-91.019
-91.039
-90.5
-89.444
-87.876
-85.797
-83.257
-80.341
-77.129
-73.684
-70.041
-66.201
-62.188
-58.044
-53.83
-49.62
-45.483
-41.476
-37.642
-34.006
-30.592
-27.414
-24.481
-21.791
-19.334
-17.092
-15.054
-13.21
-11.548
-10.056
-8.711
-7.49
-6.37
-5.33
-4.352
-3.421
-2.52
-1.634
-0.749
0.147
1.064
2.012
3.003
4.047
5.157
6.343
7.615
8.979
10.443
12.014
13.697
15.493
17.406
19.435
21.579
23.837
26.205
28.679
31.253
33.922
36.677
39.509
42.409
45.367
48.371
51.41
54.472
57.544
60.612
63.664
66.685
69.662
72.58
75.425
78.184
80.841
83.384
85.8
88.076
90.199
92.16
93.948
95.553
96.967
98.183
99.194
99.994
100.58
100.947
101.093
101.016
100.717
100.195
99.451
98.489
97.31
95.919
94.32
92.518
90.521
88.334
85.967
83.427
80.724
77.87
74.875
71.75
68.51
65.165
61.73
58.217
54.64
51.013
47.349
43.662
39.965
36.272
32.596
28.95
25.348
21.801
18.321
14.919
11.608
8.396
5.295
2.314
-0.538
-3.252
-5.819
-8.234
-10.488
-12.577
-14.496
-16.24
-17.808
-19.197
-20.407
-21.438
-22.291
-22.967
-23.468
-23.798
-23.96
-23.96
-23.801
-23.49
-23.033
-22.436
-21.706
-20.851
-19.879
-18.796
-17.612
-16.334
-14.972
-13.534
-12.03
-10.469
-8.862
-7.22
-5.551
-3.867
-2.177
-0.489
1.187
2.843
4.471
6.063
7.613
9.114
10.56
11.943
13.258
14.501
15.667
16.752
17.752
18.665
19.486
20.215
20.848
21.385
21.822
22.159
22.395
22.531
22.568
22.507
22.352
22.106
21.776
21.368
20.887
20.339
19.731
19.066
18.353
17.594
16.794
15.957
15.089
14.199
13.294
12.386
11.482
10.593
9.732
8.908
8.131
7.41
6.746
6.148
5.622
5.179
4.836
4.603
4.482
4.475
4.584
4.803
5.121
5.515
5.947
6.393
6.838
7.277
7.718
8.164
8.618
9.082
9.564
10.067
10.606
11.184
11.795
12.453
13.185
14.04
15.097
16.402
17.969
19.795
21.851
24.098
26.495
28.972
31.44
33.824
36.059
38.096
39.911
41.448
42.629
43.352
43.492
42.962
41.719
39.741
37.036
33.651
29.66
25.18
20.371
15.364
10.258
5.142
0.074
-4.855
-9.526
-13.815
-17.595
-20.766
-23.253
-25.013
-26.041
-26.39
-26.17
-25.528
-24.624
-23.604
-22.596
-21.727
-21.117
-20.893
-21.173
-22.103
-23.856
-26.514
-30.037
-34.21
-38.613
-42.766
-46.224
-48.484
-48.93
-47.185
-43.306
-37.781
-31.625
-25.933
-21.436
-18.751
-18.644
-21.396
-26.332
-31.93
-35.619
-34.4
-25.823
-7.658
22.396
66.205
124.48
196.228
278.881
367.594
455.943
539.064
612.607
673.439
721.687
753.732
762.982
743.499
688.102
595.948
473.126
329.951
181.458
43.417
-68.732
-146.198
-188.321
-201.8
-200.407
-193.766
-186.547
-179.724
-169.98
-157.584
-145.107
-134.625
-128.872
-128.098
-130.492
-134.507
-138.086
-139.287
-137.452
-132.465
-124.585
-114.64
-103.451
-91.689
-80.175
-69.69
-60.614
-53.102
-47.12
-42.448
-38.961
-36.571
-35.122
-34.483
-34.528
-35.127
-36.197
-37.645
-39.341
-41.184
-43.082
-44.986
-46.903
-48.837
-50.797
-52.792
-54.787
-56.763
-58.719
-60.592
-62.336
-63.91
-65.241
-66.318
-67.161
-67.772
-68.17
-68.352
-68.274
-67.913
-67.253
-66.258
-64.928
-63.245
-61.167
-58.736
-56.014
-53.061
-49.984
-46.845
-43.657
-40.467
-37.311
-34.187
-31.116
-28.155
-25.334
-22.704
-20.324
-18.2
-16.332
-14.763
-13.533
-12.442
-11.225
-9.951
-8.589
-7.079
-5.806
-3.657
0.456
4.997
9.483
11.094
6.467
-0.646
-7.73
-11.069
-5.591
4.182
14.408
22.445
23.965
22.044
19.776
17.831
18.091
19.426
20.433
21.399
22.126
22.704
23.404
23.994
24.375
24.661
24.754
24.57
24.029
23.013
21.676
20.246
18.687
16.942
15.226
13.658
12.525
12.2
12.322
12.471
12.648
12.752
12.529
11.89
10.383
7.477
3.642
-0.637
-5.263
-9.979
-14.631
-19.215
-23.302
-26.439
-28.958
-31.165
-33.166
-35.199
-37.252
-39.24
-41.37
-43.833
-46.486
-49.216
-51.947
-54.541
-57.045
-59.521
-61.915
-64.198
-66.384
-68.471
-70.478
-72.434
-74.316
-76.102
-77.787
-79.36
-80.827
-82.197
-83.472
-84.653
-85.743
-86.744
-87.66
-88.496
-89.256
-89.948
-90.574
-91.14
-91.652
-92.114
-92.535
-92.919
-93.27
-93.588
-93.876
-94.137
-94.374
-94.592
-94.792
-94.979
-95.156
-95.325
-95.491
-95.656
-95.823
-95.994
-96.169
-96.351
-96.539
-96.736
-96.942
-97.157
-97.38
-97.612
-97.851
-98.098
-98.35
-98.606
-98.863
-99.121
-99.377
-99.631
-99.879
-100.121
-100.356
-100.581
-100.796
-101
-101.188
-101.359
-101.509
-101.634
-101.728
-101.787
-101.803
-101.771
-101.683
-101.534
-101.318
-101.03
-100.665
-100.218
-99.684
-99.058
-98.333
-97.503
-96.558
-95.49
-94.289
-92.947
-91.457
-89.814
-88.012
-86.05
-83.925
-81.635
-79.176
-76.54
-73.718
-70.704
-67.496
-64.098
-60.522
-56.787
-52.92
-48.95
-44.907
-40.816
-36.694
-32.545
-28.37
-24.167
-19.933
-15.676
-11.416
-7.172
-2.965
1.195
5.305
9.378
13.445
17.545
21.717
25.985
30.345
34.763
39.198
43.588
47.859
51.961
55.828
59.399
62.652
65.547
68.051
70.14
71.683
72.531
72.694
72.17
71
69.32
67.036
64.044
60.56
56.752
52.501
47.792
42.407
36.048
29.161
22.248
15.407
8.854
2.951
-2.119
-5.817
-7.585
-7.918
-7.4
-6.31
-5.075
-3.982
-3.139
-3.059
-4.297
-6.645
-9.887
-13.98
-18.716
-24.135
-30.437
-37.442
-44.807
-52.329
-59.562
-66.032
-71.482
-75.372
-76.995
-76.078
-72.634
-67.122
-60.538
-53.376
-46.011
-39.429
-34.411
-31.274
-28.84
-23.584
-13.314
2.11
21.374
41.211
64.428
98.561
148.752
219.513
306.804
398.302
487.55
571.269
645.787
711.854
761.486
776.567
748.35
671.495
548.407
399.871
242.999
94.157
-26.99
-115.713
-171.459
-198.165
-210.528
-216.075
-217.106
-213.437
-198.96
-172.873
-139.387
-102.988
-69.439
-41.932
-20.945
-7.021
-0.01
1.047
-2.549
-9.045
-16.628
-23.813
-29.573
-32.986
-33.451
-30.943
-25.887
-19.058
-11.437
-4.035
2.497
7.721
11.377
13.496
14.24
13.903
12.958
11.958
11.248
10.998
11.279
12.027
13.201
14.783
16.683
18.786
21.011
23.305
25.644
28.039
30.459
32.845
35.13
37.237
39.122
40.767
42.159
43.297
44.18
44.816
45.222
45.427
45.453
45.314
45.024
44.594
44.044
43.401
42.695
41.955
41.206
40.469
39.764
39.108
38.516
38
37.571
37.236
37.003
36.884
36.886
37.021
37.296
37.715
38.284
39.005
39.881
40.91
42.091
43.42
44.893
46.503
48.246
50.112
52.093
54.179
56.36
58.623
60.957
63.346
65.778
68.236
70.707
73.175
75.624
78.041
80.411
82.719
84.953
87.099
89.145
91.078
92.888
94.563
96.094
97.471
98.685
99.728
100.595
101.279
101.775
102.081
102.193
102.109
101.827
101.348
100.671
99.798
98.732
97.474
96.03
94.404
92.602
90.629
88.493
86.201
83.762
81.181
78.469
75.634
72.685
69.631
66.483
63.249
59.942
56.57
53.145
49.677
46.177
42.656
39.123
35.59
32.067
28.564
25.091
21.658
18.276
14.953
11.7
8.526
5.438
2.445
-0.445
-3.225
-5.889
-8.43
-10.842
-13.12
-15.259
-17.254
-19.102
-20.799
-22.343
-23.733
-24.967
-26.045
-26.968
-27.736
-28.351
-28.815
-29.132
-29.303
-29.334
-29.227
-28.988
-28.623
-28.136
-27.535
-26.826
-26.016
-25.113
-24.126
-23.061
-21.928
-20.735
-19.492
-18.208
-16.892
-15.555
-14.206
-12.856
-11.516
-10.195
-8.903
-7.651
-6.447
-5.301
-4.221
-3.215
-2.293
-1.461
-0.726
-0.096
0.423
0.826
1.107
1.261
1.285
1.175
0.93
0.546
0.024
-0.638
-1.439
-2.377
-3.452
-4.661
-5.999
-7.462
-9.045
-10.74
-12.541
-14.439
-16.424
-18.486
-20.616
-22.802
-25.033
-27.297
-29.583
-31.879
-34.171
-36.447
-38.695
-40.902
-43.055
-45.141
-47.149
-49.066
-50.883
-52.589
-54.174
-55.629
-56.945
-58.117
-59.137
-60
-60.701
-61.238
-61.608
-61.813
-61.852
-61.731
-61.452
-61.025
-60.457
-59.759
-58.942
-58.02
-57.006
-55.915
-54.763
-53.566
-52.339
-51.097
-49.858
-48.638
-47.456
-46.331
-45.28
-44.32
-43.471
-42.751
-42.177
-41.764
-41.52
-41.454
-41.578
-41.902
-42.443
-43.214
-44.219
-45.461
-46.943
-48.658
-50.594
-52.726
-55.004
-57.383
-59.816
-62.261
-64.688
-67.064
-69.343
-71.483
-73.431
-75.143
-76.595
-77.762
-78.614
-79.149
-79.381
-79.37
-79.241
-79.114
-79.102
-79.302
-79.776
-80.605
-81.897
-83.745
-86.248
-89.482
-93.451
-98.202
-103.82
-110.229
-117.241
-124.469
-131.26
-137.068
-141.456
-143.897
-143.97
-141.52
-136.589
-129.76
-122.009
-114.026
-106.439
-99.875
-94.477
-89.993
-85.659
-79.663
-69.899
-54.587
-31.669
0.776
43.919
98.56
163.188
233.466
305.434
374.8
439.855
502.632
561.056
610.069
640.284
637.431
594.562
513.161
400.337
269.173
131.812
-3.103
-124.878
-221.324
-285.422
-314.964
-315.975
-303.168
-286.786
-271.932
-259.933
-246.828
-232.031
-217.748
-205.546
-197.665
-194.182
-193.329
-193.561
-193.108
-190.481
-185.22
-177.426
-167.565
-156.476
-144.935
-133.586
-123.115
-114.157
-107.07
-101.988
-98.858
-97.447
-97.529
-98.9
-101.331
-104.581
-108.399
-112.524
-116.699
-120.709
-124.397
-127.652
-130.387
-132.531
-134.02
-134.79
-134.826
-134.14
-132.752
-130.704
-128.033
-124.783
-121.047
-116.946
-112.617
-108.2
-103.788
-99.432
-95.178
-91.057
-87.097
-83.326
-79.744
-76.332
-73.082
-69.982
-67.025
-64.203
-61.489
-58.835
-56.192
-53.506
-50.738
-47.863
-44.858
-41.704
-38.386
-34.893
-31.224
-27.383
-23.371
-19.184
-14.819
-10.269
-5.537
-0.628
4.449
9.685
15.071
20.598
26.254
32.029
37.91
43.886
49.948
56.084
62.283
68.529
74.806
81.094
87.377
93.635
99.848
105.996
112.057
118.013
123.842
129.526
135.047
140.386
145.524
150.446
155.133
159.571
163.745
167.641
171.245
174.547
177.537
180.204
182.543
184.546
186.21
187.531
188.507
189.138
189.424
189.366
188.969
188.236
187.174
185.79
184.091
182.089
179.792
177.214
174.368
171.266
167.924
164.356
160.578
156.607
152.458
148.149
143.698
139.122
134.439
129.668
124.826
119.931
115.002
110.055
105.108
100.178
95.279
90.429
85.641
80.931
76.313
71.798
67.401
63.131
59.001
55.019
51.193
47.533
44.044
40.732
37.602
34.656
31.897
29.328
26.947
24.754
22.748
20.925
19.281
17.813
16.513
15.376
14.395
13.562
12.869
12.306
11.864
11.535
11.307
11.171
11.116
11.131
11.206
11.331
11.493
11.683
11.89
12.104
12.316
12.515
12.693
12.841
12.951
13.015
13.026
12.978
12.865
12.682
12.426
12.093
11.68
11.186
10.61
9.951
9.211
8.389
7.487
6.509
5.456
4.332
3.143
1.891
0.582
-0.777
-2.182
-3.626
-5.102
-6.603
-8.123
-9.653
-11.187
-12.716
-14.231
-15.726
-17.19
-18.615
-19.993
-21.316
-22.576
-23.764
-24.874
-25.898
-26.829
-27.661
-28.388
-29.004
-29.503
-29.881
-30.132
-30.253
-30.242
-30.095
-29.811
-29.389
-28.827
-28.127
-27.287
-26.311
-25.2
-23.956
-22.584
-21.088
-19.476
-17.754
-15.931
-14.017
-12.024
-9.964
-7.85
-5.696
-3.518
-1.33
0.851
3.011
5.134
7.205
9.207
11.126
12.944
14.646
16.214
17.634
18.888
19.96
20.836
21.504
21.956
22.185
22.183
21.941
21.446
20.691
19.67
18.383
16.831
15.02
12.961
10.677
8.21
5.602
2.892
0.114
-2.706
-5.543
-8.366
-11.136
-13.811
-16.352
-18.73
-20.926
-22.915
-24.682
-26.227
-27.594
-28.876
-30.173
-31.574
-33.138
-34.888
-36.864
-39.136
-41.781
-44.874
-48.487
-52.635
-57.363
-62.791
-68.899
-75.52
-82.316
-88.649
-93.92
-97.759
-99.708
-99.266
-96.383
-91.229
-84.379
-77.177
-70.657
-65.347
-62.021
-61.194
-62.443
-65.026
-67.332
-66.43
-59.937
-45.964
-22.276
12.852
60.099
119.545
190.078
267.427
346.009
420.911
486.397
540.776
586.91
623.233
647.393
653.083
625.735
559.749
453.61
309.769
147.66
-15.068
-159.01
-261.405
-319.403
-337.151
-324.261
-298.569
-265.564
-227.217
-188.313
-152.961
-130.78
-127.902
-141.319
-161.969
-178.494
-184.712
-181.156
-172.674
-164.085
-156.977
-150.613
-143.397
-134.857
-125.826
-117.422
-110.615
-105.637
-102.277
-100.328
-99.518
-99.601
-100.368
-101.593
-103.093
-104.74
-106.395
-107.909
-109.143
-109.992
-110.388
-110.291
-109.678
-108.55
-106.934
-104.888
-102.486
-99.793
-96.865
-93.755
-90.509
-87.188
-83.863
-80.6
-77.466
-74.507
-71.753
-69.222
-66.925
-64.86
-63.014
-61.362
-59.873
-58.522
-57.291
-56.162
-55.12
-54.147
-53.219
-52.318
-51.423
-50.517
-49.583
-48.606
-47.572
-46.469
-45.288
-44.021
-42.662
-41.205
-39.642
-37.964
-36.166
-34.24
-32.184
-29.993
-27.664
-25.198
-22.596
-19.86
-16.996
-14.009
-10.906
-7.695
-4.385
-0.987
2.49
6.032
9.629
13.267
16.932
20.609
24.286
27.945
31.572
35.151
38.665
42.099
45.436
48.659
51.755
54.705
57.497
60.114
62.544
64.774
66.79
68.582
70.14
71.453
72.514
73.317
73.856
74.127
74.127
73.855
73.311
72.495
71.41
70.058
68.444
66.571
64.447
62.079
59.473
56.638
53.585
50.323
46.864
43.219
39.4
35.422
31.296
27.037
22.66
18.178
13.607
8.962
4.258
-0.49
-5.266
-10.057
-14.847
-19.622
-24.369
-29.075
-33.727
-38.313
-42.823
-47.246
-51.573
-55.794
-59.902
-63.889
-67.748
-71.474
-75.061
-78.504
-81.801
-84.949
-87.946
-90.789
-93.48
-96.017
-98.403
-100.638
-102.724
-104.666
-106.465
-108.127
-109.656
-111.058
-112.338
-113.502
-114.557
-115.509
-116.366
-117.132
-117.816
-118.423
-118.959
-119.433
-119.849
-120.215
-120.536
-120.817
-121.066
-121.287
-121.485
-121.665
-121.831
-121.985
-122.133
-122.278
-122.422
-122.569
-122.72
-122.877
-123.043
-123.219
-123.405
-123.602
-123.809
-124.025
-124.25
-124.483
-124.722
-124.965
-125.211
-125.457
-125.702
-125.943
-126.176
-126.4
-126.609
-126.8
-126.969
-127.111
-127.221
-127.294
-127.326
-127.314
-127.255
-127.145
-126.981
-126.759
-126.479
-126.135
-125.724
-125.238
-124.672
-124.02
-123.279
-122.445
-121.517
-120.491
-119.365
-118.139
-116.817
-115.398
-113.882
-112.26
-110.523
-108.673
-106.719
-104.678
-102.563
-100.386
-98.16
-95.905
-93.646
-91.404
-89.182
-86.972
-84.761
-82.549
-80.351
-78.193
-76.103
-74.09
-72.147
-70.266
-68.449
-66.699
-65.011
-63.361
-61.714
-60.064
-58.444
-56.922
-55.564
-54.408
-53.47
-52.75
-52.261
-52.033
-52.101
-52.487
-53.199
-54.244
-55.648
-57.461
-59.729
-62.447
-65.546
-68.914
-72.45
-76.088
-79.779
-83.477
-87.113
-90.607
-93.902
-96.959
-99.767
-102.302
-104.516
-106.35
-107.78
-108.856
-109.699
-110.453
-111.236
-112.129
-113.193
-114.51
-116.198
-118.359
-121.076
-124.392
-128.279
-132.776
-137.973
-143.812
-150.096
-156.407
-162.071
-166.495
-169.255
-169.829
-167.801
-163.094
-155.824
-146.696
-136.919
-127.433
-119.068
-112.593
-108.153
-105.326
-103.222
-99.878
-92.79
-79.62
-57.919
-25.819
17.717
73.07
139.175
213.668
292.286
368.582
437.437
495.119
539.649
572.178
588.886
581.995
544.92
471.177
364.819
238.845
105.885
-19.977
-131.195
-226.385
-303.51
-364.005
-407.346
-429.896
-429.751
-404.235
-357.619
-302.113
-250.292
-214.603
-197.089
-190.24
-187.236
-180.413
-168.47
-155.671
-142.722
-130.752
-119.881
-107.453
-93.02
-76.962
-59.024
-40.515
-23.205
-7.735
5.44
16.152
24.847
31.658
36.356
39.12
40.474
40.836
40.659
40.253
39.629
38.899
38.311
38.075
38.362
39.275
40.807
42.939
45.694
49.08
53.081
57.652
62.691
68.087
73.742
79.574
85.513
91.488
97.402
103.138
108.595
113.714
118.465
122.845
126.851
130.475
133.725
136.63
139.238
141.594
143.733
145.682
147.466
149.12
150.689
152.226
153.772
155.356
156.999
158.717
160.527
162.444
164.474
166.615
168.861
171.213
173.672
176.243
178.926
181.718
184.612
187.601
190.679
193.841
197.079
200.385
203.75
207.165
210.623
214.117
217.638
221.175
224.718
228.255
231.773
235.26
238.702
242.087
245.401
248.631
251.763
254.785
257.684
260.448
263.063
265.519
267.803
269.905
271.815
273.523
275.02
276.301
277.357
278.184
278.778
279.134
279.251
279.126
278.759
278.151
277.301
276.212
274.885
273.324
271.532
269.513
267.271
264.811
262.139
259.263
256.189
252.926
249.483
245.869
242.096
238.174
234.117
229.935
225.643
221.254
216.781
212.238
207.639
202.998
198.328
193.642
188.953
184.274
179.617
174.993
170.415
165.893
161.437
157.059
152.769
148.575
144.489
140.518
136.673
132.962
129.393
125.972
122.708
119.604
116.667
113.898
111.302
108.879
106.631
104.555
102.652
100.918
99.351
97.947
96.701
95.609
94.665
93.864
93.199
92.665
92.256
91.965
91.786
91.713
91.738
91.854
92.055
92.332
92.677
93.083
93.54
94.039
94.572
95.13
95.703
96.283
96.862
97.431
97.985
98.516
99.018
99.485
99.914
100.301
100.642
100.934
101.177
101.369
101.509
101.597
101.633
101.618
101.552
101.436
101.272
101.062
100.807
100.509
100.172
99.8
99.395
98.964
98.512
98.044
97.568
97.09
96.617
96.156
95.716
95.303
94.925
94.589
94.302
94.07
93.898
93.793
93.759
93.798
93.913
94.107
94.38
94.734
95.167
95.678
96.264
96.925
97.656
98.454
99.312
100.227
101.19
102.196
103.234
104.295
105.366
106.434
107.486
108.509
109.486
110.402
111.242
111.992
112.64
113.171
113.571
113.827
113.922
113.846
113.588
113.14
112.493
111.64
110.579
109.313
107.847
106.182
104.32
102.252
99.976
97.495
94.812
91.937
88.883
85.665
82.306
78.845
75.316
71.751
68.18
64.62
61.101
57.66
54.34
51.201
48.289
45.634
43.279
41.253
39.552
38.165
37.051
36.134
35.38
34.747
34.171
33.598
32.931
32.063
30.928
29.402
27.328
24.641
21.343
17.589
13.79
10.358
7.63
6.05
6.051
7.871
11.552
16.62
22.047
26.811
30.078
31.106
29.263
24.207
16.116
6.254
-3.022
-9.09
-9.444
-1.583
17.005
48.696
95.471
156.373
227.295
304.051
381.889
459.429
539.497
620.077
695.359
753.413
775.24
748.988
671.61
550.374
403.246
248.543
102.248
-25.3
-128.885
-207.509
-264.531
-302.437
-324.223
-330.871
-320.174
-293.073
-252.775
-204.586
-156.4
-113.799
-79.668
-55.89
-42.586
-38.915
-43.38
-53.319
-65.325
-76.457
-84.833
-89.057
-88.498
-83.294
-74.013
-61.894
-48.766
-36.327
-25.654
-17.464
-12.039
-9.309
-9.131
-11.116
-14.604
-18.884
-23.424
-27.893
-32.127
-36.042
-39.534
-42.492
-44.843
-46.583
-47.723
-48.242
-48.121
-47.338
-45.898
-43.869
-41.346
-38.425
-35.215
-31.803
-28.272
-24.731
-21.27
-17.961
-14.878
-12.058
-9.522
-7.296
-5.39
-3.794
-2.5
-1.482
-0.703
-0.133
0.264
0.527
0.692
0.807
0.913
1.041
1.216
1.458
1.782
2.205
2.738
3.383
4.147
5.033
6.048
7.197
8.488
9.921
11.499
13.221
15.086
17.095
19.249
21.546
23.986
26.565
29.28
32.127
35.102
38.194
41.392
44.682
48.05
51.48
54.955
58.456
61.965
65.463
68.932
72.353
75.71
78.983
82.154
85.205
88.12
90.882
93.474
95.88
98.086
100.078
101.842
103.365
104.638
105.648
106.387
106.846
107.018
106.898
106.482
105.769
104.757
103.449
101.848
99.96
97.792
95.353
92.653
89.703
86.517
83.108
79.489
75.677
71.686
67.533
63.233
58.803
54.26
49.621
44.903
40.122
35.294
30.437
25.566
20.696
15.844
11.024
6.251
1.54
-3.096
-7.643
-12.092
-16.429
-20.647
-24.737
-28.694
-32.511
-36.185
-39.714
-43.097
-46.333
-49.423
-52.37
-55.175
-57.843
-60.377
-62.782
-65.064
-67.23
-69.286
-71.239
-73.095
-74.863
-76.548
-78.157
-79.699
-81.179
-82.605
-83.985
-85.327
-86.64
-87.933
-89.214
-90.492
-91.775
-93.07
-94.384
-95.723
-97.092
-98.496
-99.939
-101.425
-102.96
-104.546
-106.188
-107.89
-109.655
-111.486
-113.387
-115.359
-117.402
-119.517
-121.701
-123.956
-126.281
-128.678
-131.147
-133.687
-136.299
-138.984
-141.744
-144.579
-147.488
-150.468
-153.512
-156.616
-159.777
-162.993
-166.263
-169.589
-172.967
-176.402
-179.895
-183.452
-187.074
-190.753
-194.467
-198.185
-201.878
-205.521
-209.095
-212.587
-215.982
-219.27
-222.448
-225.52
-228.49
-231.352
-234.083
-236.652
-239.031
-241.188
-243.131
-244.932
-246.687
-248.496
-250.444
-252.531
-254.757
-257.231
-260.029
-263.055
-266.059
-268.699
-270.738
-272.312
-273.743
-274.978
-275.673
-275.834
-276.019
-276.918
-279.278
-282.204
-282.826
-280.702
-277.074
-274.443
-277.666
-285.207
-290.106
-286.364
-266.786
-232.127
-191.755
-152.956
-123.46
-106.352
-97.674
-95.176
-96.614
-100.162
-106.573
-115.637
-126.247
-137.671
-148.695
-157.905
-165
-170.68
-175.853
-181.834
-188.932
-194.907
-199.035
-202.836
-208.932
-223.124
-246.201
-270.719
-287.553
-285.181
-258.385
-216.1
-170.851
-135.703
-120.508
-120.852
-126.586
-129.645
-122.413
-105.837
-86.733
