Name,Criss Capps
Date of Birth,"Feb 5, 1952"
Recorded Date,2021-01-13 22:28:22 -0400
Classification,Sinus Rhythm
Symptoms,
Software Version,1.90
Device,"Watch5,4"
Sample Rate,512.844 hertz


Lead,Lead I
Unit,µV

-73.448
-81.674
-90.894
-100.904
-111.484
-122.401
-133.423
-144.295
-154.772
-164.676
-173.839
-182.109
-189.339
-195.348
-199.975
-203.102
-204.629
-204.498
-202.695
-199.228
-194.144
-187.541
-179.532
-170.256
-159.865
-148.468
-136.183
-123.14
-109.478
-95.364
-80.97
-66.449
-51.949
-37.62
-23.575
-9.901
3.343
16.148
28.512
40.441
51.951
63.05
73.742
84.049
93.989
103.591
112.892
121.928
130.739
139.379
147.877
156.244
164.473
172.532
180.384
187.994
195.317
202.304
208.908
215.083
220.785
225.978
230.618
234.661
238.06
240.765
242.739
243.956
244.401
244.066
242.946
241.043
238.363
234.921
230.735
225.821
220.197
213.882
206.902
199.291
191.083
182.315
173.016
163.217
152.951
142.253
131.166
119.737
108.019
96.072
83.968
71.78
59.588
47.468
35.489
23.721
12.231
1.095
-9.605
-19.783
-29.359
-38.258
-46.421
-53.813
-60.427
-66.28
-71.423
-75.911
-79.796
-83.149
-86.053
-88.6
-90.896
-93.05
-95.15
-97.339
-99.822
-102.719
-106.051
-109.658
-113.141
-116.111
-118.29
-119.321
-118.788
-116.393
-111.942
-105.748
-98.761
-91.835
-85.474
-80.006
-75.466
-71.823
-69.115
-66.42
-61.678
-52.73
-37.6
-14.823
16.363
56.979
108.482
171.086
243.575
323.88
409.108
496.604
583.919
667.262
741.499
801.882
844.3
865.719
864.503
839.082
788.63
714.71
621.23
513.438
397.54
279.637
165.346
60.763
-28.689
-99.574
-150.677
-182.842
-198.442
-200.459
-192.306
-178.225
-162.388
-148.117
-137.372
-130.623
-127.428
-126.921
-127.938
-128.976
-128.487
-125.201
-118.587
-108.906
-96.792
-83.071
-68.592
-54.159
-40.577
-28.566
-18.539
-10.615
-4.761
-0.827
1.354
1.938
1.138
-0.802
-3.67
-7.263
-11.386
-15.87
-20.533
-25.206
-29.757
-34.066
-38.005
-41.477
-44.387
-46.655
-48.25
-49.166
-49.416
-49.047
-48.118
-46.7
-44.882
-42.751
-40.385
-37.855
-35.215
-32.511
-29.804
-27.146
-24.592
-22.205
-20.017
-18.046
-16.302
-14.777
-13.453
-12.308
-11.31
-10.417
-9.597
-8.82
-8.059
-7.293
-6.496
-5.635
-4.68
-3.592
-2.342
-0.91
0.724
2.572
4.641
6.936
9.456
12.193
15.143
18.301
21.662
25.221
28.974
32.908
37.013
41.275
45.679
50.211
54.855
59.595
64.416
69.299
74.23
79.195
84.176
89.155
94.114
99.033
103.893
108.675
113.358
117.923
122.35
126.623
130.725
134.639
138.35
141.846
145.112
148.138
150.912
153.425
155.667
157.633
159.315
160.711
161.815
162.627
163.145
163.369
163.301
162.942
162.294
161.361
160.145
158.652
156.888
154.86
152.576
150.048
147.285
144.3
141.108
137.725
134.163
130.437
126.562
122.552
118.422
114.184
109.852
105.438
100.958
96.428
91.864
87.284
82.705
78.144
73.619
69.147
64.744
60.425
56.198
52.077
48.077
44.216
40.514
36.989
33.649
30.504
27.561
24.821
22.276
19.912
17.697
15.613
13.652
11.813
10.108
8.548
7.139
5.894
4.825
3.946
3.27
2.806
2.553
2.525
2.756
3.3
4.232
5.6
7.423
9.705
12.429
15.565
19.065
22.86
26.859
30.982
35.165
39.359
43.533
47.633
51.577
55.263
58.571
61.411
63.722
65.46
66.596
67.126
67.093
66.579
65.694
64.535
63.157
61.603
59.896
58.078
56.213
54.373
52.633
51.053
49.685
48.572
47.755
47.256
47.033
47.016
47.113
47.244
47.371
47.471
47.522
47.5
47.38
47.136
46.756
46.227
45.527
44.632
43.518
42.167
40.606
38.883
37.047
35.146
33.207
31.25
29.297
27.372
25.488
23.654
21.872
20.139
18.464
16.86
15.347
13.944
12.656
11.48
10.408
9.431
8.55
7.769
7.092
6.518
6.048
5.686
5.444
5.346
5.42
5.686
6.151
6.804
7.628
8.616
9.774
11.116
12.65
14.356
16.189
18.097
20.049
22.044
24.101
26.178
28.148
29.934
31.601
33.383
35.572
38.292
41.38
44.595
47.889
51.223
54.412
56.881
57.766
56.506
53.241
48.669
43.481
38.255
33.467
29.948
28.996
31.677
38.225
47.776
58.978
70.481
81.319
90.533
96.783
98.725
95.51
87.41
75.562
61.398
45.962
29.955
14.19
-0.397
-12.903
-23.021
-31.166
-38.141
-44.525
-50.54
-56.332
-62.102
-68.233
-75.02
-82.431
-90.255
-98.408
-106.893
-115.693
-124.687
-133.445
-141.503
-148.602
-154.479
-158.76
-161.29
-162.243
-162.179
-162.226
-163.426
-166.252
-171.031
-178.082
-187.212
-197.483
-207.103
-213.261
-213.077
-204.568
-186.199
-156.472
-114.523
-60.584
3.846
75.726
151.139
226.686
299.258
365.177
420.752
462.871
489.128
498.453
491.168
467.506
427.609
372.704
304.917
227.114
142.883
55.658
-31.885
-116.693
-195.044
-263.505
-319.287
-360.887
-388.134
-401.576
-401.808
-389.903
-368.153
-339.792
-308.325
-276.6
-246.719
-220.005
-197.541
-180.483
-169.03
-162.235
-158.614
-156.631
-154.878
-152.661
-149.561
-144.818
-138.167
-129.97
-120.852
-111.792
-103.833
-97.426
-92.733
-90.023
-89.29
-90.345
-92.929
-96.464
-100.271
-103.944
-107.208
-109.842
-111.753
-112.835
-112.988
-112.235
-110.652
-108.292
-105.216
-101.461
-97.061
-92.095
-86.664
-80.883
-74.875
-68.751
-62.615
-56.557
-50.649
-44.951
-39.503
-34.326
-29.429
-24.814
-20.471
-16.391
-12.555
-8.94
-5.521
-2.266
0.862
3.897
6.88
9.839
12.795
15.761
18.749
21.763
24.806
27.879
30.975
34.093
37.23
40.386
43.56
46.752
49.957
53.17
56.385
59.596
62.8
65.993
69.169
72.324
75.454
78.554
81.621
84.651
87.635
90.565
93.433
96.23
98.945
101.569
104.093
106.507
108.803
110.972
113.007
114.901
116.647
118.239
119.669
120.932
122.021
122.932
123.659
124.198
124.546
124.7
124.658
124.419
123.983
123.351
122.522
121.499
120.284
118.88
117.29
115.52
113.574
111.459
109.182
106.75
104.172
101.455
98.609
95.641
92.561
89.378
86.099
82.735
79.293
75.783
72.214
68.595
64.936
61.246
57.533
53.807
50.076
46.347
42.629
38.927
35.249
31.602
27.991
24.423
20.902
17.433
14.021
10.669
7.38
4.157
1.002
-2.085
-5.102
-8.049
-10.927
-13.734
-16.471
-19.139
-21.738
-24.271
-26.737
-29.141
-31.483
-33.766
-35.994
-38.169
-40.294
-42.372
-44.407
-46.399
-48.352
-50.269
-52.151
-54.001
-55.82
-57.611
-59.375
-61.114
-62.83
-64.522
-66.193
-67.842
-69.47
-71.077
-72.663
-74.228
-75.772
-77.294
-78.796
-80.276
-81.735
-83.171
-84.584
-85.972
-87.334
-88.668
-89.973
-91.248
-92.491
-93.701
-94.878
-96.021
-97.13
-98.205
-99.248
-100.259
-101.24
-102.195
-103.125
-104.033
-104.922
-105.795
-106.656
-107.507
-108.35
-109.186
-110.019
-110.853
-111.69
-112.536
-113.394
-114.268
-115.163
-116.085
-117.042
-118.039
-119.078
-120.166
-121.308
-122.513
-123.793
-125.153
-126.592
-128.107
-129.691
-131.336
-133.028
-134.747
-136.464
-138.153
-139.79
-141.36
-142.851
-144.245
-145.522
-146.653
-147.614
-148.393
-148.991
-149.417
-149.684
-149.818
-149.852
-149.842
-149.85
-149.926
-150.103
-150.396
-150.805
-151.34
-152.017
-152.853
-153.861
-155.025
-156.306
-157.659
-159.014
-160.284
-161.355
-162.076
-162.294
-161.883
-160.74
-158.791
-155.984
-152.248
-147.512
-141.704
-134.755
-126.632
-117.326
-106.844
-95.233
-82.58
-69.017
-54.731
-39.918
-24.751
-9.391
6.016
21.336
36.406
51.056
65.107
78.366
90.654
101.812
111.693
120.188
127.246
132.862
137.09
140
141.661
142.141
141.513
139.855
137.268
133.866
129.78
125.17
120.199
115.027
109.795
104.617
99.559
94.633
89.818
85.075
80.364
75.665
70.951
66.162
61.24
56.116
50.693
44.903
38.634
31.717
24.143
16.054
7.739
-0.277
-7.489
-13.568
-18.05
-20.407
-20.552
-18.703
-15.519
-12.203
-9.618
-8.114
-8.167
-10.243
-14.023
-18.517
-21.841
-21.202
-14.399
-0.083
23.204
57.014
101.874
157.164
220.897
289.527
359.724
428.859
493.626
549.855
593.859
622.685
634.473
629.211
606.999
567.486
511.635
442.001
361.842
275.094
185.66
96.355
10.408
-68.174
-136.248
-191.764
-233.932
-263.48
-281.659
-289.519
-288.895
-282.511
-273.12
-263.354
-254.819
-247.886
-242.581
-238.847
-236.281
-234.17
-231.538
-227.251
-220.817
-212.403
-202.384
-191.31
-179.698
-167.982
-156.732
-146.571
-137.877
-130.825
-125.438
-121.572
-119.091
-117.876
-117.756
-118.542
-120.052
-122.109
-124.56
-127.269
-130.121
-133.032
-135.921
-138.705
-141.294
-143.573
-145.435
-146.834
-147.745
-148.167
-148.121
-147.625
-146.718
-145.468
-143.948
-142.231
-140.374
-138.403
-136.346
-134.241
-132.137
-130.1
-128.201
-126.477
-124.951
-123.637
-122.535
-121.642
-120.947
-120.416
-120.007
-119.687
-119.424
-119.197
-118.993
-118.784
-118.543
-118.233
-117.814
-117.257
-116.54
-115.642
-114.548
-113.246
-111.726
-109.99
-108.047
-105.903
-103.562
-101.026
-98.295
-95.371
-92.262
-88.973
-85.513
-81.89
-78.107
-74.176
-70.111
-65.929
-61.647
-57.275
-52.81
-48.257
-43.624
-38.915
-34.135
-29.286
-24.36
-19.363
-14.312
-9.225
-4.122
0.99
6.12
11.276
16.463
21.671
26.874
32.054
37.201
42.293
47.294
52.159
56.834
61.299
65.57
69.669
73.608
77.393
81.007
84.442
87.706
90.829
93.851
96.809
99.743
102.713
105.801
109.109
112.732
116.707
121.019
125.645
130.566
135.77
141.247
146.975
152.904
158.966
165.084
171.169
177.102
182.744
187.93
192.475
196.225
199.088
201.018
201.986
201.968
200.945
198.907
195.864
191.84
186.875
181.023
174.372
167.062
159.256
151.14
142.923
134.771
126.811
119.144
111.843
104.976
98.601
92.771
87.525
82.909
78.97
75.733
73.19
71.281
69.923
69.018
68.444
68.108
67.94
67.878
67.888
67.944
68.025
68.109
68.179
68.196
68.113
67.897
67.528
67.017
66.394
65.695
64.972
64.267
63.608
63.019
62.502
62.05
61.656
61.306
60.989
60.703
60.458
60.256
60.1
59.983
59.887
59.789
59.661
59.476
59.21
58.843
58.366
57.772
57.062
56.236
55.298
54.252
53.094
51.826
50.445
48.953
47.353
45.652
43.86
41.987
40.044
38.042
35.99
33.897
31.769
29.612
27.432
25.234
23.022
20.801
18.579
16.361
14.152
11.959
9.786
7.638
5.52
3.435
1.388
-0.616
-2.575
-4.483
-6.334
-8.123
-9.847
-11.502
-13.084
-14.591
-16.022
-17.376
-18.654
-19.857
-20.986
-22.041
-23.021
-23.924
-24.748
-25.491
-26.15
-26.722
-27.201
-27.584
-27.874
-28.068
-28.167
-28.165
-28.056
-27.836
-27.509
-27.081
-26.561
-25.961
-25.293
-24.579
-23.852
-23.145
-22.486
-21.894
-21.369
-20.916
-20.543
-20.255
-20.062
-19.959
-19.923
-19.937
-19.992
-20.072
-20.166
-20.237
-20.217
-20.056
-19.715
-19.18
-18.475
-17.616
-16.612
-15.493
-14.296
-13.078
-11.929
-10.905
-10.029
-9.334
-8.84
-8.602
-8.715
-9.241
-10.215
-11.645
-13.495
-15.739
-18.36
-21.303
-24.486
-27.806
-31.138
-34.41
-37.61
-40.732
-43.785
-46.757
-49.606
-52.316
-54.889
-57.345
-59.736
-62.118
-64.535
-67.057
-69.77
-72.793
-76.309
-80.371
-84.838
-89.398
-93.566
-96.858
-98.926
-99.381
-97.653
-93.347
-86.518
-77.694
-67.951
-58.429
-49.769
-42.478
-37.38
-34.973
-34.838
-35.578
-34.718
-29.494
-17.753
2.632
34.377
80.145
139.679
209.381
285.209
362.587
442.307
530.324
625.309
720.307
799.504
838.348
824.676
758.833
652.666
530.769
409.883
297.287
194.619
95.898
-0.289
-90.123
-169.522
-233.575
-280.436
-311.741
-329.978
-337.851
-337.804
-331.907
-321.993
-309.683
-296.756
-284.547
-273.351
-263.048
-253.411
-244.111
-235.138
-226.688
-218.135
-208.561
-197.791
-186.013
-173.569
-160.946
-148.245
-135.253
-122.452
-110.774
-100.734
-92.635
-86.51
-82.109
-79.411
-78.589
-79.463
-81.574
-84.539
-87.986
-91.687
-95.599
-99.579
-103.397
-106.896
-109.969
-112.539
-114.569
-116.027
-116.858
-117.055
-116.652
-115.699
-114.277
-112.469
-110.348
-107.992
-105.473
-102.855
-100.207
-97.602
-95.107
-92.792
-90.727
-88.951
-87.487
-86.345
-85.511
-84.964
-84.676
-84.605
-84.707
-84.938
-85.258
-85.631
-86.022
-86.389
-86.688
-86.871
-86.886
-86.694
-86.262
-85.562
-84.572
-83.277
-81.663
-79.725
-77.461
-74.869
-71.948
-68.694
-65.105
-61.181
-56.929
-52.357
-47.474
-42.292
-36.825
-31.086
-25.094
-18.864
-12.416
-5.768
1.06
8.046
15.166
22.396
29.709
37.077
44.472
51.867
59.231
66.535
73.751
80.852
87.808
94.593
101.182
107.547
113.664
119.511
125.064
130.303
135.208
139.762
143.947
147.751
151.161
154.167
156.761
158.936
160.689
162.019
162.925
163.41
163.477
163.133
162.384
161.241
159.713
157.814
155.558
152.959
150.036
146.805
143.286
139.499
135.464
131.203
126.738
122.091
117.286
112.346
107.295
102.157
96.955
91.713
86.454
81.2
75.973
70.793
65.68
60.651
55.725
50.917
46.241
41.712
37.341
33.139
29.115
25.277
21.632
18.185
14.941
11.9
9.066
6.438
4.016
1.798
-0.22
-2.041
-3.672
-5.117
-6.385
-7.484
-8.423
-9.212
-9.861
-10.382
-10.785
-11.081
-11.282
-11.399
-11.443
-11.424
-11.353
-11.239
-11.091
-10.919
-10.73
-10.532
-10.331
-10.135
-9.948
-9.777
-9.625
-9.498
-9.398
-9.33
-9.295
-9.297
-9.338
-9.418
-9.539
-9.7
-9.9
-10.138
-10.413
-10.721
-11.061
-11.43
-11.824
-12.241
-12.677
-13.13
-13.597
-14.076
-14.565
-15.064
-15.569
-16.082
-16.601
-17.127
-17.66
-18.2
-18.749
-19.306
-19.873
-20.451
-21.039
-21.64
-22.252
-22.877
-23.515
-24.167
-24.834
-25.517
-26.218
-26.937
-27.677
-28.438
-29.223
-30.031
-30.863
-31.72
-32.601
-33.504
-34.429
-35.37
-36.326
-37.29
-38.258
-39.226
-40.185
-41.131
-42.056
-42.956
-43.825
-44.657
-45.444
-46.179
-46.854
-47.463
-48
-48.455
-48.822
-49.09
-49.252
-49.305
-49.241
-49.051
-48.728
-48.256
-47.631
-46.854
-45.927
-44.857
-43.655
-42.334
-40.916
-39.436
-37.921
-36.394
-34.875
-33.377
-31.92
-30.531
-29.233
-28.049
-26.99
-26.052
-25.227
-24.506
-23.859
-23.242
-22.602
-21.865
-20.983
-19.932
-18.692
-17.255
-15.612
-13.745
-11.651
-9.346
-6.846
-4.182
-1.398
1.458
4.302
7.018
9.495
11.611
13.274
14.444
15.082
15.159
14.66
13.57
11.889
9.643
6.843
3.49
-0.387
-4.748
-9.527
-14.628
-19.97
-25.484
-31.111
-36.802
-42.524
-48.262
-54.023
-59.834
-65.71
-71.646
-77.631
-83.685
-89.766
-95.721
-101.254
-105.833
-108.857
-109.84
-108.255
-103.528
-95.425
-84.069
-70.044
-54.761
-39.788
-26.396
-15.905
-9.337
-6.759
-7.373
-9.31
-9.165
-3.172
12.238
40.764
85.23
146.834
225.026
317.228
418.755
523.827
625.822
717.281
791.245
841.898
865.433
860.348
826.859
766.848
684.112
583.998
472.638
356.678
241.763
132.323
32.547
-54.481
-127.214
-184.969
-228.143
-258.501
-277.648
-286.949
-288.341
-283.26
-272.609
-257.764
-239.881
-219.26
-196.452
-172.267
-147.429
-123.415
-101.857
-83.414
-68.404
-57.337
-50.312
-47.124
-47.184
-48.949
-50.87
-52.198
-52.542
-51.67
-49.633
-46.523
-42.745
-39.336
-37.148
-36.516
-37.517
-39.927
-43.39
-47.654
-52.321
-56.751
-60.461
-63.175
-64.751
-65.264
-64.814
-63.436
-61.215
-58.277
-54.73
-50.696
-46.279
-41.54
-36.568
-31.467
-26.348
-21.348
-16.577
-12.104
-7.978
-4.22
-0.832
2.177
4.816
7.107
9.078
10.763
12.192
13.392
14.396
15.243
15.981
16.667
17.346
18.051
18.805
19.629
20.537
21.546
22.665
23.895
25.239
26.703
28.292
30.015
31.878
33.883
36.027
38.309
40.726
43.278
45.961
48.772
51.706
54.757
57.92
61.19
64.557
68.012
71.541
75.132
78.769
82.439
86.124
89.809
93.475
97.107
100.689
104.202
107.633
110.962
114.176
117.257
120.191
122.964
125.561
127.97
130.178
132.173
133.944
135.483
136.78
137.827
138.617
139.144
139.403
139.392
139.107
138.547
137.713
136.605
135.225
133.577
131.665
129.493
127.068
124.397
121.487
118.347
114.985
111.412
107.637
103.673
99.53
95.22
90.757
86.152
81.42
76.573
71.627
66.594
61.491
56.33
51.128
45.899
40.656
35.416
30.192
24.997
19.846
14.751
9.725
4.779
-0.074
-4.823
-9.459
-13.971
-18.349
-22.586
-26.673
-30.604
-34.37
-37.968
-41.391
-44.637
-47.7
-50.58
-53.273
-55.78
-58.1
-60.234
-62.184
-63.951
-65.54
-66.954
-68.197
-69.275
-70.192
-70.957
-71.573
-72.049
-72.39
-72.604
-72.699
-72.681
-72.558
-72.338
-72.028
-71.636
-71.171
-70.64
-70.052
-69.413
-68.731
-68.015
-67.27
-66.506
-65.727
-64.941
-64.154
-63.372
-62.599
-61.842
-61.103
-60.387
-59.698
-59.039
-58.411
-57.819
-57.263
-56.747
-56.271
-55.839
-55.45
-55.107
-54.812
-54.564
-54.367
-54.22
-54.124
-54.08
-54.089
-54.149
-54.262
-54.426
-54.643
-54.91
-55.227
-55.593
-56.007
-56.467
-56.973
-57.522
-58.113
-58.745
-59.416
-60.123
-60.866
-61.642
-62.45
-63.286
-64.148
-65.033
-65.938
-66.858
-67.79
-68.729
-69.67
-70.607
-71.536
-72.45
-73.343
-74.21
-75.043
-75.837
-76.586
-77.283
-77.922
-78.496
-79.001
-79.43
-79.779
-80.04
-80.211
-80.287
-80.264
-80.137
-79.904
-79.562
-79.11
-78.545
-77.868
-77.078
-76.177
-75.168
-74.053
-72.837
-71.526
-70.126
-68.645
-67.094
-65.486
-63.832
-62.145
-60.442
-58.736
-57.044
-55.383
-53.765
-52.206
-50.719
-49.321
-48.028
-46.855
-45.819
-44.932
-44.209
-43.662
-43.302
-43.136
-43.167
-43.398
-43.831
-44.472
-45.331
-46.42
-47.741
-49.297
-51.085
-53.094
-55.31
-57.71
-60.256
-62.911
-65.637
-68.399
-71.167
-73.911
-76.588
-79.152
-81.543
-83.694
-85.557
-87.086
-88.242
-89.022
-89.433
-89.508
-89.316
-88.914
-88.365
-87.757
-87.169
-86.704
-86.488
-86.613
-87.229
-88.548
-90.683
-93.667
-97.398
-101.509
-105.623
-109.408
-112.375
-114.002
-113.955
-112.034
-108.538
-104.381
-100.417
-97.461
-96.381
-97.799
-102.122
-109.395
-118.57
-127.431
-133.49
-133.948
-125.857
-106.695
-73.992
-25.539
39.149
118.368
209.562
307.513
406.104
501.196
586.562
659.053
716.674
752.58
763.348
741.922
682.603
590.893
472.5
341.721
214.076
96.001
-5.331
-91.269
-165.14
-226.56
-278.1
-317.509
-343.293
-356.844
-358.492
-352.544
-343.316
-333.056
-324.25
-317.384
-311.773
-307.494
-304.232
-301.065
-297.343
-292.152
-284.501
-274.342
-262.107
-248.284
-233.603
-218.759
-204.268
-190.796
-179.028
-169.3
-161.752
-156.341
-152.832
-151.03
-150.761
-151.797
-153.898
-156.825
-160.336
-164.217
-168.283
-172.365
-176.311
-179.947
-183.083
-185.55
-187.199
-187.948
-187.776
-186.677
-184.672
-181.801
-178.116
-173.703
-168.666
-163.103
-157.109
-150.765
-144.138
-137.319
-130.413
-123.524
-116.757
-110.182
-103.837
-97.752
-91.946
-86.425
-81.185
-76.205
-71.451
-66.897
-62.521
-58.302
-54.225
-50.265
-46.389
-42.56
-38.741
-34.903
-31.028
-27.098
-23.101
-19.027
-14.871
-10.633
-6.321
-1.934
2.528
7.068
11.69
16.395
21.182
26.05
30.995
36.014
41.106
46.265
51.488
56.769
62.104
67.487
72.912
78.372
83.858
89.358
94.86
100.35
105.815
111.241
116.612
121.912
127.125
132.235
137.228
142.085
146.792
151.331
155.687
159.842
163.781
167.488
170.948
174.146
177.069
179.701
182.032
184.049
185.743
187.104
188.124
188.797
189.117
189.083
188.692
187.943
186.84
185.384
183.58
181.436
178.959
176.159
173.046
169.634
165.935
161.964
157.738
153.273
148.587
143.699
138.628
133.396
128.023
122.53
116.939
111.272
105.552
99.8
94.038
88.288
82.569
76.904
71.31
65.808
60.414
55.144
50.016
45.041
40.232
35.601
31.158
26.909
22.863
19.023
15.394
11.979
8.779
5.793
3.02
0.458
-1.896
-4.049
-6.004
-7.769
-9.351
-10.758
-11.997
-13.077
-14.008
-14.798
-15.457
-15.994
-16.418
-16.739
-16.966
-17.107
-17.17
-17.164
-17.095
-16.97
-16.795
-16.573
-16.31
-16.009
-15.672
-15.303
-14.903
-14.473
-14.013
-13.524
-13.006
-12.458
-11.878
-11.265
-10.617
-9.932
-9.21
-8.448
-7.645
-6.8
-5.913
-4.983
-4.011
-2.995
-1.938
-0.838
0.301
1.481
2.697
3.948
5.232
6.543
7.877
9.23
10.595
11.967
13.34
14.707
16.062
17.398
18.708
19.985
21.223
22.414
23.551
24.627
25.636
26.573
27.432
28.209
28.901
29.506
30.024
30.455
30.799
31.057
31.231
31.323
31.335
31.269
31.126
30.91
30.624
30.274
29.867
29.412
28.92
28.4
27.865
27.326
26.795
26.282
25.796
25.342
24.93
24.569
24.272
24.055
23.928
23.898
23.971
24.147
24.422
24.786
25.215
25.686
26.183
26.694
27.215
27.754
28.314
28.898
29.512
30.146
30.793
31.451
32.105
32.754
33.406
34.079
34.812
35.655
36.63
37.748
39.003
40.355
41.765
43.184
44.549
45.824
46.984
48
48.858
49.534
49.981
50.15
49.968
49.342
48.212
46.537
44.311
41.595
38.457
34.979
31.249
27.302
23.172
18.912
14.586
10.286
6.125
2.179
-1.432
-4.519
-7.008
-8.937
-10.482
-12.018
-13.879
-16.233
-19.179
-22.775
-26.755
-30.596
-33.662
-35.107
-34.271
-30.923
-25.03
-16.679
-6.59
4.039
14.049
22.133
27.304
29.176
27.254
20.951
10.509
-3.254
-19.357
-36.487
-53.7
-70.332
-84.787
-94.766
-98.241
-93.282
-78.509
-53.013
-15.265
35.971
100.412
176.514
261.615
352.071
444.485
535.089
618.533
689.394
742.882
774.928
783.208
766.697
724.688
658.02
570.093
465.67
350.724
231.934
115.28
6.567
-88.416
-165.299
-222.03
-258.511
-276.528
-279.167
-269.883
-252.795
-232.516
-213.184
-197.512
-186.726
-180.863
-179.126
-180.382
-183.162
-185.629
-185.991
-183.286
-177.386
-168.645
-157.794
-145.6
-132.76
-120.096
-108.42
-98.148
-89.396
-82.112
-76.084
-71.149
-67.199
-64.054
-61.524
-59.482
-57.816
-56.466
-55.41
-54.579
-53.907
-53.366
-52.924
-52.584
-52.367
-52.267
-52.272
-52.38
-52.579
-52.864
-53.236
-53.676
-54.163
-54.67
-55.152
-55.59
-55.968
-56.262
-56.455
-56.523
-56.437
-56.187
-55.775
-55.196
-54.455
-53.556
-52.496
-51.292
-49.967
-48.552
-47.088
-45.6
-44.099
-42.594
-41.085
-39.569
-38.045
-36.501
-34.914
-33.269
-31.547
-29.735
-27.822
-25.791
-23.62
-21.284
-18.754
-16.01
-13.04
-9.838
-6.402
-2.732
1.166
5.284
9.605
14.114
18.796
23.639
28.63
33.753
38.989
44.316
49.714
55.162
60.638
66.123
71.596
77.038
82.428
87.749
92.985
98.119
103.132
108.005
112.721
117.261
121.608
125.746
129.658
133.329
136.745
139.892
142.76
145.338
147.616
149.586
151.241
152.574
153.582
154.262
154.613
154.634
154.326
153.693
152.739
151.468
149.888
148.004
145.825
143.361
140.621
137.617
134.36
130.863
127.14
123.205
119.072
114.759
110.279
105.651
100.891
96.017
91.045
85.994
80.882
75.724
70.54
65.346
60.158
54.993
49.865
44.79
39.781
34.852
30.015
25.28
20.659
16.162
11.796
7.571
3.493
-0.432
-4.198
-7.802
-11.239
-14.509
-17.608
-20.537
-23.296
-25.886
-28.308
-30.566
-32.662
-34.6
-36.385
-38.021
-39.514
-40.868
-42.091
-43.187
-44.164
-45.027
-45.783
-46.439
-47
-47.473
-47.864
-48.179
-48.425
-48.606
-48.728
-48.798
-48.819
-48.798
-48.739
-48.646
-48.525
-48.378
-48.21
-48.023
-47.821
-47.607
-47.382
-47.15
-46.913
-46.673
-46.434
-46.198
-45.968
-45.748
-45.541
-45.35
-45.178
-45.028
-44.903
-44.807
-44.742
-44.713
-44.72
-44.768
-44.86
-44.998
-45.185
-45.424
-45.716
-46.063
-46.466
-46.928
-47.449
-48.031
-48.675
-49.383
-50.155
-50.993
-51.896
-52.866
-53.901
-54.999
-56.157
-57.372
-58.638
-59.948
-61.298
-62.678
-64.084
-65.506
-66.937
-68.37
-69.799
-71.215
-72.611
-73.978
-75.305
-76.582
-77.798
-78.942
-80.005
-80.974
-81.837
-82.586
-83.214
-83.715
-84.079
-84.298
-84.356
-84.243
-83.957
-83.495
-82.86
-82.054
-81.085
-79.967
-78.727
-77.39
-75.981
-74.515
-72.994
-71.427
-69.821
-68.187
-66.54
-64.881
-63.196
-61.478
-59.723
-57.923
-56.073
-54.146
-52.093
-49.877
-47.473
-44.88
-42.124
-39.231
-36.225
-33.145
-30.031
-26.951
-23.997
-21.243
-18.751
-16.586
-14.804
-13.486
-12.74
-12.644
-13.246
-14.558
-16.544
-19.169
-22.393
-26.15
-30.36
-34.914
-39.669
-44.509
-49.33
-54.025
-58.501
-62.643
-66.327
-69.465
-72.018
-74.004
-75.491
-76.556
-77.266
-77.693
-77.928
-78.101
-78.375
-78.895
-79.792
-81.169
-83.159
-85.962
-89.677
-94.222
-99.323
-104.462
-109.095
-112.826
-115.196
-115.604
-113.725
-109.647
-103.921
-97.69
-92.046
-87.558
-84.75
-84.319
-86.461
-90.478
-94.69
-96.29
-92.33
-80.676
-59.256
-25.666
21.847
83.645
158.286
242.422
331.918
422.687
509.693
586.79
647.742
688.531
708.614
708.39
687.111
640.144
561.425
451.332
319.957
186.981
73.175
-9.996
-64.076
-101.998
-137.036
-175.272
-214.96
-248.269
-269.477
-278.112
-277.219
-271.918
-265.698
-259.945
-254.893
-250.026
-245.225
-240.451
-235.359
-229.652
-222.816
-214.223
-203.805
-191.822
-178.637
-164.844
-150.956
-137.362
-124.552
-113.041
-103.143
-95.014
-88.666
-83.94
-80.681
-78.746
-77.95
-78.097
-78.989
-80.434
-82.261
-84.328
-86.52
-88.733
-90.876
-92.843
-94.516
-95.79
-96.579
-96.845
-96.581
-95.799
-94.527
-92.803
-90.683
-88.239
-85.549
-82.685
-79.697
-76.626
-73.508
-70.393
-67.344
-64.424
-61.699
-59.204
-56.962
-54.985
-53.274
-51.819
-50.6
-49.585
-48.734
-48.013
-47.391
-46.84
-46.335
-45.844
-45.335
-44.77
-44.111
-43.324
-42.374
-41.235
-39.885
-38.307
-36.489
-34.426
-32.112
-29.547
-26.733
-23.675
-20.38
-16.852
-13.089
-9.09
-4.849
-0.381
4.282
9.104
14.04
19.07
24.209
29.45
34.771
40.156
45.551
50.963
56.492
62.078
67.535
72.696
77.332
81.437
85.328
89.108
92.652
96.127
99.854
104.212
109.827
116.687
124.01
131.377
138.668
145.507
151.533
156.19
158.494
158.371
156.731
154.121
150.87
147.36
143.728
140.384
138.173
137.198
136.823
136.634
136.288
135.558
134.538
133.101
130.859
127.768
124.078
119.979
115.684
111.285
106.683
101.878
96.959
91.952
86.859
81.677
76.374
70.963
65.507
60.052
54.635
49.283
44.003
38.809
33.72
28.754
23.933
19.272
14.785
10.485
6.381
2.483
-1.199
-4.659
-7.895
-10.905
-13.689
-16.246
-18.569
-20.656
-22.504
-24.115
-25.491
-26.636
-27.555
-28.254
-28.74
-29.021
-29.109
-29.012
-28.742
-28.308
-27.723
-27
-26.151
-25.192
-24.136
-22.998
-21.793
-20.533
-19.235
-17.911
-16.573
-15.235
-13.909
-12.604
-11.333
-10.106
-8.933
-7.824
-6.787
-5.831
-4.963
-4.19
-3.518
-2.951
-2.493
-2.147
-1.915
-1.799
-1.8
-1.917
-2.151
-2.499
-2.959
-3.529
-4.203
-4.977
-5.844
-6.8
-7.836
-8.945
-10.121
-11.356
-12.643
-13.975
-15.344
-16.742
-18.162
-19.595
-21.034
-22.47
-23.895
-25.301
-26.682
-28.03
-29.341
-30.607
-31.823
-32.983
-34.082
-35.115
-36.075
-36.957
-37.754
-38.463
-39.08
-39.602
-40.026
-40.352
-40.579
-40.71
-40.746
-40.686
-40.53
-40.276
-39.922
-39.468
-38.912
-38.251
-37.484
-36.611
-35.635
-34.561
-33.392
-32.132
-30.778
-29.327
-27.781
-26.145
-24.425
-22.628
-20.765
-18.852
-16.913
-14.985
-13.093
-11.252
-9.474
-7.758
-6.109
-4.532
-3.029
-1.6
-0.245
1.043
2.262
3.406
4.485
5.517
6.536
7.601
8.74
9.962
11.264
12.625
14.018
15.414
16.767
18.015
19.11
20.001
20.652
21.034
21.097
20.784
20.024
18.727
16.841
14.352
11.26
7.604
3.438
-1.17
-6.119
-11.289
-16.574
-21.874
-27.095
-32.149
-36.923
-41.311
-45.206
-48.5
-51.142
-53.113
-54.424
-55.135
-55.316
-55.061
-54.527
-53.88
-53.294
-52.941
-52.946
-53.493
-54.842
-57.133
-60.4
-64.496
-68.994
-73.495
-77.704
-81.181
-83.431
-84.131
-83.109
-80.816
-78.323
-76.508
-76.015
-77.263
-80.398
-85.482
-92.187
-98.963
-103.28
-102.566
-94.29
-76.61
-48.13
-7.143
47.354
114.821
193.409
280.202
371.512
463.895
553.43
634.771
702.687
752.6
780.78
785.108
764.527
718.474
648.105
557.072
450.335
333.962
214.435
97.476
-11.226
-106.214
-183.556
-241.395
-279.794
-300.703
-307.041
-301.815
-288.802
-272.019
-254.977
-240.455
-229.793
-222.9
-219.136
-217.732
-217.453
-217.066
-215.402
-211.161
-203.866
-193.856
-181.658
-167.919
-153.358
-138.406
-123.507
-109.478
-96.812
-85.674
-76.174
-68.217
-61.708
-56.748
-53.376
-51.358
-50.483
-50.567
-51.403
-52.917
-55.026
-57.593
-60.49
-63.636
-66.945
-70.325
-73.691
-76.922
-79.895
-82.491
-84.623
-86.246
-87.346
-87.946
-88.071
-87.752
-87.026
-85.925
-84.484
-82.744
-80.744
-78.528
-76.154
-73.682
-71.183
-68.742
-66.419
-64.247
-62.243
-60.397
-58.694
-57.121
-55.654
-54.26
-52.91
-51.574
-50.225
-48.841
-47.391
-45.839
-44.145
-42.263
-40.158
-37.809
-35.2
-32.323
-29.176
-25.76
-22.08
-18.152
-13.988
-9.597
-4.988
-0.17
4.848
10.052
15.423
20.946
26.603
32.377
38.25
44.204
50.22
56.281
62.369
68.467
74.557
80.62
86.634
92.578
98.432
104.173
109.783
115.239
120.521
125.612
130.492
135.147
139.56
143.717
147.603
151.207
154.516
157.521
160.211
162.578
164.614
166.313
167.668
168.677
169.336
169.643
169.597
169.2
168.453
167.361
165.927
164.158
162.062
159.646
156.922
153.9
150.592
147.012
143.175
139.097
134.792
130.279
125.575
120.697
115.665
110.496
105.21
99.825
94.361
88.838
83.273
77.686
72.096
66.522
60.982
55.494
50.076
44.745
39.517
34.408
29.432
24.605
19.937
15.441
11.128
7.006
3.084
-0.631
-4.133
-7.419
-10.484
-13.326
-15.946
-18.343
-20.519
-22.477
-24.219
-25.752
-27.079
-28.207
-29.142
-29.892
-30.463
-30.865
-31.105
-31.193
-31.139
-30.951
-30.641
-30.219
-29.695
-29.08
-28.384
-27.617
-26.789
-25.909
-24.987
-24.032
-23.052
-22.057
-21.054
-20.051
-19.055
-18.073
-17.11
-16.172
-15.264
-14.39
-13.554
-12.76
-12.011
-11.311
-10.661
-10.065
-9.526
-9.045
-8.625
-8.266
-7.972
-7.742
-7.577
-7.479
-7.447
-7.483
-7.586
-7.757
-7.997
-8.305
-8.682
-9.127
-9.639
-10.218
-10.862
-11.57
-12.34
-13.171
-14.06
-15.006
-16.007
-17.059
-18.161
-19.308
-20.498
-21.727
-22.99
-24.282
-25.597
-26.931
-28.276
-29.626
-30.975
-32.316
-33.64
-34.942
-36.211
-37.442
-38.624
-39.749
-40.809
-41.793
-42.694
-43.503
-44.212
-44.813
-45.299
-45.663
-45.899
-46.003
-45.968
-45.789
-45.465
-44.99
-44.364
-43.585
-42.653
-41.569
-40.336
-38.957
-37.439
-35.786
-34.009
-32.116
-30.118
-28.027
-25.856
-23.62
-21.334
-19.014
-16.676
-14.338
-12.016
-9.73
-7.499
-5.34
-3.272
-1.314
0.515
2.196
3.71
5.041
6.177
7.104
7.812
8.289
8.517
8.489
8.198
7.639
6.812
5.719
4.366
2.772
0.973
-0.993
-3.08
-5.246
-7.456
-9.669
-11.841
-13.924
-15.865
-17.62
-19.153
-20.43
-21.42
-22.106
-22.482
-22.575
-22.461
-22.241
-22.017
-21.899
-21.973
-22.31
-23.005
-24.167
-25.901
-28.304
-31.46
-35.405
-40.214
-45.996
-52.699
-60.118
-67.857
-75.272
-81.752
-86.854
-90.008
-90.579
-88.372
-83.448
-76.282
-68.086
-59.78
-51.852
-45.092
-40.088
-36.508
-33.626
-29.839
-22.25
-8.585
12.978
44.866
88.78
145.161
213.685
292.21
376.779
463.659
548.593
625.936
690.39
737.105
761.898
762.767
739.232
691.292
620.527
530.487
425.786
312.211
195.716
81.109
-26.991
-124.18
-207.041
-273.248
-322.169
-354.771
-372.481
-376.703
-369.411
-353.013
-330.39
-304.786
-278.392
-252.724
-229.316
-209.4
-194.009
-183.702
-177.959
-175.423
-175.029
-175.629
-175.841
-174.72
-171.251
-164.726
-155.321
-143.732
-130.747
-117.427
-104.948
-94.038
-85.344
-79.285
-75.794
-74.674
-75.59
-77.993
-81.293
-85.08
-89.041
-92.973
-96.801
-100.383
-103.59
-106.349
-108.593
-110.284
-111.384
-111.848
-111.652
-110.814
-109.387
-107.451
-105.099
-102.405
-99.439
-96.264
-92.943
-89.563
-86.208
-82.963
-79.913
-77.115
-74.605
-72.411
-70.539
-68.974
-67.697
-66.67
-65.847
-65.19
-64.664
-64.234
-63.873
-63.542
-63.198
-62.797
-62.292
-61.646
-60.831
-59.821
-58.599
-57.154
-55.478
-53.568
-51.428
-49.061
-46.465
-43.639
-40.583
-37.297
-33.786
-30.055
-26.115
-21.973
-17.639
-13.125
-8.441
-3.602
1.38
6.49
11.715
17.038
22.44
27.901
33.4
38.914
44.422
49.901
55.328
60.68
65.934
71.07
76.067
80.905
85.563
90.023
94.268
98.279
102.04
105.536
108.753
111.676
114.294
116.594
118.568
120.207
121.504
122.452
123.048
123.288
123.173
122.702
121.879
120.707
119.191
117.34
115.163
112.67
109.874
106.788
103.427
99.808
95.946
91.86
87.567
83.088
78.441
73.647
68.726
63.697
58.581
53.4
48.173
42.922
37.665
32.425
27.22
22.07
16.994
12.01
7.137
2.391
-2.211
-6.656
-10.93
-15.019
-18.912
-22.601
-26.076
-29.331
-32.36
-35.161
-37.729
-40.066
-42.171
-44.047
-45.696
-47.125
-48.337
-49.34
-50.14
-50.745
-51.164
-51.405
-51.477
-51.391
-51.157
-50.786
-50.29
-49.679
-48.965
-48.161
-47.278
-46.329
-45.324
-44.277
-43.198
-42.098
-40.988
-39.879
-38.78
-37.7
-36.646
-35.627
-34.648
-33.715
-32.831
-32
-31.224
-30.505
-29.843
-29.24
-28.696
-28.211
-27.783
-27.413
-27.1
-26.843
-26.639
-26.487
-26.385
-26.329
-26.317
-26.345
-26.411
-26.51
-26.638
-26.793
-26.97
-27.166
-27.376
-27.596
-27.824
-28.054
-28.283
-28.51
-28.731
-28.945
-29.15
-29.345
-29.531
-29.708
-29.875
-30.031
-30.177
-30.311
-30.433
-30.541
-30.631
-30.702
-30.75
-30.776
-30.775
-30.749
-30.694
-30.611
-30.502
-30.365
-30.2
-30.005
-29.775
-29.509
-29.202
-28.851
-28.452
-27.999
-27.488
-26.919
-26.292
-25.604
-24.852
-24.03
-23.127
-22.138
-21.063
-19.904
-18.66
-17.339
-15.953
-14.522
-13.078
-11.645
-10.236
-8.859
-7.511
-6.193
-4.907
-3.653
-2.431
-1.236
-0.058
1.102
2.241
3.366
4.497
5.671
6.946
8.354
9.9
11.578
13.365
15.232
17.15
19.069
20.918
22.634
24.162
25.464
26.521
27.295
27.733
27.77
27.326
26.368
24.903
22.95
20.541
17.722
14.552
11.126
7.578
4.023
0.553
-2.767
-5.891
-8.757
-11.296
-13.443
-15.149
-16.436
-17.371
-18.022
-18.467
-18.778
-19.021
-19.314
-19.83
-20.716
-22.099
-24.082
-26.701
-30.054
-34.311
-39.475
-45.379
-51.616
-57.465
-62.253
-65.522
-66.702
-65.202
-60.874
-53.831
-44.847
-35.57
-27.387
-21.253
-18.118
-18.408
-21.593
-26.571
-30.903
-30.769
-22.8
-3.872
28.912
77.121
140.933
219.112
308.153
402.908
498.028
587.282
664.273
723.579
760.529
772.344
758.548
719.774
657.808
576.353
480.029
374.136
264.72
156.7
54.121
-38.776
-118.751
-183.949
-233.336
-267.383
-287.906
-296.594
-295.486
-287.401
-274.908
-260.283
-245.594
-232.086
-220.16
-209.926
-201.138
-193.245
-185.673
-177.921
-169.52
-159.957
-149.152
-137.453
-125.27
-113.037
-101.2
-89.956
-79.476
-70.316
-62.787
-56.861
-52.5
-49.508
-47.669
-46.999
-47.453
-48.687
-50.401
-52.364
-54.362
-56.365
-58.341
-60.155
-61.704
-62.948
-63.873
-64.521
-64.926
-65.063
-64.901
-64.412
-63.598
-62.508
-61.197
-59.71
-58.081
-56.323
-54.463
-52.538
-50.581
-48.615
-46.648
-44.671
-42.693
-40.739
-38.841
-37.046
-35.377
-33.832
-32.405
-31.086
-29.864
-28.732
-27.67
-26.649
-25.643
-24.633
-23.602
-22.543
-21.437
-20.255
-18.968
-17.539
-15.942
-14.159
-12.177
-9.983
-7.572
-4.938
-2.085
0.978
4.243
7.706
11.361
15.204
19.227
23.417
27.762
32.245
36.852
41.567
46.372
51.251
56.187
61.161
66.157
71.161
76.154
81.118
86.034
90.881
95.639
100.289
104.809
109.179
113.381
117.395
121.203
124.789
128.138
131.233
134.061
136.61
138.867
140.822
142.464
143.788
144.784
145.45
145.78
145.774
145.43
144.748
143.732
142.385
140.712
138.717
136.41
133.799
130.893
127.705
124.246
120.529
116.571
112.386
107.991
103.403
98.64
93.722
88.666
83.493
78.221
72.871
67.463
62.016
56.551
51.088
45.645
40.242
34.896
29.626
24.447
19.375
14.426
9.614
4.95
0.447
-3.884
-8.033
-11.994
-15.758
-19.319
-22.674
-25.818
-28.75
-31.468
-33.973
-36.265
-38.348
-40.224
-41.897
-43.374
-44.659
-45.76
-46.685
-47.443
-48.041
-48.491
-48.802
-48.984
-49.049
-49.006
-48.866
-48.641
-48.34
-47.973
-47.552
-47.085
-46.582
-46.051
-45.501
-44.941
-44.376
-43.814
-43.262
-42.724
-42.207
-41.714
-41.25
-40.819
-40.423
-40.067
-39.751
-39.477
-39.248
-39.063
-38.922
-38.826
-38.774
-38.766
-38.799
-38.874
-38.989
-39.142
-39.331
-39.556
-39.815
-40.105
-40.427
-40.778
-41.158
-41.566
-42.001
-42.462
-42.951
-43.465
-44.005
-44.57
-45.161
-45.776
-46.415
-47.077
-47.762
-48.469
-49.197
-49.944
-50.709
-51.491
-52.289
-53.099
-53.921
-54.75
-55.584
-56.421
-57.256
-58.085
-58.905
-59.712
-60.5
-61.265
-62
-62.7
-63.359
-63.97
-64.526
-65.02
-65.445
-65.794
-66.06
-66.237
-66.318
-66.298
-66.171
-65.933
-65.579
-65.105
-64.51
-63.79
-62.946
-61.977
-60.884
-59.671
-58.341
-56.9
-55.355
-53.714
-51.986
-50.181
-48.313
-46.393
-44.434
-42.45
-40.455
-38.464
-36.492
-34.557
-32.675
-30.864
-29.143
-27.531
-26.045
-24.703
-23.518
-22.501
-21.664
-21.017
-20.569
-20.335
-20.326
-20.549
-21.015
-21.727
-22.683
-23.877
-25.291
-26.892
-28.653
-30.542
-32.525
-34.579
-36.669
-38.764
-40.829
-42.817
-44.683
-46.384
-47.871
-49.101
-50.055
-50.725
-51.141
-51.365
-51.458
-51.485
-51.497
-51.547
-51.711
-52.069
-52.718
-53.756
-55.256
-57.332
-60.162
-63.831
-68.317
-73.424
-78.708
-83.72
-88.087
-91.354
-93.02
-92.704
-90.193
-85.85
-80.597
-75.294
-70.692
-67.382
-65.783
-66.343
-69.171
-73.168
-76.235
-76.001
-69.891
-55.786
-31.748
4.569
54.975
119.612
196.968
284.229
377.469
472.619
564.822
647.826
715.232
761.59
783.13
777.81
745.158
685.859
602.497
500.134
385.456
265.762
147.719
37.343
-60.11
-140.451
-201.042
-241.643
-264.189
-271.827
-267.959
-256.342
-240.792
-224.843
-211.571
-202.567
-197.939
-197.069
-199.003
-202.485
-206.217
-208.865
-209.115
-206.42
-200.943
-193.137
-183.684
-173.279
-162.508
-151.975
-142.253
-133.575
-125.924
-119.175
-113.076
-107.414
-102.06
-96.873
-91.742
-86.652
-81.61
-76.643
-71.809
-67.145
-62.663
-58.403
-54.407
-50.712
-47.383
-44.476
-42.049
-40.166
-38.862
-38.138
-37.963
-38.27
-38.977
-40.003
-41.25
-42.607
-43.988
-45.319
-46.538
-47.608
-48.487
-49.129
-49.497
-49.559
-49.294
-48.705
-47.803
-46.613
-45.176
-43.538
-41.759
-39.91
-38.042
-36.184
-34.351
-32.539
-30.742
-28.956
-27.166
-25.352
-23.495
-21.576
-19.577
-17.486
-15.281
-12.937
-10.428
-7.719
-4.789
-1.627
1.776
5.418
9.295
13.402
17.726
22.251
26.962
31.844
36.881
42.057
47.358
52.766
58.27
63.851
69.485
75.151
80.824
86.477
92.084
97.611
103.012
108.249
113.283
118.088
122.651
126.96
131.001
134.764
138.234
141.415
144.327
146.982
149.389
151.555
153.497
155.257
156.907
158.509
160.115
161.756
163.439
165.18
166.986
168.845
170.732
172.586
174.327
175.897
177.254
178.353
179.142
179.526
179.375
178.578
177.032
174.66
171.404
167.193
161.983
155.78
148.625
140.611
131.851
122.431
112.434
101.956
91.099
80.013
68.875
57.843
47.094
36.8
27.117
18.223
10.252
3.272
-2.684
-7.63
-11.6
-14.606
-16.677
-17.869
-18.235
-17.859
-16.84
-15.265
-13.271
-11.021
-8.662
-6.358
-4.231
-2.347
-0.761
0.497
1.417
1.975
2.167
2.022
1.543
0.741
-0.368
-1.78
-3.43
-5.217
-7.06
-8.877
-10.611
-12.242
-13.741
-15.086
-16.272
-17.297
-18.17
-18.916
-19.534
-20.013
-20.348
-20.522
-20.56
-20.517
-20.429
-20.325
-20.229
-20.145
-20.086
-20.075
-20.112
-20.19
-20.303
-20.44
-20.603
-20.809
-21.068
-21.394
-21.787
-22.231
-22.719
-23.249
-23.815
-24.418
-25.053
-25.711
-26.392
-27.103
-27.85
-28.636
-29.462
-30.32
-31.208
-32.123
-33.062
-34.027
-35.016
-36.028
-37.062
-38.117
-39.195
-40.294
-41.413
-42.547
-43.688
-44.832
-45.973
-47.103
-48.214
-49.299
-50.348
-51.354
-52.311
-53.211
-54.048
-54.815
-55.507
-56.12
-56.648
-57.088
-57.431
-57.673
-57.809
-57.833
-57.74
-57.525
-57.181
-56.707
-56.101
-55.362
-54.489
-53.479
-52.322
-51.019
-49.573
-47.993
-46.287
-44.472
-42.562
-40.58
-38.561
-36.539
-34.545
-32.601
-30.712
-28.889
-27.143
-25.486
-23.935
-22.492
-21.142
-19.876
-18.69
-17.576
-16.528
-15.52
-14.496
-13.413
-12.24
-10.97
-9.626
-8.232
-6.804
-5.371
-3.964
-2.643
-1.491
-0.563
0.112
0.515
0.634
0.429
-0.175
-1.234
-2.771
-4.784
-7.228
-10.062
-13.247
-16.723
-20.406
-24.183
-27.919
-31.532
-34.99
-38.297
-41.48
-44.542
-47.455
-50.211
-52.812
-55.288
-57.719
-60.176
-62.733
-65.491
-68.525
-71.981
-76.07
-80.837
-86.169
-91.766
-97.084
-101.628
-105.073
-106.994
-106.877
-104.441
-99.61
-92.794
-85.018
-77.268
-70.169
-64.234
-59.959
-57.515
-56.634
-56.191
-53.938
-47.174
-33.587
-11.339
21.797
67.777
127.382
200.456
283.591
370.232
456.671
540.479
620.169
698.114
768.338
818.517
838.311
815.305
749.621
654.662
542.988
428.973
319.938
213.278
108.555
6.755
-88.985
-172.215
-239.354
-289.744
-324.05
-344.017
-350.749
-345.564
-330.911
-310.177
-286.967
-264.071
-243.469
-224.886
-208.315
-196.344
-189.124
-189.116
-198.489
-210.09
-219.621
-221.456
-208.023
-185.187
-158.344
-131.8
-113.038
-99.616
-88.276
-78.696
-68.777
-60.159
-54.816
-52.254
-52.143
-53.657
-55.947
-58.946
-62.627
-66.777
-71.187
-75.661
-80.045
-84.217
-88.038
-91.323
-93.907
-95.706
-96.694
-96.882
-96.318
-95.059
-93.181
-90.77
-87.914
-84.706
-81.229
-77.563
-73.807
-70.059
-66.415
-62.978
-59.815
-56.96
-54.436
-52.241
-50.353
-48.751
-47.399
-46.248
-45.26
-44.395
-43.617
-42.895
-42.189
-41.452
-40.639
-39.699
-38.593
-37.293
-35.778
-34.031
-32.042
-29.804
-27.316
-24.586
-21.615
-18.405
-14.958
-11.273
-7.355
-3.213
1.143
5.701
10.448
15.37
20.453
25.68
31.036
36.504
42.068
47.713
53.422
59.175
64.954
70.737
76.506
82.241
87.92
93.523
99.031
104.425
109.684
114.791
119.728
124.476
129.02
133.342
137.426
141.258
144.823
148.109
151.102
153.794
156.174
158.235
159.971
161.377
162.452
163.192
163.599
163.673
163.416
162.832
161.925
160.7
159.163
157.323
155.185
152.761
150.059
147.09
143.866
140.399
136.702
132.789
128.674
124.372
119.899
115.272
110.509
105.626
100.642
95.576
90.446
85.269
80.066
74.852
69.645
64.462
59.32
54.233
49.218
44.288
39.458
34.74
30.148
25.692
21.384
17.235
13.252
9.444
5.82
2.384
-0.856
-3.896
-6.733
-9.363
-11.786
-14
-16.008
-17.81
-19.41
-20.813
-22.023
-23.045
-23.888
-24.558
-25.062
-25.41
-25.61
-25.67
-25.601
-25.413
-25.116
-24.721
-24.237
-23.677
-23.05
-22.368
-21.641
-20.879
-20.092
-19.291
-18.485
-17.683
-16.896
-16.132
-15.399
-14.706
-14.06
-13.466
-12.932
-12.462
-12.06
-11.731
-11.477
-11.301
-11.207
-11.195
-11.268
-11.427
-11.672
-12.004
-12.423
-12.926
-13.512
-14.179
-14.924
-15.744
-16.635
-17.594
-18.617
-19.7
-20.838
-22.028
-23.264
-24.542
-25.855
-27.199
-28.568
-29.958
-31.363
-32.779
-34.201
-35.623
-37.044
-38.457
-39.858
-41.242
-42.602
-43.934
-45.23
-46.485
-47.692
-48.843
-49.933
-50.958
-51.911
-52.79
-53.589
-54.307
-54.942
-55.491
-55.954
-56.327
-56.605
-56.785
-56.864
-56.838
-56.705
-56.459
-56.097
-55.618
-55.022
-54.312
-53.487
-52.543
-51.476
-50.285
-48.978
-47.564
-46.055
-44.464
-42.807
-41.112
-39.415
-37.751
-36.146
-34.613
-33.156
-31.782
-30.502
-29.325
-28.263
-27.31
-26.456
-25.696
-25.03
-24.459
-23.968
-23.521
-23.06
-22.541
-21.945
-21.282
-20.573
-19.833
-19.082
-18.345
-17.664
-17.102
-16.712
-16.516
-16.523
-16.741
-17.194
-17.938
-19.044
-20.559
-22.492
-24.824
-27.522
-30.565
-33.915
-37.514
-41.276
-45.095
-48.902
-52.682
-56.428
-60.147
-63.848
-67.506
-71.099
-74.628
-78.081
-81.478
-84.854
-88.238
-91.692
-95.295
-99.11
-103.246
-107.833
-112.844
-118.125
-123.353
-127.955
-131.381
-133.213
-132.969
-130.109
-124.399
-115.98
-105.482
-94.285
-83.775
-74.887
-68.516
-65.434
-65.732
-68.733
-72.774
-74.72
-71.165
-59.275
-36.189
0.477
52.006
118.514
198.396
287.837
381.972
475.583
562.522
636.657
692.395
724.912
731.16
710.066
662.099
589.324
495.864
387.121
269.383
149.341
33.083
-73.809
-166.545
-241.789
-298.246
-336.457
-358.358
-366.775
-364.854
-356.181
-344.484
-333.027
-323.776
-317.331
-313.464
-311.424
-310.265
-308.883
-305.935
-300.076
-290.726
-278.08
-262.719
-245.531
-227.383
-209.007
-191.236
-174.944
-160.691
-148.759
-139.241
-132.001
-126.891
-123.794
-122.502
-122.779
-124.399
-127.103
-130.652
-134.832
-139.403
-144.152
-148.897
-153.423
-157.53
-161.039
-163.78
-165.657
-166.632
-166.682
-165.82
-164.077
-161.508
-158.201
-154.266
-149.809
-144.935
-139.733
-134.282
-128.679
-123.033
-117.446
-112.023
-106.829
-101.898
-97.258
-92.92
-88.883
-85.134
-81.641
-78.361
-75.254
-72.288
-69.43
-66.654
-63.923
-61.194
-58.424
-55.567
-52.589
-49.468
-46.182
-42.718
-39.064
-35.218
-31.181
-26.962
-22.567
-17.998
-13.258
-8.348
-3.274
1.957
7.338
12.859
18.51
24.281
30.163
36.142
42.208
48.348
54.551
60.803
67.092
73.401
79.714
86.012
92.277
98.49
104.631
110.68
116.618
122.424
128.081
133.57
138.875
143.978
148.863
153.516
157.922
162.068
165.94
169.527
172.818
175.801
178.468
180.81
182.82
184.492
185.823
186.807
187.445
187.734
187.675
187.271
186.525
185.44
184.024
182.282
180.223
177.859
175.199
172.256
169.045
165.579
161.874
157.946
153.811
149.486
144.989
140.338
135.551
130.648
125.648
120.571
115.437
110.266
105.079
99.895
94.733
89.613
84.553
79.571
74.685
69.91
65.263
60.759
56.411
52.231
48.231
44.422
40.811
37.406
34.213
31.235
28.477
25.939
23.622
21.527
19.65
17.989
16.539
15.297
14.255
13.405
12.74
12.251
11.927
11.757
11.73
11.835
12.059
12.391
12.816
13.323
13.899
14.531
15.208
15.915
16.643
17.38
18.114
18.837
19.539
20.211
20.846
21.437
21.979
22.464
22.89
23.252
23.546
23.77
23.923
24.002
24.007
23.939
23.798
23.585
23.301
22.95
22.532
22.051
21.509
20.909
20.255
19.551
18.799
18.004
17.17
16.299
15.397
14.465
13.508
12.527
11.525
10.505
9.469
8.418
7.354
6.278
5.193
4.099
2.997
1.889
0.776
-0.342
-1.462
-2.584
-3.706
-4.826
-5.943
-7.053
-8.155
-9.244
-10.317
-11.37
-12.401
-13.405
-14.378
-15.317
-16.216
-17.073
-17.881
-18.636
-19.334
-19.97
-20.537
-21.031
-21.447
-21.78
-22.025
-22.178
-22.235
-22.192
-22.045
-21.793
-21.432
-20.961
-20.378
-19.685
-18.882
-17.973
-16.96
-15.85
-14.648
-13.365
-12.009
-10.592
-9.125
-7.622
-6.097
-4.564
-3.037
-1.531
-0.059
1.363
2.719
3.995
5.173
6.237
7.172
7.96
8.587
9.038
9.302
9.371
9.237
8.894
8.334
7.545
6.518
5.249
3.733
1.97
-0.034
-2.269
-4.709
-7.315
-10.048
-12.868
-15.739
-18.631
-21.507
-24.329
-27.053
-29.63
-32.016
-34.171
-36.054
-37.628
-38.869
-39.779
-40.403
-40.82
-41.115
-41.367
-41.632
-41.975
-42.483
-43.255
-44.406
-46.038
-48.218
-51.045
-54.669
-59.165
-64.492
-70.432
-76.514
-82.207
-87.073
-90.62
-92.287
-91.707
-88.758
-83.769
-77.655
-71.47
-66.066
-62.217
-60.699
-61.879
-65.496
-70.31
-73.987
-73.663
-66.631
-50.437
-22.223
20.56
78.971
152.512
237.643
328.052
419.456
508.329
592.236
672.03
742.396
794.459
817.967
798.425
731.837
623.886
488.276
348.627
221.716
116.923
34.499
-36.166
-101.725
-166.374
-229.472
-283.036
-323.149
-347.892
-357.096
-355.167
-345.3
-329.291
-309.202
-286.187
-261.29
-236.408
-213.622
-194.463
-179.765
-169.732
-163.91
-161.382
-161.339
-162.683
-163.736
-163.072
-159.85
-153.633
-144.602
-133.442
-120.781
-107.461
-94.704
-83.435
-74.206
-67.35
-62.796
-60.252
-59.456
-59.986
-61.274
-62.976
-64.881
-66.847
-68.854
-70.844
-72.719
-74.439
-75.982
-77.276
-78.226
-78.746
-78.759
-78.261
-77.295
-75.905
-74.142
-72.037
-69.619
-66.927
-64.01
-60.921
-57.707
-54.415
-51.099
-47.831
-44.697
-41.755
-39.039
-36.555
-34.292
-32.237
-30.373
-28.679
-27.126
-25.686
-24.332
-23.041
-21.797
-20.573
-19.34
-18.06
-16.691
-15.201
-13.567
-11.775
-9.816
-7.683
-5.371
-2.883
-0.227
2.589
5.561
8.686
11.962
15.384
18.943
22.626
26.422
30.32
34.309
38.378
42.515
46.707
50.943
55.213
59.506
63.809
68.106
72.38
76.611
80.785
84.885
88.894
92.797
96.575
100.214
103.704
107.029
110.176
113.126
115.855
118.349
120.599
122.601
124.356
125.866
127.127
128.143
128.926
129.476
129.793
129.864
129.661
129.169
128.384
127.31
125.965
124.355
122.471
120.304
117.845
115.079
112.003
108.595
104.82
100.666
96.146
91.298
86.198
80.901
75.442
69.849
64.14
58.341
52.499
46.653
40.837
35.093
29.461
24.006
18.818
13.95
9.422
5.219
1.285
-2.418
-5.9
-9.174
-12.247
-15.128
-17.841
-20.392
-22.774
-24.997
-27.074
-29.039
-30.958
-32.859
-34.747
-36.603
-38.378
-40.04
-41.577
-42.97
-44.203
-45.265
-46.143
-46.842
-47.381
-47.77
-48.009
-48.092
-47.995
-47.712
-47.252
-46.632
-45.879
-45.017
-44.061
-43.031
-41.95
-40.835
-39.7
-38.553
-37.39
-36.215
-35.035
-33.861
-32.705
-31.579
-30.487
-29.436
-28.43
-27.473
-26.569
-25.72
-24.926
-24.188
-23.511
-22.898
-22.357
-21.891
-21.505
-21.2
-20.98
-20.846
-20.798
-20.835
-20.957
-21.161
-21.447
-21.813
-22.259
-22.783
-23.384
-24.06
-24.808
-25.626
-26.511
-27.457
-28.463
-29.522
-30.633
-31.789
-32.987
-34.223
-35.493
-36.791
-38.113
-39.451
-40.799
-42.15
-43.495
-44.824
-46.128
-47.399
-48.628
-49.807
-50.929
-51.987
-52.976
-53.891
-54.725
-55.475
-56.133
-56.692
-57.143
-57.479
-57.694
-57.779
-57.729
-57.535
-57.192
-56.698
-56.052
-55.248
-54.282
-53.142
-51.824
-50.331
-48.667
-46.84
-44.863
-42.748
-40.519
-38.212
-35.859
-33.493
-31.133
-28.784
-26.456
-24.16
-21.904
-19.704
-17.56
-15.453
-13.376
-11.322
-9.283
-7.249
-5.192
-3.054
-0.792
1.62
4.192
6.901
9.725
12.642
15.614
18.589
21.495
24.233
26.726
28.92
30.762
32.206
33.193
33.642
33.496
32.73
31.34
29.351
26.8
23.725
20.198
16.326
12.239
8.091
4.014
0.102
-3.57
-6.945
-9.993
-12.685
-15.024
-17.039
-18.761
-20.243
-21.563
-22.807
-24.103
-25.606
-27.452
-29.834
-32.987
-37.016
-41.914
-47.493
-53.32
-58.981
-64.141
-68.347
-71.09
-71.998
-70.865
-68.043
-64.412
-60.694
-57.47
-55.193
-54.187
-54.806
-57.056
-59.759
-60.798
-57.925
-48.797
-31.541
-4.385
34.868
87.714
153.992
231.893
318.325
409.444
501.431
589.561
667.829
730.439
772.481
790.965
784.91
754.134
699.24
622.722
528.874
423.243
312.259
201.163
94.013
-4.903
-92.007
-164.808
-221.644
-262.766
-290.164
-305.422
-310.052
-306.265
-295.972
-281.548
-266.035
-251.231
-237.616
-225.629
-215.434
-207.112
-201.145
-197.094
-193.387
-188.758
-182.693
-175.123
-166.349
-156.411
-144.877
-131.833
-118.172
-105.036
-93.245
-83.129
-74.646
-67.785
-62.797
-59.814
-58.609
-58.669
-59.488
-60.745
-62.306
-64.15
-66.182
-68.253
-70.251
-72.112
-73.816
-75.342
-76.641
-77.609
-78.141
-78.182
-77.724
-76.815
-75.518
-73.886
-71.963
-69.781
-67.374
-64.785
-62.066
-59.266
-56.418
-53.559
-50.727
-47.984
-45.407
-43.05
-40.932
-39.049
-37.383
-35.916
-34.635
-33.52
-32.537
-31.654
-30.841
-30.07
-29.324
-28.576
-27.793
-26.934
-25.951
-24.809
-23.481
-21.951
-20.203
-18.229
-16.018
-13.569
-10.889
-7.983
-4.853
-1.501
2.075
5.869
9.874
14.079
18.471
23.04
27.771
32.652
37.667
42.799
48.032
53.351
58.74
64.182
69.656
75.142
80.619
86.065
91.458
96.776
101.995
107.093
112.049
116.84
121.447
125.849
130.027
133.962
137.638
141.039
144.148
146.952
149.439
151.595
153.411
154.878
155.988
156.736
157.117
157.128
156.769
156.041
154.946
153.488
151.672
149.506
146.999
144.16
141.001
137.534
133.775
129.738
125.441
120.9
116.135
111.165
106.01
100.691
95.228
89.643
83.957
78.192
72.371
66.514
60.642
54.779
48.944
43.157
37.439
31.809
26.285
20.884
15.622
10.514
5.574
0.814
-3.754
-8.121
-12.278
-16.217
-19.933
-23.422
-26.679
-29.703
-32.494
-35.052
-37.38
-39.48
-41.357
-43.016
-44.463
-45.705
-46.75
-47.606
-48.283
-48.789
-49.135
-49.332
-49.391
-49.323
-49.139
-48.852
-48.472
-48.012
-47.481
-46.891
-46.253
-45.576
-44.869
-44.143
-43.405
-42.663
-41.924
-41.196
-40.485
-39.795
-39.132
-38.499
-37.901
-37.339
-36.817
-36.336
-35.898
-35.504
-35.156
-34.852
-34.594
-34.382
-34.215
-34.093
-34.014
-33.977
-33.982
-34.025
-34.107
-34.225
-34.377
-34.563
-34.781
-35.03
-35.308
-35.615
-35.95
-36.311
-36.7
-37.114
-37.553
-38.018
-38.509
-39.024
-39.566
-40.132
-40.723
-41.34
-41.98
-42.645
-43.331
-44.039
-44.766
-45.51
-46.269
-47.039
-47.818
-48.602
-49.388
-50.171
-50.947
-51.713
-52.462
-53.189
-53.89
-54.558
-55.187
-55.771
-56.305
-56.78
-57.191
-57.531
-57.795
-57.975
-58.065
-58.061
-57.955
-57.743
-57.421
-56.985
-56.431
-55.757
-54.963
-54.048
-53.015
-51.864
-50.601
-49.231
-47.762
-46.203
-44.563
-42.854
-41.087
-39.276
-37.435
-35.576
-33.714
-31.863
-30.037
-28.253
-26.527
-24.875
-23.315
-21.864
-20.54
-19.358
-18.333
-17.475
-16.794
-16.3
-16.002
-15.916
-16.053
-16.422
-17.032
-17.886
-18.986
-20.324
-21.879
-23.616
-25.497
-27.482
-29.533
-31.617
-33.696
-35.73
-37.677
-39.488
-41.117
-42.523
-43.664
-44.502
-45.016
-45.209
-45.128
-44.86
-44.497
-44.135
-43.852
-43.734
-43.886
-44.42
-45.459
-47.118
-49.473
-52.641
-56.785
-61.984
-68.195
-75.189
-82.47
-89.484
-95.727
-100.61
-103.483
-103.88
-101.612
-97.026
-91.064
-84.818
-79.276
-75.372
-73.985
-75.582
-79.94
-85.722
-90.471
-91.157
-84.634
-67.84
-37.712
8.136
70.865
149.864
242.537
344.802
451.487
556.529
652.925
733.707
792.622
824.929
828.029
800.93
744.513
661.775
557.71
438.726
312.106
184.876
63.146
-47.243
-141.718
-217.524
-273.521
-310.577
-331.177
-338.221
-334.804
-324.721
-311.418
-297.725
-285.966
-276.961
-270.417
-265.834
-262.404
-258.958
-254.517
-248.117
-238.853
-226.706
-212.195
-195.954
-178.822
-161.559
-144.753
-129.076
-115.176
-103.356
-93.707
-86.174
-80.555
-76.705
-74.495
-73.72
-74.157
-75.569
-77.729
-80.45
-83.575
-86.961
-90.473
-93.962
-97.276
-100.299
-102.927
-105.085
-106.713
-107.739
-108.133
-107.902
-107.076
-105.717
-103.892
-101.65
-99.048
-96.137
-92.954
-89.555
-86.001
-82.345
-78.659
-75.016
-71.478
-68.119
-64.981
-62.072
-59.406
-56.976
-54.777
-52.819
-51.099
-49.61
-48.369
-47.376
-46.608
-46.033
-45.58
-45.158
-44.693
-44.117
-43.382
-42.457
-41.302
-39.878
-38.16
-36.107
-33.685
-30.857
-27.557
-23.735
-19.38
-14.501
-9.153
-3.419
2.643
8.98
15.545
22.301
29.202
36.204
43.277
50.385
57.483
64.518
71.409
78.082
84.499
90.639
96.507
102.133
107.526
112.689
117.634
122.357
126.854
131.121
135.137
138.879
142.338
145.512
148.412
151.052
153.427
155.529
157.339
158.83
159.984
160.786
161.218
161.27
160.939
160.225
159.139
157.697
155.91
153.789
151.342
148.576
145.504
142.142
138.504
134.612
130.483
126.139
121.602
116.894
112.038
107.052
101.955
96.765
91.5
86.179
80.82
75.444
70.07
64.717
59.405
54.153
48.979
43.899
38.93
34.086
29.379
24.823
20.427
16.203
12.158
8.299
4.634
1.166
-2.099
-5.159
-8.013
-10.66
-13.099
-15.333
-17.364
-19.195
-20.83
-22.273
-23.53
-24.608
-25.512
-26.25
-26.829
-27.259
-27.547
-27.703
-27.737
-27.658
-27.477
-27.203
-26.846
-26.416
-25.923
-25.375
-24.782
-24.152
-23.493
-22.813
-22.118
-21.417
-20.714
-20.017
-19.331
-18.66
-18.009
-17.383
-16.785
-16.218
-15.687
-15.192
-14.737
-14.323
-13.952
-13.625
-13.343
-13.108
-12.919
-12.777
-12.682
-12.633
-12.631
-12.674
-12.763
-12.896
-13.072
-13.291
-13.55
-13.851
-14.19
-14.567
-14.982
-15.432
-15.917
-16.436
-16.987
-17.568
-18.179
-18.816
-19.479
-20.166
-20.874
-21.602
-22.348
-23.109
-23.883
-24.667
-25.459
-26.255
-27.053
-27.848
-28.637
-29.415
-30.179
-30.923
-31.643
-32.334
-32.992
-33.611
-34.186
-34.71
-35.179
-35.588
-35.929
-36.197
-36.388
-36.494
-36.513
-36.439
-36.268
-35.996
-35.619
-35.136
-34.543
-33.838
-33.019
-32.085
-31.035
-29.871
-28.592
-27.203
-25.705
-24.103
-22.403
-20.613
-18.74
-16.796
-14.791
-12.736
-10.645
-8.531
-6.409
-4.292
-2.195
-0.132
1.882
3.83
5.695
7.461
9.11
10.625
11.99
13.189
14.209
15.041
15.676
16.103
16.313
16.29
16.019
15.492
14.698
13.633
12.3
10.707
8.877
6.846
4.652
2.337
-0.063
-2.514
-4.981
-7.424
-9.802
-12.061
-14.149
-16.02
-17.628
-18.939
-19.934
-20.624
-21.062
-21.335
-21.543
-21.78
-22.123
-22.659
-23.49
-24.726
-26.486
-28.88
-31.99
-35.935
-40.879
-46.882
-53.848
-61.509
-69.374
-76.934
-83.802
-89.507
-93.444
-95.217
-94.793
-92.552
-89.388
-86.153
-83.223
-80.93
-79.811
-80.032
-81.053
-81.543
-79.151
-71.326
-56.301
-32.453
2.218
49.149
108.751
180.193
260.738
346.57
434.118
519.239
596.685
661.341
708.492
734.327
737.211
716.929
673.825
609.823
528.57
434.455
332.842
229.285
128.213
33.687
-50.635
-122.538
-180.975
-225.745
-257.996
-279.362
-291.272
-295.789
-295.059
-290.603
-283.643
-274.995
-264.875
-253.667
-242.027
-230.023
-217.581
-204.842
-192.041
-179.684
-168.314
-157.923
-148.033
-138.492
-129.35
-120.63
-112.303
-104.105
-95.847
-87.824
-80.711
-74.935
-70.624
-67.788
-66.347
-66.362
-67.857
-70.534
-73.858
-77.402
-80.901
-84.197
-87.219
-89.786
-91.681
-92.824
-93.236
-92.975
-92.101
-90.628
-88.541
-85.881
-82.73
-79.185
-75.348
-71.286
-67.045
-62.699
-58.344
-54.096
-50.069
-46.327
-42.891
-39.776
-36.999
-34.576
-32.524
-30.842
-29.513
-28.524
-27.88
-27.581
-27.609
-27.921
-28.432
-29.04
-29.659
-30.227
-30.701
-31.049
-31.221
-31.173
-30.867
-30.262
-29.322
-27.999
-26.215
-23.91
-21.063
-17.678
-13.806
-9.52
-4.871
0.098
5.348
10.849
16.565
22.455
28.499
34.667
40.921
47.21
53.457
59.592
65.579
71.399
77.062
82.596
88.013
93.318
98.52
103.615
108.6
113.466
118.19
122.746
127.118
131.302
135.301
139.125
142.764
146.202
149.415
152.369
155.037
157.399
159.428
161.108
162.426
163.374
163.956
164.179
164.047
163.561
162.723
161.532
159.992
158.11
155.896
153.361
150.518
147.38
143.966
140.291
136.372
132.224
127.862
123.301
118.557
113.646
108.587
103.397
98.098
92.708
87.248
81.739
76.202
70.655
65.118
59.609
54.146
48.745
43.423
38.196
33.078
28.084
23.225
18.515
13.966
9.586
5.387
1.375
-2.441
-6.056
-9.466
-12.665
-15.652
-18.425
-20.984
-23.33
-25.463
-27.388
-29.106
-30.625
-31.948
-33.083
-34.038
-34.821
-35.441
-35.908
-36.231
-36.422
-36.492
-36.45
-36.308
-36.077
-35.768
-35.393
-34.963
-34.488
-33.979
-33.446
-32.899
-32.348
-31.801
-31.266
-30.751
-30.264
-29.81
-29.396
-29.027
-28.707
-28.44
-28.229
-28.077
-27.986
-27.957
-27.991
-28.088
-28.248
-28.47
-28.752
-29.092
-29.488
-29.936
-30.434
-30.976
-31.559
-32.18
-32.832
-33.512
-34.216
-34.938
-35.675
-36.421
-37.174
-37.928
-38.68
-39.427
-40.165
-40.892
-41.605
-42.302
-42.98
-43.639
-44.275
-44.888
-45.476
-46.037
-46.569
-47.071
-47.54
-47.974
-48.373
-48.734
-49.056
-49.337
-49.577
-49.774
-49.926
-50.032
-50.092
-50.102
-50.062
-49.969
-49.821
-49.617
-49.354
-49.031
-48.643
-48.19
-47.668
-47.073
-46.404
-45.657
-44.829
-43.916
-42.918
-41.833
-40.661
-39.402
-38.058
-36.631
-35.127
-33.551
-31.908
-30.205
-28.45
-26.652
-24.82
-22.966
-21.097
-19.227
-17.365
-15.527
-13.725
-11.973
-10.284
-8.673
-7.155
-5.748
-4.466
-3.326
-2.337
-1.512
-0.864
-0.407
-0.156
-0.123
-0.315
-0.737
-1.395
-2.29
-3.419
-4.769
-6.313
-8.019
-9.856
-11.794
-13.81
-15.877
-17.963
-20.035
-22.058
-24.001
-25.84
-27.551
-29.101
-30.467
-31.647
-32.655
-33.547
-34.399
-35.278
-36.259
-37.398
-38.729
-40.299
-42.168
-44.4
-47.064
-50.219
-53.904
-58.201
-63.24
-69.037
-75.449
-82.126
-88.495
-93.979
-98.132
-100.488
-100.482
-97.815
-92.631
-85.555
-77.819
-70.718
-65.044
-61.451
-60.691
-62.927
-67.381
-72.358
-74.962
-71.971
-61.004
-39.782
-5.834
42.348
104.904
180.328
265.023
354.502
444.585
530.3
605.814
665.745
705.415
722.012
715.04
684.839
632.373
560.333
472.861
375.076
272.92
171.219
73.631
-15.927
-94.212
-159.18
-209.662
-246.248
-270.953
-285.363
-291.086
-290.558
-285.943
-279.375
-272.982
-267.454
-262.57
-258.28
-254.242
-249.835
-244.653
-237.967
-228.921
-217.469
-204
-188.999
-173.18
-157.132
-141.292
-126.247
-112.617
-100.773
-90.894
-82.99
-76.924
-72.567
-69.802
-68.459
-68.323
-69.162
-70.759
-72.909
-75.441
-78.222
-81.112
-83.98
-86.702
-89.133
-91.152
-92.67
-93.604
-93.91
-93.577
-92.61
-91.045
-88.952
-86.403
-83.481
-80.272
-76.834
-73.226
-69.505
-65.721
-61.944
-58.244
-54.683
-51.327
-48.223
-45.397
-42.864
-40.622
-38.648
-36.92
-35.404
-34.062
-32.862
-31.773
-30.767
-29.82
-28.898
-27.964
-26.981
-25.906
-24.704
-23.347
-21.813
-20.085
-18.154
-16.012
-13.656
-11.091
-8.317
-5.336
-2.148
1.248
4.849
8.65
12.644
16.821
21.17
25.681
30.343
35.142
40.066
45.1
50.231
55.446
60.729
66.063
71.429
76.81
82.183
87.531
92.832
98.065
103.209
108.245
113.153
117.915
122.512
126.926
131.141
135.14
138.908
142.43
145.695
148.688
151.4
153.819
155.938
157.747
159.242
160.417
161.268
161.792
161.989
161.859
161.402
160.622
159.521
158.105
156.381
154.355
152.037
149.436
146.563
143.429
140.049
136.434
132.599
128.559
124.328
119.923
115.359
110.654
105.823
100.885
95.856
90.753
85.595
80.398
75.18
69.956
64.745
59.562
54.423
49.344
44.34
39.425
34.612
29.916
25.347
20.918
16.639
12.52
8.567
4.79
1.194
-2.215
-5.432
-8.455
-11.28
-13.906
-16.333
-18.56
-20.589
-22.422
-24.063
-25.514
-26.782
-27.87
-28.786
-29.535
-30.125
-30.563
-30.857
-31.016
-31.049
-30.966
-30.775
-30.488
-30.113
-29.662
-29.144
-28.569
-27.947
-27.286
-26.596
-25.885
-25.162
-24.434
-23.708
-22.993
-22.294
-21.618
-20.969
-20.352
-19.772
-19.231
-18.733
-18.279
-17.872
-17.513
-17.204
-16.945
-16.737
-16.581
-16.477
-16.423
-16.418
-16.46
-16.547
-16.677
-16.847
-17.053
-17.294
-17.566
-17.867
-18.194
-18.546
-18.919
-19.312
-19.722
-20.146
-20.583
-21.031
-21.49
-21.957
-22.433
-22.917
-23.41
-23.913
-24.425
-24.945
-25.474
-26.011
-26.554
-27.101
-27.649
-28.196
-28.74
-29.28
-29.815
-30.343
-30.863
-31.374
-31.878
-32.374
-32.861
-33.334
-33.79
-34.223
-34.629
-35.003
-35.338
-35.627
-35.862
-36.04
-36.157
-36.209
-36.19
-36.089
-35.895
-35.599
-35.199
-34.697
-34.094
-33.393
-32.605
-31.746
-30.847
-29.933
-29.022
-28.121
-27.227
-26.341
-25.467
-24.607
-23.765
-22.932
-22.094
-21.246
-20.387
-19.511
-18.604
-17.635
-16.549
-15.308
-13.897
-12.321
-10.605
-8.774
-6.859
-4.908
-2.978
-1.148
0.512
1.95
3.131
4.02
4.579
4.753
4.472
3.694
2.405
0.614
-1.651
-4.351
-7.431
-10.808
-14.372
-18
-21.587
-25.051
-28.336
-31.401
-34.214
-36.754
-39.011
-41.016
-42.819
-44.481
-46.065
-47.617
-49.22
-50.993
-53.079
-55.632
-58.768
-62.548
-67.04
-72.353
-78.448
-85.128
-92.027
-98.515
-103.99
-108.018
-110.085
-109.605
-106.307
-100.228
-91.833
-82.32
-72.813
-63.998
-56.653
-51.416
-48.244
-46.532
-44.793
-40.201
-29.907
-11.528
17.528
59.29
114.717
183.781
264.772
354.044
447.201
539.285
624.304
696.382
750.042
780.63
785.398
763.227
714.433
641.106
547.204
438.011
320.027
199.846
83.19
-24.486
-118.755
-196.526
-255.973
-297.292
-322.448
-333.834
-333.874
-325.372
-310.802
-292.761
-273.902
-255.413
-237.542
-220.585
-204.932
-191.217
-180.208
-171.776
-165.144
-160.299
-157.553
-156.875
-157.794
-159.18
-159.892
-159.693
-159.039
-157.873
-155.656
-152.173
-147.694
-142.889
-138.351
-134.007
-129.137
-123.601
-118.06
-112.922
-108.286
-104.11
-100.255
-96.999
-95.092
-94.686
-95.213
-96.235
-97.406
-98.502
-99.548
-100.344
-100.449
-99.772
-98.549
-96.983
-95.285
-93.524
-91.58
-89.43
-87.161
-84.809
-82.378
-79.871
-77.278
-74.661
-72.16
-69.885
-67.886
-66.152
-64.635
-63.295
-62.117
-61.094
-60.212
-59.433
-58.711
-58.006
-57.29
-56.535
-55.693
-54.681
-53.401
-51.78
-49.798
-47.484
-44.874
-41.987
-38.83
-35.404
-31.729
-27.835
-23.747
-19.477
-15.024
-10.398
-5.627
-0.768
4.118
8.994
13.859
18.735
23.641
28.577
33.536
38.513
43.511
48.533
53.57
58.594
63.577
68.499
73.35
78.134
82.853
87.496
92.039
96.448
100.696
104.759
108.619
112.253
115.635
118.745
121.57
124.108
126.356
128.308
129.954
131.285
132.291
132.97
133.32
133.344
133.043
132.42
131.48
130.231
128.683
126.844
124.723
122.327
119.664
116.746
113.584
110.192
106.583
102.772
98.774
94.607
90.288
85.834
81.263
76.593
71.84
67.025
62.164
57.276
52.379
47.491
42.627
37.806
33.042
28.351
23.746
19.24
14.846
10.574
6.435
2.438
-1.409
-5.099
-8.625
-11.983
-15.168
-18.178
-21.009
-23.661
-26.134
-28.426
-30.541
-32.481
-34.247
-35.846
-37.282
-38.559
-39.686
-40.668
-41.513
-42.23
-42.827
-43.311
-43.692
-43.978
-44.177
-44.297
-44.347
-44.334
-44.265
-44.149
-43.991
-43.799
-43.577
-43.333
-43.07
-42.793
-42.507
-42.216
-41.922
-41.63
-41.342
-41.061
-40.789
-40.529
-40.28
-40.046
-39.825
-39.62
-39.428
-39.251
-39.088
-38.938
-38.801
-38.675
-38.562
-38.459
-38.367
-38.285
-38.213
-38.149
-38.094
-38.048
-38.009
-37.978
-37.956
-37.943
-37.94
-37.949
-37.969
-38.003
-38.052
-38.116
-38.198
-38.298
-38.416
-38.555
-38.714
-38.895
-39.099
-39.327
-39.579
-39.854
-40.152
-40.472
-40.811
-41.166
-41.533
-41.91
-42.292
-42.675
-43.057
-43.434
-43.805
-44.164
-44.51
-44.837
-45.139
-45.409
-45.639
-45.822
-45.948
-46.009
-45.994
-45.894
-45.704
-45.415
-45.021
-44.511
-43.874
-43.099
-42.184
-41.127
-39.929
-38.595
-37.132
-35.552
-33.878
-32.133
-30.338
-28.513
-26.665
-24.8
-22.929
-21.061
-19.209
-17.374
-15.544
-13.701
-11.831
-9.918
-7.95
-5.904
-3.736
-1.41
1.097
3.8
6.688
9.74
12.943
16.271
19.69
23.145
26.551
29.807
32.837
35.565
37.92
39.833
41.21
41.979
42.105
41.565
40.371
38.547
36.113
33.105
29.594
25.673
21.475
17.158
12.847
8.661
4.713
1.089
-2.125
-4.875
-7.165
-9.014
-10.444
-11.505
-12.262
-12.793
-13.227
-13.716
-14.399
-15.48
-17.204
-19.711
-23.059
-27.15
-31.65
-36.226
-40.602
-44.377
-47.086
-48.455
-48.31
-46.871
-44.948
-43.212
-42.141
-42.275
-43.942
-47.211
-52.018
-57.521
-61.797
-62.865
-58.625
-46.825
-25.654
6.688
51.841
110.366
181.379
262.987
352.172
445.071
537.522
624.351
699.89
758.785
796.543
810.255
798.509
761.205
699.553
616.6
517.027
406.772
292.2
178.9
72.05
-23.899
-105.461
-170.34
-218.158
-250.209
-268.64
-275.886
-274.826
-268.195
-258.775
-249.178
-240.628
-233.665
-228.397
-224.284
-220.62
-216.889
-212.208
-205.771
-197.626
-187.61
-175.78
-162.835
-149.283
-135.528
-122.236
-109.781
-98.188
-87.954
-79.395
-72.422
-67.107
-63.362
-60.937
-59.816
-59.979
-61.065
-62.781
-64.91
-67.173
-69.478
-71.777
-73.901
-75.725
-77.202
-78.276
-78.939
-79.195
-78.98
-78.259
-77.049
-75.382
-73.339
-71.007
-68.451
-65.74
-62.931
-60.075
-57.226
-54.429
-51.71
-49.097
-46.614
-44.292
-42.184
-40.323
-38.72
-37.372
-36.255
-35.343
-34.614
-34.037
-33.576
-33.196
-32.865
-32.556
-32.251
-31.926
-31.555
-31.104
-30.534
-29.811
-28.91
-27.814
-26.507
-24.977
-23.215
-21.216
-18.985
-16.523
-13.831
-10.912
-7.763
-4.387
-0.791
3.017
7.026
11.224
15.6
20.14
24.83
29.653
34.595
39.639
44.771
49.973
55.228
60.517
65.819
71.114
76.381
81.601
86.751
91.811
96.759
101.575
106.239
110.733
115.036
119.132
123.002
126.63
130.001
133.102
135.918
138.438
140.651
142.548
144.121
145.362
146.267
146.83
147.051
146.928
146.461
145.652
144.505
143.024
141.214
139.085
136.642
133.897
130.86
127.543
123.96
120.125
116.053
111.762
107.267
102.589
97.744
92.752
87.634
82.408
77.094
71.714
66.286
60.832
55.371
49.924
44.509
39.145
33.851
28.645
23.542
18.559
13.711
9.011
4.472
0.105
-4.079
-8.072
-11.864
-15.45
-18.825
-21.983
-24.923
-27.643
-30.142
-32.424
-34.489
-36.341
-37.986
-39.429
-40.676
-41.735
-42.614
-43.322
-43.868
-44.263
-44.518
-44.642
-44.649
-44.549
-44.355
-44.078
-43.73
-43.324
-42.87
-42.379
-41.862
-41.33
-40.79
-40.254
-39.729
-39.223
-38.743
-38.295
-37.885
-37.517
-37.195
-36.921
-36.699
-36.528
-36.41
-36.345
-36.332
-36.37
-36.459
-36.596
-36.779
-37.007
-37.276
-37.583
-37.926
-38.299
-38.699
-39.122
-39.563
-40.018
-40.483
-40.952
-41.423
-41.891
-42.354
-42.808
-43.25
-43.678
-44.09
-44.484
-44.859
-45.214
-45.549
-45.864
-46.16
-46.439
-46.702
-46.95
-47.185
-47.408
-47.621
-47.823
-48.015
-48.196
-48.365
-48.522
-48.668
-48.801
-48.923
-49.034
-49.133
-49.225
-49.31
-49.389
-49.459
-49.519
-49.564
-49.593
-49.599
-49.578
-49.524
-49.429
-49.289
-49.103
-48.868
-48.579
-48.225
-47.797
-47.286
-46.69
-46.008
-45.241
-44.39
-43.464
-42.477
-41.456
-40.427
-39.405
-38.397
-37.399
-36.414
-35.44
-34.482
-33.541
-32.605
-31.66
-30.696
-29.709
-28.689
-27.62
-26.465
-25.166
-23.68
-21.984
-20.082
-17.993
-15.737
-13.342
-10.846
-8.299
-5.776
-3.348
-1.073
1.001
2.821
4.328
5.438
6.05
6.093
5.526
4.344
2.575
0.248
-2.587
-5.859
-9.472
-13.303
-17.231
-21.157
-24.979
-28.595
-31.908
-34.802
-37.162
-38.935
-40.09
-40.634
-40.624
-40.097
-39.124
-37.832
-36.359
-34.887
-33.6
-32.621
-32.136
-32.394
-33.525
-35.575
-38.415
-41.64
-44.883
-47.869
-50.192
-51.425
-51.293
-49.671
-47.032
-44.377
-42.538
-42.191
-43.744
-47.34
-53.108
-60.753
-68.795
-74.884
-76.483
-70.919
-56.393
-31.647
5.309
55.958
119.917
195.698
279.062
363.074
444.625
521.891
593.699
663.124
724.806
767.179
780.569
752.392
682.553
585.151
473.451
362.703
260.788
164.138
71.568
-16.151
-96.389
-163.216
-213.846
-249.139
-271.189
-282.363
-284.696
-280.522
-272.282
-262.534
-253.588
-246.202
-240.194
-235.517
-231.829
-228.462
-224.85
-220.065
-213.102
-203.838
-192.618
-179.89
-166.332
-152.506
-138.818
-125.826
-114.094
-103.907
-95.368
-88.412
-82.826
-78.453
-75.18
-72.867
-71.385
-70.586
-70.317
-70.446
-70.861
-71.492
-72.285
-73.184
-74.13
-75.048
-75.876
-76.59
-77.184
-77.635
-77.915
-77.973
-77.749
-77.234
-76.444
-75.404
-74.145
-72.675
-70.988
-69.098
-67.028
-64.806
-62.464
-60.014
-57.463
-54.839
-52.182
-49.546
-46.994
-44.554
-42.236
-40.044
-37.974
-36.022
-34.187
-32.451
-30.787
-29.173
-27.586
-26.009
-24.43
-22.823
-21.156
-19.393
-17.496
-15.437
-13.199
-10.768
-8.134
-5.291
-2.237
1.024
4.479
8.123
11.95
15.953
20.128
24.465
28.953
33.579
38.326
43.182
48.132
53.159
58.248
63.384
68.551
73.733
78.915
84.082
89.215
94.296
99.303
104.219
109.022
113.693
118.212
122.56
126.718
130.67
134.398
137.889
141.126
144.098
146.791
149.195
151.299
153.095
154.574
155.731
156.561
157.058
157.221
157.049
156.54
155.698
154.525
153.024
151.201
149.064
146.62
143.88
140.853
137.553
133.993
130.188
126.153
121.905
117.462
112.843
108.065
103.148
98.112
92.975
87.758
82.478
77.157
71.811
66.461
61.123
55.816
50.556
45.361
40.245
35.224
30.312
25.523
20.868
16.36
12.007
7.821
3.808
-0.024
-3.67
-7.125
-10.386
-13.451
-16.319
-18.99
-21.465
-23.747
-25.838
-27.743
-29.467
-31.014
-32.392
-33.605
-34.66
-35.566
-36.327
-36.952
-37.447
-37.82
-38.079
-38.232
-38.285
-38.247
-38.125
-37.926
-37.659
-37.329
-36.945
-36.513
-36.039
-35.53
-34.991
-34.428
-33.847
-33.253
-32.651
-32.044
-31.436
-30.832
-30.235
-29.646
-29.07
-28.51
-27.966
-27.443
-26.943
-26.47
-26.025
-25.614
-25.238
-24.901
-24.606
-24.356
-24.154
-24.002
-23.902
-23.857
-23.868
-23.937
-24.066
-24.255
-24.506
-24.818
-25.193
-25.63
-26.129
-26.689
-27.309
-27.989
-28.726
-29.52
-30.369
-31.27
-32.223
-33.223
-34.269
-35.356
-36.481
-37.637
-38.818
-40.018
-41.229
-42.443
-43.652
-44.847
-46.022
-47.168
-48.279
-49.349
-50.37
-51.336
-52.24
-53.075
-53.832
-54.505
-55.083
-55.56
-55.928
-56.177
-56.302
-56.297
-56.156
-55.873
-55.442
-54.851
-54.095
-53.174
-52.087
-50.841
-49.444
-47.908
-46.253
-44.504
-42.685
-40.819
-38.93
-37.034
-35.148
-33.284
-31.456
-29.68
-27.963
-26.301
-24.681
-23.083
-21.484
-19.857
-18.17
-16.378
-14.444
-12.342
-10.054
-7.572
-4.903
-2.062
0.93
4.042
7.226
10.414
13.517
16.433
19.063
21.311
23.077
24.265
24.794
24.621
23.719
22.072
19.679
16.549
12.728
8.315
3.422
-1.827
-7.289
-12.837
-18.307
-23.456
-28.189
-32.554
-36.609
-40.524
-44.325
-47.751
-50.766
-53.566
-56.059
-58.032
-59.264
-59.301
-58.323
-57.26
-56.627
-56.648
-57.858
-60.633
-65.386
-72.789
-82.35
-92.589
-102.532
-111.324
-117.937
-121.872
-122.613
-119.531
-113.415
-105.773
-97.508
-89.58
-82.835
-77.194
-72.288
-67.397
-60.217
-47.867
-28.096
1.369
42.737
97.203
164.634
244.187
331.938
420.69
505.903
584.141
653.3
717.085
773.314
810.523
816.783
776.672
683.755
553.676
408.834
272.873
164.984
83.414
17.03
-42.184
-101.65
-158.987
-205.286
-237.411
-254.244
-257.864
-254.86
-249.501
-244.377
-241.389
-240.44
-241.17
-243.464
-246.654
-249.72
-251.534
-250.852
-247.041
-240.193
-230.678
-219.085
-206.051
-192.191
-178.237
-164.945
-152.736
-141.755
-131.99
-123.299
-115.621
-108.941
-103.163
-98.162
-93.837
-90.113
-86.975
-84.433
-82.439
-80.908
-79.745
-78.872
-78.272
-77.945
-77.887
-78.078
-78.469
-79.01
-79.68
-80.45
-81.281
-82.116
-82.872
-83.465
-83.852
-84.016
-83.953
-83.661
-83.114
-82.286
-81.17
-79.77
-78.106
-76.198
-74.054
-71.685
-69.126
-66.422
-63.637
-60.841
-58.072
-55.347
-52.68
-50.072
-47.527
-45.046
-42.614
-40.209
-37.811
-35.402
-32.97
-30.504
-27.985
-25.384
-22.671
-19.81
-16.782
-13.574
-10.178
-6.592
-2.818
1.138
5.264
9.541
13.954
18.49
23.138
27.887
32.724
37.633
42.597
47.598
52.62
57.647
62.662
67.651
72.597
77.486
82.305
87.042
91.684
96.217
100.625
104.895
109.011
112.959
116.726
120.298
123.662
126.807
129.722
132.399
134.828
137.003
138.916
140.564
141.939
143.039
143.86
144.399
144.655
144.627
144.314
143.717
142.837
141.677
140.24
138.531
136.554
134.316
131.823
129.084
126.108
122.905
119.485
115.862
112.048
108.056
103.902
99.6
95.167
90.619
85.972
81.243
76.448
71.605
66.73
61.839
56.948
52.075
47.235
42.444
37.717
33.071
28.518
24.074
19.752
15.565
11.525
7.642
3.927
0.389
-2.963
-6.124
-9.086
-11.846
-14.4
-16.746
-18.884
-20.815
-22.539
-24.062
-25.386
-26.516
-27.46
-28.224
-28.814
-29.24
-29.511
-29.635
-29.622
-29.482
-29.226
-28.865
-28.409
-27.869
-27.257
-26.584
-25.86
-25.097
-24.306
-23.496
-22.68
-21.865
-21.063
-20.28
-19.527
-18.81
-18.136
-17.51
-16.939
-16.426
-15.974
-15.587
-15.266
-15.013
-14.829
-14.713
-14.667
-14.689
-14.778
-14.933
-15.153
-15.435
-15.777
-16.178
-16.634
-17.145
-17.707
-18.317
-18.974
-19.674
-20.414
-21.191
-22.003
-22.846
-23.718
-24.616
-25.538
-26.481
-27.444
-28.426
-29.424
-30.437
-31.464
-32.505
-33.559
-34.623
-35.698
-36.783
-37.877
-38.979
-40.087
-41.201
-42.318
-43.436
-44.554
-45.667
-46.772
-47.866
-48.944
-50.001
-51.033
-52.036
-53.005
-53.934
-54.818
-55.652
-56.431
-57.148
-57.798
-58.374
-58.87
-59.28
-59.599
-59.82
-59.938
-59.948
-59.845
-59.625
-59.284
-58.819
-58.227
-57.506
-56.655
-55.675
-54.567
-53.334
-51.98
-50.51
-48.933
-47.258
-45.495
-43.656
-41.752
-39.798
-37.809
-35.797
-33.778
-31.767
-29.778
-27.828
-25.933
-24.111
-22.379
-20.755
-19.258
-17.903
-16.707
-15.684
-14.842
-14.192
-13.742
-13.502
-13.486
-13.705
-14.162
-14.867
-15.819
-17.013
-18.44
-20.075
-21.883
-23.826
-25.864
-27.961
-30.087
-32.204
-34.272
-36.251
-38.086
-39.728
-41.139
-42.275
-43.098
-43.593
-43.755
-43.627
-43.286
-42.815
-42.29
-41.773
-41.324
-41.028
-40.989
-41.325
-42.148
-43.538
-45.6
-48.496
-52.307
-56.996
-62.354
-67.916
-73.161
-77.651
-80.878
-82.277
-81.456
-78.253
-72.993
-66.579
-60.012
-54.152
-49.788
-47.62
-48.028
-50.852
-54.866
-57.765
-56.753
-48.944
-31.651
-2.243
41.487
100.772
175.229
262.573
359.017
459.825
559.739
652.657
732.288
792.767
829.272
839.07
821.302
776.594
707.135
616.876
510.881
395.328
276.909
161.231
53.186
-43.092
-124.999
-191.052
-240.621
-274.813
-295.842
-305.63
-306.566
-301.07
-290.62
-276.898
-261.833
-246.266
-230.675
-215.915
-202.131
-189.463
-178.794
-170.271
-163.338
-157.843
-153.286
-148.731
-143.923
-138.537
-131.752
-123.408
-113.823
-103.25
-92.444
-82.402
-73.554
-66.275
-61.029
-57.863
-56.682
-57.341
-59.356
-62.159
-65.435
-68.95
-72.521
-76.085
-79.522
-82.709
-85.612
-88.213
-90.461
-92.275
-93.574
-94.292
-94.429
-94.03
-93.154
-91.859
-90.196
-88.207
-85.936
-83.431
-80.748
-77.928
-75.021
-72.078
-69.16
-66.343
-63.687
-61.221
-58.953
-56.869
-54.951
-53.179
-51.527
-49.962
-48.453
-46.972
-45.492
-43.996
-42.458
-40.846
-39.124
-37.249
-35.188
-32.921
-30.434
-27.717
-24.766
-21.58
-18.162
-14.525
-10.677
-6.625
-2.377
2.064
6.689
11.485
16.439
21.533
26.753
32.083
37.507
43.007
48.566
54.167
59.795
65.434
71.066
76.673
82.234
87.731
93.142
98.45
103.634
108.673
113.55
118.248
122.752
127.046
131.115
134.946
138.527
141.846
144.893
147.656
150.124
152.289
154.142
155.679
156.897
157.791
158.359
158.602
158.52
158.121
157.405
156.372
155.024
153.359
151.386
149.123
146.583
143.778
140.724
137.439
133.942
130.261
126.409
122.391
118.209
113.867
109.374
104.757
100.032
95.221
90.341
85.393
80.388
75.344
70.256
65.12
59.929
54.661
49.326
43.964
38.599
33.274
28.021
22.855
17.802
12.882
8.104
3.494
-0.937
-5.185
-9.208
-12.963
-16.418
-19.511
-22.223
-24.575
-26.562
-28.214
-29.578
-30.678
-31.551
-32.234
-32.733
-33.061
-33.235
-33.259
-33.172
-33.018
-32.826
-32.653
-32.538
-32.487
-32.53
-32.663
-32.836
-33.026
-33.203
-33.334
-33.425
-33.478
-33.483
-33.443
-33.355
-33.204
-32.994
-32.706
-32.315
-31.813
-31.18
-30.42
-29.577
-28.679
-27.755
-26.833
-25.919
-25.022
-24.163
-23.348
-22.577
-21.854
-21.175
-20.547
-19.992
-19.523
-19.156
-18.899
-18.738
-18.667
-18.682
-18.778
-18.953
-19.207
-19.529
-19.918
-20.381
-20.921
-21.543
-22.247
-23.027
-23.876
-24.79
-25.765
-26.799
-27.889
-29.03
-30.217
-31.447
-32.718
-34.027
-35.369
-36.737
-38.124
-39.522
-40.924
-42.325
-43.715
-45.087
-46.432
-47.744
-49.014
-50.236
-51.401
-52.502
-53.529
-54.476
-55.334
-56.098
-56.758
-57.31
-57.747
-58.066
-58.261
-58.33
-58.27
-58.078
-57.755
-57.297
-56.705
-55.979
-55.117
-54.122
-52.994
-51.737
-50.353
-48.847
-47.226
-45.496
-43.666
-41.747
-39.748
-37.683
-35.564
-33.404
-31.219
-29.021
-26.826
-24.648
-22.505
-20.411
-18.384
-16.438
-14.592
-12.863
-11.267
-9.819
-8.533
-7.418
-6.481
-5.733
-5.183
-4.845
-4.729
-4.842
-5.191
-5.783
-6.618
-7.691
-8.986
-10.465
-12.092
-13.83
-15.644
-17.503
-19.377
-21.225
-23.011
-24.69
-26.22
-27.568
-28.694
-29.558
-30.137
-30.425
-30.453
-30.312
-30.093
-29.892
-29.802
-29.881
-30.209
-30.893
-32.035
-33.751
-36.145
-39.268
-43.226
-48.186
-54.182
-61.122
-68.703
-76.328
-83.43
-89.571
-94.225
-96.835
-97.057
-94.801
-90.513
-85.226
-79.924
-75.309
-71.962
-70.369
-70.645
-72.347
-74.059
-73.379
-67.639
-54.417
-31.563
3.047
51.01
112.973
188.163
274.025
366.811
462.251
555.601
641.277
713.642
767.468
798.516
804.564
784.994
740.414
672.829
585.849
484.126
373.182
258.854
146.092
39.158
-58.436
-144.046
-215.877
-273.023
-315.545
-344.346
-360.498
-365.087
-359.204
-344.359
-322.441
-295.456
-265.538
-234.444
-203.807
-175.64
-151.803
-133.259
-120.331
-112.736
-109.498
-109.771
-112.555
-116.152
-119.046
-120.4
-119.767
-117.259
-113.459
-108.759
-103.663
-99.077
-95.633
-93.618
-93.108
-93.789
-95.171
-96.875
-98.484
-99.529
-99.746
-98.979
-97.152
-94.367
-90.749
-86.447
-81.686
-76.68
-71.595
-66.574
-61.736
-57.186
-53.055
-49.451
-46.425
-43.972
-42.045
-40.608
-39.643
-39.112
-38.961
-39.093
-39.39
-39.762
-40.144
-40.471
-40.689
-40.736
-40.544
-40.076
-39.329
-38.325
-37.103
-35.691
-34.092
-32.321
-30.392
-28.33
-26.167
-23.918
-21.576
-19.143
-16.616
-14
-11.301
-8.51
-5.605
-2.562
0.648
4.044
7.631
11.415
15.399
19.584
23.967
28.538
33.277
38.167
43.193
48.341
53.594
58.935
64.337
69.777
75.231
80.676
86.092
91.456
96.749
101.95
107.042
112.01
116.839
121.514
126.019
130.338
134.456
138.359
142.033
145.465
148.643
151.555
154.193
156.546
158.609
160.375
161.839
162.996
163.842
164.377
164.598
164.506
164.102
163.388
162.37
161.05
159.435
157.531
155.346
152.889
150.167
147.191
143.971
140.516
136.839
132.952
128.866
124.596
120.155
115.557
110.817
105.95
100.971
95.897
90.742
85.524
80.257
74.959
69.645
64.333
59.039
53.778
48.565
43.418
38.348
33.371
28.499
23.743
19.115
14.625
10.283
6.095
2.071
-1.785
-5.466
-8.968
-12.287
-15.421
-18.368
-21.127
-23.698
-26.082
-28.28
-30.295
-32.129
-33.787
-35.273
-36.593
-37.753
-38.759
-39.62
-40.344
-40.94
-41.416
-41.781
-42.046
-42.22
-42.311
-42.33
-42.284
-42.183
-42.034
-41.844
-41.623
-41.375
-41.106
-40.823
-40.53
-40.231
-39.93
-39.632
-39.34
-39.057
-38.786
-38.529
-38.29
-38.071
-37.873
-37.699
-37.548
-37.422
-37.321
-37.245
-37.194
-37.168
-37.166
-37.188
-37.234
-37.303
-37.395
-37.509
-37.645
-37.804
-37.985
-38.188
-38.416
-38.669
-38.95
-39.26
-39.601
-39.977
-40.388
-40.837
-41.325
-41.853
-42.422
-43.031
-43.68
-44.366
-45.091
-45.852
-46.65
-47.482
-48.347
-49.246
-50.177
-51.138
-52.125
-53.134
-54.159
-55.194
-56.229
-57.258
-58.272
-59.261
-60.218
-61.136
-62.009
-62.829
-63.587
-64.27
-64.864
-65.355
-65.738
-66.004
-66.15
-66.178
-66.093
-65.913
-65.656
-65.331
-64.944
-64.493
-63.964
-63.349
-62.638
-61.818
-60.889
-59.853
-58.703
-57.447
-56.085
-54.604
-52.987
-51.194
-49.178
-46.917
-44.406
-41.652
-38.696
-35.58
-32.36
-29.117
-25.912
-22.799
-19.833
-17.049
-14.479
-12.179
-10.207
-8.645
-7.598
-7.137
-7.307
-8.144
-9.637
-11.754
-14.437
-17.575
-21.059
-24.792
-28.683
-32.663
-36.676
-40.645
-44.49
-48.118
-51.408
-54.262
-56.601
-58.353
-59.494
-60.032
-60.017
-59.583
-58.893
-58.103
-57.361
-56.778
-56.448
-56.493
-57.038
-58.207
-60.131
-62.91
-66.654
-71.526
-77.57
-84.666
-92.524
-100.604
-108.312
-115.167
-120.632
-124.051
-125.003
-123.429
-119.655
-114.549
-109.021
-103.567
-98.664
-94.997
-92.838
-91.72
-90.401
-86.601
-77.763
-62.016
-37.424
-1.672
46.881
108.762
183.007
266.682
355.921
446.934
534.911
613.979
678.451
723.123
744.544
741.515
713.756
661.885
588.52
497.921
395.524
287.73
179.89
76.272
-18.608
-101.097
-168.972
-221.074
-258.132
-282.363
-295.595
-299.777
-297.743
-291.993
-284.847
-278.458
-273.474
-269.604
-266.713
-264.322
-261.589
-257.883
-252.341
-244.073
-233.052
-219.694
-204.498
-188.194
-171.446
-154.77
-138.815
-124.219
-111.332
-100.325
-91.221
-83.912
-78.329
-74.405
-72.005
-70.952
-71.049
-72.1
-73.928
-76.372
-79.271
-82.471
-85.814
-89.154
-92.353
-95.276
-97.816
-99.867
-101.328
-102.136
-102.26
-101.699
-100.494
-98.702
-96.382
-93.607
-90.448
-86.973
-83.251
-79.349
-75.33
-71.263
-67.22
-63.271
-59.497
-55.955
-52.68
-49.688
-46.975
-44.526
-42.326
-40.346
-38.551
-36.908
-35.384
-33.951
-32.584
-31.251
-29.916
-28.539
-27.075
-25.49
-23.759
-21.861
-19.783
-17.516
-15.052
-12.391
-9.537
-6.493
-3.259
0.164
3.779
7.583
11.571
15.737
20.072
24.565
29.209
33.991
38.901
43.926
49.053
54.269
59.562
64.915
70.312
75.735
81.163
86.577
91.956
97.281
102.529
107.681
112.717
117.617
122.363
126.937
131.32
135.496
139.447
143.159
146.615
149.802
152.707
155.317
157.622
159.611
161.277
162.613
163.612
164.272
164.59
164.565
164.199
163.494
162.455
161.088
159.401
157.403
155.104
152.518
149.656
146.533
143.164
139.564
135.75
131.738
127.546
123.19
118.688
114.059
109.321
104.491
99.587
94.629
89.634
84.62
79.604
74.605
69.637
64.719
59.866
55.091
50.41
45.835
41.378
37.049
32.857
28.81
24.915
21.176
17.599
14.185
10.937
7.857
4.943
2.196
-0.385
-2.803
-5.059
-7.157
-9.1
-10.891
-12.535
-14.035
-15.396
-16.623
-17.721
-18.695
-19.551
-20.295
-20.933
-21.472
-21.918
-22.278
-22.558
-22.764
-22.903
-22.979
-22.998
-22.964
-22.882
-22.756
-22.589
-22.385
-22.147
-21.877
-21.58
-21.256
-20.91
-20.544
-20.161
-19.764
-19.356
-18.941
-18.522
-18.104
-17.69
-17.285
-16.893
-16.518
-16.164
-15.835
-15.536
-15.268
-15.037
-14.843
-14.692
-14.585
-14.527
-14.518
-14.563
-14.665
-14.825
-15.047
-15.333
-15.684
-16.102
-16.589
-17.144
-17.769
-18.463
-19.224
-20.052
-20.944
-21.897
-22.907
-23.971
-25.081
-26.233
-27.42
-28.633
-29.865
-31.108
-32.354
-33.592
-34.816
-36.016
-37.182
-38.307
-39.381
-40.395
-41.338
-42.202
-42.977
-43.655
-44.225
-44.68
-45.012
-45.213
-45.278
-45.199
-44.972
-44.592
-44.056
-43.361
-42.505
-41.488
-40.31
-38.975
-37.487
-35.852
-34.076
-32.168
-30.14
-28.004
-25.77
-23.453
-21.067
-18.627
-16.151
-13.653
-11.151
-8.662
-6.204
-3.797
-1.461
0.784
2.921
4.93
6.792
8.487
9.997
11.305
12.399
13.267
13.899
14.281
14.398
14.241
13.81
13.103
12.121
10.869
9.354
7.596
5.63
3.494
1.226
-1.137
-3.569
-6.033
-8.489
-10.894
-13.198
-15.363
-17.36
-19.154
-20.712
-22.007
-23.028
-23.79
-24.354
-24.798
-25.198
-25.632
-26.157
-26.824
-27.705
-28.884
-30.455
-32.5
-35.085
-38.255
-42.095
-46.748
-52.236
-58.404
-64.886
-71.093
-76.429
-80.427
-82.573
-82.208
-78.968
-72.917
-64.603
-55.293
-46.3
-38.526
-32.873
-30.216
-30.742
-33.745
-37.479
-38.925
-34.819
-22.037
2.527
41.447
96.629
166.843
248.974
340.703
437.324
536.598
635.998
724.503
793.249
832.863
834.487
803.109
744.469
664.413
572.562
470.416
360.331
247.957
136.306
31.285
-61.639
-140.58
-204.111
-251.839
-285.191
-305.921
-315.506
-316.194
-310.202
-298.841
-283.757
-266.894
-249.178
-231.292
-214.311
-198.533
-184.228
-172.33
-162.959
-155.543
-149.901
-145.509
-141.399
-137.262
-132.736
-127.004
-119.937
-111.864
-103.019
-94.113
-86.078
-79.279
-74.007
-70.665
-69.245
-69.596
-71.554
-74.621
-78.202
-81.975
-85.696
-89.157
-92.28
-94.944
-97.016
-98.462
-99.308
-99.563
-99.242
-98.351
-96.886
-94.89
-92.444
-89.637
-86.562
-83.29
-79.876
-76.371
-72.842
-69.36
-65.994
-62.814
-59.864
-57.165
-54.738
-52.586
-50.703
-49.071
-47.657
-46.418
-45.315
-44.312
-43.379
-42.493
-41.621
-40.726
-39.769
-38.709
-37.512
-36.152
-34.607
-32.859
-30.894
-28.704
-26.286
-23.642
-20.776
-17.686
-14.373
-10.836
-7.078
-3.104
1.08
5.462
10.034
14.784
19.699
24.768
29.974
35.303
40.741
46.273
51.882
57.551
63.259
68.988
74.715
80.42
86.082
91.678
97.188
102.59
107.864
112.99
117.95
122.724
127.295
131.645
135.757
139.615
143.206
146.514
149.528
152.236
154.627
156.692
158.424
159.816
160.865
161.565
161.916
161.916
161.567
160.87
159.828
158.447
156.733
154.693
152.336
149.671
146.71
143.465
139.95
136.177
132.161
127.918
123.463
118.813
113.986
108.998
103.868
98.614
93.256
87.811
82.3
76.741
71.153
65.554
59.963
54.397
48.873
43.409
38.019
32.72
27.525
22.449
17.503
12.699
8.048
3.558
-0.762
-4.906
-8.868
-12.642
-16.227
-19.618
-22.815
-25.816
-28.623
-31.237
-33.66
-35.895
-37.947
-39.821
-41.522
-43.057
-44.432
-45.655
-46.734
-47.676
-48.491
-49.187
-49.772
-50.256
-50.648
-50.956
-51.189
-51.356
-51.464
-51.522
-51.538
-51.517
-51.466
-51.391
-51.297
-51.19
-51.073
-50.951
-50.827
-50.704
-50.585
-50.472
-50.366
-50.269
-50.181
-50.104
-50.038
-49.983
-49.94
-49.907
-49.886
-49.875
-49.876
-49.886
-49.907
-49.937
-49.977
-50.025
-50.082
-50.148
-50.222
-50.305
-50.397
-50.499
-50.611
-50.735
-50.872
-51.023
-51.189
-51.371
-51.572
-51.792
-52.033
-52.296
-52.583
-52.893
-53.229
-53.591
-53.978
-54.39
-54.827
-55.288
-55.77
-56.27
-56.788
-57.318
-57.857
-58.401
-58.945
-59.485
-60.016
-60.531
-61.025
-61.491
-61.923
-62.315
-62.659
-62.947
-63.173
-63.329
-63.408
-63.403
-63.307
-63.114
-62.816
-62.408
-61.885
-61.242
-60.474
-59.58
-58.555
-57.4
-56.114
-54.7
-53.159
-51.496
-49.717
-47.83
-45.843
-43.766
-41.613
-39.395
-37.126
-34.822
-32.499
-30.171
-27.855
-25.568
-23.327
-21.149
-19.054
-17.06
-15.186
-13.45
-11.873
-10.47
-9.257
-8.244
-7.445
-6.868
-6.522
-6.423
-6.58
-7.001
-7.694
-8.663
-9.906
-11.418
-13.177
-15.154
-17.318
-19.634
-22.07
-24.599
-27.185
-29.793
-32.385
-34.91
-37.324
-39.581
-41.626
-43.416
-44.921
-46.125
-47.056
-47.77
-48.323
-48.777
-49.177
-49.569
-50.03
-50.644
-51.509
-52.739
-54.407
-56.635
-59.612
-63.439
-68.115
-73.454
-79.01
-84.309
-88.964
-92.502
-94.419
-94.347
-92.089
-88.064
-83.275
-78.682
-75.154
-73.358
-73.754
-76.772
-82.354
-89.127
-94.67
-96.253
-90.952
-76.433
-50.584
-10.98
43.844
113.503
195.829
287.188
383.095
479.202
570.423
650.534
713.812
755.673
773.496
766.761
735.81
681.676
607.163
516.784
415.991
310.78
206.001
105.362
12.81
-68.318
-135.933
-188.983
-228.12
-255.318
-272.131
-280.133
-281.74
-279.211
-274.742
-270.455
-267.08
-264.417
-262.414
-260.721
-258.635
-255.626
-250.869
-243.444
-233.252
-220.658
-206.126
-190.377
-174.072
-157.695
-141.86
-127.19
-114.019
-102.536
-92.777
-84.621
-77.992
-72.832
-69.049
-66.52
-65.11
-64.657
-65
-65.993
-67.492
-69.383
-71.566
-73.938
-76.396
-78.831
-81.158
-83.309
-85.218
-86.815
-88.011
-88.748
-89.01
-88.821
-88.227
-87.277
-86.012
-84.462
-82.664
-80.656
-78.484
-76.194
-73.817
-71.392
-68.96
-66.58
-64.326
-62.245
-60.36
-58.669
-57.156
-55.804
-54.596
-53.508
-52.504
-51.551
-50.617
-49.674
-48.701
-47.67
-46.548
-45.295
-43.864
-42.221
-40.346
-38.221
-35.838
-33.19
-30.274
-27.094
-23.662
-19.988
-16.08
-11.945
-7.589
-3.021
1.744
6.692
11.804
17.064
22.454
27.956
33.551
39.22
44.944
50.705
56.484
62.264
68.022
73.738
79.389
84.953
90.409
95.735
100.91
105.912
110.723
115.324
119.697
123.826
127.696
131.293
134.605
137.618
140.325
142.714
144.779
146.514
147.912
148.972
149.69
150.066
150.1
149.794
149.151
148.176
146.874
145.253
143.32
141.085
138.558
135.75
132.675
129.347
125.778
121.986
117.986
113.794
109.429
104.907
100.246
95.465
90.58
85.61
80.573
75.486
70.368
65.234
60.102
54.988
49.908
44.877
39.911
35.022
30.224
25.531
20.953
16.503
12.19
8.023
4.013
0.165
-3.513
-7.016
-10.338
-13.478
-16.432
-19.198
-21.775
-24.165
-26.368
-28.386
-30.222
-31.878
-33.359
-34.67
-35.814
-36.798
-37.628
-38.309
-38.847
-39.251
-39.525
-39.678
-39.717
-39.648
-39.48
-39.22
-38.876
-38.455
-37.965
-37.414
-36.809
-36.157
-35.466
-34.743
-33.995
-33.227
-32.447
-31.66
-30.871
-30.087
-29.312
-28.552
-27.81
-27.091
-26.4
-25.74
-25.115
-24.528
-23.983
-23.483
-23.031
-22.631
-22.284
-21.993
-21.76
-21.588
-21.478
-21.431
-21.449
-21.533
-21.682
-21.897
-22.179
-22.525
-22.936
-23.411
-23.947
-24.544
-25.198
-25.908
-26.67
-27.481
-28.339
-29.237
-30.174
-31.143
-32.139
-33.157
-34.191
-35.234
-36.279
-37.319
-38.346
-39.353
-40.33
-41.269
-42.163
-43.002
-43.778
-44.482
-45.106
-45.642
-46.081
-46.416
-46.639
-46.743
-46.721
-46.567
-46.276
-45.843
-45.264
-44.535
-43.654
-42.618
-41.427
-40.08
-38.577
-36.923
-35.119
-33.171
-31.085
-28.869
-26.534
-24.091
-21.551
-18.928
-16.238
-13.494
-10.715
-7.917
-5.116
-2.331
0.42
3.117
5.74
8.269
10.685
12.97
15.104
17.068
18.842
20.408
21.753
22.864
23.725
24.325
24.648
24.682
24.425
23.874
23.03
21.9
20.49
18.817
16.913
14.812
12.554
10.182
7.729
5.235
2.743
0.299
-2.048
-4.251
-6.283
-8.115
-9.716
-11.072
-12.174
-13.035
-13.705
-14.251
-14.757
-15.314
-16.002
-16.893
-18.046
-19.525
-21.42
-23.809
-26.757
-30.335
-34.571
-39.509
-45.255
-51.742
-58.728
-65.817
-72.333
-77.608
-81.175
-82.434
-80.741
-75.973
-68.298
-58.365
-47.682
-37.498
-28.625
-22.165
-18.845
-18.248
-19.402
-20.22
-17.161
-7.288
12.024
43.905
90.421
151.996
227.739
314.594
407.693
502.369
593.18
673.541
737.537
780.12
798.002
790.388
757.745
701.17
623.49
529.116
423.419
312.661
201.954
95.158
-3.737
-91.449
-165.586
-224.455
-268.176
-298.383
-316.316
-323.386
-321.663
-312.745
-298.894
-282.944
-266.494
-250.497
-235.856
-222.79
-211.527
-202.828
-196.354
-190.958
-185.84
-180.009
-172.931
-164.83
-155.539
-144.535
-131.964
-118.381
-104.555
-91.686
-80.446
-70.933
-63.397
-58.072
-54.992
-54.109
-55.055
-57.162
-59.981
-63.273
-66.846
-70.605
-74.399
-78.016
-81.346
-84.349
-86.973
-89.163
-90.815
-91.818
-92.134
-91.776
-90.803
-89.297
-87.324
-84.949
-82.232
-79.232
-76.015
-72.654
-69.204
-65.725
-62.272
-58.904
-55.697
-52.707
-49.961
-47.464
-45.2
-43.141
-41.267
-39.55
-37.953
-36.444
-34.991
-33.565
-32.142
-30.695
-29.192
-27.596
-25.866
-23.967
-21.877
-19.581
-17.069
-14.337
-11.378
-8.196
-4.799
-1.195
2.61
6.612
10.806
15.185
19.736
24.446
29.299
34.281
39.374
44.564
49.832
55.161
60.534
65.935
71.349
76.758
82.145
87.49
92.774
97.979
103.085
108.074
112.926
117.622
122.144
126.476
130.601
134.502
138.165
141.574
144.717
147.581
150.155
152.429
154.395
156.046
157.376
158.382
159.062
159.414
159.439
159.138
158.516
157.577
156.327
154.773
152.922
150.784
148.368
145.686
142.749
139.569
136.16
132.536
128.711
124.701
120.522
116.192
111.726
107.144
102.462
97.699
92.874
88.004
83.108
78.203
73.307
68.436
63.607
58.836
54.137
49.525
45.013
40.612
36.336
32.193
28.193
24.343
20.651
17.122
13.761
10.572
7.558
4.72
2.06
-0.422
-2.727
-4.858
-6.817
-8.61
-10.24
-11.715
-13.04
-14.224
-15.274
-16.198
-17.005
-17.702
-18.3
-18.807
-19.234
-19.588
-19.88
-20.117
-20.312
-20.473
-20.608
-20.726
-20.833
-20.937
-21.045
-21.162
-21.292
-21.438
-21.602
-21.786
-21.994
-22.228
-22.489
-22.776
-23.089
-23.427
-23.793
-24.184
-24.594
-25.017
-25.444
-25.874
-26.314
-26.767
-27.231
-27.706
-28.193
-28.694
-29.218
-29.761
-30.309
-30.849
-31.363
-31.845
-32.304
-32.745
-33.172
-33.582
-33.956
-34.283
-34.567
-34.796
-34.957
-35.03
-34.985
-34.821
-34.574
-34.274
-33.951
-33.626
-33.295
-32.965
-32.646
-32.351
-32.104
-31.916
-31.783
-31.72
-31.755
-31.92
-32.268
-32.812
-33.519
-34.358
-35.294
-36.301
-37.365
-38.465
-39.565
-40.631
-41.636
-42.566
-43.429
-44.231
-44.958
-45.586
-46.07
-46.381
-46.533
-46.55
-46.456
-46.279
-46.052
-45.815
-45.633
-45.588
-45.734
-46.093
-46.655
-47.379
-48.226
-49.182
-50.25
-51.431
-52.705
-54.025
-55.344
-56.619
-57.783
-58.753
-59.406
-59.581
-59.161
-58.091
-56.362
-54.02
-51.132
-47.739
-43.877
-39.605
-34.991
-30.13
-25.116
-20.03
-14.984
-10.127
-5.653
-1.793
1.277
3.462
4.714
5.032
4.442
2.956
0.61
-2.519
-6.342
-10.753
-15.656
-20.965
-26.564
-32.289
-37.945
-43.333
-48.318
-52.852
-56.914
-60.504
-63.627
-66.274
-68.482
-70.342
-71.959
-73.452
-74.925
-76.447
-78.148
-80.246
-82.89
-86.112
-89.747
-93.371
-96.55
-98.945
-100.159
-99.735
-97.377
-93.027
-87.095
-80.54
-74.401
-69.54
-66.738
-66.685
-69.649
-75.261
-82.152
-87.906
-89.69
-84.708
-70.235
-43.622
-2.893
52.684
122.058
202.316
289.438
378.875
465.443
543.292
606.739
651.127
673.691
673.801
652.019
609.595
549.09
474.476
390.63
302.668
214.67
129.393
49.435
-22.543
-84.628
-135.806
-176.353
-207.639
-230.697
-246.119
-255.048
-259.136
-260.222
-260.218
-260.04
-259.611
-258.959
-258.167
-257.037
-255.227
-252.054
-246.552
-238.415
-227.946
-215.527
-201.7
-186.994
-171.815
-156.726
-142.407
-129.262
-117.479
-107.151
-98.206
-90.604
-84.363
-79.424
-75.677
-73.007
-71.278
-70.351
-70.117
-70.444
-71.187
-72.244
-73.508
-74.888
-76.307
-77.677
-78.914
-79.949
-80.706
-81.102
-81.088
-80.639
-79.755
-78.474
-76.837
-74.884
-72.665
-70.217
-67.579
-64.792
-61.891
-58.914
-55.906
-52.913
-49.988
-47.2
-44.596
-42.202
-40.031
-38.07
-36.302
-34.713
-33.275
-31.957
-30.73
-29.561
-28.426
-27.302
-26.16
-24.967
-23.687
-22.274
-20.694
-18.923
-16.942
-14.74
-12.31
-9.645
-6.748
-3.626
-0.287
3.263
7.019
10.978
15.134
19.474
23.986
28.655
33.466
38.404
43.451
48.589
53.802
59.069
64.374
69.699
75.025
80.331
85.596
90.797
95.912
100.919
105.796
110.521
115.073
119.431
123.578
127.494
131.165
134.574
137.708
140.552
143.097
145.33
147.244
148.83
150.082
150.993
151.562
151.787
151.666
151.202
150.397
149.256
147.786
145.994
143.89
141.483
138.785
135.809
132.571
129.084
125.366
121.434
117.306
113.001
108.538
103.934
99.211
94.386
89.478
84.506
79.489
74.444
69.39
64.344
59.324
54.346
49.425
44.579
39.821
35.165
30.624
26.21
21.932
17.802
13.828
10.017
6.375
2.908
-0.38
-3.488
-6.413
-9.156
-11.717
-14.098
-16.301
-18.331
-20.192
-21.886
-23.421
-24.801
-26.031
-27.118
-28.069
-28.889
-29.587
-30.168
-30.64
-31.012
-31.29
-31.482
-31.595
-31.638
-31.618
-31.541
-31.416
-31.248
-31.045
-30.812
-30.556
-30.281
-29.992
-29.693
-29.389
-29.081
-28.774
-28.468
-28.166
-27.87
-27.582
-27.303
-27.034
-26.778
-26.534
-26.306
-26.093
-25.898
-25.721
-25.563
-25.427
-25.312
-25.22
-25.153
-25.109
-25.092
-25.1
-25.135
-25.198
-25.288
-25.407
-25.554
-25.732
-25.941
-26.182
-26.457
-26.767
-27.113
-27.498
-27.921
-28.384
-28.889
-29.436
-30.026
-30.658
-31.332
-32.049
-32.806
-33.602
-34.435
-35.303
-36.201
-37.127
-38.076
-39.043
-40.025
-41.016
-42.011
-43.004
-43.99
-44.963
-45.917
-46.844
-47.738
-48.59
-49.393
-50.138
-50.819
-51.425
-51.949
-52.383
-52.718
-52.947
-53.063
-53.058
-52.925
-52.66
-52.257
-51.712
-51.023
-50.188
-49.206
-48.08
-46.812
-45.408
-43.874
-42.217
-40.447
-38.572
-36.604
-34.554
-32.433
-30.253
-28.028
-25.771
-23.5
-21.23
-18.981
-16.773
-14.626
-12.561
-10.596
-8.748
-7.033
-5.467
-4.064
-2.84
-1.817
-1.012
-0.444
-0.129
-0.08
-0.301
-0.789
-1.526
-2.485
-3.639
-4.957
-6.41
-7.974
-9.619
-11.313
-13.024
-14.707
-16.318
-17.811
-19.132
-20.238
-21.106
-21.739
-22.181
-22.498
-22.761
-23.04
-23.388
-23.872
-24.589
-25.631
-27.105
-29.121
-31.741
-35.095
-39.375
-44.649
-50.87
-57.795
-64.928
-71.835
-78.235
-83.752
-87.973
-90.652
-91.638
-91.325
-90.633
-90.184
-90.326
-91.172
-92.552
-94.283
-96.096
-96.781
-94.324
-86.853
-72.496
-50.069
-19.147
21.257
72.295
134.021
205.48
283.463
362.455
438.29
509.009
576.947
646.748
719.037
788.152
836.656
844.311
799.459
700.884
569.163
432.901
312.194
220.802
152.856
93.06
34.037
-29.766
-94.619
-150.419
-193.893
-223.7
-240.901
-250.732
-256.132
-258.677
-260.328
-261.365
-261.516
-260.968
-259.55
-256.735
-252.214
-245.486
-235.743
-222.902
-207.456
-189.965
-171.256
-152.157
-133.233
-115.207
-98.988
-85.019
-73.39
-64.045
-56.629
-51.016
-47.432
-45.805
-45.787
-47.296
-50.352
-55.044
-61.741
-70.147
-79.209
-88.252
-96.898
-104.567
-110.771
-114.892
-115.934
-113.847
-109.579
-103.724
-96.697
-89.006
-80.941
-73.077
-66.423
-61.231
-57.011
-53.516
-50.55
-47.988
-45.958
-44.308
-42.607
-40.779
-39.052
-37.59
-36.549
-35.939
-35.573
-35.371
-35.339
-35.417
-35.487
-35.395
-34.995
-34.229
-33.133
-31.778
-30.211
-28.444
-26.474
-24.3
-21.942
-19.427
-16.767
-13.957
-11
-7.91
-4.723
-1.505
1.71
4.918
8.141
11.43
14.821
18.328
21.964
25.743
29.675
33.77
38.021
42.403
46.9
51.505
56.217
61.053
66.011
71.074
76.215
81.397
86.588
91.762
96.889
101.936
106.876
111.682
116.337
120.834
125.159
129.293
133.218
136.911
140.352
143.527
146.422
149.025
151.324
153.309
154.971
156.306
157.309
157.972
158.29
158.257
157.869
157.123
156.021
154.564
152.755
150.601
148.107
145.285
142.144
138.696
134.954
130.931
126.642
122.103
117.33
112.342
107.156
101.792
96.27
90.611
84.836
78.967
73.027
67.037
61.021
55.001
49
43.039
37.14
31.324
25.611
20.022
14.574
9.284
4.169
-0.756
-5.479
-9.987
-14.272
-18.324
-22.138
-25.708
-29.03
-32.102
-34.923
-37.493
-39.813
-41.887
-43.717
-45.309
-46.67
-47.806
-48.726
-49.441
-49.96
-50.294
-50.457
-50.461
-50.32
-50.046
-49.655
-49.16
-48.576
-47.917
-47.197
-46.429
-45.627
-44.802
-43.966
-43.13
-42.302
-41.493
-40.709
-39.958
-39.246
-38.579
-37.962
-37.398
-36.893
-36.448
-36.067
-35.752
-35.503
-35.321
-35.207
-35.159
-35.175
-35.254
-35.393
-35.589
-35.838
-36.137
-36.482
-36.868
-37.291
-37.748
-38.233
-38.742
-39.272
-39.818
-40.379
-40.951
-41.532
-42.121
-42.715
-43.315
-43.918
-44.524
-45.132
-45.739
-46.345
-46.947
-47.544
-48.132
-48.709
-49.272
-49.819
-50.348
-50.857
-51.347
-51.813
-52.256
-52.675
-53.068
-53.432
-53.763
-54.056
-54.305
-54.507
-54.657
-54.751
-54.785
-54.753
-54.651
-54.478
-54.23
-53.9
-53.482
-52.959
-52.325
-51.581
-50.731
-49.785
-48.753
-47.639
-46.458
-45.227
-43.958
-42.658
-41.321
-39.93
-38.479
-36.972
-35.422
-33.855
-32.287
-30.716
-29.141
-27.558
-25.958
-24.34
-22.688
-20.968
-19.174
-17.32
-15.448
-13.634
-11.932
-10.375
-8.988
-7.775
-6.753
-5.954
-5.406
-5.133
-5.17
-5.548
-6.318
-7.56
-9.305
-11.546
-14.237
-17.272
-20.566
-24.059
-27.688
-31.402
-35.147
-38.853
-42.463
-45.922
-49.159
-52.097
-54.641
-56.67
-58.118
-58.978
-59.292
-59.166
-58.7
-57.96
-57.038
-56.046
-55.097
-54.341
-53.91
-53.892
-54.452
-55.823
-58.164
-61.555
-65.849
-70.607
-75.335
-79.573
-82.771
-84.337
-83.851
-81.174
-76.788
-71.842
-67.618
-65.239
-65.639
-69.583
-77.398
-88.651
-101.637
-113.359
-120.178
-118.444
-104.891
-76.437
-30.655
33.612
115.664
212.583
319.706
431.433
541.738
643.837
730.944
796.922
836.898
848.359
830.87
785.479
714.726
622.883
515.302
398.304
278.581
161.65
52.189
-45.757
-129.396
-197.118
-248.315
-284.076
-306.636
-318.092
-320.852
-317.542
-310.341
-301.398
-292.638
-284.741
-277.621
-271.139
-264.767
-257.891
-250.106
-240.723
-229.056
-215.156
-199.477
-182.614
-165.394
-148.51
-132.512
-118.098
-105.903
-96.228
-89.142
-84.502
-82.013
-81.425
-82.497
-84.931
-88.401
-92.579
-97.166
-101.92
-106.624
-111.076
-115.066
-118.363
-120.799
-122.28
-122.761
-122.264
-120.834
-118.52
-115.404
-111.597
-107.217
-102.402
-97.277
-91.947
-86.523
-81.112
-75.821
-70.778
-66.073
-61.758
-57.866
-54.4
-51.354
-48.723
-46.483
-44.588
-42.996
-41.661
-40.54
-39.607
-38.822
-38.142
-37.522
-36.91
-36.263
-35.554
-34.757
-33.852
-32.822
-31.652
-30.329
-28.855
-27.224
-25.43
-23.463
-21.315
-18.977
-16.448
-13.726
-10.81
-7.703
-4.404
-0.916
2.755
6.605
10.626
14.812
19.157
23.652
28.284
33.041
37.908
42.87
47.912
53.016
58.166
63.343
68.53
73.71
78.866
83.981
89.035
94.013
98.895
103.664
108.301
112.79
117.113
121.253
125.193
128.92
132.418
135.675
138.677
141.415
143.878
146.058
147.948
149.541
150.833
151.819
152.499
152.871
152.935
152.694
152.149
151.305
150.165
148.736
147.023
145.034
142.774
140.254
137.482
134.467
131.222
127.757
124.087
120.223
116.182
111.977
107.624
103.14
98.54
93.841
89.058
84.209
79.309
74.375
69.423
64.467
59.524
54.606
49.728
44.903
40.143
35.459
30.862
26.361
21.968
17.689
13.535
9.512
5.629
1.891
-1.696
-5.125
-8.393
-11.497
-14.433
-17.201
-19.799
-22.228
-24.488
-26.582
-28.511
-30.279
-31.889
-33.346
-34.654
-35.819
-36.847
-37.742
-38.512
-39.163
-39.701
-40.132
-40.462
-40.698
-40.845
-40.91
-40.898
-40.816
-40.67
-40.466
-40.211
-39.911
-39.574
-39.205
-38.81
-38.397
-37.97
-37.535
-37.097
-36.662
-36.233
-35.815
-35.412
-35.029
-34.667
-34.33
-34.021
-33.741
-33.493
-33.278
-33.096
-32.949
-32.838
-32.763
-32.726
-32.726
-32.764
-32.84
-32.954
-33.106
-33.294
-33.517
-33.773
-34.059
-34.374
-34.713
-35.075
-35.455
-35.85
-36.255
-36.667
-37.081
-37.492
-37.895
-38.284
-38.654
-39
-39.315
-39.595
-39.835
-40.028
-40.171
-40.258
-40.284
-40.245
-40.135
-39.95
-39.685
-39.335
-38.897
-38.368
-37.744
-37.024
-36.206
-35.288
-34.271
-33.156
-31.943
-30.634
-29.233
-27.742
-26.168
-24.514
-22.789
-21.001
-19.159
-17.275
-15.361
-13.428
-11.492
-9.566
-7.665
-5.804
-3.997
-2.257
-0.6
0.961
2.409
3.731
4.911
5.933
6.784
7.449
7.916
8.175
8.222
8.05
7.656
7.037
6.183
5.09
3.757
2.18
0.362
-1.689
-3.964
-6.437
-9.071
-11.829
-14.67
-17.556
-20.456
-23.332
-26.145
-28.853
-31.405
-33.753
-35.859
-37.676
-39.167
-40.309
-41.093
-41.554
-41.76
-41.785
-41.7
-41.561
-41.424
-41.372
-41.503
-41.932
-42.777
-44.115
-46.054
-48.756
-52.302
-56.65
-61.599
-66.694
-71.428
-75.386
-78.086
-79.001
-77.813
-74.458
-69.34
-63.41
-57.68
-52.976
-50.042
-49.521
-51.642
-55.983
-61.116
-64.636
-63.75
-55.776
-38.289
-8.852
34.363
91.959
163.058
245.01
333.896
425.446
515.026
597.003
665.831
716.767
746.027
751.928
734.28
693.302
630.483
549.242
454.025
350.065
242.946
137.007
36.265
-54.812
-132.727
-195.33
-241.921
-273.545
-292.078
-299.123
-296.872
-288.41
-276.787
-264.887
-254.486
-245.926
-239.092
-233.821
-229.605
-225.611
-220.75
-213.739
-204
-191.771
-177.54
-161.973
-145.733
-129.364
-113.532
-98.99
-86.182
-75.264
-66.225
-58.877
-53.046
-48.638
-45.51
-43.496
-42.468
-42.274
-42.771
-43.847
-45.368
-47.216
-49.296
-51.505
-53.746
-55.942
-58.032
-59.981
-61.78
-63.398
-64.796
-65.929
-66.743
-67.227
-67.397
-67.272
-66.883
-66.248
-65.379
-64.301
-63.05
-61.655
-60.137
-58.507
-56.765
-54.93
-53.035
-51.119
-49.232
-47.399
-45.624
-43.908
-42.243
-40.617
-39.021
-37.433
-35.822
-34.163
-32.436
-30.625
-28.72
-26.702
-24.546
-22.222
-19.7
-16.955
-13.975
-10.753
-7.282
-3.563
0.4
4.598
9.012
13.63
18.437
23.423
28.575
33.881
39.32
44.875
50.526
56.251
62.032
67.849
73.681
79.509
85.314
91.077
96.783
102.413
107.948
113.37
118.658
123.792
128.754
133.524
138.083
142.414
146.498
150.321
153.868
157.125
160.079
162.72
165.038
167.023
168.668
169.969
170.918
171.515
171.756
171.641
171.17
170.345
169.17
167.647
165.782
163.582
161.054
158.206
155.049
151.594
147.852
143.838
139.565
135.051
130.31
125.362
120.224
114.915
109.455
103.865
98.165
92.375
86.518
80.614
74.684
68.748
62.827
56.94
51.104
45.34
39.663
34.092
28.642
23.329
18.168
13.173
8.357
3.733
-0.689
-4.9
-8.893
-12.659
-16.195
-19.497
-22.561
-25.385
-27.97
-30.315
-32.423
-34.295
-35.937
-37.352
-38.546
-39.529
-40.309
-40.897
-41.303
-41.538
-41.614
-41.543
-41.337
-41.007
-40.563
-40.014
-39.371
-38.646
-37.849
-36.994
-36.092
-35.156
-34.196
-33.227
-32.258
-31.297
-30.348
-29.408
-28.48
-27.573
-26.702
-25.883
-25.135
-24.47
-23.905
-23.46
-23.145
-22.965
-22.911
-22.958
-23.092
-23.303
-23.594
-23.979
-24.466
-25.048
-25.708
-26.419
-27.147
-27.869
-28.544
-29.115
-29.548
-29.823
-29.958
-30.014
-30.046
-30.088
-30.16
-30.256
-30.375
-30.532
-30.746
-31.047
-31.475
-32.057
-32.845
-33.925
-35.357
-37.177
-39.365
-41.827
-44.464
-47.204
-49.992
-52.8
-55.606
-58.373
-61.064
-63.65
-66.092
-68.358
-70.387
-72.081
-73.349
-74.123
-74.39
-74.215
-73.68
-72.848
-71.758
-70.436
-68.9
-67.185
-65.319
-63.311
-61.174
-58.924
-56.605
-54.297
-52.085
-50.041
-48.201
-46.546
-45.039
-43.649
-42.362
-41.168
-40.051
-38.98
-37.923
-36.865
-35.794
-34.694
-33.529
-32.235
-30.745
-29.01
-27.005
-24.734
-22.223
-19.504
-16.608
-13.569
-10.442
-7.305
-4.245
-1.358
1.271
3.563
5.427
6.757
7.463
7.477
6.764
5.325
3.179
0.36
-3.09
-7.119
-11.646
-16.568
-21.751
-27.044
-32.3
-37.386
-42.17
-46.516
-50.318
-53.514
-56.084
-58.066
-59.506
-60.442
-60.927
-61.039
-60.883
-60.598
-60.354
-60.3
-60.631
-61.587
-63.318
-65.886
-69.162
-72.755
-76.246
-79.253
-81.313
-81.938
-80.808
-77.805
-73.41
-68.686
-64.605
-61.997
-61.484
-63.446
-68.145
-75.319
-83.413
-89.866
-91.952
-86.865
-72.417
-46.803
-7.95
45.247
112.085
190.407
276.826
367.112
457.313
543.026
618.648
679.127
720.457
739.801
736.207
709.741
660.884
591.629
505.795
407.964
303.446
197.457
94.207
-2.042
-87.326
-158.88
-215.053
-255.676
-282.107
-296.154
-299.729
-295.529
-286.331
-274.75
-263.307
-253.29
-244.925
-238.19
-232.737
-227.848
-222.833
-216.781
-208.658
-198.205
-185.721
-171.68
-156.797
-141.728
-126.997
-113.27
-101.259
-91.353
-83.682
-78.188
-74.628
-72.784
-72.482
-73.491
-75.544
-78.38
-81.744
-85.412
-89.213
-92.997
-96.608
-99.883
-102.645
-104.737
-106.063
-106.589
-106.32
-105.283
-103.512
-101.056
-97.992
-94.421
-90.449
-86.182
-81.703
-77.079
-72.381
-67.693
-63.11
-58.729
-54.612
-50.79
-47.277
-44.074
-41.183
-38.595
-36.282
-34.201
-32.312
-30.578
-28.971
-27.47
-26.046
-24.662
-23.279
-21.853
-20.351
-18.752
-17.035
-15.185
-13.187
-11.031
-8.715
-6.242
-3.615
-0.832
2.109
5.212
8.477
11.899
15.474
19.198
23.065
27.067
31.198
35.448
39.806
44.264
48.811
53.436
58.129
62.876
67.661
72.47
77.286
82.094
86.877
91.618
96.299
100.904
105.416
109.82
114.1
118.239
122.224
126.039
129.671
133.105
136.33
139.332
142.1
144.623
146.892
148.897
150.631
152.086
153.257
154.14
154.731
155.03
155.034
154.744
154.162
153.29
152.132
150.693
148.978
146.993
144.747
142.247
139.504
136.527
133.327
129.916
126.305
122.507
118.536
114.405
110.128
105.719
101.194
96.569
91.857
87.077
82.242
77.369
72.474
67.572
62.677
57.804
52.967
48.179
43.452
38.799
34.231
29.758
25.391
21.139
17.009
13.009
9.146
5.425
1.851
-1.572
-4.842
-7.956
-10.913
-13.711
-16.352
-18.836
-21.165
-23.34
-25.366
-27.244
-28.981
-30.58
-32.046
-33.386
-34.605
-35.709
-36.705
-37.597
-38.394
-39.1
-39.722
-40.265
-40.737
-41.143
-41.488
-41.779
-42.02
-42.217
-42.373
-42.494
-42.584
-42.645
-42.682
-42.696
-42.693
-42.673
-42.64
-42.596
-42.544
-42.485
-42.421
-42.355
-42.287
-42.22
-42.153
-42.09
-42.03
-41.974
-41.925
-41.882
-41.848
-41.824
-41.811
-41.812
-41.829
-41.861
-41.912
-41.982
-42.074
-42.189
-42.33
-42.497
-42.692
-42.918
-43.177
-43.469
-43.796
-44.159
-44.557
-44.99
-45.457
-45.954
-46.48
-47.031
-47.604
-48.198
-48.807
-49.428
-50.059
-50.696
-51.338
-51.978
-52.611
-53.229
-53.823
-54.385
-54.907
-55.378
-55.787
-56.123
-56.378
-56.547
-56.623
-56.597
-56.457
-56.19
-55.785
-55.24
-54.553
-53.723
-52.752
-51.645
-50.417
-49.095
-47.703
-46.257
-44.763
-43.22
-41.63
-39.998
-38.331
-36.636
-34.906
-33.132
-31.309
-29.437
-27.519
-25.545
-23.485
-21.291
-18.929
-16.388
-13.683
-10.845
-7.904
-4.892
-1.853
1.159
4.06
6.777
9.251
11.434
13.282
14.739
15.717
16.118
15.867
14.93
13.306
11.028
8.121
4.635
0.638
-3.774
-8.471
-13.337
-18.282
-23.218
-28.064
-32.728
-37.086
-41.013
-44.425
-47.272
-49.558
-51.325
-52.61
-53.474
-53.988
-54.25
-54.412
-54.612
-54.977
-55.634
-56.668
-58.217
-60.5
-63.647
-67.671
-72.403
-77.41
-82.241
-86.536
-89.833
-91.614
-91.467
-89.115
-84.897
-79.771
-74.669
-70.463
-67.835
-67.233
-69.127
-73.603
-79.458
-84.441
-85.958
-81.074
-67.421
-42.968
-5.249
47.405
114.899
195.615
286.466
383.182
481.566
576.749
662.402
732.516
782.027
807.12
805.945
777.969
723.466
644.69
546.322
434.155
314.729
194.499
79.077
-26.073
-116.145
-188.121
-241.164
-276.243
-295.677
-302.311
-299.246
-290.231
-278.997
-268.601
-260.78
-255.863
-253.419
-252.701
-252.728
-252.259
-249.935
-244.502
-235.499
-223.295
-208.589
-192.286
-175.278
-158.331
-142.284
-127.985
-115.924
-106.277
-99.022
-93.939
-90.83
-89.542
-89.833
-91.417
-93.991
-97.194
-100.703
-104.24
-107.516
-110.293
-112.363
-113.525
-113.657
-112.713
-110.709
-107.715
-103.814
-99.087
-93.652
-87.662
-81.316
-74.866
-68.556
-62.61
-57.256
-52.676
-49.018
-46.394
-44.838
-44.313
-44.727
-45.968
-47.917
-50.455
-53.452
-56.768
-60.25
-63.728
-67.035
-70.004
-72.45
-74.217
-75.187
-75.284
-74.495
-72.855
-70.439
-67.334
-63.643
-59.478
-54.938
-50.105
-45.049
-39.835
-34.528
-29.211
-23.979
-18.911
-14.063
-9.468
-5.128
-1.028
2.87
6.619
10.29
13.962
17.694
21.518
25.451
29.498
33.663
37.958
42.4
46.991
51.729
56.607
61.612
66.728
71.93
77.178
82.422
87.604
92.681
97.62
102.398
106.995
111.394
115.575
119.524
123.235
126.695
129.894
132.816
135.447
137.777
139.801
141.519
142.932
144.04
144.844
145.344
145.542
145.44
145.04
144.343
143.349
142.062
140.488
138.634
136.51
134.126
131.492
128.622
125.527
122.223
118.721
115.036
111.181
107.17
103.018
98.74
94.352
89.871
85.311
80.691
76.027
71.335
66.631
61.931
57.25
52.601
47.998
43.455
38.983
34.594
30.299
26.109
22.033
18.08
14.257
10.571
7.028
3.633
0.388
-2.703
-5.638
-8.416
-11.036
-13.497
-15.8
-17.946
-19.936
-21.773
-23.46
-25
-26.398
-27.658
-28.786
-29.787
-30.668
-31.432
-32.087
-32.639
-33.094
-33.458
-33.737
-33.937
-34.066
-34.129
-34.132
-34.081
-33.982
-33.841
-33.662
-33.452
-33.214
-32.955
-32.679
-32.391
-32.095
-31.798
-31.503
-31.215
-30.939
-30.678
-30.437
-30.219
-30.028
-29.867
-29.741
-29.652
-29.603
-29.598
-29.64
-29.73
-29.872
-30.068
-30.319
-30.629
-30.998
-31.428
-31.92
-32.476
-33.095
-33.777
-34.524
-35.333
-36.203
-37.133
-38.119
-39.159
-40.248
-41.383
-42.558
-43.768
-45.007
-46.269
-47.545
-48.83
-50.115
-51.391
-52.649
-53.88
-55.074
-56.222
-57.314
-58.339
-59.288
-60.15
-60.914
-61.572
-62.112
-62.526
-62.802
-62.933
-62.909
-62.723
-62.368
-61.838
-61.129
-60.236
-59.158
-57.893
-56.441
-54.803
-52.982
-50.982
-48.809
-46.47
-43.974
-41.33
-38.551
-35.648
-32.64
-29.542
-26.372
-23.151
-19.899
-16.637
-13.389
-10.176
-7.02
-3.943
-0.966
1.888
4.597
7.138
9.489
11.628
13.537
15.196
16.59
17.705
18.536
19.076
19.322
19.267
18.9
18.213
17.2
15.86
14.193
12.208
9.923
7.366
4.578
1.604
-1.511
-4.724
-8
-11.298
-14.571
-17.767
-20.822
-23.669
-26.25
-28.509
-30.393
-31.877
-32.97
-33.707
-34.172
-34.442
-34.576
-34.65
-34.748
-34.972
-35.459
-36.337
-37.71
-39.737
-42.629
-46.503
-51.363
-56.983
-62.85
-68.413
-73.179
-76.56
-77.903
-76.78
-73.114
-67.464
-61.116
-55.417
-51.428
-50.17
-52.603
-59.132
-69.308
-81.258
-91.571
-96.506
-92.727
-76.598
-44.335
6.7
77.981
167.219
267.909
375.279
485.383
595.163
704.395
804.561
881.403
923.024
916.749
862.825
774.285
663.492
545.333
428.351
312.001
197.804
87.485
-16.032
-106.735
-181.442
-239.813
-282.514
-311.66
-329.032
-335.61
-332.555
-321.567
-304.563
-283.416
-259.964
-235.564
-211.518
-189.597
-171.44
-157.853
-148.987
-144.409
-143.097
-144.186
-146.723
-149.146
-150.041
-148.623
-144.532
-137.985
-129.683
-120.201
-110.231
-100.829
-92.779
-86.486
-82.152
-79.611
-78.506
-78.568
-79.41
-80.512
-81.541
-82.298
-82.66
-82.656
-82.335
-81.706
-80.83
-79.78
-78.581
-77.269
-75.864
-74.368
-72.797
-71.164
-69.489
-67.822
-66.22
-64.716
-63.327
-62.039
-60.806
-59.599
-58.401
-57.197
-55.989
-54.76
-53.487
-52.157
-50.771
-49.34
-47.86
-46.292
-44.563
-42.631
-40.483
-38.141
-35.662
-33.071
-30.371
-27.572
-24.674
-21.69
-18.634
-15.5
-12.265
-8.909
-5.427
-1.845
1.786
5.44
9.118
12.842
16.656
20.585
24.635
28.819
33.153
37.647
42.31
47.132
52.085
57.151
62.322
67.596
72.988
78.493
84.094
89.764
95.467
101.172
106.853
112.48
118.017
123.435
128.706
133.813
138.745
143.487
148.02
152.324
156.377
160.159
163.656
166.856
169.746
172.315
174.554
176.455
178.015
179.228
180.09
180.594
180.736
180.511
179.92
178.963
177.643
175.964
173.933
171.559
168.853
165.827
162.495
158.872
154.974
150.817
146.42
141.802
136.981
131.977
126.811
121.503
116.074
110.544
104.935
99.266
93.559
87.834
82.11
76.407
70.744
65.139
59.61
54.173
48.845
43.64
38.572
33.655
28.901
24.319
19.919
15.707
11.689
7.869
4.249
0.83
-2.388
-5.406
-8.228
-10.857
-13.296
-15.551
-17.627
-19.531
-21.269
-22.848
-24.276
-25.562
-26.713
-27.738
-28.645
-29.443
-30.141
-30.747
-31.27
-31.718
-32.1
-32.424
-32.698
-32.93
-33.128
-33.298
-33.448
-33.582
-33.705
-33.821
-33.934
-34.047
-34.161
-34.278
-34.4
-34.527
-34.661
-34.802
-34.952
-35.11
-35.279
-35.457
-35.645
-35.844
-36.054
-36.275
-36.507
-36.752
-37.008
-37.278
-37.561
-37.859
-38.172
-38.499
-38.843
-39.202
-39.577
-39.969
-40.377
-40.802
-41.246
-41.71
-42.194
-42.7
-43.229
-43.781
-44.358
-44.96
-45.584
-46.229
-46.892
-47.571
-48.264
-48.967
-49.675
-50.387
-51.099
-51.809
-52.513
-53.206
-53.885
-54.543
-55.173
-55.768
-56.32
-56.822
-57.264
-57.637
-57.932
-58.145
-58.266
-58.289
-58.204
-57.997
-57.661
-57.191
-56.586
-55.848
-54.983
-53.999
-52.912
-51.744
-50.518
-49.255
-47.974
-46.689
-45.412
-44.153
-42.922
-41.737
-40.604
-39.516
-38.457
-37.407
-36.339
-35.231
-34.047
-32.738
-31.264
-29.589
-27.693
-25.572
-23.234
-20.699
-17.986
-15.112
-12.117
-9.067
-6.046
-3.163
-0.522
1.794
3.682
5.03
5.741
5.733
4.955
3.406
1.101
-1.921
-5.624
-9.984
-14.948
-20.431
-26.295
-32.327
-38.344
-44.203
-49.756
-54.897
-59.497
-63.351
-66.457
-68.998
-71.128
-73.09
-74.954
-76.468
-77.647
-78.776
-79.825
-80.721
-81.394
-81.382
-80.758
-80.162
-79.602
-78.844
-78.016
-77.065
-76.088
-75.79
-76.139
-76.79
-78.373
-81.473
-86.341
-93.218
-101.785
-111.226
-121.106
-130.43
-136.919
-138.188
-131.768
-115.652
-88.582
-49.198
3.598
69.609
147.158
233.364
324.32
416.351
505.651
587.086
655.482
706.201
735.415
741.248
723.109
680.653
614.77
528.431
425.914
312.791
195.141
77.935
-34.031
-135.796
-223.179
-293.124
-344.372
-377.58
-394.269
-395.992
-384.958
-364.115
-336.958
-307.333
-277.927
-250.403
-226.222
-206.499
-192.02
-182.974
-178.475
-176.869
-176.968
-177.762
-178.078
-177.114
-174.042
-168.317
-160.226
-150.502
-139.797
-128.867
-118.548
-109.31
-101.595
-95.686
-91.45
-88.639
-86.959
-85.985
-85.28
-84.605
-83.796
-82.761
-81.522
-80.063
-78.387
-76.574
-74.72
-72.895
-71.138
-69.46
-67.86
-66.362
-64.997
-63.77
-62.66
-61.628
-60.642
-59.677
-58.73
-57.799
-56.869
-55.916
-54.921
-53.869
-52.76
-51.592
-50.352
-49.031
-47.634
-46.182
-44.719
-43.281
-41.882
-40.535
-39.236
-37.984
-36.78
-35.613
-34.467
-33.321
-32.157
-30.959
-29.717
-28.417
-27.034
-25.54
-23.897
-22.079
-20.068
-17.852
-15.423
-12.774
-9.903
-6.815
-3.521
-0.033
3.639
7.488
11.506
15.682
20
24.444
28.996
33.639
38.357
43.131
47.944
52.777
57.615
62.44
67.238
71.992
76.684
81.297
85.81
90.206
94.467
98.576
102.514
106.265
109.814
113.147
116.25
119.112
121.722
124.07
126.146
127.945
129.461
130.689
131.625
132.268
132.617
132.673
132.437
131.912
131.102
130.012
128.648
127.016
125.126
122.985
120.605
117.994
115.166
112.132
108.906
105.5
101.93
98.209
94.354
90.38
86.301
82.135
77.897
73.602
69.265
64.902
60.526
56.152
51.792
47.46
43.167
38.925
34.744
30.635
26.605
22.665
18.82
15.079
11.447
7.929
4.529
1.253
-1.897
-4.917
-7.807
-10.563
-13.185
-15.674
-18.027
-20.248
-22.336
-24.293
-26.122
-27.826
-29.405
-30.865
-32.208
-33.437
-34.557
-35.571
-36.482
-37.294
-38.013
-38.64
-39.179
-39.635
-40.011
-40.309
-40.533
-40.686
-40.771
-40.792
-40.751
-40.652
-40.499
-40.296
-40.045
-39.751
-39.419
-39.051
-38.652
-38.227
-37.78
-37.315
-36.837
-36.351
-35.862
-35.373
-34.89
-34.418
-33.961
-33.523
-33.109
-32.722
-32.367
-32.049
-31.771
-31.538
-31.354
-31.221
-31.146
-31.129
-31.175
-31.286
-31.464
-31.709
-32.024
-32.408
-32.861
-33.382
-33.97
-34.624
-35.339
-36.113
-36.942
-37.821
-38.744
-39.705
-40.697
-41.712
-42.744
-43.785
-44.827
-45.861
-46.88
-47.874
-48.834
-49.753
-50.62
-51.426
-52.161
-52.817
-53.385
-53.856
-54.222
-54.476
-54.611
-54.621
-54.502
-54.247
-53.853
-53.318
-52.639
-51.816
-50.849
-49.74
-48.493
-47.112
-45.603
-43.977
-42.241
-40.407
-38.487
-36.495
-34.443
-32.346
-30.22
-28.08
-25.939
-23.814
-21.721
-19.677
-17.7
-15.805
-14.012
-12.338
-10.797
-9.408
-8.181
-7.127
-6.255
-5.572
-5.088
-4.816
-4.768
-4.95
-5.369
-6.025
-6.915
-8.029
-9.343
-10.823
-12.431
-14.128
-15.878
-17.65
-19.41
-21.121
-22.741
-24.219
-25.506
-26.561
-27.343
-27.823
-27.986
-27.837
-27.427
-26.836
-26.157
-25.474
-24.856
-24.367
-24.097
-24.147
-24.628
-25.651
-27.3
-29.688
-32.975
-37.223
-42.346
-48.085
-53.958
-59.428
-64.057
-67.345
-68.658
-67.607
-64.219
-58.941
-52.777
-46.826
-41.776
-38.3
-37.3
-39.127
-43.172
-47.922
-50.695
-48.397
-38.613
-18.856
13.753
61.093
123.525
199.695
286.081
378.07
471.141
559.787
637.497
698.39
737.605
752.252
741.834
706.884
648.759
570.706
477.534
374.794
268.499
163.508
63.578
-27.307
-105.901
-170.284
-219.575
-254.486
-276.919
-288.41
-290.659
-286.327
-277.887
-267.681
-257.896
-249.332
-241.957
-235.859
-230.753
-225.912
-220.725
-214.308
-205.712
-194.843
-182.042
-167.737
-152.612
-137.29
-122.263
-108.187
-95.719
-85.194
-76.756
-70.373
-65.833
-62.971
-61.627
-61.585
-62.618
-64.495
-66.989
-69.901
-73.059
-76.307
-79.512
-82.525
-85.188
-87.364
-88.929
-89.819
-90.024
-89.546
-88.412
-86.663
-84.353
-81.567
-78.403
-74.957
-71.316
-67.553
-63.721
-59.891
-56.141
-52.549
-49.192
-46.116
-43.339
-40.871
-38.713
-36.854
-35.276
-33.944
-32.811
-31.836
-30.982
-30.217
-29.516
-28.846
-28.167
-27.44
-26.623
-25.682
-24.596
-23.342
-21.901
-20.262
-18.413
-16.352
-14.082
-11.603
-8.914
-6.015
-2.904
0.418
3.944
7.67
11.587
15.687
19.959
24.394
28.979
33.701
38.547
43.505
48.56
53.699
58.904
64.158
69.444
74.743
80.037
85.307
90.534
95.699
100.784
105.77
110.641
115.379
119.967
124.389
128.628
132.669
136.498
140.102
143.467
146.581
149.435
152.017
154.32
156.335
158.056
159.477
160.595
161.407
161.909
162.103
161.988
161.567
160.841
159.814
158.491
156.878
154.982
152.809
150.369
147.67
144.723
141.54
138.13
134.508
130.687
126.679
122.5
118.166
113.69
109.091
104.384
99.585
94.712
89.783
84.813
79.821
74.822
69.835
64.875
59.959
55.101
50.318
45.623
41.03
36.551
32.2
27.988
23.924
20.019
16.28
12.716
9.333
6.137
3.131
0.32
-2.294
-4.71
-6.928
-8.948
-10.773
-12.406
-13.85
-15.11
-16.193
-17.106
-17.855
-18.45
-18.899
-19.211
-19.398
-19.469
-19.434
-19.306
-19.093
-18.809
-18.463
-18.065
-17.627
-17.159
-16.67
-16.169
-15.666
-15.168
-14.683
-14.219
-13.783
-13.381
-13.019
-12.701
-12.433
-12.219
-12.062
-11.965
-11.929
-11.956
-12.044
-12.195
-12.407
-12.677
-13.004
-13.384
-13.814
-14.29
-14.81
-15.369
-15.962
-16.587
-17.237
-17.91
-18.601
-19.306
-20.022
-20.745
-21.472
-22.2
-22.927
-23.65
-24.365
-25.071
-25.763
-26.44
-27.096
-27.726
-28.328
-28.898
-29.433
-29.931
-30.388
-30.805
-31.181
-31.518
-31.816
-32.073
-32.289
-32.46
-32.584
-32.657
-32.676
-32.635
-32.53
-32.358
-32.115
-31.803
-31.42
-30.961
-30.421
-29.788
-29.057
-28.23
-27.305
-26.284
-25.174
-23.985
-22.737
-21.459
-20.174
-18.895
-17.626
-16.366
-15.112
-13.867
-12.633
-11.407
-10.186
-8.959
-7.726
-6.49
-5.242
-3.964
-2.623
-1.162
0.449
2.212
4.119
6.142
8.251
10.416
12.588
14.699
16.69
18.502
20.088
21.424
22.462
23.143
23.397
23.134
22.308
20.92
18.979
16.516
13.58
10.219
6.52
2.604
-1.424
-5.467
-9.439
-13.282
-16.91
-20.228
-23.152
-25.602
-27.559
-29.059
-30.148
-30.874
-31.294
-31.479
-31.548
-31.663
-31.985
-32.656
-33.783
-35.495
-37.996
-41.42
-45.761
-50.824
-56.144
-61.187
-65.517
-68.661
-70.066
-69.375
-66.525
-61.957
-56.747
-52.11
-49.013
-48.202
-50.292
-55.453
-63.175
-71.905
-78.949
-81.025
-74.923
-58.039
-27.967
17.444
79.065
156.065
246.206
343.835
442.621
539.211
628.104
706.911
774.53
821.663
842.813
832.639
785.239
708.724
611.904
503.04
393.64
285.747
180.231
80.492
-12.292
-94.014
-160.893
-212.352
-248.889
-272.15
-283.995
-285.98
-279.582
-266.606
-249.609
-231.006
-212.303
-194.772
-179.241
-166.194
-156.568
-150.718
-147.79
-146.648
-146.139
-144.979
-142.617
-138.774
-132.656
-123.97
-113.119
-100.739
-87.936
-75.962
-65.403
-56.58
-49.929
-45.538
-43.332
-43.162
-44.502
-46.732
-49.478
-52.463
-55.493
-58.51
-61.393
-63.989
-66.207
-67.963
-69.201
-69.895
-70.004
-69.494
-68.361
-66.635
-64.388
-61.716
-58.708
-55.447
-51.989
-48.38
-44.688
-40.99
-37.381
-33.958
-30.781
-27.88
-25.285
-23.007
-21.051
-19.41
-18.048
-16.916
-15.973
-15.18
-14.51
-13.939
-13.432
-12.946
-12.437
-11.854
-11.161
-10.331
-9.336
-8.155
-6.77
-5.167
-3.343
-1.3
0.962
3.448
6.16
9.103
12.277
15.678
19.301
23.14
27.188
31.436
35.874
40.489
45.269
50.201
55.271
60.465
65.767
71.157
76.618
82.127
87.664
93.208
98.736
104.226
109.656
115.005
120.251
125.373
130.352
135.166
139.797
144.225
148.432
152.4
156.112
159.552
162.707
165.561
168.104
170.323
172.209
173.754
174.951
175.796
176.285
176.417
176.192
175.611
174.677
173.395
171.772
169.814
167.53
164.931
162.027
158.831
155.355
151.615
147.624
143.398
138.954
134.31
129.484
124.493
119.357
114.097
108.731
103.28
97.765
92.205
86.62
81.031
75.457
69.917
64.429
59.012
53.681
48.454
43.345
38.368
33.536
28.862
24.355
20.026
15.883
11.933
8.182
4.637
1.299
-1.827
-4.74
-7.441
-9.929
-12.207
-14.277
-16.144
-17.813
-19.29
-20.581
-21.694
-22.637
-23.419
-24.048
-24.535
-24.889
-25.121
-25.241
-25.259
-25.186
-25.031
-24.805
-24.518
-24.179
-23.797
-23.38
-22.937
-22.476
-22.004
-21.528
-21.055
-20.589
-20.137
-19.703
-19.291
-18.905
-18.548
-18.223
-17.932
-17.676
-17.458
-17.278
-17.136
-17.033
-16.969
-16.943
-16.956
-17.005
-17.092
-17.215
-17.373
-17.565
-17.792
-18.052
-18.346
-18.674
-19.035
-19.431
-19.861
-20.327
-20.829
-21.368
-21.946
-22.564
-23.222
-23.921
-24.662
-25.446
-26.272
-27.139
-28.044
-28.989
-29.97
-30.986
-32.036
-33.116
-34.226
-35.365
-36.532
-37.723
-38.937
-40.166
-41.407
-42.655
-43.902
-45.141
-46.362
-47.556
-48.713
-49.827
-50.887
-51.881
-52.794
-53.608
-54.309
-54.892
-55.352
-55.684
-55.891
-55.978
-55.959
-55.857
-55.692
-55.477
-55.223
-54.933
-54.617
-54.293
-53.974
-53.672
-53.39
-53.117
-52.84
-52.539
-52.181
-51.718
-51.094
-50.236
-49.092
-47.634
-45.845
-43.725
-41.273
-38.486
-35.379
-31.983
-28.343
-24.521
-20.596
-16.656
-12.82
-9.234
-6.05
-3.43
-1.497
-0.331
0.01
-0.501
-1.882
-4.14
-7.255
-11.178
-15.845
-21.175
-27.066
-33.391
-39.988
-46.659
-53.202
-59.425
-65.175
-70.358
-74.922
-78.856
-82.162
-84.856
-86.964
-88.547
-89.7
-90.525
-91.153
-91.733
-92.405
-93.385
-94.946
-97.255
-100.359
-104.119
-108.15
-112.088
-115.678
-118.578
-120.407
-120.912
-119.93
-117.798
-115.354
-113.259
-111.997
-111.807
-112.618
-114.397
-116.975
-119.24
-119.361
-115.401
-105.169
-87.307
-61.265
-25.62
21.019
78.502
146.17
220.824
296.254
370.214
442.276
512.135
583.185
650.611
702.288
728.084
715.755
663.743
583.634
486.745
386.243
288.92
192.16
95.154
-1.618
-94.622
-176.786
-244.214
-296.126
-333.479
-358.757
-373.615
-379.585
-379.309
-375.59
-371.092
-367.432
-364.775
-362.831
-361.335
-359.777
-357.381
-353.105
-345.676
-334.525
-319.869
-302.171
-282.121
-260.408
-237.625
-214.539
-192.014
-170.622
-150.721
-132.526
-116.075
-101.441
-88.733
-77.98
-69.191
-62.377
