Name,Criss Capps
Date of Birth,"Feb 5, 1952"
Recorded Date,2021-11-16 04:55:40 -0400
Classification,Sinus Rhythm
Symptoms,
Software Version,1.90
Device,"Watch5,4"
Sample Rate,512.844 hertz


Lead,Lead I
Unit,µV

-216.703
-262.671
-282.799
-281.374
-269.087
-254.112
-244.204
-238.836
-232.589
-223.603
-210.864
-195.421
-180.577
-167.509
-156.209
-146.495
-137.333
-128.098
-118.675
-108.877
-98.678
-88.237
-77.757
-67.53
-57.973
-49.316
-41.593
-34.783
-28.718
-23.182
-17.991
-12.922
-7.761
-2.396
3.24
9.18
15.406
21.927
28.766
35.929
43.447
51.335
59.559
68.071
76.782
85.562
94.298
102.883
111.22
119.251
126.929
134.219
141.108
147.589
153.649
159.273
164.426
169.073
173.199
176.8
179.889
182.497
184.648
186.363
187.669
188.59
189.142
189.339
189.176
188.644
187.737
186.465
184.842
182.887
180.622
178.069
175.264
172.259
169.106
165.853
162.538
159.186
155.827
152.499
149.244
146.116
143.156
140.389
137.837
135.531
133.477
131.67
130.061
128.536
126.988
125.323
123.471
121.404
119.079
116.424
113.375
109.851
105.787
101.192
96.018
90.171
83.706
76.781
69.769
63.34
58.056
54.35
52.725
53.503
56.705
62.142
69.013
76.062
82.35
87.018
89.289
89.1
86.931
83.835
82.081
84.393
93.023
110.365
138.762
179.26
231.884
295.711
366.544
439.518
511.694
577.963
635.028
681.024
708.453
713.408
694.283
647.122
576.705
487.856
382.495
271.02
162.836
66.758
-4.472
-48.592
-71.472
-78.814
-79.577
-77.791
-70.779
-58.624
-42.77
-25.902
-12.518
-4.516
-1.779
-3.604
-8.886
-16.641
-25.298
-33.237
-39.662
-44.348
-47.565
-49.875
-51.436
-52.327
-53.328
-55.194
-58.273
-62.765
-68.496
-75.132
-82.636
-91.014
-99.963
-109.195
-118.473
-127.528
-136.28
-144.719
-152.753
-160.329
-167.449
-174.117
-180.377
-186.315
-191.99
-197.479
-202.864
-208.212
-213.597
-219.094
-224.786
-230.767
-237.128
-243.947
-251.277
-259.144
-267.574
-276.582
-286.151
-296.242
-306.772
-317.615
-328.672
-339.858
-351.086
-362.284
-373.361
-384.208
-394.738
-404.869
-414.523
-423.646
-432.167
-440.013
-447.155
-453.588
-459.375
-464.655
-469.55
-474.181
-478.675
-483.144
-487.727
-492.612
-497.974
-503.99
-510.8
-518.496
-527.255
-537.367
-549.203
-563.107
-579.13
-597.104
-616.962
-638.691
-662.121
-686.741
-711.346
-734.471
-755.321
-773.541
-788.575
-800.105
-807.95
-811.959
-814.798
-819.874
-828.019
-840.928
-855.367
-864.119
-866.626
-861.344
-854.34
-861.041
-882.799
-914.276
-933.583
-900.39
-791.665
-599.266
-339.149
-54.385
218.659
451.745
628.322
749.865
818.591
835.615
809.623
753.136
685.923
637.24
626.017
656.256
716.735
778.035
814.47
814.153
779.355
728.993
683.253
653.355
642.545
644.901
651.057
655.685
656.222
652.39
646.359
639.076
630.211
619.594
606.863
592.144
576.57
561.385
547.213
534.33
522.736
512.187
502.551
493.738
485.46
477.359
469.237
460.984
452.604
444.218
435.901
427.698
419.671
411.891
404.407
397.258
390.474
384.063
378.017
372.315
366.899
361.683
356.61
351.647
346.767
341.956
337.192
332.45
327.73
323.048
318.415
313.844
309.337
304.893
300.54
296.32
292.29
288.522
285.066
281.943
279.172
276.754
274.684
272.958
271.554
270.44
269.59
268.981
268.598
268.429
268.454
268.645
268.97
269.392
269.88
270.42
270.999
271.615
272.274
272.981
273.74
274.564
275.457
276.412
277.421
278.459
279.496
280.506
281.466
282.354
283.161
283.866
284.456
284.923
285.253
285.444
285.514
285.485
285.382
285.254
285.142
285.1
285.204
285.516
286.09
286.972
288.19
289.762
291.694
293.97
296.557
299.392
302.367
305.345
308.174
310.678
312.703
314.104
314.711
314.374
312.965
310.365
306.481
301.244
294.6
286.512
276.994
266.11
253.994
240.845
226.9
212.408
197.585
182.624
167.728
153.087
138.878
125.26
112.382
100.38
89.394
79.583
71.056
63.857
57.971
53.303
49.716
47.087
45.321
44.344
44.105
44.544
45.611
47.272
49.467
52.129
55.163
58.427
61.824
65.298
68.806
72.36
76.004
79.733
83.571
87.499
91.383
95.203
99.046
103.079
107.698
113.283
120.036
128.323
138.582
150.821
164.807
179.864
194.634
208.068
219.558
228.322
233.771
236.085
235.908
234.87
235.764
240.84
252.013
271.491
301.102
342.124
393.933
453.215
515.936
578.176
639.266
701.902
764.583
822.604
866.385
881.036
859.378
801.396
711.292
599.301
475.127
347.646
230.492
139.198
82.965
63.611
72.401
92.585
113.788
132.438
149.878
171.441
197.458
224.247
248.178
265.262
273.653
273.987
267.522
256.285
242.839
229.292
216.907
206.527
198.919
194.408
192.91
193.94
196.325
198.791
200.693
201.712
201.598
200.348
198.028
194.76
191.024
187.427
184.291
181.779
179.956
178.751
178.152
178.193
178.812
179.904
181.399
183.234
185.385
187.862
190.632
193.634
196.799
200.04
203.305
206.564
209.802
213.007
216.159
219.23
222.194
225.027
227.706
230.201
232.47
234.474
236.194
237.624
238.784
239.703
240.389
240.836
241.021
240.914
240.513
239.827
238.869
237.671
236.27
234.713
233.08
231.448
229.856
228.316
226.793
225.212
223.525
221.703
219.727
217.592
215.262
212.672
209.765
206.474
202.719
198.412
193.412
187.568
180.793
173.054
164.382
154.886
144.654
133.76
122.291
110.329
97.99
85.424
72.772
60.155
47.711
35.588
23.979
13.11
3.14
-5.835
-13.778
-20.727
-26.719
-31.787
-35.991
-39.414
-42.161
-44.369
-46.172
-47.661
-48.937
-50.111
-51.315
-52.711
-54.428
-56.542
-59.095
-62.094
-65.536
-69.422
-73.729
-78.403
-83.379
-88.577
-93.912
-99.34
-104.818
-110.298
-115.734
-121.063
-126.235
-131.224
-136.02
-140.613
-144.999
-149.17
-153.126
-156.887
-160.478
-163.925
-167.256
-170.482
-173.609
-176.641
-179.581
-182.428
-185.182
-187.834
-190.372
-192.787
-195.076
-197.234
-199.259
-201.142
-202.876
-204.451
-205.863
-207.106
-208.181
-209.086
-209.824
-210.399
-210.817
-211.085
-211.214
-211.211
-211.084
-210.839
-210.484
-210.026
-209.472
-208.831
-208.108
-207.313
-206.454
-205.541
-204.581
-203.584
-202.558
-201.509
-200.445
-199.371
-198.292
-197.214
-196.14
-195.073
-194.018
-192.975
-191.947
-190.935
-189.938
-188.958
-187.992
-187.039
-186.096
-185.16
-184.23
-183.3
-182.369
-181.432
-180.485
-179.525
-178.548
-177.549
-176.524
-175.47
-174.383
-173.258
-172.091
-170.88
-169.62
-168.311
-166.948
-165.531
-164.058
-162.528
-160.942
-159.301
-157.605
-155.856
-154.055
-152.206
-150.311
-148.374
-146.399
-144.391
-142.353
-140.293
-138.215
-136.128
-134.037
-131.95
-129.878
-127.829
-125.813
-123.84
-121.921
-120.066
-118.285
-116.588
-114.984
-113.481
-112.089
-110.814
-109.666
-108.652
-107.782
-107.063
-106.503
-106.108
-105.884
-105.835
-105.962
-106.264
-106.74
-107.392
-108.226
-109.248
-110.458
-111.853
-113.428
-115.173
-117.073
-119.101
-121.219
-123.388
-125.568
-127.726
-129.838
-131.883
-133.835
-135.659
-137.314
-138.762
-139.972
-140.931
-141.628
-142.058
-142.237
-142.223
-142.109
-142.001
-141.99
-142.13
-142.462
-143.045
-143.944
-145.247
-147.037
-149.366
-152.298
-155.923
-160.262
-165.231
-170.588
-175.879
-180.568
-184.197
-186.288
-186.314
-183.961
-179.279
-172.704
-165.159
-157.705
-151.087
-145.984
-143.254
-143.289
-145.609
-148.944
-151.012
-149.095
-141.011
-124.595
-97.287
-57.184
-3.675
62.487
138.699
221.093
305.749
387.897
461.6
520.942
560.631
577.581
571.476
543.174
493.495
421.583
326.466
211.431
85.872
-34.055
-131.089
-195.053
-226.138
-234.399
-231.178
-223.108
-211.614
-193.694
-169.105
-141.414
-114.419
-92.248
-76.901
-68.228
-65.939
-68.928
-74.861
-81.085
-85.903
-88.511
-88.803
-86.967
-82.802
-76.331
-68.442
-60.52
-53.543
-47.959
-43.792
-40.848
-39.209
-38.959
-39.841
-41.387
-43.156
-44.853
-46.361
-47.669
-48.698
-49.355
-49.609
-49.479
-49.02
-48.29
-47.32
-46.127
-44.732
-43.167
-41.473
-39.693
-37.876
-36.068
-34.312
-32.651
-31.11
-29.703
-28.437
-27.316
-26.331
-25.465
-24.694
-23.99
-23.332
-22.702
-22.08
-21.443
-20.766
-20.026
-19.204
-18.281
-17.243
-16.076
-14.766
-13.306
-11.689
-9.911
-7.973
-5.873
-3.613
-1.194
1.381
4.107
6.976
9.981
13.111
16.353
19.694
23.117
26.604
30.136
33.693
37.254
40.797
44.299
47.736
51.087
54.326
57.432
60.38
63.148
65.714
68.058
70.161
72.002
73.566
74.836
75.799
76.441
76.752
76.721
76.341
75.607
74.514
73.061
71.249
69.08
66.558
63.69
60.485
56.954
53.11
48.965
44.538
39.844
34.903
29.734
24.359
18.798
13.075
7.213
1.233
-4.842
-10.987
-17.182
-23.404
-29.631
-35.842
-42.017
-48.136
-54.179
-60.127
-65.963
-71.669
-77.23
-82.631
-87.857
-92.898
-97.74
-102.374
-106.792
-110.985
-114.948
-118.675
-122.163
-125.41
-128.415
-131.179
-133.704
-135.994
-138.051
-139.882
-141.491
-142.886
-144.073
-145.059
-145.851
-146.457
-146.884
-147.14
-147.235
-147.177
-146.975
-146.639
-146.179
-145.604
-144.924
-144.149
-143.288
-142.351
-141.348
-140.287
-139.178
-138.031
-136.853
-135.653
-134.439
-133.217
-131.993
-130.771
-129.555
-128.347
-127.149
-125.962
-124.786
-123.619
-122.463
-121.317
-120.181
-119.056
-117.942
-116.839
-115.747
-114.664
-113.586
-112.511
-111.43
-110.336
-109.223
-108.083
-106.91
-105.699
-104.442
-103.135
-101.774
-100.354
-98.869
-97.307
-95.654
-93.896
-92.032
-90.061
-87.992
-85.84
-83.618
-81.337
-79.02
-76.681
-74.324
-71.947
-69.525
-67.037
-64.472
-61.83
-59.124
-56.369
-53.559
-50.685
-47.735
-44.682
-41.506
-38.179
-34.65
-30.891
-26.906
-22.719
-18.4
-14.031
-9.669
-5.359
-1.133
2.984
6.944
10.701
14.216
17.434
20.296
22.735
24.65
25.967
26.663
26.743
26.263
25.306
23.925
22.163
20.061
17.647
14.956
12.029
8.887
5.564
2.11
-1.419
-4.936
-8.38
-11.725
-14.966
-18.128
-21.257
-24.369
-27.465
-30.547
-33.581
-36.534
-39.377
-42.061
-44.55
-46.818
-48.84
-50.597
-52.067
-53.209
-53.988
-54.363
-54.293
-53.786
-52.869
-51.597
-50.065
-48.345
-46.518
-44.694
-42.974
-41.464
-40.294
-39.539
-39.31
-39.788
-41.005
-42.872
-45.181
-47.436
-49.152
-49.993
-49.449
-46.983
-42.53
-36.298
-28.922
-21.717
-15.716
-11.535
-10.008
-11.66
-16.002
-21.96
-27.485
-29.452
-25.263
-12.468
11.63
48.823
99.746
162.733
234.504
312.103
391.553
470.321
545.26
607.764
651.446
669.958
657.483
618.262
556.951
478.964
393.193
302.739
210.726
122.011
39.611
-31.593
-87.264
-126.335
-149.279
-157.904
-155.002
-143.079
-124.557
-102.592
-80.398
-60.238
-43.524
-30.798
-21.812
-16.492
-14.963
-16.47
-19.764
-23.747
-27.284
-29.872
-31.628
-32.336
-31.527
-29.215
-25.734
-21.648
-17.876
-14.885
-12.663
-11.321
-11.003
-11.722
-13.431
-15.836
-18.374
-20.679
-22.616
-24.096
-25.128
-25.709
-25.785
-25.387
-24.631
-23.605
-22.38
-20.989
-19.424
-17.695
-15.851
-13.948
-12.057
-10.236
-8.517
-6.917
-5.449
-4.116
-2.921
-1.855
-0.9
-0.031
0.775
1.529
2.239
2.916
3.575
4.239
4.929
5.668
6.472
7.354
8.327
9.403
10.591
11.901
13.335
14.896
16.59
18.42
20.392
22.511
24.777
27.192
29.755
32.464
35.317
38.306
41.427
44.671
48.028
51.489
55.042
58.676
62.377
66.131
69.924
73.741
77.566
81.381
85.171
88.918
92.605
96.213
99.726
103.126
106.397
109.522
112.486
115.272
117.867
120.257
122.429
124.372
126.073
127.525
128.717
129.644
130.299
130.679
130.779
130.6
130.141
129.404
128.39
127.103
125.549
123.733
121.663
119.345
116.789
114.006
111.005
107.798
104.399
100.819
97.073
93.174
89.137
84.977
80.709
76.348
71.911
67.412
62.868
58.294
53.706
49.118
44.545
40.003
35.504
31.061
26.687
22.393
18.19
14.088
10.096
6.223
2.476
-1.139
-4.614
-7.946
-11.13
-14.162
-17.039
-19.761
-22.325
-24.732
-26.982
-29.076
-31.018
-32.808
-34.452
-35.952
-37.315
-38.546
-39.65
-40.635
-41.507
-42.275
-42.945
-43.526
-44.025
-44.45
-44.809
-45.11
-45.36
-45.565
-45.732
-45.867
-45.977
-46.067
-46.142
-46.205
-46.262
-46.316
-46.37
-46.427
-46.489
-46.557
-46.633
-46.717
-46.809
-46.908
-47.014
-47.124
-47.237
-47.349
-47.457
-47.557
-47.646
-47.719
-47.771
-47.797
-47.793
-47.753
-47.673
-47.549
-47.376
-47.15
-46.869
-46.528
-46.126
-45.661
-45.133
-44.54
-43.883
-43.163
-42.381
-41.54
-40.642
-39.692
-38.693
-37.651
-36.571
-35.461
-34.327
-33.177
-32.02
-30.865
-29.722
-28.601
-27.513
-26.47
-25.483
-24.564
-23.727
-22.983
-22.345
-21.827
-21.44
-21.198
-21.114
-21.2
-21.469
-21.932
-22.599
-23.48
-24.582
-25.912
-27.474
-29.271
-31.306
-33.58
-36.094
-38.848
-41.841
-45.072
-48.535
-52.226
-56.136
-60.251
-64.557
-69.041
-73.688
-78.491
-83.44
-88.52
-93.716
-99.01
-104.377
-109.79
-115.209
-120.579
-125.853
-130.981
-135.92
-140.637
-145.1
-149.27
-153.11
-156.571
-159.608
-162.189
-164.285
-165.871
-166.942
-167.514
-167.645
-167.431
-166.966
-166.333
-165.591
-164.796
-164.029
-163.378
-162.93
-162.782
-163
-163.656
-164.88
-166.682
-168.939
-171.402
-173.61
-175.099
-175.572
-174.668
-171.982
-167.469
-161.292
-153.968
-146.527
-139.694
-133.817
-129.283
-126.231
-124.405
-123.366
-121.619
-117.02
-107.335
-89.367
-61.7
-24.449
20.998
68.729
115.443
162.835
213.405
275.886
355.559
443.971
529.314
592.294
612.909
589.148
526.024
435.31
333.891
227.088
117.325
9.446
-90.322
-170.099
-220.568
-242.119
-243.628
-236.571
-229.145
-223.34
-215.824
-204.793
-191.736
-179.298
-170.856
-167.623
-168.496
-172.169
-177.125
-181.846
-185.158
-186.342
-185.226
-182.157
-177.817
-172.817
-167.647
-162.847
-158.945
-156.232
-154.78
-154.481
-155.068
-156.316
-158.073
-160.16
-162.42
-164.712
-166.893
-168.841
-170.47
-171.704
-172.496
-172.82
-172.657
-172.012
-170.914
-169.409
-167.558
-165.42
-163.045
-160.474
-157.748
-154.917
-152.037
-149.165
-146.358
-143.655
-141.079
-138.648
-136.373
-134.255
-132.287
-130.45
-128.719
-127.073
-125.498
-123.98
-122.504
-121.056
-119.616
-118.167
-116.692
-115.176
-113.605
-111.965
-110.245
-108.434
-106.524
-104.509
-102.384
-100.145
-97.785
-95.298
-92.68
-89.925
-87.031
-83.994
-80.814
-77.49
-74.023
-70.417
-66.675
-62.802
-58.806
-54.693
-50.472
-46.154
-41.749
-37.269
-32.727
-28.137
-23.513
-18.868
-14.219
-9.581
-4.97
-0.401
4.11
8.547
12.895
17.139
21.264
25.256
29.102
32.789
36.304
39.637
42.776
45.712
48.435
50.938
53.214
55.256
57.059
58.621
59.938
61.008
61.832
62.41
62.744
62.837
62.693
62.316
61.714
60.892
59.858
58.62
57.187
55.569
53.777
51.819
49.709
47.457
45.074
42.574
39.967
37.267
34.486
31.636
28.729
25.779
22.797
19.797
16.789
13.787
10.803
7.846
4.93
2.063
-0.743
-3.48
-6.138
-8.709
-11.185
-13.558
-15.823
-17.973
-20.003
-21.909
-23.686
-25.331
-26.841
-28.215
-29.45
-30.546
-31.504
-32.322
-33.004
-33.55
-33.962
-34.245
-34.4
-34.434
-34.349
-34.152
-33.848
-33.443
-32.945
-32.359
-31.693
-30.956
-30.153
-29.294
-28.387
-27.439
-26.457
-25.451
-24.428
-23.394
-22.358
-21.327
-20.306
-19.302
-18.322
-17.37
-16.451
-15.57
-14.729
-13.933
-13.182
-12.479
-11.824
-11.218
-10.658
-10.145
-9.674
-9.245
-8.852
-8.493
-8.162
-7.853
-7.561
-7.28
-7.002
-6.721
-6.429
-6.117
-5.779
-5.407
-4.993
-4.53
-4.012
-3.43
-2.78
-2.055
-1.251
-0.363
0.613
1.679
2.839
4.091
5.436
6.873
8.399
10.01
11.702
13.469
15.303
17.197
19.142
21.129
23.147
25.184
27.229
29.267
31.286
33.269
35.199
37.058
38.829
40.495
42.037
43.438
44.681
45.753
46.641
47.334
47.822
48.092
48.134
47.937
47.496
46.806
45.861
44.66
43.202
41.492
39.542
37.36
34.954
32.326
29.471
26.389
23.09
19.581
15.878
11.999
7.966
3.815
-0.404
-4.643
-8.855
-13.002
-17.055
-20.977
-24.719
-28.227
-31.439
-34.309
-36.807
-38.9
-40.575
-41.838
-42.714
-43.252
-43.533
-43.635
-43.648
-43.678
-43.818
-44.18
-44.869
-46.013
-47.793
-50.29
-53.455
-57.121
-60.964
-64.629
-67.853
-70.304
-71.483
-71.134
-69.361
-66.611
-63.815
-61.892
-61.343
-62.594
-66.195
-72.308
-80.345
-88.947
-95.795
-98.295
-94.394
-82.266
-60.057
-26.115
20.373
78.704
146.797
220.551
294.431
364.53
427.368
480.37
524.109
555.297
567.532
555.317
510.379
430.155
320.729
191.195
57.688
-61.939
-156.067
-218.165
-250.597
-263.89
-266.66
-263.911
-256.899
-242.188
-219.245
-191.398
-162.695
-138.24
-121.137
-111.97
-110.484
-115.626
-125.525
-138.053
-151.226
-163.136
-172.534
-178.709
-181.221
-180.074
-175.811
-169.322
-161.644
-153.902
-146.801
-140.73
-135.95
-132.451
-130.102
-128.678
-127.785
-126.936
-125.806
-124.192
-121.984
-119.205
-115.864
-111.961
-107.548
-102.699
-97.476
-91.933
-86.098
-79.975
-73.583
-66.959
-60.153
-53.231
-46.252
-39.27
-32.326
-25.45
-18.666
-11.995
-5.448
0.97
7.263
13.437
19.499
25.448
31.289
37.026
42.671
48.239
53.742
59.192
64.597
69.964
75.302
80.617
85.915
91.199
96.471
101.732
106.983
112.227
117.466
122.7
127.93
133.153
138.367
143.57
148.759
153.928
159.071
164.181
169.25
174.27
179.232
184.126
188.94
193.664
198.286
202.793
207.174
211.416
215.506
219.43
223.177
226.734
230.089
233.231
236.149
238.833
241.273
243.461
245.391
247.055
248.45
249.572
250.419
250.99
251.285
251.308
251.061
250.551
249.782
248.764
247.505
246.015
244.306
242.391
240.282
237.994
235.543
232.946
230.217
227.377
224.442
221.43
218.362
215.255
212.13
209.005
205.899
202.832
199.823
196.889
194.049
191.321
188.72
186.262
183.962
181.832
179.886
178.135
176.588
175.254
174.141
173.255
172.602
172.186
172.008
172.071
172.375
172.919
173.7
174.716
175.962
177.432
179.122
181.023
183.129
185.43
187.917
190.579
193.405
196.383
199.501
202.745
206.102
209.558
213.098
216.71
220.379
224.091
227.832
231.59
235.351
239.103
242.832
246.528
250.179
253.775
257.306
260.763
264.138
267.424
270.613
273.701
276.683
279.553
282.309
284.946
287.464
289.862
292.14
294.299
296.342
298.273
300.098
301.824
303.463
305.022
306.515
307.952
309.347
310.713
312.064
313.412
314.767
316.145
317.56
319.029
320.571
322.2
323.935
325.793
327.789
329.937
332.252
334.743
337.423
340.306
343.41
346.759
350.374
354.273
358.468
362.968
367.765
372.849
378.2
383.786
389.575
395.536
401.639
407.855
414.151
420.484
426.806
433.059
439.185
445.137
450.866
456.342
461.57
466.569
471.389
476.079
480.654
485.131
489.548
493.966
498.485
503.204
508.145
513.386
519.112
525.423
532.326
539.647
546.896
553.598
559.524
564.366
567.593
569.05
568.926
567.65
566.34
564.96
561.827
556.229
548.886
543.153
544.22
553.052
564.107
566.227
547.299
502.263
435.565
359.16
285.52
221.053
166.049
116.724
70.163
26.921
-10.656
-40.21
-61.393
-75.471
-84.574
-91.013
-96.139
-101.115
-106.874
-113.428
-120.414
-127.226
-132.561
-135.193
-134.785
-131.173
-124.613
-116.268
-107.208
-98.509
-91.808
-88.462
-89.01
-93.826
-102.963
-115.535
-130.733
-147.9
-165.766
-183.161
-199.485
-213.81
-224.83
-231.841
-233.951
-229.847
-218.927
-200.538
-173.405
-137.001
-91.689
-37.872
23.136
89.084
157.78
226.129
289.854
344.781
386.724
411.595
416.344
399.864
362.977
307.495
235.724
147.333
41.107
-79.117
-204.168
-317.991
-403.634
-453.97
-471.961
-468.91
-457.574
-444.266
-429.564
-411.456
-389.3
-365.123
-342.561
-325.189
-314.546
-310.982
-314.018
-321.686
-331.913
-343.06
-353.367
-362.007
-368.713
-372.761
-373.88
-372.506
-369.272
-365.161
-361.334
-358.295
-356.229
-355.485
-356.115
-358.018
-361.072
-364.811
-368.657
-372.292
-375.512
-378.181
-380.312
-381.887
-382.869
-383.326
-383.351
-383.013
-382.379
-381.474
-380.292
-378.857
-377.206
-375.392
-373.482
-371.532
-369.591
-367.691
-365.85
-364.082
-362.397
-360.791
-359.254
-357.771
-356.318
-354.882
-353.456
-352.026
-350.581
-349.101
-347.564
-345.95
-344.245
-342.433
-340.504
-338.448
-336.253
-333.915
-331.427
-328.787
-325.993
-323.041
-319.926
-316.646
-313.198
-309.581
-305.794
-301.84
-297.72
-293.437
-288.997
-284.407
-279.674
-274.809
-269.82
-264.719
-259.519
-254.231
-248.871
-243.451
-237.987
-232.494
-226.989
-221.486
-216.002
-210.553
-205.155
-199.823
-194.574
-189.422
-184.382
-179.469
-174.697
-170.08
-165.63
-161.36
-157.282
-153.408
-149.747
-146.309
-143.103
-140.135
-137.411
-134.936
-132.713
-130.746
-129.034
-127.578
-126.377
-125.429
-124.73
-124.277
-124.063
-124.084
-124.332
-124.799
-125.478
-126.361
-127.437
-128.697
-130.131
-131.73
-133.481
-135.375
-137.399
-139.542
-141.791
-144.135
-146.561
-149.057
-151.611
-154.21
-156.844
-159.5
-162.168
-164.835
-167.492
-170.129
-172.735
-175.303
-177.823
-180.288
-182.691
-185.025
-187.285
-189.465
-191.561
-193.569
-195.483
-197.302
-199.022
-200.64
-202.154
-203.562
-204.864
-206.057
-207.143
-208.121
-208.99
-209.752
-210.406
-210.954
-211.397
-211.736
-211.971
-212.105
-212.139
-212.074
-211.913
-211.656
-211.306
-210.863
-210.327
-209.701
-208.984
-208.176
-207.277
-206.288
-205.208
-204.036
-202.774
-201.421
-199.975
-198.438
-196.808
-195.084
-193.266
-191.354
-189.347
-187.244
-185.046
-182.752
-180.362
-177.876
-175.297
-172.623
-169.856
-166.997
-164.046
-161.006
-157.877
-154.662
-151.364
-147.984
-144.526
-140.996
-137.398
-133.737
-130.018
-126.247
-122.432
-118.578
-114.693
-110.785
-106.86
-102.928
-98.997
-95.077
-91.177
-87.305
-83.472
-79.687
-75.96
-72.302
-68.721
-65.227
-61.83
-58.541
-55.368
-52.324
-49.417
-46.659
-44.061
-41.633
-39.388
-37.333
-35.48
-33.836
-32.409
-31.206
-30.23
-29.485
-28.973
-28.696
-28.656
-28.854
-29.289
-29.962
-30.871
-32.012
-33.383
-34.977
-36.781
-38.784
-40.976
-43.346
-45.892
-48.608
-51.48
-54.497
-57.644
-60.899
-64.238
-67.623
-71.001
-74.321
-77.538
-80.611
-83.515
-86.219
-88.682
-90.869
-92.732
-94.233
-95.358
-96.089
-96.401
-96.294
-95.794
-94.968
-93.929
-92.782
-91.597
-90.424
-89.313
-88.338
-87.595
-87.174
-87.16
-87.581
-88.475
-89.95
-92.011
-94.534
-97.25
-99.613
-101.083
-101.327
-99.949
-96.511
-90.967
-83.454
-74.447
-65.144
-56.481
-48.958
-43.375
-40.248
-39.18
-39.467
-39.632
-36.906
-29.105
-14.599
9.196
44.341
91.184
149.577
216.942
287.545
357.868
425.221
486.589
542.055
587.753
615.917
619.735
590.504
525.392
430.259
314.734
194.742
86.537
0.137
-58.884
-92.747
-110.361
-118.922
-123.201
-124.573
-120.051
-108.795
-93.188
-76.68
-63.37
-55.282
-51.995
-52.386
-55.13
-58.964
-62.705
-65.134
-65.499
-63.705
-60.101
-55.316
-49.921
-44.388
-39.251
-35.021
-31.982
-30.184
-29.51
-29.716
-30.593
-31.988
-33.721
-35.633
-37.582
-39.428
-41.06
-42.389
-43.34
-43.869
-43.947
-43.559
-42.705
-41.411
-39.718
-37.682
-35.36
-32.797
-30.039
-27.127
-24.114
-21.057
-18.014
-15.041
-12.177
-9.449
-6.876
-4.47
-2.235
-0.168
1.744
3.521
5.176
6.721
8.163
9.513
10.783
11.987
13.139
14.253
15.341
16.416
17.488
18.568
19.665
20.787
21.94
23.129
24.361
25.645
26.989
28.402
29.89
31.462
33.123
34.881
36.739
38.701
40.769
42.945
45.227
47.615
50.108
52.702
55.394
58.178
61.048
63.998
67.02
70.104
73.24
76.419
79.629
82.857
86.092
89.322
92.532
95.71
98.843
101.916
104.916
107.83
110.643
113.342
115.915
118.347
120.628
122.746
124.689
126.448
128.013
129.378
130.534
131.475
132.197
132.695
132.967
133.009
132.822
132.407
131.763
130.894
129.805
128.498
126.982
125.261
123.343
121.238
118.954
116.501
113.89
111.132
108.239
105.225
102.101
98.881
95.579
92.21
88.786
85.321
81.83
78.326
74.823
71.332
67.868
64.441
61.064
57.747
54.5
51.335
48.258
45.278
42.403
39.639
36.991
34.463
32.059
29.783
27.637
25.62
23.735
21.98
20.355
18.858
17.486
16.236
15.103
14.084
13.174
12.367
11.659
11.042
10.513
10.064
9.69
9.386
9.144
8.961
8.83
8.746
8.704
8.699
8.728
8.787
8.872
8.981
9.111
9.261
9.429
9.615
9.819
10.039
10.278
10.537
10.816
11.118
11.446
11.803
12.192
12.618
13.082
13.59
14.146
14.752
15.413
16.132
16.912
17.758
18.672
19.656
20.714
21.847
23.057
24.345
25.71
27.154
28.674
30.269
31.938
33.676
35.482
37.35
39.278
41.258
43.286
45.354
47.455
49.581
51.723
53.872
56.017
58.148
60.254
62.324
64.347
66.311
68.204
70.014
71.729
73.336
74.821
76.171
77.371
78.41
79.275
79.953
80.436
80.712
80.774
80.617
80.235
79.624
78.776
77.688
76.356
74.777
72.95
70.877
68.559
65.999
63.209
60.2
56.983
53.564
49.946
46.132
42.133
37.963
33.638
29.18
24.618
19.986
15.336
10.717
6.176
1.755
-2.52
-6.619
-10.502
-14.126
-17.441
-20.4
-22.98
-25.161
-26.918
-28.254
-29.196
-29.8
-30.165
-30.383
-30.51
-30.615
-30.765
-31.032
-31.515
-32.303
-33.451
-35.041
-37.164
-39.831
-42.982
-46.423
-49.785
-52.692
-54.835
-55.865
-55.392
-53.211
-49.362
-44.177
-38.36
-32.586
-27.168
-22.382
-18.667
-16.134
-14.401
-12.587
-9.015
-1.835
10.115
27.846
52.898
86.552
129.548
182.195
241.863
303.657
364.218
419.975
470.747
520.812
568.821
611.167
639.535
636.967
595.443
512.488
391.044
250.767
109.588
-15.317
-104.993
-156.098
-170.864
-156.04
-126.156
-91.975
-62.418
-43.469
-36.938
-40.948
-49.44
-58
-62.68
-62.537
-61.383
-60.746
-61.05
-62.115
-61.584
-58.614
-53.828
-47.777
-41.418
-35.568
-30.589
-26.718
-24.112
-22.707
-22.282
-22.667
-23.721
-25.278
-27.194
-29.35
-31.592
-33.797
-35.876
-37.717
-39.228
-40.36
-41.07
-41.345
-41.198
-40.652
-39.747
-38.538
-37.072
-35.392
-33.541
-31.558
-29.491
-27.397
-25.329
-23.341
-21.468
-19.733
-18.15
-16.725
-15.453
-14.323
-13.313
-12.4
-11.563
-10.787
-10.055
-9.353
-8.663
-7.967
-7.245
-6.48
-5.656
-4.759
-3.775
-2.691
-1.5
-0.193
1.235
2.79
4.477
6.302
8.271
10.389
12.659
15.085
17.668
20.407
23.302
26.349
29.541
32.873
36.336
39.921
43.619
47.416
51.301
55.26
59.279
63.343
67.434
71.536
75.632
79.704
83.734
87.705
91.598
95.397
99.083
102.639
106.049
109.295
112.363
115.236
117.9
120.341
122.546
124.503
126.202
127.633
128.788
129.662
130.248
130.545
130.549
130.259
129.677
128.804
127.643
126.201
124.481
122.492
120.243
117.743
115.003
112.033
108.848
105.46
101.882
98.13
94.218
90.162
85.977
81.681
77.291
72.823
68.294
63.722
59.124
54.517
49.917
45.34
40.8
36.314
31.895
27.555
23.308
19.165
15.137
11.233
7.462
3.832
0.348
-2.984
-6.16
-9.177
-12.033
-14.727
-17.258
-19.628
-21.838
-23.892
-25.792
-27.544
-29.152
-30.624
-31.966
-33.186
-34.293
-35.295
-36.202
-37.023
-37.768
-38.446
-39.067
-39.641
-40.177
-40.684
-41.171
-41.646
-42.116
-42.589
-43.072
-43.568
-44.085
-44.625
-45.191
-45.788
-46.415
-47.074
-47.766
-48.488
-49.241
-50.022
-50.826
-51.651
-52.49
-53.34
-54.192
-55.039
-55.874
-56.688
-57.472
-58.218
-58.914
-59.553
-60.124
-60.617
-61.023
-61.334
-61.541
-61.635
-61.609
-61.457
-61.173
-60.751
-60.188
-59.478
-58.62
-57.612
-56.453
-55.143
-53.683
-52.076
-50.324
-48.432
-46.406
-44.252
-41.978
-39.591
-37.102
-34.521
-31.861
-29.135
-26.355
-23.536
-20.695
-17.846
-15.006
-12.194
-9.424
-6.713
-4.079
-1.538
0.894
3.201
5.366
7.375
9.208
10.851
12.287
13.501
14.48
15.21
15.68
15.882
15.81
15.46
14.828
13.91
12.701
11.202
9.415
7.343
4.993
2.372
-0.512
-3.643
-7
-10.567
-14.329
-18.278
-22.415
-26.732
-31.216
-35.85
-40.614
-45.488
-50.45
-55.465
-60.482
-65.455
-70.338
-75.097
-79.707
-84.129
-88.309
-92.187
-95.691
-98.766
-101.384
-103.521
-105.153
-106.281
-106.911
-107.068
-106.837
-106.304
-105.554
-104.699
-103.832
-103.043
-102.495
-102.395
-102.884
-103.997
-105.591
-107.33
-108.894
-110.024
-110.408
-109.664
-107.529
-104.024
-99.675
-95.516
-92.642
-91.872
-93.794
-98.844
-107.059
-117.898
-129.895
-140.567
-147.02
-146.535
-136.776
-115.667
-81.741
-34.328
26.012
97.182
175.973
258.477
340.507
417.505
484.63
537.137
571.189
584.038
575.014
545.946
497.889
432.333
350.928
253.762
146.982
41.387
-52.463
-122.528
-165.344
-186.943
-193.456
-192.838
-189.019
-179.982
-166.261
-149.435
-131.953
-117.866
-108.782
-104.367
-103.891
-105.967
-109.169
-112.285
-114.094
-113.909
-111.767
-108.085
-103.435
-98.351
-93.312
-88.817
-85.357
-83.187
-82.293
-82.509
-83.571
-85.253
-87.387
-89.792
-92.272
-94.658
-96.799
-98.573
-99.918
-100.793
-101.165
-101.027
-100.375
-99.225
-97.623
-95.629
-93.302
-90.697
-87.863
-84.844
-81.695
-78.477
-75.252
-72.084
-69.014
-66.07
-63.272
-60.632
-58.157
-55.846
-53.686
-51.657
-49.742
-47.929
-46.208
-44.571
-43.005
-41.493
-40.021
-38.573
-37.136
-35.698
-34.246
-32.769
-31.257
-29.7
-28.094
-26.431
-24.706
-22.91
-21.035
-19.075
-17.021
-14.869
-12.612
-10.244
-7.763
-5.166
-2.452
0.377
3.322
6.379
9.545
12.815
16.183
19.642
23.185
26.804
30.488
34.226
38.007
41.818
45.645
49.475
53.293
57.082
60.828
64.516
68.128
71.65
75.067
78.363
81.523
84.533
87.378
90.046
92.523
94.797
96.856
98.69
100.29
101.648
102.756
103.608
104.199
104.526
104.585
104.376
103.897
103.15
102.135
100.857
99.319
97.528
95.49
93.213
90.707
87.982
85.049
81.92
78.607
75.124
71.486
67.705
63.798
59.78
55.666
51.473
47.217
42.915
38.584
34.238
29.896
25.571
21.28
17.038
12.858
8.756
4.743
0.834
-2.961
-6.629
-10.161
-13.548
-16.78
-19.851
-22.755
-25.487
-28.042
-30.42
-32.617
-34.633
-36.469
-38.125
-39.604
-40.909
-42.045
-43.015
-43.826
-44.485
-44.998
-45.374
-45.622
-45.748
-45.764
-45.677
-45.497
-45.233
-44.894
-44.489
-44.028
-43.52
-42.973
-42.395
-41.795
-41.18
-40.555
-39.928
-39.302
-38.683
-38.073
-37.475
-36.892
-36.323
-35.771
-35.234
-34.712
-34.203
-33.705
-33.213
-32.724
-32.234
-31.736
-31.225
-30.696
-30.141
-29.555
-28.932
-28.265
-27.549
-26.776
-25.942
-25.04
-24.065
-23.012
-21.877
-20.654
-19.342
-17.938
-16.441
-14.85
-13.167
-11.393
-9.529
-7.58
-5.55
-3.442
-1.263
0.982
3.284
5.635
8.026
10.447
12.887
15.334
17.777
20.202
22.596
24.948
27.244
29.471
31.615
33.662
35.6
37.414
39.091
40.616
41.973
43.15
44.133
44.911
45.471
45.805
45.904
45.763
45.38
44.75
43.872
42.742
41.359
39.722
37.835
35.701
33.325
30.714
27.877
24.831
21.591
18.173
14.586
10.833
6.917
2.851
-1.352
-5.675
-10.093
-14.583
-19.112
-23.63
-28.09
-32.446
-36.659
-40.706
-44.557
-48.177
-51.518
-54.522
-57.136
-59.332
-61.081
-62.362
-63.185
-63.571
-63.578
-63.304
-62.825
-62.218
-61.574
-60.976
-60.511
-60.273
-60.323
-60.759
-61.748
-63.378
-65.614
-68.278
-71.021
-73.516
-75.578
-76.945
-77.117
-75.713
-72.74
-68.656
-64.362
-60.595
-57.606
-55.594
-55.261
-57.451
-61.172
-63.465
-61.317
-51.852
-36.695
-21.877
-8.669
4.593
24.295
63.931
129.174
219.305
330.435
448.092
558.395
649.889
708.36
727.421
708.073
653.863
575.068
480.952
373.888
258.156
139.359
26.072
-67.34
-132.364
-169.601
-186.566
-194.187
-198.649
-199.4
-192.328
-175.401
-150.679
-122.508
-95.518
-72.054
-52.682
-38.088
-28.853
-24.855
-25.428
-29.46
-35.926
-44.297
-53.895
-63.389
-71.424
-77.259
-80.718
-82.094
-81.806
-80.064
-77.27
-74.261
-71.796
-70.307
-69.946
-70.532
-71.767
-73.457
-75.344
-77.04
-78.274
-78.91
-78.893
-78.309
-77.265
-75.823
-74.061
-72.073
-69.91
-67.612
-65.216
-62.739
-60.22
-57.718
-55.275
-52.925
-50.692
-48.584
-46.609
-44.77
-43.057
-41.455
-39.952
-38.544
-37.227
-36.003
-34.865
-33.8
-32.796
-31.838
-30.91
-29.999
-29.088
-28.165
-27.22
-26.242
-25.225
-24.161
-23.041
-21.856
-20.595
-19.248
-17.805
-16.258
-14.6
-12.822
-10.922
-8.895
-6.739
-4.455
-2.042
0.5
3.168
5.96
8.87
11.893
15.023
18.253
21.574
24.976
28.448
31.979
35.555
39.165
42.792
46.424
50.043
53.635
57.184
60.672
64.085
67.406
70.618
73.707
76.658
79.455
82.085
84.533
86.789
88.84
90.676
92.287
93.667
94.807
95.702
96.347
96.74
96.877
96.758
96.383
95.752
94.869
93.738
92.362
90.748
88.903
86.836
84.555
82.072
79.398
76.544
73.525
70.353
67.043
63.61
60.07
56.439
52.732
48.966
45.159
41.326
37.484
33.649
29.837
26.064
22.343
18.69
15.117
11.638
8.264
5.006
1.874
-1.121
-3.972
-6.672
-9.213
-11.591
-13.801
-15.841
-17.708
-19.402
-20.923
-22.271
-23.449
-24.461
-25.31
-26.002
-26.543
-26.94
-27.201
-27.335
-27.351
-27.26
-27.071
-26.795
-26.443
-26.026
-25.555
-25.04
-24.492
-23.922
-23.338
-22.75
-22.168
-21.6
-21.054
-20.537
-20.056
-19.616
-19.222
-18.879
-18.59
-18.357
-18.182
-18.065
-18.008
-18.009
-18.067
-18.178
-18.34
-18.548
-18.795
-19.077
-19.386
-19.714
-20.052
-20.394
-20.729
-21.049
-21.346
-21.61
-21.832
-22.004
-22.117
-22.164
-22.135
-22.024
-21.824
-21.529
-21.132
-20.63
-20.019
-19.295
-18.457
-17.503
-16.432
-15.245
-13.942
-12.526
-10.999
-9.365
-7.631
-5.802
-3.886
-1.892
0.171
2.291
4.457
6.657
8.879
11.109
13.333
15.539
17.712
19.838
21.902
23.891
25.788
27.576
29.239
30.762
32.13
33.329
34.344
35.164
35.779
36.183
36.371
36.336
36.074
35.578
34.845
33.873
32.663
31.217
29.54
27.638
25.524
23.216
20.729
18.075
15.261
12.286
9.153
5.871
2.45
-1.091
-4.73
-8.44
-12.184
-15.912
-19.579
-23.142
-26.566
-29.829
-32.894
-35.722
-38.266
-40.468
-42.28
-43.66
-44.577
-45.027
-45.026
-44.606
-43.822
-42.738
-41.418
-39.961
-38.461
-37.009
-35.729
-34.702
-34.05
-33.988
-34.584
-35.783
-37.408
-38.987
-40.048
-40.319
-39.348
-36.616
-32.126
-26.116
-19.29
-13.183
-8.995
-7.435
-9.46
-15.652
-25.486
-37.893
-50.684
-60.182
-63.317
-57.492
-39.703
-7.815
38.829
99.854
172.951
253.561
337.154
418.902
492.64
552.463
593.485
611.452
604.961
576.218
526.285
456.605
369.186
264.016
148.044
33.768
-66.756
-140.137
-182.752
-201.395
-202.787
-195.278
-182.972
-164.027
-139.724
-112.624
-85.95
-64.425
-50.384
-44.445
-46.422
-54.733
-67.179
-81.245
-94.581
-105.829
-114.291
-119.419
-121.088
-119.576
-115.566
-110.34
-105.232
-100.956
-97.872
-96.236
-96.076
-97.354
-99.951
-103.429
-107.248
-111.08
-114.712
-118.003
-120.935
-123.465
-125.532
-127.168
-128.43
-129.356
-129.985
-130.333
-130.392
-130.179
-129.722
-129.052
-128.217
-127.267
-126.243
-125.193
-124.146
-123.124
-122.142
-121.208
-120.322
-119.479
-118.664
-117.858
-117.048
-116.221
-115.362
-114.458
-113.487
-112.431
-111.273
-109.998
-108.594
-107.05
-105.355
-103.501
-101.482
-99.297
-96.942
-94.418
-91.724
-88.86
-85.827
-82.627
-79.264
-75.741
-72.065
-68.241
-64.278
-60.183
-55.969
-51.647
-47.23
-42.732
-38.167
-33.552
-28.903
-24.238
-19.575
-14.931
-10.326
-5.778
-1.305
3.075
7.343
11.482
15.475
19.307
22.961
26.424
29.681
32.721
35.532
38.104
40.43
42.502
44.314
45.862
47.142
48.153
48.894
49.367
49.574
49.519
49.207
48.645
47.841
46.805
45.547
44.078
42.411
40.559
38.537
36.359
34.041
31.598
29.046
26.402
23.683
20.905
18.085
15.239
12.383
9.533
6.703
3.909
1.163
-1.521
-4.13
-6.654
-9.082
-11.404
-13.611
-15.694
-17.647
-19.463
-21.138
-22.666
-24.044
-25.271
-26.345
-27.266
-28.035
-28.654
-29.125
-29.451
-29.637
-29.689
-29.611
-29.411
-29.096
-28.674
-28.152
-27.54
-26.847
-26.082
-25.254
-24.371
-23.443
-22.48
-21.488
-20.478
-19.456
-18.431
-17.41
-16.401
-15.411
-14.445
-13.51
-12.611
-11.753
-10.941
-10.177
-9.465
-8.807
-8.205
-7.659
-7.171
-6.74
-6.363
-6.041
-5.768
-5.543
-5.361
-5.218
-5.107
-5.023
-4.959
-4.91
-4.868
-4.827
-4.778
-4.717
-4.635
-4.525
-4.382
-4.198
-3.967
-3.682
-3.337
-2.926
-2.443
-1.883
-1.24
-0.51
0.311
1.227
2.24
3.353
4.567
5.884
7.303
8.824
10.444
12.162
13.974
15.875
17.861
19.924
22.058
24.255
26.507
28.806
31.14
33.501
35.879
38.262
40.64
43.003
45.336
47.629
49.869
52.043
54.135
56.132
58.019
59.781
61.404
62.873
64.177
65.301
66.236
66.972
67.5
67.812
67.899
67.754
67.37
66.741
65.862
64.73
63.343
61.7
59.809
57.676
55.307
52.705
49.87
46.802
43.512
40.006
36.294
32.395
28.329
24.131
19.854
15.545
11.252
7.017
2.868
-1.162
-5.031
-8.698
-12.118
-15.251
-18.082
-20.589
-22.747
-24.553
-26.028
-27.243
-28.308
-29.327
-30.38
-31.52
-32.808
-34.322
-36.15
-38.377
-41.076
-44.263
-47.978
-52.314
-57.264
-62.716
-68.403
-73.802
-78.387
-81.769
-83.492
-83.109
-80.517
-75.771
-69.332
-62.275
-55.523
-49.784
-45.877
-44.216
-44.415
-45.81
-46.99
-45.394
-38.528
-23.97
0.941
36.891
82.27
135.833
196.246
263.804
340.46
423.578
504.329
568.462
601.471
596.199
556.378
495.599
426.221
354.495
280.32
196.96
105.316
15.051
-62.696
-114.451
-137.75
-141.287
-133.352
-123.54
-115.705
-106.997
-97.148
-86.512
-76.152
-69.045
-65.963
-66.096
-68.622
-72.081
-75.095
-76.744
-76.485
-74.272
-70.483
-65.733
-60.556
-55.391
-50.725
-46.996
-44.443
-43.127
-42.948
-43.677
-45.121
-47.136
-49.559
-52.247
-55.065
-57.873
-60.55
-63.002
-65.153
-66.952
-68.373
-69.392
-70.007
-70.238
-70.12
-69.705
-69.043
-68.172
-67.131
-65.955
-64.689
-63.386
-62.1
-60.879
-59.76
-58.761
-57.898
-57.177
-56.597
-56.149
-55.814
-55.568
-55.389
-55.264
-55.177
-55.116
-55.061
-54.996
-54.901
-54.759
-54.555
-54.272
-53.897
-53.417
-52.822
-52.101
-51.249
-50.258
-49.122
-47.834
-46.385
-44.77
-42.982
-41.017
-38.87
-36.538
-34.021
-31.319
-28.434
-25.371
-22.135
-18.731
-15.169
-11.458
-7.608
-3.631
0.459
4.649
8.924
13.266
17.659
22.085
26.526
30.964
35.378
39.75
44.061
48.292
52.425
56.44
60.32
64.047
67.604
70.976
74.147
77.102
79.829
82.316
84.551
86.527
88.234
89.667
90.82
91.692
92.279
92.581
92.6
92.338
91.799
90.99
89.917
88.589
87.015
85.208
83.179
80.941
78.508
75.896
73.119
70.193
67.136
63.964
60.695
57.346
53.934
50.476
46.991
43.493
40.001
36.528
33.091
29.703
26.379
23.131
19.971
16.912
13.963
11.134
8.434
5.869
3.446
1.169
-0.957
-2.93
-4.749
-6.413
-7.924
-9.283
-10.492
-11.557
-12.481
-13.27
-13.931
-14.472
-14.899
-15.222
-15.448
-15.588
-15.649
-15.641
-15.572
-15.452
-15.287
-15.088
-14.862
-14.617
-14.361
-14.101
-13.845
-13.6
-13.372
-13.166
-12.987
-12.839
-12.727
-12.653
-12.619
-12.626
-12.676
-12.769
-12.902
-13.075
-13.284
-13.526
-13.796
-14.088
-14.396
-14.715
-15.038
-15.358
-15.668
-15.961
-16.229
-16.466
-16.666
-16.822
-16.928
-16.978
-16.966
-16.888
-16.739
-16.516
-16.213
-15.825
-15.348
-14.78
-14.121
-13.373
-12.537
-11.613
-10.605
-9.515
-8.351
-7.118
-5.821
-4.459
-3.035
-1.556
-0.033
1.517
3.081
4.652
6.226
7.799
9.363
10.906
12.419
13.9
15.345
16.746
18.085
19.328
20.443
21.404
22.2
22.832
23.289
23.543
23.554
23.26
22.634
21.674
20.386
18.793
16.887
14.619
12.01
9.161
6.118
2.889
-0.679
-4.951
-10.084
-15.96
-22.396
-29.118
-35.848
-42.425
-48.27
-52.289
-53.769
-52.524
-48.905
-43.958
-38.659
-33.516
-29.504
-28.196
-30.832
-38.173
-49.91
-64.321
-79.685
-95.003
-109.125
-120.616
-128.129
-130.397
-127.287
-120.26
-111.019
-100.703
-90.214
-80.305
-71.856
-66.051
-63.401
-63.317
-64.72
-66.6
-68.289
-69.489
-69.829
-68.653
-65.555
-60.703
-54.959
-49.662
-46.033
-44.899
-46.827
-52.295
-61.439
-73.798
-87.924
-101.336
-111.125
-114.516
-109.097
-92.687
-63.678
-21.279
34.087
100.434
174.602
252.783
330.833
404.004
467.396
516.302
546.626
556.65
546.934
518.655
472.877
408.521
323.527
220.091
106.88
-0.428
-84.926
-136.891
-157.473
-158.183
-151.444
-144.639
-139.249
-131.169
-118.553
-103.326
-88.248
-76.933
-70.87
-69.156
-70.64
-73.961
-77.534
-80.056
-80.815
-79.573
-76.629
-72.609
-68.026
-63.28
-58.889
-55.394
-53.086
-52.053
-52.181
-53.188
-54.856
-57.031
-59.532
-62.183
-64.828
-67.308
-69.492
-71.323
-72.751
-73.742
-74.286
-74.368
-73.99
-73.188
-72.012
-70.514
-68.75
-66.762
-64.586
-62.272
-59.875
-57.455
-55.074
-52.773
-50.58
-48.513
-46.584
-44.803
-43.172
-41.68
-40.306
-39.035
-37.855
-36.758
-35.735
-34.775
-33.861
-32.978
-32.111
-31.248
-30.377
-29.488
-28.568
-27.609
-26.602
-25.542
-24.425
-23.243
-21.99
-20.657
-19.237
-17.723
-16.108
-14.388
-12.555
-10.606
-8.539
-6.353
-4.047
-1.621
0.922
3.581
6.351
9.228
12.206
15.278
18.437
21.673
24.976
28.335
31.738
35.172
38.624
42.081
45.527
48.949
52.33
55.655
58.91
62.078
65.144
68.092
70.906
73.573
76.078
78.407
80.546
82.484
84.208
85.708
86.974
87.997
88.771
89.289
89.544
89.535
89.257
88.71
87.894
86.81
85.461
83.851
81.986
79.872
77.517
74.931
72.122
69.104
65.889
62.489
58.919
55.194
51.33
47.342
43.248
39.063
34.806
30.494
26.144
21.774
17.4
13.04
8.711
4.429
0.209
-3.933
-7.983
-11.928
-15.754
-19.452
-23.01
-26.418
-29.669
-32.756
-35.672
-38.414
-40.977
-43.359
-45.561
-47.582
-49.423
-51.088
-52.581
-53.905
-55.066
-56.071
-56.927
-57.64
-58.22
-58.674
-59.012
-59.242
-59.375
-59.42
-59.387
-59.284
-59.123
-58.911
-58.658
-58.372
-58.062
-57.733
-57.393
-57.049
-56.705
-56.366
-56.036
-55.718
-55.414
-55.124
-54.85
-54.59
-54.343
-54.106
-53.875
-53.648
-53.421
-53.187
-52.942
-52.681
-52.398
-52.088
-51.743
-51.358
-50.926
-50.442
-49.9
-49.292
-48.615
-47.861
-47.026
-46.107
-45.098
-43.998
-42.803
-41.511
-40.122
-38.634
-37.05
-35.369
-33.595
-31.73
-29.779
-27.746
-25.638
-23.463
-21.229
-18.942
-16.613
-14.253
-11.87
-9.476
-7.081
-4.697
-2.336
-0.009
2.271
4.49
6.637
8.697
10.657
12.501
14.218
15.792
17.21
18.461
19.532
20.413
21.096
21.573
21.838
21.885
21.708
21.303
20.666
19.794
18.684
17.337
15.753
13.933
11.889
9.629
7.162
4.495
1.629
-1.434
-4.681
-8.101
-11.684
-15.41
-19.255
-23.182
-27.134
-31.061
-34.912
-38.645
-42.229
-45.632
-48.813
-51.732
-54.344
-56.615
-58.529
-60.068
-61.207
-61.944
-62.305
-62.367
-62.248
-62.063
-61.901
-61.822
-61.892
-62.194
-62.824
-63.874
-65.422
-67.486
-70.103
-73.369
-77.295
-81.773
-86.512
-90.947
-94.49
-96.706
-97.133
-95.319
-91.127
-84.618
-76.334
-67.494
-59.212
-52.334
-47.681
-45.643
-45.873
-47.599
-49.061
-47.357
-39.719
-23.574
3.521
43.011
95.101
159.077
232.504
311.064
389.877
463.61
526.485
573.315
599.964
603.106
582.326
540.506
481.18
408.015
322.453
224.392
117.492
10.614
-81.845
-145.76
-175.454
-174.952
-156.998
-135.043
-116.51
-103.248
-92.412
-81.72
-71.569
-63.289
-58.759
-58.279
-60.549
-64.02
-67.006
-68.306
-67.579
-64.922
-60.71
-55.566
-50.066
-44.713
-40.018
-36.409
-34.071
-32.995
-33.053
-34.003
-35.623
-37.741
-40.167
-42.71
-45.21
-47.517
-49.506
-51.11
-52.283
-52.991
-53.227
-52.986
-52.282
-51.158
-49.667
-47.863
-45.799
-43.522
-41.079
-38.526
-35.925
-33.339
-30.832
-28.444
-26.203
-24.127
-22.226
-20.503
-18.954
-17.563
-16.308
-15.169
-14.133
-13.186
-12.316
-11.507
-10.738
-9.993
-9.251
-8.497
-7.715
-6.891
-6.01
-5.061
-4.032
-2.915
-1.703
-0.386
1.047
2.604
4.297
6.133
8.119
10.264
12.572
15.048
17.692
20.505
23.484
26.627
29.928
33.381
36.978
40.711
44.569
48.541
52.614
56.774
61.008
65.298
69.63
73.985
78.346
82.695
87.013
91.283
95.485
99.602
103.614
107.503
111.252
114.843
118.258
121.481
124.496
127.289
129.847
132.155
134.205
135.987
137.493
138.717
139.654
140.3
140.655
140.717
140.488
139.97
139.167
138.084
136.727
135.103
133.223
131.095
128.729
126.139
123.336
120.333
117.145
113.785
110.269
106.612
102.831
98.941
94.96
90.904
86.79
82.635
78.454
74.265
70.082
65.92
61.793
57.714
53.696
49.752
45.891
42.124
38.459
34.907
31.472
28.162
24.982
21.936
19.028
16.26
13.634
11.15
8.809
6.609
4.55
2.628
0.84
-0.818
-2.35
-3.762
-5.06
-6.25
-7.339
-8.334
-9.243
-10.073
-10.831
-11.525
-12.162
-12.748
-13.292
-13.799
-14.275
-14.728
-15.161
-15.58
-15.991
-16.395
-16.798
-17.201
-17.608
-18.02
-18.437
-18.862
-19.294
-19.731
-20.175
-20.622
-21.07
-21.517
-21.959
-22.391
-22.811
-23.212
-23.589
-23.937
-24.251
-24.523
-24.749
-24.923
-25.038
-25.088
-25.068
-24.973
-24.796
-24.533
-24.18
-23.731
-23.184
-22.536
-21.784
-20.927
-19.963
-18.893
-17.716
-16.433
-15.047
-13.56
-11.974
-10.295
-8.526
-6.674
-4.746
-2.748
-0.689
1.422
3.577
5.765
7.976
10.197
12.419
14.628
16.811
18.955
21.047
23.072
25.015
26.862
28.597
30.206
31.674
32.987
34.13
35.091
35.859
36.422
36.771
36.897
36.792
36.45
35.863
35.027
33.937
32.589
30.979
29.107
26.974
24.586
21.951
19.077
15.969
12.632
9.074
5.304
1.34
-2.804
-7.109
-11.551
-16.096
-20.696
-25.301
-29.865
-34.348
-38.72
-42.952
-47.01
-50.854
-54.442
-57.738
-60.715
-63.36
-65.653
-67.583
-69.152
-70.4
-71.416
-72.296
-73.122
-73.949
-74.793
-75.693
-76.713
-77.929
-79.419
-81.249
-83.428
-85.993
-89.061
-92.627
-96.551
-100.528
-103.971
-106.342
-107.325
-106.527
-103.514
-98.25
-90.92
-82.124
-73.175
-65.083
-58.4
-53.929
-52.206
-52.9
-55.257
-57.568
-56.971
-51.288
-38.643
-16.518
17.028
62.829
119.934
184.728
252.576
320.363
387.806
455.404
520.732
576.696
610.592
610.118
570.589
496.284
400.597
298.134
198.488
106.092
20.351
-58.214
-126.429
-180.777
-217.738
-236.312
-238.061
-225.715
-202.897
-174.06
-143.637
-115.201
-91.496
-74.218
-64.283
-61.913
-66.55
-76.502
-89.385
-103.03
-115.524
-125.606
-132.51
-135.723
-135.173
-131.355
-125.205
-117.824
-110.376
-103.649
-98.081
-93.961
-91.313
-89.999
-89.801
-90.341
-91.144
-91.889
-92.39
-92.557
-92.458
-92.184
-91.767
-91.253
-90.671
-89.987
-89.192
-88.281
-87.22
-86.007
-84.647
-83.148
-81.556
-79.931
-78.307
-76.703
-75.095
-73.422
-71.664
-69.822
-67.921
-66.013
-64.126
-62.271
-60.466
-58.731
-57.077
-55.508
-54.01
-52.547
-51.102
-49.667
-48.25
-46.878
-45.555
-44.273
-43.014
-41.748
-40.453
-39.113
-37.707
-36.211
-34.606
-32.879
-31.028
-29.061
-26.981
-24.786
-22.471
-20.029
-17.46
-14.765
-11.951
-9.022
-5.988
-2.856
0.362
3.652
7.001
10.397
13.828
17.285
20.758
24.233
27.695
31.131
34.526
37.863
41.127
44.301
47.367
50.31
53.115
55.768
58.253
60.558
62.669
64.574
66.261
67.72
68.941
69.914
70.633
71.09
71.282
71.203
70.851
70.225
69.324
68.15
66.706
64.993
63.018
60.786
58.305
55.582
52.627
49.451
46.064
42.48
38.711
34.773
30.679
26.446
22.089
17.623
13.066
8.435
3.745
-0.985
-5.74
-10.501
-15.252
-19.978
-24.661
-29.286
-33.839
-38.305
-42.671
-46.925
-51.054
-55.047
-58.895
-62.589
-66.121
-69.483
-72.672
-75.681
-78.508
-81.15
-83.606
-85.877
-87.963
-89.866
-91.589
-93.136
-94.511
-95.72
-96.769
-97.664
-98.414
-99.027
-99.51
-99.874
-100.128
-100.281
-100.344
-100.325
-100.235
-100.083
-99.879
-99.632
-99.35
-99.042
-98.716
-98.379
-98.039
-97.7
-97.37
-97.051
-96.749
-96.466
-96.203
-95.964
-95.748
-95.554
-95.382
-95.231
-95.098
-94.981
-94.875
-94.776
-94.679
-94.578
-94.467
-94.339
-94.188
-94.007
-93.788
-93.526
-93.213
-92.844
-92.413
-91.912
-91.336
-90.677
-89.932
-89.096
-88.166
-87.141
-86.018
-84.796
-83.475
-82.058
-80.544
-78.937
-77.236
-75.443
-73.562
-71.603
-69.573
-67.484
-65.345
-63.158
-60.929
-58.668
-56.384
-54.088
-51.789
-49.496
-47.22
-44.979
-42.791
-40.68
-38.659
-36.738
-34.922
-33.211
-31.623
-30.193
-28.957
-27.956
-27.208
-26.696
-26.423
-26.402
-26.638
-27.163
-27.953
-28.897
-30.026
-31.491
-33.418
-35.988
-39.176
-42.664
-46.324
-50.239
-54.219
-57.928
-60.983
-62.774
-63.29
-63.225
-62.941
-62.517
-62.268
-62.498
-63.685
-66.696
-71.553
-77.357
-83.55
-89.776
-95.638
-100.97
-105.344
-107.928
-108.573
-107.81
-105.98
-103.381
-100.216
-96.407
-92.101
-87.702
-83.322
-78.847
-74.242
-69.467
-64.601
-59.89
-55.485
-51.495
-48.14
-45.565
-43.794
-42.735
-42.076
-41.482
-40.747
-39.602
-37.616
-34.517
-30.321
-25.383
-20.571
-16.665
-13.933
-12.553
-12.838
-14.848
-18.154
-21.609
-22.98
-19.962
-11.103
5.058
30.229
65.86
113.256
171.772
237.619
306.871
376.38
444.813
514.857
587.368
657.971
718.645
755.18
753.366
708.379
620.914
498.369
357.035
210.403
73.626
-35.035
-108.875
-146.659
-155.096
-151.461
-145.491
-140.409
-135.132
-122.822
-102.007
-76.001
-48.262
-23.248
-3.147
11.799
21.104
25.159
24.924
21.3
15.196
7.281
-1.732
-10.582
-17.962
-23.162
-26.023
-26.81
-25.917
-23.588
-20.246
-16.741
-13.837
-11.959
-11.253
-11.546
-12.549
-14.074
-15.86
-17.507
-18.739
-19.412
-19.472
-19.003
-18.11
-16.847
-15.289
-13.526
-11.607
-9.57
-7.449
-5.256
-3.027
-0.821
1.322
3.369
5.297
7.101
8.775
10.317
11.74
13.063
14.299
15.455
16.537
17.546
18.491
19.386
20.247
21.091
21.935
22.794
23.684
24.62
25.612
26.668
27.795
28.998
30.283
31.66
33.136
34.719
36.416
38.232
40.172
42.241
44.441
46.772
49.234
51.825
54.542
57.384
60.347
63.426
66.614
69.905
73.291
76.762
80.307
83.915
87.574
91.268
94.985
98.709
102.424
106.114
109.763
113.354
116.871
120.297
123.615
126.809
129.864
132.763
135.494
138.041
140.391
142.533
144.453
146.143
147.591
148.791
149.733
150.411
150.82
150.954
150.812
150.39
149.689
148.708
147.451
145.919
144.119
142.055
139.734
137.166
134.358
131.323
128.07
124.613
120.965
117.14
113.153
109.018
104.753
100.372
95.891
91.328
86.696
82.014
77.296
72.56
67.819
63.09
58.388
53.728
49.123
44.587
40.132
35.772
31.516
27.376
23.36
19.478
15.738
12.145
8.707
5.428
2.311
-0.639
-3.423
-6.038
-8.486
-10.768
-12.887
-14.845
-16.647
-18.297
-19.8
-21.161
-22.387
-23.483
-24.457
-25.316
-26.066
-26.715
-27.271
-27.741
-28.133
-28.454
-28.71
-28.909
-29.057
-29.161
-29.228
-29.262
-29.271
-29.259
-29.231
-29.192
-29.146
-29.097
-29.046
-28.995
-28.945
-28.898
-28.851
-28.805
-28.758
-28.707
-28.65
-28.584
-28.505
-28.409
-28.291
-28.148
-27.974
-27.765
-27.515
-27.221
-26.877
-26.48
-26.025
-25.508
-24.926
-24.273
-23.547
-22.744
-21.861
-20.895
-19.843
-18.704
-17.476
-16.159
-14.753
-13.26
-11.681
-10.02
-8.279
-6.464
-4.581
-2.636
-0.637
1.409
3.491
5.599
7.723
9.851
11.972
14.073
16.142
18.168
20.137
22.037
23.855
25.578
27.194
28.686
30.039
31.24
32.272
33.122
33.777
34.222
34.446
34.443
34.205
33.727
33.003
32.027
30.795
29.305
27.556
25.548
23.284
20.769
18.009
15.019
11.814
8.404
4.799
1.001
-2.99
-7.164
-11.51
-16.013
-20.649
-25.391
-30.203
-35.031
-39.82
-44.518
-49.076
-53.459
-57.632
-61.545
-65.146
-68.376
-71.18
-73.523
-75.374
-76.716
-77.561
-77.946
-77.936
-77.634
-77.139
-76.543
-75.965
-75.507
-75.276
-75.406
-75.99
-77.153
-79.075
-81.791
-85.23
-89.221
-93.359
-97.243
-100.598
-102.958
-103.773
-102.907
-100.416
-96.721
-92.857
-89.536
-87.064
-86.012
-86.803
-89.103
-92.218
-94.598
-93.582
-87.146
-73.73
-51.352
-18.581
25.113
79.64
143.355
213.027
285.631
357.753
424.852
482.624
526.991
554.273
562.42
550.652
518.642
467.517
400.305
320.867
234.025
144.929
58.037
-22.111
-91.106
-145.818
-184.799
-208.05
-216.976
-213.513
-199.615
-178.349
-153.48
-128.561
-106.411
-88.543
-75.383
-67.247
-64.554
-66.754
-72.427
-79.678
-86.593
-92.221
-96.398
-98.876
-99.175
-97.199
-93.295
-88.331
-83.511
-79.465
-76.3
-74.087
-72.923
-72.86
-73.892
-75.72
-77.775
-79.676
-81.239
-82.378
-83.112
-83.429
-83.275
-82.662
-81.682
-80.415
-78.937
-77.29
-75.473
-73.498
-71.4
-69.224
-67.036
-64.893
-62.843
-60.918
-59.135
-57.506
-56.042
-54.748
-53.619
-52.637
-51.781
-51.031
-50.38
-49.816
-49.327
-48.893
-48.489
-48.091
-47.682
-47.243
-46.761
-46.219
-45.601
-44.897
-44.095
-43.187
-42.166
-41.024
-39.753
-38.343
-36.788
-35.081
-33.22
-31.199
-29.017
-26.672
-24.165
-21.497
-18.672
-15.696
-12.575
-9.315
-5.926
-2.418
1.198
4.909
8.702
12.562
16.475
20.423
24.392
28.363
32.319
36.243
40.118
43.925
47.647
51.268
54.771
58.141
61.362
64.419
67.3
69.992
72.481
74.758
76.811
78.63
80.209
81.541
82.618
83.437
83.995
84.29
84.321
84.09
83.597
82.848
81.844
80.594
79.103
77.379
75.432
73.271
70.907
68.353
65.62
62.723
59.673
56.486
53.175
49.754
46.237
42.639
38.973
35.253
31.494
27.709
23.912
20.117
16.337
12.585
8.873
5.212
1.615
-1.909
-5.35
-8.698
-11.946
-15.086
-18.112
-21.018
-23.799
-26.452
-28.975
-31.365
-33.623
-35.748
-37.741
-39.605
-41.341
-42.953
-44.443
-45.816
-47.074
-48.222
-49.264
-50.205
-51.05
-51.802
-52.468
-53.052
-53.561
-53.999
-54.372
-54.685
-54.944
-55.154
-55.319
-55.445
-55.536
-55.595
-55.626
-55.632
-55.616
-55.579
-55.521
-55.445
-55.349
-55.233
-55.097
-54.938
-54.754
-54.544
-54.305
-54.036
-53.734
-53.396
-53.021
-52.606
-52.149
-51.647
-51.099
-50.501
-49.852
-49.149
-48.388
-47.568
-46.686
-45.739
-44.724
-43.64
-42.485
-41.258
-39.958
-38.585
-37.138
-35.62
-34.031
-32.374
-30.652
-28.867
-27.023
-25.124
-23.177
-21.184
-19.151
-17.084
-14.985
-12.863
-10.723
-8.571
-6.413
-4.255
-2.104
0.031
2.143
4.224
6.265
8.258
10.191
12.054
13.834
15.521
17.103
18.569
19.91
21.115
22.176
23.087
23.845
24.446
24.887
25.156
25.242
25.137
24.836
24.331
23.619
22.694
21.552
20.201
18.649
16.894
14.943
12.786
10.423
7.858
5.097
2.168
-0.884
-4.016
-7.178
-10.311
-13.368
-16.301
-19.061
-21.637
-24.011
-26.148
-28.027
-29.615
-30.893
-31.859
-32.517
-32.9
-33.094
-33.211
-33.367
-33.693
-34.271
-35.181
-36.536
-38.388
-40.804
-43.871
-47.61
-52.086
-57.396
-63.5
-70.249
-77.365
-84.336
-90.633
-95.875
-99.556
-101.127
-100.419
-97.523
-92.941
-87.666
-82.449
-77.644
-73.782
-71.483
-70.681
-70.725
-70.178
-66.737
-58.554
-44.374
-22.589
8.579
50.101
102.046
163.143
230.675
301.827
373.707
442.464
503.44
551.837
583.251
594.49
584.773
555.269
507.603
443.657
363.176
265.143
153.185
36.396
-69.413
-147.664
-190.613
-200.992
-190.884
-173.769
-157.463
-143.615
-129.576
-114.006
-98.03
-83.886
-74.404
-70.286
-70.362
-73.213
-76.793
-79.262
-79.919
-78.549
-75.319
-70.847
-65.688
-60.286
-55.252
-51.211
-48.46
-47.067
-46.915
-47.694
-49.155
-51.131
-53.421
-55.821
-58.166
-60.287
-62.053
-63.417
-64.34
-64.793
-64.773
-64.269
-63.291
-61.894
-60.141
-58.098
-55.826
-53.374
-50.785
-48.113
-45.419
-42.765
-40.215
-37.809
-35.574
-33.53
-31.688
-30.058
-28.64
-27.417
-26.368
-25.471
-24.713
-24.081
-23.564
-23.146
-22.808
-22.532
-22.301
-22.099
-21.911
-21.723
-21.518
-21.285
-21.012
-20.687
-20.303
-19.849
-19.312
-18.683
-17.949
-17.1
-16.127
-15.02
-13.773
-12.377
-10.83
-9.126
-7.266
-5.247
-3.071
-0.74
1.744
4.376
7.149
10.057
13.092
16.244
19.504
22.859
26.298
29.809
33.375
36.985
40.621
44.268
47.909
51.529
55.11
58.635
62.087
65.449
68.704
71.837
74.83
77.668
80.337
82.823
85.112
87.193
89.054
90.686
92.08
93.229
94.126
94.768
95.149
95.269
95.126
94.719
94.051
93.125
91.943
90.511
88.836
86.925
84.786
82.43
79.867
77.108
74.168
71.059
67.796
64.393
60.866
57.231
53.504
49.702
45.841
41.939
38.012
34.077
30.15
26.246
22.382
18.571
14.828
11.165
7.595
4.129
0.778
-2.45
-5.544
-8.498
-11.305
-13.96
-16.458
-18.796
-20.972
-22.985
-24.835
-26.523
-28.051
-29.424
-30.644
-31.717
-32.648
-33.445
-34.114
-34.663
-35.101
-35.435
-35.676
-35.832
-35.912
-35.926
-35.882
-35.789
-35.656
-35.49
-35.299
-35.09
-34.868
-34.641
-34.413
-34.189
-33.974
-33.77
-33.58
-33.407
-33.25
-33.112
-32.99
-32.883
-32.791
-32.709
-32.635
-32.565
-32.493
-32.416
-32.326
-32.219
-32.089
-31.927
-31.729
-31.487
-31.195
-30.846
-30.435
-29.955
-29.402
-28.771
-28.058
-27.259
-26.373
-25.397
-24.329
-23.168
-21.915
-20.571
-19.136
-17.613
-16.005
-14.316
-12.551
-10.717
-8.818
-6.864
-4.862
-2.822
-0.753
1.332
3.424
5.509
7.575
9.608
11.594
13.519
15.368
17.128
18.783
20.316
21.715
22.963
24.047
24.954
25.67
26.184
26.486
26.568
26.422
26.042
25.42
24.552
23.432
22.058
20.427
18.541
16.399
14.007
11.376
8.517
5.444
2.163
-1.321
-4.999
-8.858
-12.885
-17.064
-21.376
-25.798
-30.294
-34.818
-39.331
-43.792
-48.174
-52.457
-56.611
-60.606
-64.4
-67.944
-71.204
-74.155
-76.761
-78.989
-80.83
-82.297
-83.44
-84.338
-85.042
-85.568
-85.942
-86.193
-86.374
-86.557
-86.824
-87.229
-87.843
-88.814
-90.191
-91.919
-93.81
-95.417
-96.263
-96.001
-94.203
-90.38
-84.507
-76.867
-68.094
-59.547
-52.39
-47.368
-45.577
-47.901
-54.069
-63.098
-73.133
-81.047
-83.994
-79.493
-64.204
-34.985
8.259
63.11
126.588
194.161
265.592
344.626
428.088
509.003
573.978
603.411
589.808
534.404
446.285
343.478
235.525
129.827
33.853
-50.107
-114.126
-154.743
-176.532
-182.727
-180.38
-173.381
-159.379
-139.193
-114.482
-88.019
-65.061
-48.137
-37.642
-34.035
-36.692
-44.317
-55.575
-68.362
-80.442
-90.765
-98.809
-103.926
-105.919
-104.97
-101.488
-96.557
-91.455
-86.799
-82.918
-80.107
-78.413
-77.852
-78.394
-79.667
-81.157
-82.551
-83.639
-84.312
-84.608
-84.526
-84.033
-83.163
-81.997
-80.597
-79.041
-77.373
-75.556
-73.574
-71.434
-69.152
-66.783
-64.384
-61.993
-59.632
-57.324
-55.078
-52.917
-50.856
-48.883
-46.977
-45.105
-43.238
-41.389
-39.576
-37.799
-36.061
-34.343
-32.628
-30.916
-29.206
-27.485
-25.742
-23.962
-22.128
-20.245
-18.316
-16.347
-14.343
-12.288
-10.169
-7.981
-5.714
-3.365
-0.931
1.598
4.231
6.963
9.791
12.71
15.714
18.801
21.971
25.218
28.536
31.916
35.35
38.828
42.342
45.878
49.426
52.971
56.501
60.003
63.467
66.88
70.229
73.502
76.685
79.768
82.738
85.583
88.293
90.854
93.258
95.494
97.553
99.425
101.103
102.578
103.845
104.898
105.732
106.343
106.728
106.886
106.816
106.518
105.992
105.242
104.271
103.081
101.68
100.071
98.263
96.263
94.079
91.72
89.196
86.517
83.694
80.737
77.657
74.467
71.178
67.803
64.353
60.842
57.282
53.686
50.067
46.437
42.81
39.197
35.611
32.063
28.564
25.124
21.753
18.46
15.253
12.139
9.126
6.22
3.425
0.747
-1.812
-4.249
-6.562
-8.75
-10.812
-12.749
-14.563
-16.254
-17.824
-19.276
-20.614
-21.841
-22.961
-23.979
-24.9
-25.73
-26.475
-27.142
-27.736
-28.264
-28.732
-29.148
-29.515
-29.842
-30.132
-30.391
-30.624
-30.834
-31.026
-31.203
-31.368
-31.522
-31.667
-31.804
-31.933
-32.053
-32.163
-32.262
-32.349
-32.42
-32.473
-32.504
-32.511
-32.49
-32.435
-32.342
-32.207
-32.023
-31.785
-31.488
-31.127
-30.697
-30.191
-29.606
-28.938
-28.181
-27.334
-26.392
-25.353
-24.215
-22.976
-21.635
-20.194
-18.652
-17.011
-15.274
-13.444
-11.526
-9.523
-7.443
-5.289
-3.071
-0.794
1.531
3.897
6.292
8.707
11.13
13.548
15.95
18.323
20.653
22.929
25.137
27.264
29.297
31.224
33.031
34.704
36.228
37.59
38.774
39.769
40.561
41.138
41.49
41.611
41.494
41.135
40.53
39.676
38.568
37.205
35.59
33.725
31.613
29.262
26.678
23.875
20.869
17.673
14.298
10.747
7.021
3.121
-0.94
-5.149
-9.493
-13.952
-18.506
-23.121
-27.75
-32.347
-36.87
-41.283
-45.558
-49.651
-53.507
-57.068
-60.268
-63.05
-65.384
-67.248
-68.621
-69.51
-69.925
-69.895
-69.507
-68.856
-68.046
-67.191
-66.385
-65.725
-65.362
-65.503
-66.272
-67.675
-69.551
-71.558
-73.402
-74.887
-75.766
-75.642
-74.25
-71.668
-68.397
-65.472
-63.875
-64.059
-66.319
-71.033
-78.263
-87.416
-97.066
-104.633
-107.383
-103.496
-91.268
-68.816
-34.598
12.532
71.283
137.309
206.456
275.234
343.405
414.281
486.494
554.468
607.579
630.047
613.834
559.371
472.879
366.685
251.5
135.14
27.42
-60.362
-120.589
-150.368
-155.126
-148.018
-138.394
-130.876
-125.511
-117.956
-107.69
-96.839
-87.501
-82.456
-82.084
-84.861
-89.571
-94.532
-98.075
-99.569
-98.786
-95.85
-91.419
-86.114
-80.404
-74.896
-70.211
-66.681
-64.448
-63.466
-63.493
-64.324
-65.802
-67.744
-69.967
-72.315
-74.645
-76.824
-78.747
-80.329
-81.503
-82.226
-82.479
-82.252
-81.553
-80.42
-78.902
-77.051
-74.92
-72.549
-69.977
-67.254
-64.44
-61.594
-58.781
-56.045
-53.415
-50.914
-48.556
-46.348
-44.291
-42.373
-40.571
-38.871
-37.261
-35.732
-34.277
-32.883
-31.537
-30.222
-28.927
-27.639
-26.349
-25.046
-23.72
-22.366
-20.975
-19.546
-18.074
-16.556
-14.984
-13.354
-11.658
-9.891
-8.049
-6.126
-4.118
-2.022
0.164
2.441
4.807
7.261
9.802
12.427
15.131
17.909
20.756
23.666
26.63
29.64
32.688
35.763
38.856
41.957
45.055
48.139
51.197
54.218
57.19
60.103
62.942
65.698
68.357
70.908
73.34
75.64
77.798
79.803
81.644
83.312
84.799
86.094
87.192
88.085
88.768
89.235
89.484
89.51
89.313
88.89
88.244
87.374
86.282
84.973
83.448
81.714
79.775
77.637
75.308
72.795
70.108
67.254
64.244
61.088
57.798
54.385
50.861
47.24
43.533
39.755
35.919
32.039
28.13
24.206
20.279
16.366
12.478
8.629
4.832
1.1
-2.558
-6.128
-9.602
-12.969
-16.221
-19.35
-22.348
-25.209
-27.927
-30.497
-32.915
-35.179
-37.285
-39.233
-41.022
-42.652
-44.125
-45.442
-46.607
-47.623
-48.495
-49.229
-49.831
-50.308
-50.667
-50.915
-51.062
-51.116
-51.085
-50.978
-50.803
-50.57
-50.287
-49.961
-49.602
-49.216
-48.811
-48.394
-47.971
-47.548
-47.131
-46.724
-46.331
-45.957
-45.603
-45.273
-44.968
-44.689
-44.435
-44.207
-44.002
-43.818
-43.651
-43.498
-43.354
-43.213
-43.068
-42.915
-42.746
-42.553
-42.331
-42.072
-41.769
-41.414
-41.002
-40.525
-39.978
-39.355
-38.649
-37.857
-36.972
-35.991
-34.911
-33.728
-32.441
-31.047
-29.547
-27.939
-26.227
-24.41
-22.494
-20.481
-18.377
-16.188
-13.923
-11.589
-9.195
-6.753
-4.273
-1.769
0.745
3.258
5.754
8.219
10.637
12.994
15.275
17.467
19.556
21.524
23.353
25.024
26.518
27.819
28.908
29.769
30.387
30.749
30.849
30.684
30.247
29.534
28.539
27.253
25.675
23.812
21.671
19.268
16.617
13.734
10.64
7.356
3.896
0.271
-3.52
-7.483
-11.609
-15.889
-20.305
-24.822
-29.414
-34.054
-38.718
-43.407
-48.101
-52.756
-57.323
-61.724
-65.884
-69.771
-73.299
-76.34
-78.869
-80.894
-82.561
-84.211
-85.979
-87.804
-89.645
-91.394
-92.888
-94.029
-94.362
-93.099
-90.024
-85.348
-79.52
-73.325
-67.277
-61.652
-57.256
-55.188
-55.865
-59.265
-64.756
-71.172
-78.092
-85.386
-92.473
-98.617
-103.066
-105.372
-106.103
-105.961
-104.723
-100.909
-91.628
-75.888
-54.714
-30.208
-5.995
20.255
55.512
104.492
171.493
253.233
338.501
422.221
503.004
578.535
649.978
708.099
731.885
709.696
634.405
509.165
358.325
202.337
59.456
-51.07
-127.975
-173.835
-193.889
-202.971
-207.543
-208.963
-207.326
-197.051
-177.245
-151.743
-124.156
-98.772
-77.675
-60.73
-48.189
-40.297
-36.736
-36.863
-39.841
-44.953
-51.748
-59.645
-67.463
-73.93
-78.418
-80.797
-81.259
-80.135
-77.624
-74.098
-70.385
-67.247
-65.077
-64.019
-63.918
-64.486
-65.532
-66.805
-67.917
-68.605
-68.743
-68.277
-67.29
-65.891
-64.135
-62.1
-59.876
-57.504
-55.019
-52.455
-49.825
-47.17
-44.551
-42.007
-39.571
-37.267
-35.102
-33.082
-31.209
-29.47
-27.847
-26.327
-24.901
-23.566
-22.322
-21.158
-20.059
-19.011
-17.995
-16.996
-15.996
-14.979
-13.931
-12.84
-11.697
-10.496
-9.229
-7.89
-6.469
-4.958
-3.347
-1.629
0.203
2.156
4.235
6.444
8.785
11.259
13.867
16.609
19.483
22.488
25.62
28.874
32.244
35.723
39.303
42.974
46.725
50.543
54.416
58.328
62.266
66.214
70.154
74.07
77.946
81.764
85.506
89.157
92.699
96.117
99.394
102.515
105.466
108.231
110.797
113.151
115.28
117.172
118.816
120.203
121.324
122.17
122.735
123.014
123.002
122.697
122.096
121.201
120.012
118.532
116.766
114.72
112.401
109.818
106.982
103.903
100.594
97.069
93.34
89.423
85.333
81.085
76.696
72.182
67.561
62.849
58.065
53.225
48.349
43.455
38.559
33.681
28.838
24.047
19.324
14.687
10.151
5.73
1.439
-2.709
-6.702
-10.53
-14.183
-17.652
-20.931
-24.015
-26.9
-29.582
-32.06
-34.333
-36.402
-38.268
-39.935
-41.404
-42.681
-43.772
-44.681
-45.417
-45.986
-46.397
-46.659
-46.782
-46.775
-46.649
-46.415
-46.084
-45.667
-45.176
-44.623
-44.018
-43.374
-42.7
-42.009
-41.309
-40.609
-39.919
-39.247
-38.598
-37.98
-37.397
-36.854
-36.353
-35.898
-35.491
-35.131
-34.819
-34.554
-34.334
-34.158
-34.021
-33.92
-33.851
-33.808
-33.786
-33.779
-33.779
-33.781
-33.775
-33.755
-33.712
-33.639
-33.527
-33.367
-33.152
-32.874
-32.525
-32.098
-31.586
-30.983
-30.283
-29.483
-28.579
-27.567
-26.447
-25.217
-23.878
-22.431
-20.878
-19.221
-17.466
-15.616
-13.678
-11.659
-9.566
-7.408
-5.195
-2.937
-0.646
1.667
3.989
6.307
8.607
10.876
13.098
15.259
17.344
19.337
21.22
22.975
24.587
26.037
27.311
28.391
29.265
29.919
30.345
30.534
30.478
30.173
29.609
28.781
27.686
26.321
24.686
22.784
20.617
18.191
15.522
12.623
9.507
6.183
2.651
-1.084
-5.011
-9.118
-13.389
-17.799
-22.322
-26.923
-31.55
-36.156
-40.691
-45.113
-49.394
-53.5
-57.389
-61.013
-64.31
-67.224
-69.719
-71.761
-73.324
-74.417
-75.057
-75.293
-75.208
-74.87
-74.35
-73.737
-73.108
-72.561
-72.202
-72.12
-72.446
-73.364
-74.944
-77.142
-79.767
-82.412
-84.683
-86.291
-86.854
-85.883
-83.116
-78.637
-72.977
-67.213
-62.364
-58.953
-57.383
-58.18
-61.51
-66.83
-72.727
-76.634
-75.812
-68.39
-52.585
-26.32
12.133
63.936
127.792
199.299
274.028
348.047
420.561
494.081
566.721
633.32
683.663
702.022
680.375
617.319
517.457
394.652
261.318
129.108
11.847
-81.617
-146.476
-183.26
-200.894
-208.152
-209.64
-206.062
-193.764
-171.381
-141.811
-110.05
-81.935
-60.821
-47.674
-42.518
-44.478
-52.191
-63.853
-76.903
-88.885
-98.295
-104.12
-105.892
-103.684
-97.871
-89.282
-79.285
-69.301
-60.246
-52.716
-46.972
-42.991
-40.735
-40.043
-40.547
-41.793
-43.445
-45.284
-47.192
-49.147
-51.098
-52.959
-54.662
-56.185
-57.516
-58.636
-59.542
-60.208
-60.602
-60.716
-60.533
-60.03
-59.212
-58.09
-56.678
-55.012
-53.132
-51.091
-48.972
-46.841
-44.735
-42.68
-40.676
-38.717
-36.814
-34.969
-33.178
-31.45
-29.787
-28.187
-26.656
-25.186
-23.759
-22.349
-20.916
-19.42
-17.838
-16.153
-14.354
-12.437
-10.393
-8.221
-5.925
-3.505
-0.961
1.708
4.509
7.441
10.499
13.676
16.96
20.339
23.8
27.333
30.926
34.567
38.248
41.957
45.689
49.434
53.182
56.92
60.636
64.316
67.946
71.512
74.999
78.392
81.677
84.841
87.87
90.753
93.475
96.026
98.392
100.564
102.53
104.28
105.806
107.099
108.152
108.96
109.518
109.824
109.875
109.671
109.21
108.494
107.523
106.301
104.83
103.114
101.156
98.964
96.543
93.9
91.044
87.984
84.731
81.295
77.687
73.92
70.007
65.96
61.794
57.524
53.164
48.73
44.237
39.701
35.137
30.562
25.989
21.434
16.911
12.433
8.013
3.663
-0.604
-4.778
-8.847
-12.802
-16.633
-20.331
-23.888
-27.298
-30.552
-33.647
-36.576
-39.337
-41.925
-44.34
-46.579
-48.644
-50.535
-52.255
-53.807
-55.195
-56.424
-57.501
-58.433
-59.226
-59.89
-60.432
-60.861
-61.185
-61.414
-61.555
-61.618
-61.611
-61.542
-61.42
-61.252
-61.045
-60.808
-60.547
-60.269
-59.979
-59.684
-59.389
-59.1
-58.819
-58.551
-58.298
-58.064
-57.848
-57.651
-57.473
-57.312
-57.165
-57.03
-56.901
-56.775
-56.645
-56.505
-56.35
-56.172
-55.966
-55.724
-55.439
-55.105
-54.716
-54.264
-53.745
-53.153
-52.481
-51.725
-50.88
-49.942
-48.908
-47.775
-46.539
-45.199
-43.753
-42.202
-40.544
-38.781
-36.915
-34.948
-32.885
-30.731
-28.492
-26.176
-23.79
-21.345
-18.85
-16.317
-13.758
-11.186
-8.612
-6.051
-3.517
-1.023
1.415
3.784
6.07
8.254
10.323
12.259
14.048
15.675
17.124
18.382
19.436
20.276
20.893
21.277
21.421
21.317
20.956
20.333
19.442
18.281
16.849
15.146
13.175
10.947
8.474
5.765
2.829
-0.331
-3.711
-7.301
-11.087
-15.056
-19.185
-23.445
-27.801
-32.201
-36.595
-40.937
-45.185
-49.311
-53.279
-57.05
-60.578
-63.812
-66.703
-69.221
-71.34
-73.028
-74.282
-75.133
-75.64
-75.9
-76.004
-76.001
-75.952
-75.936
-76.042
-76.378
-77.05
-78.114
-79.654
-81.803
-84.598
-87.98
-91.727
-95.369
-98.435
-100.581
-101.413
-100.488
-97.617
-92.856
-86.659
-80.076
-74.064
-69.179
-65.963
-64.92
-66.069
-68.849
-71.836
-72.581
-68.711
-58.215
-39.018
-9.037
33.567
88.509
152.709
222.122
292.335
362.42
435.61
511.578
586.005
647.9
679.093
667.16
608.212
508.763
385.515
256.036
135.395
32.427
-48.878
-108.791
-152.073
-181.829
-201.352
-211.76
-209.947
-195.62
-170.857
-139.589
-108.215
-81.196
-60.302
-46.388
-39.71
-39.968
-46.168
-56.476
-68.318
-79.354
-88.438
-94.924
-98.118
-97.84
-94.374
-88.383
-81.2
-74.186
-67.984
-62.958
-59.432
-57.439
-56.933
-57.776
-59.483
-61.491
-63.487
-65.262
-66.675
-67.717
-68.352
-68.536
-68.317
-67.767
-66.929
-65.845
-64.534
-62.992
-61.241
-59.319
-57.262
-55.124
-52.957
-50.806
-48.716
-46.72
-44.838
-43.086
-41.471
-39.992
-38.644
-37.412
-36.281
-35.236
-34.263
-33.349
-32.476
-31.622
-30.767
-29.893
-28.983
-28.021
-26.995
-25.891
-24.698
-23.407
-22.011
-20.505
-18.882
-17.138
-15.266
-13.262
-11.122
-8.842
-6.421
-3.857
-1.148
1.704
4.697
7.828
11.091
14.479
17.987
21.604
25.321
29.126
33.009
36.954
40.949
44.979
49.028
53.08
57.12
61.131
65.096
69
72.825
76.556
80.178
83.674
87.03
90.231
93.264
96.114
98.769
101.217
103.447
105.448
107.211
108.727
109.989
110.991
111.729
112.198
112.398
112.326
111.984
111.373
110.498
109.362
107.972
106.334
104.457
102.351
100.024
97.489
94.757
91.841
88.754
85.51
82.123
78.608
74.981
71.256
67.449
63.575
59.65
55.69
51.71
47.724
43.749
39.798
35.886
32.026
28.231
24.512
20.882
17.349
13.924
10.615
7.429
4.373
1.451
-1.332
-3.974
-6.471
-8.822
-11.029
-13.091
-15.011
-16.791
-18.435
-19.947
-21.332
-22.596
-23.744
-24.783
-25.721
-26.564
-27.319
-27.994
-28.597
-29.135
-29.616
-30.047
-30.435
-30.787
-31.109
-31.407
-31.687
-31.953
-32.21
-32.462
-32.711
-32.961
-33.214
-33.472
-33.734
-34.001
-34.274
-34.549
-34.826
-35.102
-35.374
-35.638
-35.89
-36.126
-36.341
-36.529
-36.685
-36.804
-36.879
-36.904
-36.875
-36.785
-36.629
-36.402
-36.1
-35.719
-35.255
-34.705
-34.066
-33.335
-32.511
-31.593
-30.578
-29.468
-28.261
-26.96
-25.564
-24.077
-22.5
-20.836
-19.09
-17.265
-15.368
-13.402
-11.375
-9.293
-7.164
-4.997
-2.8
-0.583
1.645
3.872
6.09
8.286
10.45
12.571
14.64
16.644
18.574
20.418
22.167
23.808
25.33
26.72
27.967
29.059
29.985
30.733
31.294
31.658
31.819
31.771
31.508
31.024
30.312
29.368
28.19
26.777
25.129
23.251
21.145
18.818
16.285
13.558
10.647
7.559
4.289
0.842
-2.774
-6.547
-10.462
-14.502
-18.65
-22.88
-27.153
-31.432
-35.678
-39.862
-43.966
-47.961
-51.806
-55.45
-58.826
-61.881
-64.578
-66.885
-68.785
-70.268
-71.337
-72.018
-72.359
-72.421
-72.276
-71.996
-71.657
-71.347
-71.14
-71.173
-71.65
-72.671
-74.25
-76.247
-78.316
-80.168
-81.611
-82.342
-81.985
-80.276
-77.104
-72.92
-68.734
-65.379
-63.477
-63.448
-65.515
-69.961
-76.828
-84.99
-92.282
-96.476
-95.385
-87.188
-70.355
-42.848
-2.529
50.15
112.211
180.858
252.465
326.809
406.95
489.94
569.653
634.773
668.797
664.904
622.95
548.536
453.885
344.822
226.105
105.079
-10.094
-106.317
-174.452
-214.343
-232.68
-239.272
-240.046
-234.997
-220.863
-196.44
-164.171
-128.77
-95.441
-67.174
-45.432
-31.216
-24.445
-24.447
-30.129
-39.683
-51.546
-64.464
-76.726
-86.827
-93.971
-97.776
-98.468
-96.802
-93.378
-88.871
-84.339
-80.559
-77.935
-76.696
-76.696
-77.602
-79.175
-81.058
-82.778
-84.064
-84.78
-84.873
-84.437
-83.553
-82.258
-80.639
-78.789
-76.762
-74.6
-72.323
-69.93
-67.454
-64.947
-62.463
-60.046
-57.721
-55.497
-53.382
-51.38
-49.492
-47.71
-46.021
-44.416
-42.89
-41.442
-40.069
-38.762
-37.506
-36.286
-35.083
-33.881
-32.664
-31.42
-30.138
-28.808
-27.422
-25.973
-24.456
-22.863
-21.187
-19.418
-17.55
-15.574
-13.485
-11.279
-8.951
-6.498
-3.921
-1.218
1.608
4.557
7.624
10.806
14.098
17.493
20.984
24.564
28.222
31.948
35.73
39.555
43.411
47.284
51.158
55.018
58.849
62.636
66.363
70.014
73.574
77.028
80.36
83.557
86.602
89.483
92.187
94.7
97.01
99.106
100.977
102.615
104.011
105.158
106.049
106.679
107.045
107.143
106.973
106.532
105.823
104.847
103.608
102.11
100.358
98.36
96.123
93.657
90.97
88.074
84.981
81.702
78.249
74.638
70.88
66.991
62.985
58.878
54.685
50.421
46.103
41.747
37.368
32.983
28.606
24.254
19.942
15.683
11.491
7.381
3.365
-0.547
-4.341
-8.009
-11.541
-14.929
-18.166
-21.246
-24.164
-26.916
-29.499
-31.912
-34.154
-36.225
-38.127
-39.861
-41.43
-42.839
-44.091
-45.191
-46.148
-46.966
-47.654
-48.22
-48.672
-49.02
-49.274
-49.442
-49.535
-49.563
-49.534
-49.46
-49.35
-49.212
-49.057
-48.892
-48.725
-48.565
-48.417
-48.287
-48.18
-48.099
-48.048
-48.028
-48.042
-48.088
-48.168
-48.281
-48.423
-48.593
-48.787
-49.001
-49.23
-49.468
-49.708
-49.944
-50.167
-50.371
-50.546
-50.684
-50.777
-50.816
-50.792
-50.697
-50.521
-50.257
-49.895
-49.429
-48.851
-48.154
-47.334
-46.384
-45.303
-44.088
-42.736
-41.248
-39.624
-37.866
-35.976
-33.958
-31.817
-29.557
-27.185
-24.71
-22.141
-19.487
-16.76
-13.97
-11.132
-8.257
-5.361
-2.457
0.44
3.313
6.148
8.928
11.636
14.256
16.77
19.162
21.412
23.503
25.418
27.139
28.652
29.942
30.994
31.798
32.345
32.629
32.643
32.383
31.842
31.015
29.9
28.498
26.808
24.836
22.584
20.062
17.284
14.265
11.019
7.555
3.876
-0.015
-4.107
-8.386
-12.832
-17.418
-22.115
-26.883
-31.668
-36.417
-41.081
-45.612
-49.981
-54.154
-58.089
-61.738
-65.042
-67.945
-70.414
-72.418
-73.938
-74.992
-75.609
-75.85
-75.81
-75.564
-75.194
-74.8
-74.47
-74.3
-74.403
-74.847
-75.747
-77.275
-79.479
-82.296
-85.528
-88.727
-91.468
-93.465
-94.323
-93.578
-91.064
-86.849
-81.42
-75.919
-71.311
-68.104
-66.787
-67.657
-70.506
-74.674
-78.653
-79.755
-75.454
-63.883
-43.122
-11.712
31.201
86.079
150.886
220.905
291.976
359.957
423.573
485.696
545.278
599.254
640.069
652.728
628.467
563.427
460.934
337.888
211.371
98.07
11.252
-48.279
-85.234
-108.571
-127.667
-145.129
-159.386
-166.318
-163.289
-152.097
-136.813
-122.184
-110.849
-103.012
-98.131
-95.341
-93.924
-93.178
-92.032
-89.416
-84.932
-78.788
-71.457
-63.505
-55.396
-47.559
-40.543
-34.939
-31.09
-29.054
-28.711
-29.826
-32.183
-35.602
-39.855
-44.652
-49.684
-54.683
-59.438
-63.823
-67.763
-71.173
-73.976
-76.087
-77.431
-77.996
-77.812
-76.912
-75.341
-73.149
-70.391
-67.201
-63.755
-60.156
-56.487
-52.806
-49.121
-45.498
-42.033
-38.726
-35.543
-32.634
-30.158
-28.016
-26.219
-24.79
-23.351
-22.827
-24.101
-25.783
-27.432
-26.552
-20.173
-11.55
-2.847
2.7
0.632
-5.102
-11.153
-15.22
-13.502
-8.695
-3.535
1.37
4.35
6.377
8.703
11.092
13.706
16.463
19.111
21.819
24.724
27.781
30.98
34.331
37.825
41.443
45.171
48.975
52.812
56.683
60.583
64.495
68.406
72.3
76.16
79.972
83.724
87.397
90.973
94.436
97.767
100.951
103.971
106.813
109.461
111.901
114.121
116.106
117.848
119.334
120.556
121.505
122.175
122.559
122.654
122.458
121.968
121.187
120.117
118.761
117.125
115.215
113.039
110.606
107.925
105.007
101.863
98.507
94.952
91.212
87.302
83.238
79.036
74.713
70.285
65.77
61.185
56.545
51.87
47.175
42.479
37.796
33.146
28.542
24.001
19.537
15.165
10.896
6.743
2.716
-1.175
-4.921
-8.515
-11.951
-15.223
-18.327
-21.26
-24.019
-26.605
-29.015
-31.252
-33.318
-35.214
-36.944
-38.512
-39.922
-41.181
-42.294
-43.266
-44.106
-44.821
-45.417
-45.905
-46.291
-46.585
-46.795
-46.931
-47.001
-47.013
-46.975
-46.895
-46.78
-46.636
-46.47
-46.288
-46.094
-45.891
-45.685
-45.477
-45.27
-45.065
-44.863
-44.665
-44.47
-44.277
-44.085
-43.893
-43.698
-43.497
-43.288
-43.067
-42.829
-42.571
-42.288
-41.975
-41.627
-41.239
-40.806
-40.321
-39.781
-39.179
-38.511
-37.772
-36.959
-36.066
-35.09
-34.028
-32.879
-31.64
-30.311
-28.891
-27.382
-25.782
-24.096
-22.324
-20.47
-18.538
-16.531
-14.455
-12.315
-10.117
-7.869
-5.578
-3.252
-0.9
1.469
3.847
6.221
8.583
10.921
13.224
15.481
17.679
19.806
21.85
23.797
25.635
27.35
28.929
30.359
31.626
32.72
33.628
34.339
34.847
35.142
35.218
35.069
34.69
34.075
33.22
32.123
30.779
29.19
27.355
25.279
22.968
20.432
17.678
14.714
11.543
8.169
4.602
0.852
-3.07
-7.145
-11.351
-15.651
-19.999
-24.348
-28.653
-32.873
-36.977
-40.929
-44.69
-48.219
-51.47
-54.398
-56.971
-59.16
-60.94
-62.303
-63.265
-63.887
-64.263
-64.495
-64.671
-64.853
-65.105
-65.513
-66.174
-67.196
-68.674
-70.646
-73.157
-76.323
-80.167
-84.594
-89.361
-93.94
-97.808
-100.659
-102.146
-101.815
-99.477
-95.149
-89.194
-82.72
-76.683
-71.383
-67.279
-65.015
-64.697
-66.049
-67.238
-64.244
-53.773
-34.608
-8.547
21.025
52.421
86.944
131.555
193.323
274.985
375.944
486.17
590.483
675.558
727.101
735.75
701.254
625.378
514.606
382.342
239.706
101.01
-16.495
-105.411
-162.422
-191.596
-206.865
-215.864
-221.414
-222.692
-213.152
-191.615
-161.982
-128.921
-98.428
-73.94
-56.128
-45.602
-42.275
-45.224
-53.036
-63.728
-75.27
-86.038
-94.949
-101.072
-103.812
-103.171
-99.643
-94.134
-87.743
-81.521
-76.152
-72.1
-69.639
-68.759
-69.309
-70.984
-73.307
-75.748
-77.938
-79.677
-80.872
-81.548
-81.724
-81.408
-80.662
-79.575
-78.216
-76.627
-74.824
-72.798
-70.562
-68.163
-65.658
-63.117
-60.599
-58.141
-55.765
-53.49
-51.325
-49.278
-47.348
-45.523
-43.785
-42.126
-40.54
-39.021
-37.563
-36.151
-34.767
-33.393
-32.01
-30.606
-29.171
-27.693
-26.164
-24.576
-22.923
-21.2
-19.405
-17.533
-15.578
-13.533
-11.393
-9.154
-6.812
-4.364
-1.808
0.857
3.633
6.516
9.506
12.598
15.789
19.073
22.445
25.898
29.423
33.013
36.656
40.344
44.066
47.809
51.562
55.312
59.045
62.749
66.408
70.009
73.537
76.979
80.318
83.541
86.634
89.581
92.369
94.984
97.413
99.642
101.659
103.453
105.014
106.332
107.398
108.206
108.75
109.024
109.025
108.75
108.199
107.369
106.263
104.882
103.229
101.308
99.126
96.689
94.005
91.081
87.93
84.56
80.984
77.215
73.266
69.153
64.889
60.492
55.979
51.366
46.671
41.913
37.11
32.28
27.44
22.609
17.803
13.039
8.335
3.704
-0.838
-5.277
-9.6
-13.794
-17.848
-21.752
-25.497
-29.074
-32.477
-35.699
-38.736
-41.585
-44.241
-46.704
-48.974
-51.05
-52.936
-54.634
-56.149
-57.485
-58.649
-59.648
-60.491
-61.186
-61.743
-62.17
-62.478
-62.678
-62.779
-62.792
-62.727
-62.593
-62.402
-62.161
-61.881
-61.569
-61.234
-60.882
-60.52
-60.153
-59.787
-59.425
-59.071
-58.728
-58.397
-58.081
-57.78
-57.493
-57.219
-56.957
-56.703
-56.454
-56.206
-55.954
-55.693
-55.416
-55.117
-54.791
-54.429
-54.027
-53.576
-53.07
-52.502
-51.865
-51.153
-50.36
-49.479
-48.507
-47.437
-46.268
-44.996
-43.621
-42.14
-40.554
-38.864
-37.071
-35.178
-33.187
-31.103
-28.93
-26.674
-24.343
-21.943
-19.484
-16.973
-14.422
-11.84
-9.238
-6.629
-4.024
-1.435
1.125
3.643
6.104
8.494
10.799
13.003
15.091
17.045
18.852
20.495
21.959
23.233
24.303
25.157
25.788
26.188
26.35
26.269
25.938
25.352
24.509
23.405
22.038
20.408
18.516
16.364
13.965
11.329
8.465
5.381
2.077
-1.443
-5.165
-9.076
-13.162
-17.4
-21.762
-26.208
-30.678
-35.116
-39.47
-43.696
-47.764
-51.641
-55.283
-58.649
-61.688
-64.359
-66.645
-68.529
-69.983
-71.007
-71.628
-71.923
-72.014
-72.018
-72.018
-72.073
-72.238
-72.593
-73.237
-74.263
-75.751
-77.731
-80.226
-83.338
-87.069
-91.282
-95.682
-99.718
-102.829
-104.657
-104.791
-102.745
-98.427
-91.965
-83.82
-75.137
-66.793
-59.226
-53.154
-49.135
-46.892
-45.776
-44.308
-39.878
-30.605
-14.897
9.595
44.762
91.776
149.744
214.658
281.988
347.843
412.332
479.168
546.978
611.103
660.203
674.947
646.219
571.853
456.684
321.301
182.342
54.305
-46.402
-117.501
-160.129
-178.609
-185.96
-188.148
-186.731
-182.076
-169.652
-149.128
-124.295
-98.29
-75.158
-57.351
-45.026
-38.333
-36.975
-39.922
-45.875
-53.758
-62.422
-70.638
-77.635
-82.611
-84.979
-84.849
-82.688
-78.986
-74.47
-69.998
-66.08
-63.174
-61.585
-61.254
-62.025
-63.672
-65.784
-67.885
-69.687
-71.007
-71.76
-71.998
-71.742
-71.008
-69.877
-68.443
-66.775
-64.915
-62.878
-60.656
-58.277
-55.796
-53.278
-50.795
-48.392
-46.092
-43.915
-41.873
-39.973
-38.217
-36.593
-35.083
-33.676
-32.366
-31.149
-30.022
-28.971
-27.979
-27.027
-26.092
-25.157
-24.208
-23.232
-22.215
-21.147
-20.019
-18.825
-17.56
-16.216
-14.785
-13.258
-11.626
-9.883
-8.022
-6.038
-3.925
-1.68
0.699
3.213
5.86
8.641
11.552
14.59
17.749
21.023
24.404
27.883
31.451
35.095
38.803
42.562
46.357
50.173
53.995
57.807
61.592
65.334
69.018
72.626
76.143
79.553
82.842
85.994
88.994
91.828
94.483
96.947
99.205
101.247
103.063
104.643
105.977
107.06
107.885
108.446
108.74
108.765
108.52
108.005
107.221
106.173
104.865
103.302
101.492
99.443
97.164
94.667
91.962
89.061
85.977
82.723
79.312
75.759
72.077
68.282
64.388
60.411
56.367
52.27
48.136
43.981
39.821
35.67
31.543
27.455
23.42
19.45
15.558
11.756
8.056
4.466
0.996
-2.347
-5.555
-8.623
-11.547
-14.323
-16.949
-19.424
-21.747
-23.917
-25.938
-27.809
-29.534
-31.116
-32.559
-33.868
-35.047
-36.102
-37.041
-37.869
-38.595
-39.224
-39.766
-40.228
-40.618
-40.944
-41.214
-41.435
-41.615
-41.761
-41.879
-41.976
-42.057
-42.126
-42.188
-42.245
-42.301
-42.356
-42.413
-42.471
-42.53
-42.592
-42.654
-42.715
-42.773
-42.825
-42.868
-42.9
-42.915
-42.908
-42.876
-42.811
-42.71
-42.566
-42.374
-42.128
-41.822
-41.45
-41.007
-40.488
-39.887
-39.2
-38.423
-37.553
-36.588
-35.526
-34.368
-33.113
-31.762
-30.316
-28.78
-27.154
-25.443
-23.65
-21.781
-19.839
-17.832
-15.766
-13.648
-11.487
-9.29
-7.069
-4.832
-2.59
-0.354
1.865
4.056
6.207
8.305
10.338
12.293
14.156
15.914
17.553
19.058
20.417
21.618
22.649
23.5
24.163
24.632
24.901
24.966
24.823
24.467
23.892
23.095
22.075
20.831
19.364
17.675
15.769
13.656
11.347
8.852
6.176
3.316
0.272
-2.949
-6.337
-9.879
-13.554
-17.34
-21.205
-25.101
-28.981
-32.799
-36.519
-40.114
-43.559
-46.815
-49.837
-52.568
-54.962
-56.991
-58.634
-59.868
-60.701
-61.157
-61.294
-61.206
-60.97
-60.658
-60.351
-60.126
-60.075
-60.305
-60.903
-61.98
-63.692
-66.091
-69.124
-72.636
-76.274
-79.659
-82.49
-84.373
-84.814
-83.565
-80.694
-76.606
-72.2
-68.374
-65.611
-64.358
-65.2
-68.291
-73.095
-78.349
-81.804
-80.9
-73.838
-58.947
-34.024
2.505
51.093
111.363
180.129
253.042
327.779
400.624
468.999
530.527
577.399
603.943
604.541
575.414
522.495
450.515
365.49
274.055
176.999
81.294
-5.152
-76.768
-127.384
-159.418
-175.77
-175.754
-159.73
-126.806
-82.418
-40.053
-12.124
-6.048
-20.336
-44.01
-65.857
-79.628
-84.387
-84.846
-85.318
-86.781
-88.244
-87.217
-82.676
-75.668
-67.847
-60.681
-54.728
-49.952
-46.332
-44.034
-43.136
-43.425
-44.462
-45.852
-47.42
-49.116
-50.913
-52.683
-54.243
-55.498
-56.432
-57.063
-57.403
-57.434
-57.128
-56.488
-55.555
-54.377
-53
-51.462
-49.788
-48.017
-46.199
-44.388
-42.644
-41.007
-39.505
-38.155
-36.964
-35.934
-35.059
-34.325
-33.71
-33.189
-32.743
-32.353
-32.004
-31.679
-31.359
-31.026
-30.658
-30.238
-29.751
-29.181
-28.514
-27.74
-26.848
-25.83
-24.681
-23.395
-21.968
-20.392
-18.665
-16.78
-14.736
-12.53
-10.161
-7.63
-4.939
-2.093
0.904
4.043
7.316
10.714
14.225
17.838
21.539
25.315
29.151
33.032
36.942
40.864
44.783
48.679
52.537
56.337
60.063
63.697
67.221
70.62
73.877
76.976
79.905
82.647
85.192
87.526
89.639
91.521
93.162
94.554
95.691
96.567
97.18
97.525
97.603
97.412
96.954
96.231
95.246
94.004
92.51
90.77
88.792
86.584
84.157
81.52
78.685
75.664
72.471
69.118
65.621
61.992
58.248
54.402
50.469
46.465
42.404
38.301
34.171
30.028
25.886
21.76
17.662
13.605
9.601
5.662
1.799
-1.979
-5.66
-9.237
-12.7
-16.042
-19.256
-22.336
-25.276
-28.072
-30.722
-33.222
-35.572
-37.771
-39.82
-41.72
-43.473
-45.083
-46.552
-47.885
-49.087
-50.163
-51.12
-51.962
-52.697
-53.332
-53.873
-54.328
-54.703
-55.006
-55.242
-55.42
-55.545
-55.624
-55.662
-55.667
-55.644
-55.597
-55.533
-55.454
-55.366
-55.271
-55.171
-55.068
-54.964
-54.859
-54.752
-54.643
-54.529
-54.409
-54.28
-54.138
-53.979
-53.798
-53.591
-53.352
-53.076
-52.757
-52.388
-51.965
-51.482
-50.933
-50.313
-49.617
-48.84
-47.978
-47.025
-45.978
-44.834
-43.591
-42.246
-40.799
-39.248
-37.595
-35.84
-33.986
-32.036
-29.993
-27.863
-25.65
-23.361
-21.004
-18.587
-16.118
-13.608
-11.069
-8.51
-5.945
-3.387
-0.847
1.66
4.121
6.522
8.85
11.09
13.228
15.25
17.14
18.881
20.459
21.86
23.069
24.073
24.861
25.422
25.75
25.838
25.682
25.277
24.619
23.703
22.527
21.092
19.398
17.449
15.249
12.807
10.137
7.255
4.175
0.906
-2.549
-6.187
-9.998
-13.969
-18.085
-22.322
-26.653
-31.043
-35.438
-39.79
-44.052
-48.183
-52.154
-55.938
-59.495
-62.782
-65.747
-68.339
-70.527
-72.278
-73.569
-74.414
-74.839
-74.904
-74.704
-74.31
-73.798
-73.262
-72.785
-72.459
-72.397
-72.67
-73.39
-74.732
-76.762
-79.439
-82.594
-85.805
-88.617
-90.68
-91.528
-90.627
-87.762
-82.999
-76.835
-70.449
-65
-61.305
-60.196
-62.333
-67.699
-75.577
-84.318
-90.996
-92.51
-86.139
-69.156
-39.243
4.886
63.253
134.295
214.457
299.248
383.851
462.598
529.524
579.206
607.254
611.845
594.068
555.652
498.428
422.604
327.771
217.907
101.982
-5.405
-89.021
-141.267
-163.935
-167.429
-163.488
-158.664
-154.04
-146.58
-134.743
-120.443
-106.569
-96.163
-90.352
-88.255
-88.766
-90.653
-92.611
-93.437
-92.397
-89.332
-84.539
-78.667
-72.287
-65.819
-59.781
-54.744
-51.036
-48.757
-47.823
-47.953
-48.912
-50.535
-52.621
-54.979
-57.444
-59.845
-62.048
-63.965
-65.517
-66.655
-67.351
-67.58
-67.341
-66.66
-65.579
-64.157
-62.452
-60.516
-58.394
-56.132
-53.782
-51.403
-49.051
-46.776
-44.615
-42.586
-40.702
-38.971
-37.392
-35.955
-34.641
-33.425
-32.286
-31.211
-30.184
-29.194
-28.222
-27.251
-26.264
-25.246
-24.183
-23.063
-21.872
-20.602
-19.242
-17.787
-16.232
-14.573
-12.804
-10.921
-8.917
-6.789
-4.531
-2.142
0.381
3.039
5.832
8.758
11.814
14.994
18.294
21.707
25.227
28.844
32.551
36.337
40.192
44.104
48.06
52.047
56.052
60.061
64.057
68.028
71.956
75.827
79.625
83.336
86.943
90.431
93.786
96.993
100.037
102.906
105.585
108.064
110.329
112.371
114.18
115.747
117.065
118.129
118.931
119.469
119.739
119.739
119.469
118.928
118.118
117.042
115.704
114.109
112.263
110.174
107.85
105.299
102.532
99.561
96.396
93.05
89.537
85.871
82.066
78.137
74.101
69.971
65.766
61.501
57.191
52.854
48.504
44.158
39.83
35.536
31.29
27.107
23
18.98
15.062
11.254
7.569
4.014
0.598
-2.672
-5.789
-8.749
-11.548
-14.181
-16.648
-18.946
-21.077
-23.041
-24.84
-26.478
-27.958
-29.287
-30.469
-31.51
-32.419
-33.203
-33.868
-34.425
-34.881
-35.246
-35.528
-35.737
-35.882
-35.972
-36.016
-36.023
-36.001
-35.957
-35.9
-35.836
-35.77
-35.71
-35.659
-35.621
-35.602
-35.602
-35.625
-35.672
-35.742
-35.836
-35.952
-36.089
-36.242
-36.409
-36.585
-36.765
-36.944
-37.116
-37.276
-37.417
-37.531
-37.613
-37.655
-37.65
-37.592
-37.472
-37.286
-37.025
-36.685
-36.259
-35.743
-35.132
-34.422
-33.611
-32.695
-31.673
-30.544
-29.308
-27.966
-26.517
-24.966
-23.315
-21.568
-19.73
-17.807
-15.805
-13.733
-11.598
-9.409
-7.176
-4.908
-2.618
-0.316
1.986
4.276
6.54
8.766
10.94
13.047
15.075
17.008
18.832
20.532
22.096
23.509
24.758
25.831
26.716
27.403
27.882
28.145
28.182
27.987
27.551
26.871
25.941
24.758
23.319
21.622
19.667
17.458
15.002
12.306
9.381
6.232
2.865
-0.71
-4.478
-8.421
-12.519
-16.753
-21.099
-25.524
-29.983
-34.434
-38.835
-43.154
-47.369
-51.454
-55.377
-59.101
-62.584
-65.795
-68.714
-71.329
-73.624
-75.583
-77.202
-78.512
-79.589
-80.505
-81.324
-82.077
-82.767
-83.42
-84.089
-84.836
-85.731
-86.82
-88.107
-89.624
-91.481
-93.704
-96.197
-98.712
-100.757
-101.843
-101.63
-99.736
-95.703
-89.357
-80.834
-70.605
-59.8
-49.576
-40.771
-34.412
-31.427
-31.951
-35.382
-40.374
-44.473
-44.909
-39.08
-23.838
4.049
45.238
97.795
159.522
226.738
299.313
380.869
468.18
554.129
624.598
659.255
650.174
597.386
509.207
403.609
289.257
173.868
66.747
-28.786
-103.239
-151.802
-179.625
-190.577
-191.986
-188.26
-177.246
-159.296
-136.24
-111.655
-90.619
-75.244
-65.749
-61.698
-61.921
-65.751
-71.875
-77.888
-82.397
-85.012
-85.687
-84.895
-82.857
-79.282
-74.638
-70.116
-66.409
-63.862
-62.547
-62.101
-62.414
-63.706
-65.849
-68.43
-71.131
-73.61
-75.674
-77.377
-78.697
-79.535
-79.875
-79.722
-79.103
-78.115
-76.822
-75.24
-73.4
-71.327
-69.049
-66.629
-64.128
-61.604
-59.114
-56.694
-54.366
-52.15
-50.056
-48.093
-46.257
-44.534
-42.901
-41.343
-39.849
-38.414
-37.029
-35.678
-34.342
-33.004
-31.649
-30.266
-28.844
-27.372
-25.838
-24.236
-22.558
-20.801
-18.962
-17.036
-15.017
-12.899
-10.677
-8.346
-5.904
-3.347
-0.673
2.12
5.03
8.054
11.191
14.435
17.782
21.225
24.757
28.37
32.056
35.805
39.606
43.447
47.318
51.205
55.094
58.974
62.829
66.646
70.409
74.105
77.719
81.237
84.645
87.928
91.074
94.067
96.896
99.546
102.007
104.265
106.311
108.134
109.725
111.075
112.179
113.03
113.623
113.955
114.023
113.826
113.363
112.635
111.644
110.393
108.886
107.129
105.128
102.891
100.426
97.741
94.847
91.755
88.476
85.022
81.405
77.639
73.738
69.716
65.586
61.366
57.068
52.71
48.306
43.873
39.425
34.978
30.547
26.146
21.79
17.493
13.267
9.126
5.08
1.141
-2.681
-6.377
-9.938
-13.357
-16.628
-19.745
-22.704
-25.502
-28.135
-30.602
-32.902
-35.036
-37.004
-38.808
-40.451
-41.937
-43.268
-44.45
-45.488
-46.389
-47.158
-47.803
-48.33
-48.748
-49.065
-49.288
-49.426
-49.488
-49.481
-49.415
-49.296
-49.134
-48.934
-48.706
-48.455
-48.188
-47.912
-47.63
-47.348
-47.07
-46.799
-46.538
-46.29
-46.054
-45.833
-45.625
-45.431
-45.25
-45.079
-44.917
-44.762
-44.609
-44.456
-44.299
-44.134
-43.956
-43.76
-43.543
-43.298
-43.021
-42.707
-42.351
-41.947
-41.491
-40.977
-40.401
-39.758
-39.044
-38.254
-37.384
-36.431
-35.393
-34.266
-33.051
-31.745
-30.349
-28.863
-27.29
-25.631
-23.889
-22.068
-20.172
-18.205
-16.174
-14.083
-11.939
-9.75
-7.522
-5.263
-2.982
-0.685
1.616
3.914
6.199
8.462
10.693
12.881
15.014
17.083
19.074
20.975
22.772
24.453
26.002
27.406
28.654
29.733
30.631
31.342
31.855
32.166
32.267
32.153
31.818
31.257
30.466
29.439
28.175
26.671
24.928
22.955
20.758
18.345
15.72
12.88
9.827
6.574
3.116
-0.544
-4.397
-8.431
-12.604
-16.851
-21.137
-25.428
-29.644
-33.73
-37.628
-41.272
-44.646
-47.748
-50.504
-52.828
-54.833
-56.661
-58.203
-59.48
-60.584
-61.265
-62.57
-65.511
-68.831
-72.18
-73.235
-69.199
-63.371
-57.99
-56.274
-62.646
-73.381
-85.21
-95.773
-101.103
-103.314
-104.565
-105.142
-106.261
-106.488
-104.51
-100.646
-95.226
-89.452
-84.331
-79.971
-76.715
-75.023
-74.652
-74.984
-74.534
-70.732
-61.798
-46.504
-23.099
10.066
54.232
109.101
171.504
237.196
302.817
368.691
438.466
512.193
585.434
645.874
674.524
660.634
602.554
509.258
400.789
291.498
188.529
95.006
8.284
-71.142
-138.201
-189.639
-224.05
-239.886
-237.643
-218.286
-180.567
-130.362
-79.239
-37.023
-14.874
-15.106
-29.689
-51.019
-70.252
-83.252
-92.752
-100.478
-107.817
-114.347
-117.253
-115.718
-110.4
-102.691
-94.842
-87.958
-82.272
-78.175
-75.73
-74.868
-75.504
-77.139
-79.146
-81.191
-83.077
-84.653
-85.88
-86.689
-87.01
-86.881
-86.364
-85.487
-84.274
-82.746
-80.91
-78.804
-76.476
-73.96
-71.286
-68.515
-65.712
-62.895
-60.09
-57.316
-54.571
-51.902
-49.376
-46.971
-44.633
-42.493
-40.695
-39.13
-37.793
-36.701
-35.487
-35.071
-36.346
-37.993
-39.601
-38.762
-32.599
-24.264
-15.857
-10.511
-12.533
-18.092
-23.941
-27.851
-26.144
-21.433
-16.37
-11.536
-8.546
-6.452
-4.041
-1.538
1.212
4.128
6.966
9.883
13.004
16.283
19.704
23.276
26.986
30.817
34.752
38.758
42.794
46.859
50.949
55.046
59.135
63.201
67.225
71.194
75.095
78.911
82.623
86.216
89.672
92.976
96.115
99.072
101.834
104.389
106.723
108.826
110.687
112.298
113.65
114.736
115.55
116.088
116.346
116.321
116.013
115.42
114.545
113.389
111.955
110.249
108.277
106.044
103.559
100.832
97.872
94.69
91.299
87.712
83.941
80.002
75.911
71.682
67.333
62.879
58.338
53.727
49.063
44.363
39.645
34.924
30.218
25.544
20.917
16.354
11.869
7.478
3.194
-0.97
-5
-8.886
-12.617
-16.184
-19.579
-22.794
-25.825
-28.665
-31.312
-33.764
-36.02
-38.08
-39.945
-41.618
-43.104
-44.406
-45.531
-46.485
-47.276
-47.911
-48.4
-48.75
-48.972
-49.076
-49.072
-48.97
-48.783
-48.52
-48.193
-47.813
-47.391
-46.938
-46.463
-45.977
-45.488
-45.006
-44.537
-44.088
-43.667
-43.278
-42.925
-42.612
-42.34
-42.112
-41.928
-41.786
-41.686
-41.624
-41.598
-41.604
-41.637
-41.692
-41.763
-41.845
-41.932
-42.015
-42.089
-42.145
-42.175
-42.171
-42.126
-42.03
-41.877
-41.659
-41.367
-40.995
-40.537
-39.986
-39.337
-38.586
-37.727
-36.758
-35.676
-34.48
-33.168
-31.742
-30.203
-28.554
-26.797
-24.936
-22.976
-20.923
-18.783
-16.562
-14.269
-11.909
-9.495
-7.034
-4.537
-2.015
0.521
3.059
5.588
8.094
10.565
12.989
15.352
17.642
19.844
21.946
23.932
25.79
27.505
29.065
30.455
31.661
32.67
33.466
34.039
34.382
34.486
34.346
33.954
33.306
32.399
31.234
29.813
28.137
26.203
24.011
21.566
18.882
15.982
12.884
9.599
6.132
2.485
-1.336
-5.314
-9.436
-13.695
-18.086
-22.592
-27.184
-31.804
-36.389
-40.895
-45.302
-49.614
-53.834
-57.925
-61.81
-65.398
-68.618
-71.446
-73.894
-75.92
-77.431
-78.406
-78.958
-79.395
-80.076
-81.16
-82.565
-84.135
-85.86
-87.805
-89.926
-91.779
-92.703
-92.263
-90.463
-87.756
-84.479
-80.701
-76.526
-72.481
-69.47
-68.49
-70.196
-74.404
-80.872
-89.451
-99.777
-111.223
-122.651
-132.197
-137.855
-138.251
-131.944
-117.64
-94.475
-61.566
-18.346
34.864
96.86
166.341
240.333
314.224
385.343
451.365
511.086
566.198
612.347
640.424
643.122
612.588
550.185
466.456
367.494
259.535
147.796
35.078
-66.242
-143.13
-191.023
-209.597
-207.697
-195.567
-175.13
-149.283
-121.776
-96.92
-83.912
-85.134
-95.256
-108.642
-117.372
-118.831
-116.74
-112.955
-109.377
-106.548
-102.378
-96.581
-89.915
-82.901
-76.608
-71.717
-68.191
-66.017
-65.137
-65.273
-66.185
-67.706
-69.645
-71.845
-74.192
-76.542
-78.729
-80.627
-82.145
-83.213
-83.79
-83.857
-83.407
-82.462
-81.074
-79.301
-77.202
-74.829
-72.226
-69.434
-66.508
-63.51
-60.503
-57.552
-54.701
-51.98
-49.407
-46.994
-44.74
-42.639
-40.671
-38.81
-37.037
-35.336
-33.696
-32.106
-30.553
-29.02
-27.491
-25.95
-24.386
-22.785
-21.137
-19.431
-17.659
-15.816
-13.897
-11.899
-9.818
-7.648
-5.385
-3.022
-0.556
2.016
4.697
7.488
10.391
13.402
16.518
19.736
23.049
26.451
29.935
33.493
37.117
40.797
44.523
48.285
52.071
55.871
59.672
63.462
67.229
70.959
74.641
78.259
81.802
85.255
88.605
91.839
94.942
97.903
100.707
103.343
105.799
108.065
110.128
111.981
113.614
115.02
116.192
117.126
117.818
118.263
118.46
118.408
118.107
117.557
116.761
115.72
114.438
112.919
111.168
109.19
106.993
104.582
101.968
99.157
96.16
92.987
89.649
86.158
82.526
78.765
74.89
70.914
66.851
62.714
58.519
54.28
50.011
45.726
41.44
37.166
32.918
28.708
24.549
20.452
16.429
12.489
8.644
4.902
1.272
-2.238
-5.619
-8.867
-11.973
-14.934
-17.744
-20.401
-22.901
-25.242
-27.423
-29.444
-31.305
-33.009
-34.556
-35.95
-37.195
-38.295
-39.256
-40.082
-40.782
-41.361
-41.827
-42.188
-42.451
-42.625
-42.717
-42.736
-42.688
-42.582
-42.425
-42.225
-41.989
-41.724
-41.436
-41.133
-40.819
-40.501
-40.184
-39.871
-39.568
-39.277
-39.001
-38.743
-38.505
-38.288
-38.093
-37.92
-37.768
-37.635
-37.521
-37.42
-37.331
-37.249
-37.168
-37.085
-36.993
-36.887
-36.761
-36.61
-36.427
-36.206
-35.941
-35.627
-35.256
-34.824
-34.325
-33.754
-33.106
-32.378
-31.566
-30.669
-29.683
-28.608
-27.442
-26.186
-24.839
-23.403
-21.878
-20.269
-18.578
-16.81
-14.971
-13.066
-11.104
-9.092
-7.039
-4.956
-2.852
-0.737
1.376
3.475
5.548
7.581
9.56
11.469
13.294
15.018
16.626
18.104
19.436
20.609
21.609
22.424
23.044
23.461
23.664
23.646
23.398
22.914
22.188
21.217
19.996
18.521
16.791
14.805
12.569
10.089
7.372
4.423
1.244
-2.159
-5.777
-9.592
-13.589
-17.747
-22.043
-26.441
-30.892
-35.34
-39.729
-44.014
-48.154
-52.114
-55.853
-59.326
-62.489
-65.306
-67.751
-69.815
-71.483
-72.751
-73.638
-74.188
-74.494
-74.675
-74.842
-75.092
-75.501
-76.12
-77.019
-78.282
-79.972
-82.159
-84.883
-88.121
-91.907
-96.288
-101.165
-106.323
-111.353
-115.629
-118.631
-119.965
-119.144
-115.804
-109.872
-101.472
-91.28
-80.385
-69.627
-59.76
-51.541
-45.205
-40.488
-36.635
-31.911
-24.146
-11.292
8.891
38.535
79.166
130.409
189.671
253.505
317.715
381.37
447.142
513.622
576.395
624.342
638.943
611.248
542.049
441.171
328.47
215.146
103.85
-3.864
-108.096
-199.986
-266.067
-299.763
-301.348
-280.499
-249.996
-217.379
-185.562
-153.38
-120.116
-87.791
-59.711
-39.632
-28.98
-27
-32.214
-42.327
-55.195
-69.127
-82.105
-92.435
-99.403
-102.756
-102.712
-100.039
-95.52
-90
-84.633
-80.266
-77.256
-75.76
-75.629
-76.529
-78.168
-80.146
-81.96
-83.312
-84.073
-84.2
-83.781
-82.889
-81.557
-79.868
-77.918
-75.763
-73.442
-70.975
-68.363
-65.643
-62.872
-60.112
-57.417
-54.813
-52.318
-49.942
-47.689
-45.565
-43.564
-41.673
-39.882
-38.19
-36.593
-35.089
-33.673
-32.329
-31.041
-29.791
-28.561
-27.336
-26.105
-24.854
-23.575
-22.257
-20.895
-19.482
-18.01
-16.471
-14.855
-13.152
-11.354
-9.455
-7.446
-5.322
-3.078
-0.711
1.78
4.396
7.139
10.006
12.996
16.107
19.333
22.669
26.11
29.647
33.272
36.974
40.742
44.564
48.427
52.316
56.217
60.114
63.992
67.834
71.624
75.346
78.983
82.519
85.938
89.224
92.36
95.333
98.126
100.726
103.118
105.292
107.235
108.937
110.389
111.583
112.511
113.168
113.549
113.651
113.471
113.01
112.267
111.246
109.948
108.38
106.548
104.459
102.121
99.546
96.743
93.724
90.502
87.09
83.502
79.754
75.861
71.838
67.703
63.471
59.161
54.789
50.371
45.926
41.469
37.017
32.586
28.192
23.849
19.572
15.374
11.269
7.269
3.384
-0.374
-3.996
-7.475
-10.803
-13.974
-16.984
-19.828
-22.503
-25.007
-27.341
-29.503
-31.496
-33.32
-34.98
-36.479
-37.823
-39.015
-40.064
-40.975
-41.756
-42.414
-42.956
-43.392
-43.728
-43.973
-44.136
-44.224
-44.246
-44.209
-44.121
-43.989
-43.821
-43.623
-43.402
-43.162
-42.91
-42.649
-42.384
-42.117
-41.852
-41.591
-41.335
-41.085
-40.84
-40.6
-40.363
-40.126
-39.887
-39.642
-39.386
-39.115
-38.825
-38.51
-38.164
-37.783
-37.361
-36.893
-36.374
-35.798
-35.161
-34.459
-33.685
-32.838
-31.911
-30.902
-29.808
-28.627
-27.355
-25.992
-24.538
-22.991
-21.352
-19.622
-17.805
-15.901
-13.915
-11.852
-9.717
-7.517
-5.26
-2.954
-0.608
1.767
4.162
6.565
8.963
11.345
13.701
16.017
18.281
20.48
22.603
24.637
26.569
28.386
30.076
31.622
33.013
34.235
35.275
36.122
36.764
37.191
37.396
37.375
37.121
36.632
35.901
34.925
33.703
32.235
30.525
28.574
26.387
23.973
21.347
18.524
15.517
12.332
8.972
5.44
1.746
-2.099
-6.081
-10.179
-14.369
-18.617
-22.874
-27.093
-31.232
-35.253
-39.13
-42.834
-46.319
-49.54
-52.44
-54.975
-57.115
-58.826
-60.085
-60.903
-61.311
-61.372
-61.182
-60.804
-60.302
-59.767
-59.271
-58.908
-58.8
-59.023
-59.692
-60.975
-62.911
-65.455
-68.453
-71.487
-74.149
-76.162
-77.064
-76.372
-74.002
-70.036
-64.971
-59.96
-55.835
-53.03
-52.233
-53.961
-57.961
-63.593
-69.257
-72.105
-69.919
-61.087
-43.355
-14.641
25.978
78.878
141.944
209.909
279.67
349.162
416.476
481.959
540.285
581.715
597.889
580.748
531.776
459.995
373.193
279.584
180.769
77.587
-22.043
-109.561
-173.213
-207.403
-217.742
-210.715
-194.907
-175.108
-149.462
-118.737
-85.127
-51.704
-23.963
-5.156
4.167
4.116
-3.985
-17.961
-35.602
-54.55
-72.24
-86.769
-97.235
-103.155
-104.541
-102.05
-96.543
-89.099
-81.128
-73.655
-67.16
-61.92
-57.933
-55.004
-52.959
-51.49
-50.1
-48.461
-46.444
-44.022
-41.331
-38.537
-35.764
-33.16
-30.876
-28.995
-27.561
-26.585
-26.02
-25.809
-25.891
-26.181
-26.633
-27.228
-27.945
-28.755
-29.611
-30.434
-31.131
-31.633
-31.885
-31.845
-31.489
-30.797
-29.776
-28.461
-26.916
-25.218
-23.423
-21.556
-19.635
-17.672
-15.687
-13.709
-11.768
-9.874
-8.036
-6.26
-4.55
-2.912
-1.337
0.2
1.742
3.332
5.005
6.778
8.663
10.668
12.8
15.063
17.455
19.968
22.592
25.324
28.161
31.101
34.137
37.258
40.447
43.688
46.967
50.271
53.586
56.898
60.195
63.464
66.695
69.88
73.007
76.063
79.034
81.906
84.664
87.294
89.782
92.113
94.274
96.254
98.041
99.626
101
102.156
103.086
103.784
104.245
104.464
104.438
104.164
103.641
102.868
101.845
100.576
99.063
97.31
95.322
93.106
90.669
88.021
85.169
82.125
78.9
75.507
71.959
68.27
64.455
60.53
56.511
52.414
48.255
44.051
39.818
35.571
31.326
27.099
22.904
18.756
14.669
10.656
6.73
2.904
-0.811
-4.405
-7.868
-11.192
-14.369
-17.392
-20.257
-22.959
-25.495
-27.863
-30.062
-32.092
-33.954
-35.652
-37.187
-38.566
-39.792
-40.871
-41.81
-42.616
-43.297
-43.86
-44.313
-44.664
-44.923
-45.098
-45.196
-45.227
-45.199
-45.119
-44.996
-44.838
-44.65
-44.44
-44.213
-43.974
-43.729
-43.48
-43.231
-42.985
-42.743
-42.506
-42.274
-42.046
-41.822
-41.6
-41.376
-41.148
-40.912
-40.663
-40.398
-40.112
-39.798
-39.453
-39.07
-38.646
-38.174
-37.649
-37.067
-36.423
-35.713
-34.933
-34.078
-33.145
-32.132
-31.037
-29.858
-28.596
-27.249
-25.818
-24.306
-22.715
-21.048
-19.31
-17.504
-15.635
-13.711
-11.737
-9.722
-7.675
-5.603
-3.516
-1.424
0.661
2.73
4.771
6.773
8.726
10.617
12.434
14.167
15.805
17.334
18.745
20.023
21.157
22.133
22.942
23.572
24.013
24.255
24.292
24.119
23.732
23.129
22.306
21.261
19.991
18.497
16.779
14.841
12.685
10.318
7.747
4.985
2.047
-1.054
-4.311
-7.723
-11.286
-14.991
-18.827
-22.778
-26.822
-30.938
-35.093
-39.242
-43.34
-47.343
-51.216
-54.934
-58.471
-61.789
-64.846
-67.589
-69.97
-71.965
-73.546
-74.696
-75.428
-75.766
-75.763
-75.51
-75.077
-74.539
-73.981
-73.477
-73.116
-72.997
-73.201
-73.841
-75.068
-76.935
-79.397
-82.287
-85.252
-87.921
-90.007
-91.137
-90.846
-88.882
-85.303
-80.53
-75.45
-70.959
-67.545
-65.616
-65.702
-67.955
-71.873
-76.256
-78.944
-77.48
-70.087
-55.217
-31.005
4.082
50.729
108.582
174.635
243.946
312.514
376.955
436.381
491.967
541.67
580.235
598.567
584.945
533.434
446.308
332.378
208.428
91.434
-7.907
-81.557
-130.149
-161.133
-179.567
-191.332
-198.325
-196.527
-184.707
-163.785
-136.877
-110.045
-87.139
-69.382
-57.012
-49.653
-47.376
-49.857
-55.798
-63.334
-70.646
-76.858
-81.82
-85.281
-86.746
-86.055
-83.504
-79.93
-76.487
-73.761
-71.827
-70.74
-70.594
-71.44
-73.259
-75.741
-78.298
-80.541
-82.321
-83.575
-84.338
-84.615
-84.353
-83.571
-82.376
-80.862
-79.099
-77.128
-74.94
-72.545
-69.991
-67.333
-64.64
-61.978
-59.38
-56.868
-54.458
-52.159
-49.982
-47.932
-46
-44.168
-42.424
-40.762
-39.178
-37.671
-36.229
-34.835
-33.47
-32.117
-30.763
-29.397
-28.009
-26.588
-25.124
-23.61
-22.039
-20.407
-18.708
-16.933
-15.075
-13.125
-11.077
-8.926
-6.668
-4.297
-1.813
0.788
3.504
6.334
9.277
12.329
15.486
18.741
22.088
25.519
29.026
32.598
36.224
39.892
43.589
47.302
51.017
54.719
58.393
62.023
65.594
69.09
72.495
75.795
78.973
82.015
84.906
87.633
90.182
92.541
94.699
96.642
98.363
99.851
101.099
102.101
102.85
103.343
103.576
103.549
103.26
102.711
101.903
100.839
99.524
97.962
96.161
94.127
91.87
89.399
86.724
83.857
80.81
77.596
74.228
70.72
67.087
63.341
59.499
55.575
51.584
47.54
43.458
39.353
35.239
31.13
27.041
22.983
18.971
15.014
11.126
7.316
3.594
-0.03
-3.548
-6.951
-10.234
-13.389
-16.412
-19.297
-22.041
-24.641
-27.097
-29.406
-31.57
-33.588
-35.464
-37.199
-38.796
-40.259
-41.592
-42.799
-43.887
-44.86
-45.725
-46.487
-47.154
-47.731
-48.225
-48.643
-48.991
-49.275
-49.502
-49.678
-49.809
-49.901
-49.959
-49.989
-49.996
-49.985
-49.961
-49.929
-49.89
-49.849
-49.808
-49.768
-49.73
-49.695
-49.663
-49.632
-49.602
-49.571
-49.536
-49.494
-49.441
-49.374
-49.288
-49.179
-49.041
-48.871
-48.662
-48.41
-48.11
-47.758
-47.349
-46.877
-46.339
-45.73
-45.045
-44.28
-43.431
-42.494
-41.464
-40.34
-39.118
-37.798
-36.376
-34.855
-33.232
-31.511
-29.692
-27.78
-25.776
-23.686
-21.516
-19.272
-16.961
-14.593
-12.175
-9.718
-7.233
-4.729
-2.219
0.285
2.772
5.231
7.647
10.009
12.302
14.514
16.631
18.638
20.52
22.26
23.842
25.253
26.477
27.5
28.309
28.892
29.241
29.349
29.208
28.813
28.158
27.238
26.05
24.593
22.868
20.876
18.619
16.105
13.347
10.357
7.147
3.726
0.093
-3.742
-7.77
-11.976
-16.345
-20.852
-25.471
-30.159
-34.859
-39.52
-44.088
-48.52
-52.785
-56.841
-60.643
-64.143
-67.281
-70.019
-72.333
-74.191
-75.572
-76.487
-76.969
-77.096
-76.993
-76.751
-76.443
-76.152
-75.956
-75.96
-76.283
-77.02
-78.212
-79.916
-82.238
-85.184
-88.679
-92.489
-96.115
-99.126
-101.263
-102.127
-101.226
-98.423
-93.734
-87.537
-80.959
-74.628
-68.52
-63.333
-59.915
-58.091
-57.633
-56.518
-50.194
-37.163
-17.776
7.23
34.395
64.332
101.231
148.973
212.585
293.247
387.405
486.343
576.458
642.493
670.061
654.735
600.387
517.301
419.252
310.885
195.085
75.519
-41.803
-140.104
-207.117
-239.161
-240.407
-226.18
-207.399
-188.212
-169.179
-146.144
-118.777
-90.517
-64.849
-45.739
-35.039
-32.199
-36.15
-45.042
-56.689
-69.332
-81.281
-91.268
-98.458
-102.348
-102.918
-100.633
-96.32
-90.962
-85.623
-81.016
-77.559
-75.514
-74.865
-75.462
-77.05
-79.207
-81.419
-83.339
-84.786
-85.676
-86.052
-85.942
-85.352
-84.342
-83.002
-81.402
-79.59
-77.586
-75.38
-72.988
-70.453
-67.831
-65.185
-62.574
-60.028
-57.57
-55.217
-52.98
-50.869
-48.885
-47.018
-45.254
-43.586
-42.008
-40.515
-39.101
-37.752
-36.45
-35.174
-33.906
-32.633
-31.342
-30.02
-28.656
-27.238
-25.758
-24.209
-22.585
-20.879
-19.08
-17.182
-15.177
-13.058
-10.82
-8.458
-5.97
-3.35
-0.6
2.282
5.293
8.431
11.693
15.074
18.567
22.165
25.86
29.642
33.5
37.425
41.403
45.42
49.465
53.521
57.574
61.609
65.61
69.56
73.443
77.246
80.95
84.543
88.008
91.331
94.499
97.497
100.313
102.934
105.348
107.544
109.514
111.247
112.738
113.978
114.964
115.691
116.157
116.36
116.3
115.978
115.394
114.553
113.457
112.112
110.525
108.703
106.654
104.387
101.913
99.243
96.387
93.359
90.169
86.83
83.355
79.758
76.053
72.251
68.369
64.421
60.42
56.382
52.319
48.247
44.178
40.125
36.102
32.12
28.187
24.317
20.523
16.817
13.212
9.715
6.331
3.068
-0.057
-3.044
-5.906
-8.653
-11.3
-13.844
-16.256
-18.53
-20.696
-22.732
-24.575
-26.178
-27.486
-28.495
-29.292
-29.906
-30.252
-30.425
-30.748
-31.296
-31.98
-32.847
-33.565
-34.762
-38.422
-44.151
-50.128
-53.391
-48.319
-35.199
-19.7
-7.451
-6.442
-17.275
-32.386
-45.921
-51.585
-48.212
-41.458
-34.82
-30.659
-29.721
-29.704
-29.546
-29.329
-28.969
-28.81
-28.941
-29.049
-29.035
-28.95
-28.781
-28.512
-28.15
-27.705
-27.201
-26.686
-26.174
-25.634
-25.052
-24.427
-23.753
-23.026
-22.24
-21.384
-20.45
-19.441
-18.353
-17.185
-15.936
-14.604
-13.187
-11.686
-10.103
-8.439
-6.696
-4.878
-2.989
-1.034
0.982
3.051
5.167
7.323
9.511
11.723
13.948
16.178
18.403
20.611
22.792
24.933
27.021
29.042
30.983
32.828
34.561
36.167
37.63
38.936
40.07
41.018
41.767
42.308
42.632
42.731
42.599
42.229
41.613
40.749
39.63
38.256
36.628
34.744
32.607
30.23
27.62
24.789
21.743
18.484
15.013
11.339
7.474
3.429
-0.774
-5.11
-9.542
-14.017
-18.485
-22.897
-27.212
-31.397
-35.42
-39.241
-42.816
-46.094
-49.029
-51.591
-53.756
-55.491
-56.796
-57.705
-58.28
-58.628
-58.849
-59.001
-59.151
-59.376
-59.764
-60.427
-61.473
-62.965
-64.989
-67.68
-71.085
-75.157
-79.683
-84.166
-88.07
-90.975
-92.414
-91.903
-89.232
-84.441
-77.992
-71.053
-64.797
-60.015
-57.463
-57.726
-60.762
-65.938
-71.743
-75.333
-73.757
-64.637
-45.461
-13.893
31.484
91.081
162.563
240.356
319.165
395.112
467.663
538.46
604.878
658.852
686.302
673.177
615.197
519.527
403.319
285.034
176.056
79.62
-6.525
-83.616
-149.726
-201.353
-235.142
-251.039
-251.351
-238.552
-216.102
-187.555
-156.022
-124.862
-96.506
-72.2
-53.199
-40.566
-34.311
-33.911
-38.364
-46.029
-55.698
-66.376
-76.553
-84.948
-90.934
-94.206
-94.978
-93.904
-91.415
-88.044
-84.71
-82.071
-80.459
-80.033
-80.608
-81.851
-83.536
-85.37
-86.947
-88.029
-88.503
-88.322
-87.576
-86.363
-84.734
-82.773
-80.573
-78.19
-75.67
-73.055
-70.363
-67.64
-64.944
-62.319
-59.796
-57.397
-55.127
-52.989
-50.984
-49.105
-47.335
-45.666
-44.09
-42.605
-41.208
-39.893
-38.645
-37.45
-36.29
-35.151
-34.016
-32.87
-31.699
-30.493
-29.243
-27.941
-26.579
-25.149
-23.639
-22.039
-20.338
-18.528
-16.599
-14.545
-12.359
-10.037
-7.577
-4.978
-2.239
0.638
3.652
6.8
10.079
13.485
17.011
20.651
24.397
28.239
32.167
36.169
40.233
44.345
48.49
52.653
56.818
60.97
65.09
69.161
73.168
77.09
80.912
84.615
88.182
91.596
94.842
97.903
100.766
103.416
105.842
108.032
109.975
111.662
113.085
114.236
115.109
115.699
116.002
116.015
115.738
115.17
114.314
113.171
111.746
110.045
108.073
105.839
103.353
100.623
97.661
94.481
91.094
87.515
83.76
79.845
75.784
71.596
67.297
62.905
58.435
53.907
49.336
44.739
40.134
35.537
30.964
26.431
21.952
17.543
13.217
8.988
4.867
0.867
-3.004
-6.735
-10.319
-13.746
-17.012
-20.111
-23.039
-25.791
-28.368
-30.767
-32.988
-35.034
-36.907
-38.609
-40.145
-41.52
-42.739
-43.809
-44.736
-45.527
-46.191
-46.735
-47.168
-47.499
-47.737
-47.89
-47.969
-47.98
-47.935
-47.84
-47.704
-47.536
-47.343
-47.131
-46.908
-46.68
-46.453
-46.232
-46.021
-45.824
-45.643
-45.483
-45.343
-45.225
-45.13
-45.056
-45.003
-44.969
-44.952
-44.949
-44.955
-44.968
-44.983
-44.994
-44.996
-44.984
-44.951
-44.892
-44.801
-44.672
-44.497
-44.272
-43.989
-43.643
-43.229
-42.74
-42.172
-41.518
-40.777
-39.943
-39.014
-37.987
-36.861
-35.634
-34.307
-32.878
-31.35
-29.723
-28
-26.184
-24.279
-22.289
-20.222
-18.082
-15.878
-13.616
-11.307
-8.958
-6.581
-4.185
-1.781
0.619
3.002
5.355
7.666
9.92
12.102
14.197
16.19
18.065
19.807
21.401
22.833
24.09
25.158
26.026
26.686
27.126
27.337
27.311
27.04
26.517
25.735
24.688
23.375
21.793
19.944
17.835
15.474
12.867
10.022
6.942
3.631
0.102
-3.633
-7.56
-11.658
-15.902
-20.255
-24.664
-29.085
-33.47
-37.783
-41.994
-46.073
-49.983
-53.688
-57.144
-60.31
-63.159
-65.663
-67.793
-69.536
-70.903
-71.945
-72.748
-73.396
-73.956
-74.465
-74.962
-75.504
-76.164
-77.021
-78.152
-79.596
-81.413
-83.736
-86.608
-89.943
-93.502
-96.775
-99.218
-100.451
-100.047
-97.514
-92.663
-85.6
-76.827
-67.572
-59.069
-52.101
-47.477
-45.888
-47.337
-51.255
-56.252
-59.526
-58.022
-49.34
-30.995
-0.615
43.054
100.292
170.335
248.968
330.821
412.412
488.584
556.012
612.234
649.11
660.736
643.415
595.202
523.069
433.851
330.957
218.007
96.953
-25.03
-133.178
-213.692
-258.667
-269.823
-258.805
-237.812
-214.356
-190.984
-165.72
-137.772
-109.232
-83.224
-63.453
-51.878
-48.13
-50.95
-58.261
-67.857
-78.082
-87.41
-94.728
-99.349
-100.911
-99.517
-95.719
-90.356
-84.332
-78.61
-73.818
-70.297
-68.248
-67.621
-68.238
-69.832
-71.991
-74.22
-76.175
-77.678
-78.637
-79.086
-79.048
-78.525
-77.577
-76.296
-74.758
-73.019
-71.106
-69.019
-66.779
-64.432
-62.039
-59.664
-57.368
-55.182
-53.127
-51.216
-49.459
-47.857
-46.406
-45.09
-43.888
-42.783
-41.765
-40.823
-39.944
-39.11
-38.298
-37.481
-36.639
-35.753
-34.805
-33.781
-32.665
-31.446
-30.113
-28.657
-27.074
-25.355
-23.493
-21.479
-19.309
-16.977
-14.481
-11.819
-8.991
-5.998
-2.842
0.472
3.938
7.551
11.302
15.184
19.185
23.296
27.503
31.795
36.156
40.572
45.027
49.503
53.983
58.448
62.88
67.26
71.57
75.79
79.901
83.887
87.729
91.411
94.916
98.229
101.336
104.224
106.879
109.291
111.449
113.345
114.97
116.317
117.383
118.161
118.65
118.846
118.749
118.36
117.68
116.711
115.457
113.924
112.117
110.044
107.714
105.137
102.323
99.285
96.035
92.585
88.95
85.145
81.183
77.08
72.852
68.513
64.08
59.567
54.992
50.368
45.712
41.038
36.362
31.697
27.057
22.456
17.907
13.424
9.018
4.7
0.483
-3.623
-7.609
-11.467
-15.188
-18.764
-22.192
-25.464
-28.578
-31.529
-34.316
-36.937
-39.391
-41.678
-43.801
-45.759
-47.556
-49.195
-50.681
-52.016
-53.206
-54.257
-55.173
-55.961
-56.627
-57.177
-57.618
-57.956
-58.198
-58.35
-58.421
-58.417
-58.344
-58.209
-58.02
-57.781
-57.499
-57.18
-56.828
-56.449
-56.045
-55.623
-55.183
-54.731
-54.267
-53.793
-53.311
-52.821
-52.324
-51.818
-51.302
-50.774
-50.232
-49.675
-49.098
-48.5
-47.876
-47.223
-46.539
-45.819
-45.06
-44.259
-43.41
-42.512
-41.559
-40.55
-39.48
-38.346
-37.145
-35.876
-34.536
-33.124
-31.639
-30.08
-28.447
-26.741
-24.963
-23.115
-21.198
-19.217
-17.176
-15.079
-12.933
-10.744
-8.52
-6.268
-3.997
-1.717
0.562
2.83
5.077
7.293
9.464
11.58
13.627
15.595
17.469
19.237
20.884
22.394
23.754
24.95
25.969
26.796
27.42
27.829
28.015
27.972
27.692
27.168
26.394
25.364
24.073
22.521
20.708
18.634
16.302
13.718
10.898
7.852
4.595
1.134
-2.532
-6.397
-10.448
-14.671
-19.048
-23.554
-28.162
-32.834
-37.517
-42.161
-46.72
-51.156
-55.447
-59.561
-63.458
-67.091
-70.401
-73.343
-75.895
-78.021
-79.703
-80.949
-81.782
-82.262
-82.487
-82.514
-82.404
-82.227
-82.036
-81.918
-81.963
-82.235
-82.838
-83.902
-85.473
-87.521
-89.878
-92.169
-94.004
-95.051
-94.916
-93.162
-89.524
-84.048
-77.193
-69.897
-63.162
-57.614
-53.735
-52.13
-53.073
-56.134
-60.129
-62.832
-61.672
-54.822
-40.504
-16.583
18.657
66.364
125.342
191.385
260.299
328.423
395.57
464.917
534.523
598.499
644.651
655.819
625.765
556.769
458.817
347.955
231.86
115.009
2.967
-97.256
-174.049
-219.751
-235.462
-229.67
-213.413
-194.013
-173.284
-149.479
-122.134
-93.359
-66.708
-46.238
-34.048
-30.107
-33.547
-42.342
-54.104
-66.9
-78.803
-88.443
-95.045
-98.092
-97.53
-93.869
-87.991
-80.968
-74.003
-67.882
-63.031
-59.731
-57.982
-57.649
-58.519
-60.172
-62.061
-63.816
-65.211
-66.121
-66.572
-66.572
-66.101
-65.203
-63.956
-62.418
-60.645
-58.658
-56.45
-54.032
-51.439
-48.717
-45.932
-43.143
-40.398
-37.732
-35.169
-32.727
-30.424
-28.264
-26.247
-24.362
-22.595
-20.937
-19.383
-17.925
-16.551
-15.245
-13.988
-12.76
-11.548
-10.338
-9.119
-7.879
-6.609
-5.301
-3.948
-2.544
-1.086
0.432
2.019
3.679
5.421
7.248
9.165
11.178
13.289
15.504
17.822
20.245
22.772
25.402
28.131
30.957
33.874
36.875
39.955
43.105
46.315
49.576
52.877
56.207
59.553
62.903
66.244
69.564
72.849
76.086
79.261
82.362
85.375
88.288
91.087
93.76
96.293
98.674
100.892
102.933
104.787
106.442
107.889
109.119
110.124
110.895
111.428
111.718
111.76
111.552
111.094
110.384
109.425
108.217
106.765
105.074
103.148
100.995
98.622
96.038
93.25
90.27
87.108
83.775
80.282
76.642
72.868
68.973
64.972
60.878
56.707
52.475
48.195
43.885
39.559
35.232
30.921
26.639
22.401
18.22
14.11
10.082
6.148
2.318
-1.397
-4.99
-8.452
-11.777
-14.959
-17.993
-20.875
-23.602
-26.172
-28.584
-30.836
-32.929
-34.864
-36.643
-38.269
-39.743
-41.072
-42.259
-43.31
-44.232
-45.03
-45.712
-46.285
-46.757
-47.137
-47.431
-47.647
-47.795
-47.88
-47.911
-47.895
-47.837
-47.744
-47.622
-47.474
-47.306
-47.122
-46.923
-46.713
-46.494
-46.268
-46.034
-45.794
-45.548
-45.294
-45.032
-44.76
-44.476
-44.177
-43.86
-43.52
-43.154
-42.758
-42.327
-41.856
-41.34
-40.774
-40.154
-39.473
-38.727
-37.912
-37.023
-36.055
-35.005
-33.872
-32.653
-31.346
-29.952
-28.469
-26.9
-25.246
-23.509
-21.692
-19.798
-17.833
-15.8
-13.706
-11.558
-9.363
-7.128
-4.863
-2.578
-0.282
2.013
4.297
6.558
8.784
10.963
13.081
15.126
17.084
18.94
20.678
22.282
23.737
25.029
26.143
27.065
27.783
28.288
28.573
28.632
28.459
28.049
27.394
26.49
25.336
23.93
22.275
20.37
18.219
15.831
13.22
10.399
7.378
4.162
0.746
-2.867
-6.665
-10.636
-14.762
-19.022
-23.393
-27.837
-32.3
-36.732
-41.085
-45.322
-49.42
-53.342
-57.041
-60.461
-63.538
-66.226
-68.497
-70.325
-71.697
-72.621
-73.12
-73.251
-73.106
-72.766
-72.32
-71.863
-71.478
-71.266
-71.334
-71.796
-72.825
-74.507
-76.79
-79.523
-82.398
-85.055
-87.236
-88.661
-88.857
-87.529
-84.733
-80.842
-76.751
-73.408
-71.302
-70.628
-71.713
-74.901
-79.839
-85.311
-89.31
-88.348
-79.792
-63.274
-37.249
-2.367
39.932
91.683
150.756
216.467
289.812
366.84
447.423
526.91
595.529
645.14
662.579
641.211
582.331
490.08
376.683
253.876
131.867
23.075
-64.2
-125.754
-162.285
-182.12
-193.629
-200.888
-203.911
-198.48
-182.277
-157.519
-128.648
-100.502
-76.13
-56.683
-42.62
-34.437
-32.301
-35.462
-42.427
-51.797
-62.246
-72.456
-81.462
-88.185
-91.87
-92.565
-90.779
-87.151
-82.505
-77.751
-73.469
-70.188
-68.266
-67.668
-68.225
-69.663
-71.542
-73.382
-74.902
-75.927
-76.38
-76.317
-75.767
-74.763
-73.396
-71.764
-69.937
-67.952
-65.819
-63.53
-61.109
-58.61
-56.089
-53.608
-51.206
-48.899
-46.704
-44.631
-42.685
-40.866
-39.164
-37.564
-36.055
-34.633
-33.296
-32.04
-30.852
-29.716
-28.613
-27.523
-26.429
-25.319
-24.178
-22.995
-21.759
-20.461
-19.093
-17.649
-16.121
-14.499
-12.774
-10.938
-8.983
-6.902
-4.69
-2.342
0.145
2.774
5.544
8.457
11.509
14.7
18.024
21.477
25.053
28.744
32.541
36.435
40.414
44.466
48.577
52.733
56.917
61.115
65.308
69.479
73.611
77.685
81.684
85.59
89.384
93.049
96.568
99.923
103.097
106.075
108.84
111.378
113.674
115.717
117.494
118.995
120.21
121.132
121.752
122.067
122.071
121.761
121.136
120.196
118.943
117.379
115.511
113.343
110.884
108.143
105.132
101.86
98.343
94.593
90.625
86.456
82.102
77.581
72.912
68.112
63.202
58.2
53.128
48.004
42.849
37.683
32.524
27.393
22.308
17.287
12.349
7.511
2.79
-1.799
-6.241
-10.523
-14.631
-18.554
-22.282
-25.807
-29.122
-32.22
-35.097
-37.75
-40.175
-42.374
-44.346
-46.093
-47.618
-48.926
-50.022
-50.913
-51.606
-52.11
-52.432
-52.583
-52.572
-52.409
-52.106
-51.673
-51.121
-50.462
-49.708
-48.87
-47.96
-46.988
-45.967
-44.905
-43.814
-42.702
-41.578
-40.449
-39.323
-38.206
-37.103
-36.019
-34.957
-33.921
-32.91
-31.927
-30.969
-30.037
-29.127
-28.236
-27.361
-26.497
-25.641
-24.787
-23.93
-23.065
-22.185
-21.286
-20.36
-19.402
-18.405
-17.363
-16.269
-15.12
-13.909
-12.632
-11.286
-9.866
-8.371
-6.799
-5.149
-3.42
-1.612
0.272
2.23
4.259
6.352
8.505
10.711
12.96
15.245
17.555
19.88
22.21
24.533
26.838
29.113
31.345
33.521
35.628
37.654
39.582
41.397
43.086
44.632
46.023
47.244
48.282
49.126
49.768
50.2
50.416
50.411
50.177
49.711
49.009
48.067
46.885
45.466
43.811
41.928
39.828
37.522
35.025
32.345
29.483
26.445
23.239
19.872
16.358
12.716
8.972
5.162
1.335
-2.462
-6.18
-9.78
-13.23
-16.497
-19.547
-22.338
-24.818
-26.946
-28.688
-30.016
-30.905
-31.358
-31.41
-31.128
-30.616
-29.97
-29.26
-28.563
-27.967
-27.566
-27.47
-27.795
-28.607
-30.001
-32.126
-35.004
-38.543
-42.508
-46.382
-49.663
-52.012
-52.98
-52.092
-49.296
-44.756
-39.036
-33.417
-28.865
-25.852
-25.039
-26.819
-30.716
-35.879
-40.552
-41.683
-36.85
-24.31
-1.919
31.984
78.001
136.06
203.495
274.777
345.172
411.146
471.721
528.07
578.581
617.845
635.904
621.996
570.945
483.997
370.388
244.706
121.707
15.769
-63.217
-112.744
-136.622
-144.577
-145.927
-145.236
-143.043
-136.388
-124.219
-109.12
-94.375
-83.328
-77.441
-75.914
-77.471
-80.815
-84.431
-86.899
-87.458
-85.839
-82.255
-77.359
-71.726
-65.799
-60.178
-55.477
-52.032
-49.967
-49.192
-49.432
-50.479
-52.18
-54.348
-56.801
-59.369
-61.89
-64.239
-66.323
-68.064
-69.406
-70.313
-70.765
-70.763
-70.332
-69.515
-68.368
-66.942
-65.287
-63.445
-61.456
-59.374
-57.254
-55.158
-53.14
-51.242
-49.487
-47.897
-46.48
-45.24
-44.168
-43.248
-42.457
-41.776
-41.192
-40.691
-40.262
-39.89
-39.558
-39.249
-38.946
-38.635
-38.303
-37.935
-37.521
-37.051
-36.517
-35.912
-35.233
-34.473
-33.625
-32.683
-31.64
-30.49
-29.229
-27.852
-26.355
-24.735
-22.991
-21.125
-19.136
-17.028
-14.803
-12.466
-10.023
-7.479
-4.843
-2.123
0.671
3.53
6.442
9.395
12.377
15.373
18.37
21.354
24.311
27.226
30.084
32.872
35.574
38.178
40.67
43.036
45.265
47.343
49.259
51.002
52.561
53.927
55.09
56.042
56.777
57.288
57.57
57.618
57.431
57.006
56.342
55.439
54.299
52.924
51.317
49.483
47.429
45.161
42.686
40.014
37.153
34.115
30.909
27.547
24.041
20.403
16.646
12.781
8.824
4.786
0.681
-3.476
-7.672
-11.892
-16.125
-20.354
-24.568
-28.753
-32.897
-36.987
-41.012
-44.961
-48.822
-52.587
-56.247
-59.792
-63.216
-66.513
-69.677
-72.702
-75.587
-78.326
-80.919
-83.365
-85.662
-87.81
-89.812
-91.667
-93.378
-94.949
-96.381
-97.68
-98.85
-99.895
-100.821
-101.633
-102.338
-102.943
-103.452
-103.873
-104.213
-104.478
-104.675
-104.808
-104.885
-104.91
-104.889
-104.826
-104.726
-104.593
-104.429
-104.237
-104.02
-103.779
-103.516
-103.231
-102.925
-102.597
-102.247
-101.873
-101.475
-101.05
-100.596
-100.111
-99.592
-99.037
-98.441
-97.802
-97.114
-96.375
-95.58
-94.725
-93.807
-92.821
-91.765
-90.635
-89.431
-88.15
-86.791
-85.355
-83.841
-82.249
-80.583
-78.844
-77.034
-75.157
-73.217
-71.219
-69.169
-67.074
-64.941
-62.775
-60.582
-58.371
-56.148
-53.923
-51.708
-49.51
-47.332
-45.196
-43.122
-41.129
-39.239
-37.457
-35.778
-34.23
-32.844
-31.596
-30.469
-29.453
-28.526
-27.722
-27.105
-26.648
-26.299
-26.214
-26.571
-27.271
-28.326
-29.772
-31.231
-33.721
-38.226
-43.325
-48.582
-51.393
-48.648
-43.785
-39.096
-37.985
-45.126
-56.363
-68.162
-78.089
-82.127
-83.064
-83.73
-84.712
-87.722
-91.709
-95.331
-98.799
-101.901
-104.676
-107.342
-109.702
-111.597
-113.049
-114.074
-114.697
-114.994
-115.099
-115.131
-115.195
-115.399
-115.81
-116.502
-117.586
-119.156
-121.273
-124.018
-127.498
-131.737
-136.672
-142.074
-147.472
-152.356
-156.274
-158.731
-159.199
-157.407
-153.387
-147.585
-141.028
-134.73
-129.405
-125.778
-124.464
-125.521
-128.331
-131.377
-132.15
-128.217
-117.283
-96.781
-64.742
-19.793
37.504
103.823
176.441
253.167
332.373
414.156
492.927
558.288
600.638
609.506
583.044
528.839
454.58
370.196
281.682
189.153
94.926
2.144
-84.331
-157.588
-213.56
-250.975
-270.217
-273.345
-262.535
-240.36
-210.899
-178.458
-146.888
-119.252
-96.994
-80.784
-71.355
-68.605
-71.283
-77.657
-85.535
-92.897
-98.901
-103.066
-104.706
-103.641
-100.123
-94.69
-88.476
-82.66
-77.747
-73.988
-71.624
-70.629
-70.935
-72.394
-74.521
-76.745
-78.723
-80.257
-81.257
-81.756
-81.753
-81.221
-80.217
-78.831
-77.144
-75.219
-73.084
-70.742
-68.214
-65.551
-62.818
-60.089
-57.433
-54.888
-52.477
-50.219
-48.122
-46.195
-44.438
-42.84
-41.381
-40.048
-38.833
-37.729
-36.73
-35.821
-34.982
-34.188
-33.421
-32.663
-31.903
-31.126
-30.321
-29.475
-28.58
-27.627
-26.612
-25.525
-24.356
-23.095
-21.731
-20.257
-18.664
-16.946
-15.097
-13.112
-10.988
-8.723
-6.317
-3.771
-1.085
1.737
4.692
7.775
10.98
14.299
17.725
21.246
24.854
28.535
32.278
36.07
39.897
43.744
47.596
51.438
55.255
59.031
62.75
66.395
69.95
73.4
76.729
79.921
82.961
85.835
88.53
91.032
93.33
95.414
97.273
98.899
100.285
101.423
102.31
102.941
103.313
103.425
103.276
102.868
102.201
101.281
100.11
98.695
97.042
95.159
93.054
90.739
88.222
85.517
82.634
79.589
76.394
73.064
69.615
66.061
62.419
58.705
54.935
51.125
47.291
43.448
39.614
35.801
32.027
28.303
24.645
21.064
17.573
14.184
10.908
7.755
4.734
1.854
-0.878
-3.456
-5.873
-8.125
-10.208
-12.122
-13.863
-15.431
-16.827
-18.052
-19.109
-20
-20.73
-21.304
-21.727
-22.005
-22.146
-22.157
-22.045
-21.818
-21.484
-21.049
-20.523
-19.912
-19.223
-18.463
-17.64
-16.761
-15.834
-14.865
-13.861
-12.828
-11.773
-10.701
-9.615
-8.52
-7.418
-6.311
-5.201
-4.091
-2.98
-1.87
-0.758
0.355
1.474
2.599
3.736
4.889
6.064
7.266
8.5
9.771
11.085
12.445
13.855
15.319
16.838
18.415
20.053
21.758
23.532
25.381
27.311
29.326
31.432
33.634
35.933
38.331
40.823
43.409
46.084
48.846
51.691
54.615
57.614
60.684
63.826
67.033
70.298
73.603
76.928
80.257
83.579
86.884
90.167
93.431
96.683
99.947
103.25
106.604
110.012
113.462
116.924
120.377
123.796
127.157
130.45
133.653
136.739
139.693
142.486
145.061
147.343
149.215
150.546
151.247
151.251
150.52
149.057
146.869
143.994
140.503
136.451
131.901
126.924
121.562
115.894
110.053
104.192
98.525
93.297
88.68
84.822
81.852
79.822
78.749
78.63
79.369
80.849
83.025
85.857
89.269
93.137
97.23
101.148
104.476
106.887
107.874
106.817
103.511
98.035
90.39
81.214
70.411
56.124
38.671
19.778
1.629
