Name,Criss Capps
Date of Birth,"Feb 5, 1952"
Recorded Date,2024-08-31 09:35:49 -0400
Classification,Sinus Rhythm
Symptoms,
Software Version,1.90
Device,"Watch5,4"
Sample Rate,512.844 hertz


Lead,Lead I
Unit,µV

-42.192
-45.125
-49.169
-55.84
-63.619
-70.835
-75.428
-76.202
-73.365
-67.732
-60.33
-52.04
-43.657
-35.648
-28.304
-22.088
-17.215
-13.54
-10.82
-8.631
-6.443
-4.022
-1.262
2.01
5.798
10.001
14.495
19.034
23.342
27.302
30.864
33.99
36.709
39.043
41.007
42.662
44.074
45.276
46.288
47.121
47.778
48.283
48.671
48.964
49.176
49.31
49.364
49.334
49.214
48.992
48.653
48.184
47.577
46.829
45.936
44.899
43.712
42.372
40.875
39.218
37.401
35.423
33.29
31.005
28.579
26.02
23.341
20.553
17.666
14.693
11.645
8.534
5.372
2.172
-1.052
-4.286
-7.516
-10.727
-13.905
-17.035
-20.105
-23.1
-26.009
-28.819
-31.52
-34.101
-36.553
-38.866
-41.033
-43.047
-44.902
-46.591
-48.112
-49.459
-50.631
-51.626
-52.443
-53.082
-53.543
-53.829
-53.941
-53.882
-53.656
-53.268
-52.721
-52.022
-51.174
-50.184
-49.059
-47.804
-46.426
-44.932
-43.329
-41.623
-39.822
-37.933
-35.963
-33.918
-31.806
-29.632
-27.404
-25.127
-22.809
-20.454
-18.069
-15.66
-13.232
-10.79
-8.34
-5.886
-3.434
-0.989
1.445
3.864
6.262
8.636
10.981
13.292
15.566
17.798
19.983
22.117
24.197
26.217
28.176
30.069
31.892
33.645
35.323
36.926
38.451
39.897
41.264
42.55
43.755
44.879
45.923
46.888
47.775
48.585
49.32
49.983
50.576
51.103
51.565
51.968
52.314
52.607
52.851
53.051
53.211
53.336
53.431
53.501
53.55
53.584
53.605
53.619
53.627
53.633
53.638
53.644
53.651
53.659
53.667
53.674
53.678
53.677
53.666
53.642
53.6
53.535
53.439
53.304
53.121
52.88
52.574
52.191
51.722
51.158
50.489
49.71
48.815
47.794
46.64
45.343
43.897
42.296
40.536
38.612
36.521
34.263
31.84
29.261
26.532
23.656
20.633
17.456
14.125
10.645
7.026
3.276
-0.592
-4.563
-8.609
-12.693
-16.779
-20.833
-24.833
-28.758
-32.579
-36.261
-39.759
-43.027
-46.026
-48.728
-51.117
-53.18
-54.919
-56.345
-57.49
-58.415
-59.19
-59.889
-60.587
-61.358
-62.267
-63.412
-64.939
-66.934
-69.413
-72.291
-75.335
-78.289
-80.936
-82.99
-84.084
-83.992
-82.653
-80.306
-77.628
-75.335
-74.017
-74.3
-76.695
-81.38
-88.179
-96.264
-104.002
-109.565
-111.072
-106.461
-93.919
-72.11
-40.104
2.125
53.571
112.824
176.949
241.307
301.419
352.857
394.12
427.329
452.875
469.645
471.565
447.478
390.709
298.92
178.013
43.486
-88.962
-203.966
-291.047
-348.331
-378.14
-385.918
-376.813
-353.74
-319.032
-276.598
-233.433
-196.597
-170.711
-155.654
-145.997
-136.55
-124.897
-111.653
-100.621
-94.334
-92.792
-94.629
-97.121
-98.337
-97.623
-94.87
-90.541
-85.13
-78.98
-72.524
-66.275
-60.754
-56.501
-53.776
-52.516
-52.505
-53.396
-54.846
-56.606
-58.425
-60.025
-61.227
-61.921
-62.033
-61.586
-60.612
-59.12
-57.147
-54.736
-51.935
-48.827
-45.52
-42.128
-38.752
-35.458
-32.285
-29.266
-26.433
-23.816
-21.44
-19.306
-17.405
-15.733
-14.285
-13.061
-12.046
-11.204
-10.482
-9.821
-9.174
-8.509
-7.799
-7.02
-6.148
-5.167
-4.062
-2.831
-1.47
0.033
1.69
3.517
5.522
7.71
10.083
12.639
15.381
18.31
21.425
24.727
28.212
31.881
35.733
39.769
43.986
48.377
52.935
57.649
62.51
67.503
72.615
77.83
83.132
88.503
93.927
99.385
104.859
110.33
115.778
121.183
126.526
131.784
136.939
141.968
146.853
151.571
156.105
160.434
164.54
168.404
172.01
175.341
178.383
181.12
183.54
185.63
187.38
188.781
189.825
190.507
190.823
190.77
190.347
189.557
188.4
186.882
185.009
182.786
180.224
177.332
174.121
170.605
166.798
162.715
158.374
153.791
148.987
143.979
138.79
133.439
127.95
122.343
116.641
110.867
105.044
99.194
93.34
87.504
81.707
75.972
70.317
64.762
59.327
54.027
48.88
43.9
39.101
34.495
30.095
25.91
21.948
18.217
14.723
11.469
8.459
5.694
3.176
0.902
-1.128
-2.919
-4.473
-5.798
-6.898
-7.781
-8.455
-8.929
-9.211
-9.312
-9.242
-9.011
-8.631
-8.113
-7.467
-6.705
-5.838
-4.877
-3.832
-2.715
-1.535
-0.302
0.975
2.285
3.621
4.974
6.335
7.699
9.057
10.403
11.731
13.035
14.31
15.551
16.754
17.914
19.028
20.092
21.102
22.056
22.952
23.786
24.557
25.263
25.903
26.475
26.978
27.412
27.775
28.067
28.289
28.44
28.52
28.531
28.473
28.349
28.16
27.909
27.597
27.229
26.808
26.338
25.822
25.267
24.675
24.054
23.409
22.747
22.073
21.395
20.719
20.055
19.411
18.793
18.21
17.671
17.184
16.757
16.398
16.114
15.914
15.804
15.791
15.882
16.081
16.395
16.826
17.377
18.05
18.847
19.768
20.811
21.973
23.252
24.643
26.141
27.739
29.429
31.203
33.051
34.963
36.927
38.929
40.954
42.985
45.008
47.005
48.958
50.851
52.664
54.382
55.991
57.475
58.821
60.014
61.038
61.881
62.53
62.977
63.211
63.224
63.01
62.566
61.895
61
59.883
58.543
56.972
55.17
53.143
50.897
48.445
45.799
42.977
40.007
36.928
33.78
30.601
27.419
24.259
21.154
18.138
15.259
12.563
10.085
7.854
5.894
4.213
2.809
1.662
0.721
-0.072
-0.778
-1.466
-2.198
-3.05
-4.094
-5.376
-6.969
-8.968
-11.419
-14.337
-17.632
-21.049
-24.333
-27.297
-29.683
-31.193
-31.585
-30.653
-28.546
-25.847
-23.101
-20.643
-18.814
-17.998
-18.555
-20.809
-23.714
-24.794
-22.147
-14.796
-4.07
7.421
20.015
37.36
65.485
109.461
168.864
237.686
307.569
372.716
431.204
483.078
526.833
555.506
558.677
527.838
459.869
358.737
235.865
105.296
-19.592
-125.647
-205.251
-256.516
-280.575
-283.392
-271.282
-247.652
-216.76
-182.915
-149.159
-120.146
-97.793
-79.927
-65.479
-52.664
-40.963
-32.854
-29.246
-30.065
-34.414
-39.862
-44.504
-47.223
-47.527
-45.665
-42.058
-37.18
-31.626
-25.957
-20.854
-16.999
-14.686
-13.957
-14.65
-16.405
-18.891
-21.821
-24.866
-27.732
-30.254
-32.333
-33.938
-35.088
-35.76
-35.94
-35.644
-34.892
-33.725
-32.194
-30.364
-28.33
-26.191
-24.033
-21.916
-19.877
-17.931
-16.096
-14.383
-12.796
-11.347
-10.04
-8.877
-7.865
-6.998
-6.257
-5.613
-5.017
-4.419
-3.785
-3.085
-2.296
-1.404
-0.395
0.739
1.997
3.385
4.908
6.574
8.397
10.384
12.541
14.872
17.375
20.049
22.893
25.906
29.084
32.428
35.933
39.601
43.429
47.418
51.562
55.855
60.29
64.855
69.542
74.338
79.229
84.199
89.235
94.32
99.439
104.575
109.711
114.828
119.909
124.934
129.887
134.746
139.492
144.107
148.57
152.863
156.967
160.863
164.533
167.962
171.132
174.028
176.637
178.944
180.937
182.604
183.935
184.921
185.555
185.832
185.747
185.298
184.484
183.307
181.769
179.875
177.629
175.039
172.114
168.863
165.298
161.431
157.277
152.85
148.168
143.249
138.11
132.771
127.253
121.575
115.759
109.827
103.8
97.701
91.55
85.371
79.185
73.013
66.877
60.797
54.793
48.884
43.088
37.421
31.9
26.54
21.353
16.352
11.548
6.951
2.569
-1.59
-5.522
-9.222
-12.687
-15.916
-18.909
-21.665
-24.189
-26.482
-28.549
-30.396
-32.027
-33.45
-34.672
-35.701
-36.547
-37.219
-37.726
-38.079
-38.288
-38.365
-38.319
-38.161
-37.902
-37.553
-37.123
-36.624
-36.065
-35.455
-34.804
-34.121
-33.413
-32.688
-31.954
-31.217
-30.483
-29.757
-29.045
-28.352
-27.68
-27.035
-26.419
-25.835
-25.285
-24.772
-24.296
-23.86
-23.464
-23.109
-22.796
-22.523
-22.293
-22.104
-21.956
-21.848
-21.781
-21.753
-21.764
-21.812
-21.897
-22.017
-22.172
-22.359
-22.579
-22.829
-23.109
-23.418
-23.752
-24.112
-24.495
-24.9
-25.323
-25.763
-26.218
-26.685
-27.162
-27.646
-28.134
-28.622
-29.109
-29.591
-30.064
-30.523
-30.966
-31.387
-31.783
-32.15
-32.484
-32.779
-33.033
-33.241
-33.399
-33.503
-33.55
-33.535
-33.455
-33.306
-33.086
-32.793
-32.424
-31.979
-31.456
-30.855
-30.178
-29.425
-28.599
-27.701
-26.735
-25.703
-24.612
-23.466
-22.27
-21.031
-19.758
-18.459
-17.147
-15.83
-14.52
-13.227
-11.964
-10.742
-9.571
-8.461
-7.42
-6.459
-5.587
-4.817
-4.159
-3.623
-3.216
-2.947
-2.824
-2.851
-3.032
-3.362
-3.841
-4.467
-5.245
-6.183
-7.286
-8.552
-9.981
-11.564
-13.293
-15.156
-17.13
-19.184
-21.286
-23.41
-25.538
-27.657
-29.749
-31.793
-33.757
-35.604
-37.311
-38.852
-40.211
-41.382
-42.374
-43.208
-43.933
-44.601
-45.267
-45.994
-46.832
-47.839
-49.077
-50.592
-52.461
-54.789
-57.63
-60.99
-64.778
-68.751
-72.634
-76.172
-79.041
-80.892
-81.479
-80.705
-78.825
-76.452
-74.297
-73.029
-73.205
-75.292
-79.578
-85.956
-93.644
-101.236
-106.92
-108.749
-105.076
-94.373
-75.239
-46.831
-9.119
37.167
89.713
144.675
198.425
246.947
287.662
321.444
348.458
367.726
376.599
366.454
328.767
259.686
158.222
32.676
-101.998
-232.039
-341.863
-420.26
-465.384
-478.23
-465.71
-439.296
-406.757
-375.44
-350.043
-328.923
-309.76
-288.98
-263.527
-234.945
-206.689
-182.957
-166.73
-158.118
-155.643
-157.201
-161.084
-166.066
-170.967
-174.708
-176.607
-176.446
-174.391
-170.847
-166.275
-161.244
-156.498
-152.838
-150.698
-150.122
-150.924
-152.749
-155.305
-158.364
-161.608
-164.671
-167.29
-169.336
-170.794
-171.741
-172.237
-172.305
-171.986
-171.341
-170.452
-169.415
-168.321
-167.262
-166.297
-165.474
-164.834
-164.415
-164.252
-164.369
-164.762
-165.412
-166.301
-167.416
-168.744
-170.273
-171.962
-173.762
-175.621
-177.48
-179.292
-181.022
-182.63
-184.082
-185.35
-186.408
-187.241
-187.842
-188.197
-188.29
-188.104
-187.625
-186.84
-185.746
-184.336
-182.605
-180.553
-178.175
-175.472
-172.447
-169.099
-165.432
-161.447
-157.149
-152.544
-147.644
-142.459
-137.005
-131.298
-125.358
-119.205
-112.861
-106.349
-99.695
-92.922
-86.058
-79.127
-72.157
-65.177
-58.213
-51.294
-44.449
-37.704
-31.089
-24.63
-18.354
-12.287
-6.454
-0.88
4.413
9.404
14.072
18.398
22.365
25.958
29.163
31.967
34.361
36.337
37.889
39.013
39.709
39.977
39.82
39.242
38.25
36.853
35.061
32.885
30.34
27.441
24.203
20.646
16.787
12.648
8.249
3.614
-1.235
-6.275
-11.481
-16.829
-22.294
-27.851
-33.475
-39.141
-44.826
-50.504
-56.151
-61.746
-67.265
-72.686
-77.99
-83.156
-88.166
-93.002
-97.649
-102.092
-106.316
-110.31
-114.063
-117.564
-120.805
-123.78
-126.482
-128.906
-131.048
-132.907
-134.481
-135.77
-136.774
-137.495
-137.936
-138.1
-137.993
-137.618
-136.981
-136.091
-134.952
-133.574
-131.965
-130.134
-128.09
-125.843
-123.403
-120.78
-117.986
-115.03
-111.924
-108.679
-105.305
-101.815
-98.219
-94.528
-90.755
-86.909
-83.003
-79.048
-75.054
-71.033
-66.996
-62.954
-58.917
-54.897
-50.903
-46.947
-43.038
-39.187
-35.402
-31.694
-28.071
-24.541
-21.113
-17.794
-14.591
-11.51
-8.556
-5.737
-3.054
-0.514
1.882
4.131
6.23
8.18
9.979
11.629
13.13
14.486
15.699
16.773
17.714
18.525
19.213
19.786
20.25
20.615
20.89
21.083
21.205
21.266
21.279
21.255
21.204
21.139
21.072
21.013
20.975
20.969
21.006
21.096
21.249
21.475
21.783
22.182
22.678
23.278
23.987
24.811
25.753
26.816
27.999
29.304
30.728
32.271
33.928
35.695
37.566
39.533
41.589
43.723
45.926
48.182
50.479
52.803
55.137
57.467
59.775
62.046
64.265
66.417
68.49
70.468
72.338
74.084
75.693
77.152
78.45
79.576
80.52
81.274
81.834
82.199
82.371
82.347
82.122
81.689
81.044
80.191
79.135
77.886
76.457
74.863
73.13
71.296
69.395
67.458
65.51
63.569
61.664
59.826
58.095
56.514
55.111
53.909
52.925
52.164
51.615
51.255
51.036
50.898
50.788
50.648
50.424
50.062
49.491
48.659
47.488
45.874
43.781
41.219
38.279
35.192
32.213
29.57
27.574
26.568
26.765
28.279
30.943
34.236
37.67
40.801
43.166
44.396
44.245
42.679
40.246
38.084
37.403
39.582
46.019
57.899
76.562
103.108
137.798
180.329
229.336
281.818
334.649
384.551
429.161
469.205
504.964
534.923
555.04
555.722
527.901
467.339
374.48
258.733
133.682
12.04
-93.36
-174.656
-228.876
-256.32
-262.086
-252.813
-234.654
-211.723
-185.62
-156.487
-124.114
-90.2
-57.463
-28.776
-6.844
7.692
15.712
18.405
17.42
14.342
10.368
7.003
5.674
6.983
10.993
17.35
25.291
34.038
42.922
51.107
57.807
62.658
65.542
66.605
66.229
64.799
62.697
60.324
58.02
55.987
54.337
53.128
52.38
52.107
52.304
52.944
53.981
55.382
57.13
59.172
61.431
63.802
66.157
68.408
70.508
72.419
74.112
75.56
76.726
77.598
78.191
78.512
78.569
78.374
77.934
77.281
76.466
75.544
74.577
73.611
72.68
71.816
71.047
70.394
69.88
69.519
69.315
69.279
69.425
69.767
70.321
71.097
72.097
73.325
74.781
76.466
78.382
80.528
82.902
85.503
88.328
91.375
94.643
98.124
101.809
105.688
109.746
113.968
118.339
122.838
127.447
132.146
136.913
141.727
146.567
151.41
156.234
161.015
165.73
170.357
174.871
179.25
183.471
187.512
191.351
194.967
198.341
201.453
204.285
206.822
209.047
210.946
212.507
213.719
214.573
215.06
215.175
214.914
214.276
213.261
211.869
210.106
207.977
205.488
202.649
199.469
195.961
192.136
188.009
183.597
178.914
173.98
168.812
163.43
157.855
152.106
146.207
140.177
134.04
127.817
121.531
115.204
108.858
102.513
96.192
89.915
83.7
77.568
71.534
65.617
59.832
54.194
48.715
43.408
38.284
33.352
28.621
24.099
19.79
15.7
11.832
8.189
4.771
1.579
-1.388
-4.133
-6.657
-8.965
-11.062
-12.952
-14.643
-16.141
-17.454
-18.589
-19.556
-20.361
-21.015
-21.527
-21.905
-22.158
-22.297
-22.328
-22.263
-22.109
-21.874
-21.568
-21.199
-20.775
-20.302
-19.789
-19.243
-18.67
-18.076
-17.468
-16.852
-16.232
-15.614
-15.003
-14.403
-13.819
-13.255
-12.713
-12.197
-11.71
-11.254
-10.833
-10.446
-10.097
-9.787
-9.518
-9.289
-9.103
-8.961
-8.861
-8.805
-8.792
-8.821
-8.892
-9.003
-9.153
-9.339
-9.559
-9.812
-10.094
-10.404
-10.736
-11.089
-11.458
-11.84
-12.229
-12.623
-13.014
-13.4
-13.775
-14.133
-14.471
-14.783
-15.064
-15.311
-15.518
-15.68
-15.794
-15.856
-15.862
-15.807
-15.69
-15.508
-15.261
-14.946
-14.564
-14.115
-13.602
-13.027
-12.393
-11.704
-10.963
-10.176
-9.348
-8.487
-7.6
-6.695
-5.781
-4.87
-3.973
-3.105
-2.277
-1.502
-0.795
-0.169
0.364
0.792
1.105
1.293
1.345
1.25
0.997
0.578
-0.015
-0.787
-1.745
-2.893
-4.231
-5.758
-7.467
-9.354
-11.418
-13.662
-16.092
-18.707
-21.504
-24.475
-27.614
-30.911
-34.348
-37.902
-41.531
-45.2
-48.875
-52.529
-56.137
-59.664
-63.069
-66.305
-69.322
-72.083
-74.564
-76.741
-78.595
-80.121
-81.319
-82.224
-82.912
-83.455
-83.938
-84.445
-85.04
-85.818
-86.923
-88.453
-90.46
-92.911
-95.627
-98.409
-101.099
-103.469
-105.239
-106.208
-106.213
-105.324
-104.035
-102.889
-102.388
-103.078
-105.333
-109.327
-115.156
-122.435
-129.984
-136.325
-139.777
-138.53
-131.023
-115.746
-91.246
-56.521
-12.042
40.183
97.495
156.736
216.175
275.87
335.139
391.895
440.771
473.074
479.715
453.45
392.321
299.12
181.776
53.31
-73.549
-185.181
-270.746
-328.434
-360.221
-372.291
-373.701
-366.94
-352.054
-330.522
-301.442
-268.466
-237.951
-211.172
-190.173
-175.415
-164.361
-157.865
-156.171
-157.786
-162.017
-166.72
-169.529
-169.65
-166.759
-160.948
-152.833
-143.17
-132.785
-122.665
-113.859
-106.956
-102.137
-99.436
-98.646
-99.46
-101.562
-104.494
-107.716
-110.865
-113.757
-116.283
-118.43
-120.159
-121.378
-122.052
-122.198
-121.828
-120.96
-119.612
-117.786
-115.518
-112.9
-110.038
-107.054
-104.065
-101.138
-98.327
-95.679
-93.231
-91.026
-89.092
-87.431
-86.035
-84.896
-84.004
-83.35
-82.915
-82.661
-82.539
-82.5
-82.489
-82.468
-82.406
-82.274
-82.046
-81.701
-81.217
-80.584
-79.796
-78.84
-77.705
-76.375
-74.839
-73.087
-71.116
-68.921
-66.5
-63.85
-60.968
-57.854
-54.507
-50.927
-47.114
-43.07
-38.796
-34.298
-29.583
-24.661
-19.544
-14.248
-8.787
-3.178
2.558
8.402
14.333
20.329
26.368
32.426
38.48
44.506
50.478
56.373
62.165
67.831
73.346
78.686
83.828
88.75
93.43
97.848
101.985
105.822
109.345
112.536
115.382
117.873
119.996
121.745
123.112
124.093
124.686
124.89
124.707
124.14
123.196
121.883
120.208
118.184
115.823
113.139
110.148
106.867
103.313
99.506
95.465
91.211
86.767
82.152
77.391
72.505
67.516
62.447
57.32
52.157
46.979
41.807
36.66
31.558
26.52
21.563
16.704
11.957
7.338
2.858
-1.471
-5.637
-9.634
-13.453
-17.089
-20.537
-23.794
-26.857
-29.726
-32.402
-34.885
-37.178
-39.284
-41.208
-42.954
-44.528
-45.936
-47.184
-48.28
-49.23
-50.042
-50.722
-51.278
-51.717
-52.047
-52.275
-52.408
-52.454
-52.418
-52.308
-52.13
-51.889
-51.592
-51.244
-50.849
-50.412
-49.937
-49.429
-48.89
-48.323
-47.732
-47.119
-46.487
-45.837
-45.172
-44.493
-43.801
-43.099
-42.389
-41.671
-40.947
-40.221
-39.493
-38.767
-38.045
-37.328
-36.62
-35.922
-35.238
-34.569
-33.918
-33.288
-32.681
-32.098
-31.543
-31.017
-30.522
-30.058
-29.628
-29.232
-28.871
-28.544
-28.251
-27.991
-27.764
-27.567
-27.401
-27.26
-27.144
-27.049
-26.97
-26.904
-26.845
-26.788
-26.726
-26.654
-26.565
-26.452
-26.309
-26.128
-25.904
-25.629
-25.296
-24.898
-24.431
-23.886
-23.258
-22.543
-21.735
-20.831
-19.828
-18.724
-17.516
-16.205
-14.79
-13.274
-11.658
-9.945
-8.139
-6.246
-4.272
-2.225
-0.115
2.05
4.258
6.495
8.748
11.002
13.242
15.454
17.622
19.73
21.762
23.705
25.546
27.27
28.865
30.314
31.605
32.725
33.661
34.403
34.941
35.266
35.374
35.264
34.937
34.394
33.633
32.649
31.44
30.011
28.367
26.516
24.473
22.256
19.894
17.427
14.893
12.323
9.747
7.179
4.646
2.175
-0.206
-2.46
-4.559
-6.485
-8.212
-9.716
-11
-12.085
-13.015
-13.87
-14.702
-15.542
-16.43
-17.397
-18.495
-19.783
-21.306
-23.095
-25.19
-27.672
-30.579
-33.87
-37.362
-40.694
-43.481
-45.393
-46.118
-45.299
-42.739
-38.498
-32.938
-26.933
-21.401
-16.974
-14.241
-13.711
-15.478
-19.175
-23.821
-27.426
-27.833
-23.341
-12.107
7.513
36.571
75.772
124.009
177.891
234.062
289.083
341.236
391.273
437.168
475.004
497.851
495.628
463.936
403.484
319.531
222.367
119.374
15.37
-84.172
-174.266
-248.184
-299.003
-324.051
-324.665
-305.374
-272.166
-231.347
-189.083
-149.979
-118.192
-94.748
-77.147
-63.723
-52.364
-42.558
-36.602
-35.083
-37.724
-43.547
-49.862
-54.781
-57.389
-57.213
-54.592
-50.065
-44.075
-37.168
-29.995
-23.176
-17.262
-12.542
-8.998
-6.463
-4.689
-3.41
-2.398
-1.421
-0.243
1.255
3.085
5.23
7.631
10.241
13.06
16.043
19.103
22.182
25.224
28.182
31.034
33.735
36.236
38.517
40.57
42.4
44.026
45.451
46.677
47.711
48.553
49.215
49.728
50.113
50.397
50.606
50.767
50.909
51.067
51.267
51.523
51.85
52.259
52.765
53.385
54.134
55.026
56.076
57.292
58.686
60.27
62.05
64.034
66.226
68.628
71.24
74.065
77.104
80.356
83.817
87.482
91.344
95.396
99.63
104.032
108.59
113.29
118.115
123.051
128.078
133.178
138.332
143.519
148.717
153.906
159.064
164.168
169.195
174.124
178.932
183.596
188.095
192.408
196.514
200.392
204.023
207.391
210.476
213.265
215.743
217.896
219.714
221.187
222.307
223.066
223.46
223.486
223.141
222.427
221.344
219.896
218.089
215.929
213.424
210.584
207.421
203.947
200.175
196.122
191.802
187.234
182.436
177.427
172.226
166.856
161.335
155.687
149.932
144.093
138.19
132.244
126.278
120.31
114.36
108.448
102.591
96.808
91.113
85.524
80.053
74.716
69.523
64.485
59.614
54.917
50.401
46.075
41.942
38.007
34.274
30.744
27.417
24.295
21.375
18.655
16.131
13.799
11.654
9.69
7.9
6.278
4.816
3.507
2.343
1.316
0.419
-0.356
-1.017
-1.572
-2.028
-2.392
-2.672
-2.873
-3.003
-3.067
-3.073
-3.025
-2.93
-2.794
-2.624
-2.424
-2.201
-1.961
-1.71
-1.451
-1.191
-0.933
-0.68
-0.437
-0.206
0.008
0.204
0.378
0.527
0.648
0.738
0.794
0.813
0.795
0.736
0.634
0.485
0.286
0.034
-0.272
-0.634
-1.054
-1.532
-2.068
-2.663
-3.313
-4.018
-4.773
-5.58
-6.434
-7.335
-8.279
-9.261
-10.273
-11.317
-12.39
-13.496
-14.637
-15.811
-17.013
-18.241
-19.491
-20.758
-22.032
-23.294
-24.523
-25.701
-26.81
-27.846
-28.806
-29.669
-30.41
-30.987
-31.355
-31.5
-31.42
-31.117
-30.607
-29.874
-28.924
-27.84
-26.673
-25.448
-24.14
-22.571
-20.573
-18.162
-15.386
-12.323
-9.185
-6.105
-3.336
-1.487
-1.09
-2.381
-5.351
-9.626
-14.657
-19.969
-24.756
-27.885
-28.248
-25.66
-21.151
-15.531
-8.902
0.857
17.116
39.849
65.279
85.978
93.71
86.184
67.316
44.828
26.741
16.279
11.913
10.179
8.208
5.144
1.699
-1.162
-3.431
-5.558
-7.946
-10.993
-14.692
-18.83
-23.278
-27.791
-32.04
-35.861
-39.202
-42.046
-44.475
-46.549
-48.266
-49.663
-50.8
-51.699
-52.378
-52.848
-53.1
-53.182
-53.191
-53.21
-53.336
-53.653
-54.198
-55.049
-56.316
-58.024
-60.149
-62.584
-65.058
-67.349
-69.311
-70.7
-71.235
-70.766
-69.207
-66.767
-64.076
-61.668
-59.936
-59.355
-60.303
-62.908
-67.142
-72.56
-77.925
-81.899
-83.327
-80.146
-70.433
-53.64
-28.725
3.431
40.291
82.12
127.74
175.791
226.811
278.135
327.886
375.187
415.297
441.105
442.094
405.716
325.13
203.179
53.546
-101.26
-239.154
-344.692
-412.918
-450.72
-467.576
-471.515
-467.095
-451.3
-423.062
-385.423
-341.785
-300.039
-264.74
-234.785
-210.178
-189.104
-170.973
-158.37
-152.031
-151.738
-156.312
-162.916
-169.107
-173.118
-174.021
-171.997
-167.44
-160.866
-153.152
-144.38
-134.911
-126.516
-119.921
-116.762
-118.682
-123.285
-128.859
-133.074
-132.786
-129.994
-126.477
-123.474
-123.246
-124.189
-124.66
-124.313
-122.177
-118.907
-115.327
-111.364
-107.194
-102.846
-98.268
-93.668
-89.212
-84.941
-80.907
-77.17
-73.766
-70.712
-68.01
-65.638
-63.575
-61.824
-60.379
-59.216
-58.3
-57.588
-57.035
-56.594
-56.227
-55.896
-55.571
-55.224
-54.835
-54.385
-53.864
-53.262
-52.567
-51.763
-50.838
-49.777
-48.57
-47.207
-45.68
-43.983
-42.108
-40.049
-37.801
-35.358
-32.712
-29.862
-26.801
-23.527
-20.04
-16.342
-12.437
-8.334
-4.04
0.433
5.072
9.864
14.792
19.838
24.985
30.214
35.503
40.831
46.176
51.515
56.823
62.076
67.251
72.322
77.265
82.054
86.666
91.077
95.264
99.205
102.877
106.261
109.336
112.085
114.492
116.541
118.22
119.517
120.422
120.929
121.031
120.726
120.013
118.892
117.366
115.441
113.124
110.423
107.351
103.919
100.142
96.036
91.619
86.909
81.927
76.695
71.233
65.566
59.718
53.712
47.574
41.329
35.001
28.617
22.201
15.777
9.369
3.001
-3.306
-9.528
-15.646
-21.639
-27.49
-33.181
-38.696
-44.021
-49.142
-54.048
-58.731
-63.18
-67.389
-71.354
-75.069
-78.533
-81.744
-84.703
-87.409
-89.867
-92.079
-94.05
-95.785
-97.291
-98.574
-99.642
-100.503
-101.166
-101.639
-101.931
-102.052
-102.011
-101.817
-101.481
-101.011
-100.418
-99.71
-98.897
-97.988
-96.992
-95.916
-94.768
-93.557
-92.289
-90.971
-89.61
-88.211
-86.78
-85.323
-83.844
-82.349
-80.842
-79.327
-77.807
-76.288
-74.771
-73.261
-71.761
-70.274
-68.802
-67.35
-65.92
-64.515
-63.137
-61.79
-60.474
-59.194
-57.95
-56.746
-55.582
-54.46
-53.383
-52.351
-51.366
-50.429
-49.539
-48.699
-47.908
-47.166
-46.472
-45.825
-45.225
-44.67
-44.159
-43.689
-43.258
-42.863
-42.5
-42.166
-41.858
-41.57
-41.298
-41.036
-40.78
-40.525
-40.265
-39.995
-39.709
-39.403
-39.071
-38.708
-38.31
-37.87
-37.386
-36.853
-36.267
-35.625
-34.925
-34.163
-33.338
-32.449
-31.495
-30.478
-29.398
-28.256
-27.055
-25.798
-24.49
-23.137
-21.743
-20.316
-18.864
-17.396
-15.924
-14.457
-13.008
-11.586
-10.205
-8.876
-7.611
-6.419
-5.309
-4.291
-3.375
-2.572
-1.893
-1.346
-0.94
-0.685
-0.59
-0.663
-0.907
-1.322
-1.908
-2.665
-3.596
-4.709
-6.004
-7.478
-9.127
-10.946
-12.923
-15.041
-17.275
-19.584
-21.935
-24.296
-26.645
-28.965
-31.231
-33.419
-35.5
-37.447
-39.242
-40.875
-42.328
-43.591
-44.673
-45.609
-46.46
-47.309
-48.216
-49.22
-50.365
-51.696
-53.267
-55.142
-57.372
-59.97
-62.949
-66.363
-70.229
-74.488
-78.967
-83.318
-87.139
-90.13
-92.034
-92.526
-91.42
-88.726
-84.684
-80.004
-75.528
-71.762
-69.044
-67.845
-68.414
-70.478
-73.42
-75.247
-72.944
-65.187
-51.427
-31.936
-8.964
17.866
50.693
90.716
140.037
197.341
257.729
316.63
368.212
406.988
428.599
427.073
397.073
336.631
247.246
136.563
16.651
-100.224
-202.193
-281.507
-335.208
-364.04
-372.672
-366.78
-351.747
-330.9
-305.524
-276.27
-243.373
-208.709
-175.082
-145.138
-121.46
-105.065
-95.516
-91.837
-92.575
-96.274
-101.706
-107.494
-112.241
-114.88
-114.945
-112.566
-108.235
-102.572
-96.158
-89.599
-83.59
-78.774
-75.457
-73.594
-72.917
-73.056
-73.716
-74.677
-75.696
-76.501
-76.915
-76.848
-76.272
-75.238
-73.788
-71.932
-69.697
-67.134
-64.305
-61.304
-58.247
-55.221
-52.285
-49.484
-46.836
-44.366
-42.098
-40.048
-38.221
-36.613
-35.222
-34.049
-33.1
-32.366
-31.827
-31.439
-31.146
-30.898
-30.662
-30.407
-30.109
-29.746
-29.295
-28.742
-28.081
-27.304
-26.398
-25.348
-24.135
-22.742
-21.161
-19.385
-17.411
-15.237
-12.859
-10.273
-7.475
-4.465
-1.239
2.204
5.869
9.755
13.863
18.185
22.713
27.434
32.337
37.409
42.637
48.007
53.507
59.112
64.799
70.54
76.305
82.079
87.848
93.585
99.268
104.872
110.358
115.732
121.004
126.099
130.961
135.526
139.708
143.562
147.169
150.479
153.452
156.191
158.743
161.242
163.868
166.424
168.689
170.657
172.27
173.392
173.973
173.782
172.546
170.509
167.922
164.841
161.406
157.702
153.742
149.757
145.992
142.29
138.51
134.613
130.493
126.176
121.722
117.045
112.067
106.879
101.561
96.171
90.8
85.442
80.086
74.777
69.55
64.414
59.388
54.478
49.685
45.037
40.557
36.262
32.168
28.283
24.611
21.16
17.935
14.939
12.177
9.648
7.351
5.285
3.446
1.83
0.431
-0.758
-1.744
-2.537
-3.147
-3.582
-3.851
-3.964
-3.931
-3.762
-3.47
-3.065
-2.558
-1.96
-1.284
-0.54
0.26
1.106
1.987
2.894
3.817
4.747
5.675
6.594
7.495
8.372
9.218
10.029
10.797
11.52
12.193
12.811
13.373
13.875
14.316
14.692
15.003
15.248
15.427
15.537
15.58
15.555
15.462
15.304
15.08
14.792
14.442
14.033
13.567
13.046
12.476
11.858
11.197
10.497
9.763
9
8.212
7.406
6.587
5.76
4.932
4.109
3.298
2.506
1.739
1.003
0.307
-0.342
-0.938
-1.473
-1.94
-2.333
-2.644
-2.867
-2.995
-3.022
-2.943
-2.753
-2.447
-2.021
-1.472
-0.796
0.006
0.936
1.995
3.181
4.492
5.924
7.473
9.134
10.9
12.766
14.721
16.756
18.861
21.026
23.237
25.482
27.746
30.012
32.266
34.49
36.669
38.784
40.819
42.757
44.583
46.284
47.844
49.251
50.487
51.54
52.397
53.046
53.479
53.685
53.657
53.391
52.89
52.154
51.188
49.991
48.557
46.886
44.986
42.862
40.523
37.984
35.263
32.385
29.389
26.309
23.18
20.03
16.879
13.757
10.696
7.731
4.906
2.257
-0.196
-2.42
-4.39
-6.111
-7.596
-8.883
-10.04
-11.103
-12.11
-13.118
-14.177
-15.358
-16.728
-18.314
-20.175
-22.405
-25.052
-28.116
-31.479
-34.855
-37.969
-40.612
-42.481
-43.236
-42.631
-40.569
-37.352
-33.616
-29.91
-26.698
-24.553
-24.121
-25.903
-29.346
-32.452
-33.033
-29.795
-23.804
-17.485
-10.989
-0.856
20.163
59.287
118.251
191.578
268.272
337.183
392.121
433.787
465.812
489.931
503.454
497.497
463.522
398.078
302.571
186.636
63.1
-55.976
-158.142
-236.138
-287.518
-313.335
-318.402
-306.482
-280.462
-243.331
-199.382
-156.299
-121.361
-98.663
-87.635
-82.659
-78.381
-72.127
-64.208
-58.039
-55.829
-57.567
-61.947
-66.143
-68.23
-67.9
-65.358
-61.282
-56.344
-50.863
-45.219
-40.077
-36.044
-33.407
-32.185
-32.139
-32.913
-34.228
-35.868
-37.565
-39.05
-40.168
-40.833
-41.036
-40.82
-40.192
-39.143
-37.685
-35.856
-33.709
-31.324
-28.798
-26.215
-23.663
-21.209
-18.894
-16.751
-14.797
-13.036
-11.47
-10.099
-8.929
-7.966
-7.222
-6.694
-6.369
-6.219
-6.198
-6.264
-6.377
-6.501
-6.608
-6.675
-6.683
-6.62
-6.48
-6.254
-5.931
-5.496
-4.93
-4.217
-3.344
-2.301
-1.08
0.326
1.923
3.715
5.705
7.897
10.294
12.902
15.726
18.766
22.025
25.5
29.187
33.079
37.17
41.449
45.903
50.521
55.286
60.184
65.199
70.311
75.502
80.752
86.039
91.342
96.637
101.902
107.113
112.245
117.275
122.179
126.932
131.51
135.891
140.051
143.969
147.623
150.994
154.061
156.806
159.213
161.266
162.951
164.257
165.171
165.687
165.797
165.497
164.785
163.661
162.126
160.183
157.839
155.1
151.977
148.481
144.625
140.422
135.891
131.047
125.911
120.502
114.841
108.952
102.856
96.578
90.143
83.575
76.9
70.144
63.331
56.489
49.642
42.815
36.032
29.318
22.696
16.187
9.812
3.592
-2.455
-8.312
-13.964
-19.396
-24.595
-29.551
-34.254
-38.697
-42.873
-46.777
-50.406
-53.758
-56.832
-59.629
-62.151
-64.402
-66.385
-68.107
-69.574
-70.793
-71.774
-72.524
-73.056
-73.378
-73.504
-73.444
-73.21
-72.816
-72.275
-71.599
-70.802
-69.898
-68.898
-67.816
-66.665
-65.457
-64.204
-62.918
-61.61
-60.29
-58.97
-57.658
-56.365
-55.099
-53.869
-52.684
-51.55
-50.475
-49.466
-48.528
-47.667
-46.889
-46.198
-45.598
-45.094
-44.687
-44.382
-44.179
-44.081
-44.089
-44.202
-44.422
-44.746
-45.175
-45.705
-46.335
-47.062
-47.882
-48.792
-49.787
-50.861
-52.01
-53.226
-54.504
-55.836
-57.214
-58.63
-60.075
-61.54
-63.016
-64.492
-65.958
-67.405
-68.82
-70.193
-71.512
-72.765
-73.942
-75.03
-76.017
-76.894
-77.649
-78.271
-78.75
-79.077
-79.243
-79.241
-79.061
-78.698
-78.146
-77.4
-76.458
-75.316
-73.973
-72.43
-70.687
-68.749
-66.619
-64.303
-61.806
-59.137
-56.305
-53.321
-50.195
-46.941
-43.573
-40.107
-36.56
-32.951
-29.3
-25.626
-21.949
-18.292
-14.675
-11.119
-7.64
-4.259
-0.992
2.142
5.123
7.935
10.562
12.989
15.203
17.193
18.948
20.461
21.734
22.763
23.549
24.088
24.369
24.389
24.148
23.651
22.907
21.927
20.726
19.331
17.777
16.102
14.343
12.53
10.685
8.839
7.026
5.287
3.674
2.227
0.976
-0.052
-0.845
-1.405
-1.743
-1.899
-1.932
-1.902
-1.878
-1.927
-2.112
-2.508
-3.175
-4.192
-5.68
-7.696
-10.235
-13.214
-16.407
-19.532
-22.354
-24.547
-25.709
-25.593
-24.08
-21.296
-17.782
-14.159
-10.966
-8.806
-8.227
-9.478
-12.519
-16.81
-21.056
-23.622
-22.788
-16.745
-3.666
17.973
49.229
90.696
141.405
198.512
258.751
318.423
374.698
427.787
477.576
521.221
553.597
565.208
546.345
493.933
409.697
300.735
178.734
52.645
-68.075
-173.28
-256.124
-309.495
-331.286
-324.965
-295.57
-252.374
-204.183
-158.634
-122.346
-96.584
-79.471
-66.655
-53.862
-40.458
-28.025
-19.668
-17.31
-20.264
-26.586
-33.492
-38.879
-41.801
-41.973
-39.709
-35.496
-29.866
-23.447
-16.925
-11.014
-6.374
-3.34
-1.919
-1.916
-2.963
-4.697
-6.823
-9.043
-11.086
-12.788
-14.062
-14.871
-15.232
-15.161
-14.669
-13.779
-12.525
-10.943
-9.09
-7.046
-4.918
-2.804
-0.774
1.127
2.875
4.449
5.827
6.993
7.941
8.673
9.192
9.498
9.587
9.468
9.167
8.729
8.21
7.663
7.122
6.62
6.181
5.828
5.581
5.454
5.452
5.583
5.859
6.292
6.901
7.698
8.692
9.888
11.287
12.89
14.699
16.715
18.938
21.368
24.003
26.839
29.882
33.135
36.593
40.257
44.109
48.126
52.303
56.633
61.078
65.602
70.175
74.757
79.343
83.945
88.524
93.024
97.508
102.053
106.578
111.064
115.51
119.68
124.127
129.391
134.651
139.646
142.888
142.602
140.718
138.518
137.917
141.558
147.081
152.488
156.408
156.584
154.621
152.149
149.53
147.762
146.271
144.319
142.056
139.395
136.395
133.219
129.782
126.018
121.969
117.657
113.09
108.288
103.277
98.078
92.729
87.265
81.703
76.057
70.351
64.609
58.851
53.102
47.381
41.707
36.102
30.587
25.181
19.902
14.767
9.792
4.991
0.378
-4.036
-8.24
-12.226
-15.986
-19.513
-22.804
-25.854
-28.661
-31.224
-33.543
-35.621
-37.458
-39.06
-40.43
-41.574
-42.499
-43.212
-43.721
-44.035
-44.163
-44.117
-43.906
-43.542
-43.037
-42.403
-41.651
-40.794
-39.844
-38.814
-37.716
-36.561
-35.361
-34.128
-32.872
-31.604
-30.334
-29.072
-27.828
-26.609
-25.424
-24.282
-23.188
-22.151
-21.176
-20.27
-19.436
-18.681
-18.009
-17.422
-16.924
-16.518
-16.205
-15.987
-15.863
-15.835
-15.901
-16.061
-16.313
-16.654
-17.082
-17.594
-18.186
-18.854
-19.593
-20.398
-21.264
-22.184
-23.152
-24.162
-25.205
-26.274
-27.362
-28.461
-29.561
-30.654
-31.731
-32.782
-33.8
-34.773
-35.693
-36.551
-37.336
-38.041
-38.656
-39.175
-39.589
-39.89
-40.073
-40.13
-40.057
-39.848
-39.499
-39.007
-38.368
-37.581
-36.646
-35.562
-34.331
-32.955
-31.438
-29.785
-28
-26.092
-24.068
-21.936
-19.708
-17.395
-15.01
-12.567
-10.079
-7.563
-5.037
-2.519
-0.026
2.422
4.807
7.11
9.313
11.397
13.347
15.145
16.776
18.225
19.475
20.509
21.315
21.88
22.192
22.243
22.023
21.529
20.76
19.718
18.404
16.819
14.959
12.822
10.415
7.75
4.837
1.697
-1.65
-5.177
-8.845
-12.614
-16.45
-20.322
-24.208
-28.085
-31.917
-35.667
-39.29
-42.743
-46.003
-49.049
-51.854
-54.414
-56.738
-58.853
-60.815
-62.669
-64.444
-66.183
-67.922
-69.707
-71.606
-73.667
-75.955
-78.57
-81.539
-84.841
-88.401
-91.995
-95.378
-98.336
-100.559
-101.705
-101.599
-100.149
-97.502
-94.18
-90.649
-87.322
-84.705
-83.189
-83.019
-84.281
-86.505
-88.585
-89.349
-87.443
-81.382
-69.94
-51.76
-25.612
8.972
51.879
101.843
155.839
210.581
262.697
310.099
353.979
394.748
430.777
457.383
463.595
439.374
380.031
285.51
165.919
36.622
-88.663
-195.092
-273.577
-323.795
-348.027
-354.146
-351.599
-343.74
-331.907
-315.518
-292.144
-262.942
-231.072
-199.359
-171.098
-148.469
-132.02
-121.584
-116.411
-115.392
-117.373
-121.44
-126.567
-131.328
-134.532
-135.587
-134.391
-131.348
-127.061
-121.965
-116.526
-111.46
-107.452
-104.88
-103.804
-103.972
-105.002
-106.591
-108.501
-110.462
-112.169
-113.413
-114.077
-114.115
-113.576
-112.507
-110.927
-108.871
-106.399
-103.571
-100.479
-97.246
-93.959
-90.694
-87.51
-84.435
-81.498
-78.731
-76.15
-73.767
-71.586
-69.599
-67.803
-66.204
-64.793
-63.551
-62.442
-61.408
-60.402
-59.39
-58.342
-57.236
-56.052
-54.769
-53.374
-51.865
-50.235
-48.477
-46.581
-44.531
-42.317
-39.933
-37.375
-34.646
-31.743
-28.666
-25.416
-21.994
-18.402
-14.642
-10.717
-6.625
-2.371
2.041
6.601
11.3
16.127
21.068
26.109
31.235
36.427
41.669
46.942
52.228
57.507
62.76
67.965
73.103
78.151
83.09
87.897
92.552
97.033
101.321
105.395
109.236
112.826
116.148
119.184
121.92
124.342
126.436
128.191
129.596
130.643
131.324
131.634
131.569
131.128
130.311
129.119
127.558
125.633
123.352
120.724
117.761
114.475
110.88
106.993
102.829
98.409
93.75
88.874
83.803
78.559
73.166
67.647
62.026
56.328
50.578
44.8
39.018
33.258
27.541
21.893
16.336
10.891
5.579
0.421
-4.565
-9.361
-13.953
-18.326
-22.466
-26.365
-30.011
-33.399
-36.521
-39.374
-41.956
-44.265
-46.302
-48.07
-49.572
-50.814
-51.801
-52.543
-53.047
-53.324
-53.386
-53.243
-52.908
-52.394
-51.715
-50.885
-49.918
-48.829
-47.631
-46.341
-44.972
-43.539
-42.056
-40.536
-38.993
-37.438
-35.882
-34.337
-32.811
-31.314
-29.854
-28.439
-27.075
-25.768
-24.524
-23.346
-22.24
-21.207
-20.249
-19.368
-18.565
-17.839
-17.189
-16.615
-16.115
-15.688
-15.333
-15.048
-14.829
-14.676
-14.584
-14.551
-14.574
-14.649
-14.773
-14.943
-15.156
-15.41
-15.702
-16.03
-16.393
-16.788
-17.212
-17.664
-18.14
-18.636
-19.15
-19.678
-20.215
-20.757
-21.301
-21.844
-22.383
-22.916
-23.441
-23.953
-24.451
-24.931
-25.387
-25.813
-26.201
-26.541
-26.827
-27.052
-27.208
-27.29
-27.291
-27.206
-27.033
-26.766
-26.399
-25.922
-25.322
-24.586
-23.713
-22.705
-21.566
-20.313
-18.955
-17.506
-15.987
-14.41
-12.78
-11.098
-9.345
-7.505
-5.572
-3.55
-1.455
0.694
2.895
5.149
7.458
9.84
12.308
14.878
17.59
20.461
23.486
26.637
29.851
33.047
36.17
39.175
42.031
44.714
47.183
49.393
51.313
52.895
54.097
54.865
55.115
54.781
53.839
52.294
50.204
47.653
44.7
41.396
37.797
33.952
29.933
25.804
21.606
17.385
13.187
9.08
5.163
1.526
-1.783
-4.743
-7.372
-9.703
-11.753
-13.553
-15.162
-16.647
-18.093
-19.562
-21.072
-22.645
-24.321
-26.156
-28.236
-30.628
-33.347
-36.416
-39.867
-43.699
-47.858
-52.17
-56.302
-59.895
-62.636
-64.216
-64.326
-62.749
-59.42
-54.573
-48.794
-42.775
-37.152
-32.538
-29.523
-28.485
-29.445
-31.831
-34.384
-35.519
-33.663
-27.115
-13.995
7.304
38.037
77.966
124.707
175.281
226.485
276.473
325.771
374.337
420.034
457.201
476.223
466.943
422.583
342.258
230.942
99.618
-37.818
-167.181
-274.582
-351.442
-394.536
-406.467
-394.153
-363.287
-320.596
-271.223
-220.378
-176.651
-143.933
-123.216
-112.317
-103.829
-94.269
-83.352
-72.293
-65.137
-63.233
-65.255
-69.378
-72.926
-74.282
-73.387
-70.568
-66.331
-61.179
-55.471
-49.649
-44.339
-40.175
-37.431
-36.041
-35.775
-36.287
-37.31
-38.669
-40.11
-41.334
-42.138
-42.398
-42.087
-41.275
-40.009
-38.306
-36.198
-33.741
-31.019
-28.145
-25.241
-22.395
-19.662
-17.076
-14.665
-12.461
-10.495
-8.79
-7.344
-6.145
-5.183
-4.457
-3.963
-3.69
-3.602
-3.647
-3.764
-3.905
-4.034
-4.122
-4.143
-4.068
-3.873
-3.543
-3.071
-2.449
-1.664
-0.699
0.465
1.839
3.433
5.251
7.296
9.574
12.088
14.841
17.835
21.071
24.549
28.272
32.241
36.455
40.911
45.6
50.515
55.644
60.976
66.496
72.188
78.035
84.019
90.121
96.321
102.598
108.932
115.301
121.68
128.049
134.383
140.658
146.851
152.938
158.894
164.697
170.323
175.75
180.953
185.913
190.609
195.02
199.127
202.912
206.358
209.448
212.169
214.507
216.452
217.994
219.127
219.844
220.142
220.02
219.477
218.515
217.138
215.351
213.16
210.573
207.601
204.255
200.546
196.491
192.103
187.4
182.399
177.12
171.581
165.805
159.813
153.626
147.269
140.764
134.135
127.407
120.604
113.75
106.869
99.986
93.122
86.301
79.545
72.874
66.307
59.865
53.563
47.42
41.45
35.667
30.085
24.715
19.567
14.651
9.975
5.544
1.365
-2.559
-6.225
-9.632
-12.779
-15.668
-18.3
-20.679
-22.809
-24.696
-26.346
-27.767
-28.968
-29.956
-30.743
-31.338
-31.753
-31.998
-32.086
-32.027
-31.833
-31.517
-31.09
-30.563
-29.948
-29.256
-28.5
-27.69
-26.836
-25.95
-25.041
-24.12
-23.195
-22.277
-21.373
-20.491
-19.641
-18.828
-18.059
-17.341
-16.679
-16.078
-15.544
-15.079
-14.686
-14.369
-14.129
-13.968
-13.887
-13.885
-13.965
-14.124
-14.363
-14.68
-15.076
-15.547
-16.092
-16.707
-17.392
-18.141
-18.952
-19.82
-20.743
-21.714
-22.73
-23.786
-24.877
-25.998
-27.142
-28.305
-29.48
-30.662
-31.844
-33.02
-34.184
-35.329
-36.45
-37.541
-38.596
-39.611
-40.58
-41.498
-42.359
-43.16
-43.896
-44.563
-45.157
-45.675
-46.113
-46.47
-46.744
-46.933
-47.038
-47.057
-46.991
-46.842
-46.612
-46.302
-45.915
-45.454
-44.926
-44.335
-43.687
-42.989
-42.248
-41.473
-40.674
-39.861
-39.046
-38.237
-37.446
-36.684
-35.962
-35.291
-34.68
-34.136
-33.668
-33.287
-33.002
-32.823
-32.757
-32.811
-32.993
-33.309
-33.763
-34.359
-35.093
-35.963
-36.969
-38.111
-39.395
-40.825
-42.394
-44.099
-45.931
-47.877
-49.922
-52.041
-54.198
-56.36
-58.499
-60.592
-62.623
-64.573
-66.418
-68.132
-69.683
-71.049
-72.216
-73.168
-73.903
-74.437
-74.797
-75.04
-75.242
-75.461
-75.758
-76.191
-76.806
-77.667
-78.838
-80.352
-82.257
-84.605
-87.41
-90.653
-94.229
-97.879
-101.311
-104.252
-106.407
-107.487
-107.273
-105.63
-102.693
-98.95
-95.02
-91.427
-88.521
-86.677
-86.271
-87.46
-89.989
-92.251
-91.603
-86.212
-75.223
-59.845
-42.702
-23.72
-0.75
30.216
73.74
129.289
192.596
257.486
316.487
364.796
398.467
412.46
401.663
361.314
290.007
190.804
71.432
-56.932
-182.436
-293.01
-379.326
-437.095
-467.594
-476.134
-469.232
-452.112
-425.461
-390.587
-350.732
-309.051
-272.084
-242.725
-219.083
-200.117
-182.877
-166.529
-153.774
-145.36
-141.528
-141.825
-143.765
-145.704
-146.857
-146.421
-144.407
-141.167
-136.873
-131.846
-126.609
-121.601
-117.302
-114.289
-112.763
-112.603
-113.624
-115.524
-117.973
-120.733
-123.503
-125.902
-127.717
-128.86
-129.3
-129.104
-128.322
-126.963
-125.089
-122.79
-120.144
-117.249
-114.194
-111.042
-107.884
-104.8
-101.853
-99.113
-96.621
-94.397
-92.453
-90.789
-89.392
-88.254
-87.356
-86.67
-86.168
-85.813
-85.563
-85.376
-85.204
-85.001
-84.734
-84.37
-83.885
-83.261
-82.482
-81.538
-80.424
-79.133
-77.655
-75.986
-74.116
-72.037
-69.748
-67.244
-64.526
-61.594
-58.447
-55.084
-51.506
-47.714
-43.709
-39.494
-35.07
-30.443
-25.619
-20.608
-15.423
-10.075
-4.58
1.046
6.787
12.622
18.533
24.5
30.502
36.52
42.531
48.514
54.446
60.305
66.07
71.719
77.23
82.582
87.752
92.722
97.472
101.983
106.237
110.217
113.907
117.293
120.361
123.1
125.499
127.549
129.243
130.575
131.542
132.142
132.376
132.244
131.753
130.906
129.714
128.184
126.328
124.159
121.69
118.938
115.917
112.647
109.145
105.432
101.528
97.454
93.232
88.883
84.431
79.898
75.306
70.678
66.037
61.404
56.801
52.249
47.768
43.379
39.099
34.948
30.942
27.097
23.426
19.942
16.657
13.58
10.72
8.082
5.673
3.496
1.553
-0.156
-1.629
-2.871
-3.883
-4.669
-5.235
-5.587
-5.732
-5.677
-5.431
-5.002
-4.401
-3.636
-2.718
-1.657
-0.465
0.849
2.273
3.796
5.407
7.096
8.851
10.662
12.519
14.414
16.336
18.276
20.226
22.18
24.129
26.067
27.989
29.888
31.76
33.602
35.411
37.182
38.915
40.606
42.253
43.855
45.411
46.919
48.377
49.784
51.14
52.443
53.694
54.893
56.037
57.128
58.164
59.146
60.073
60.946
61.765
62.529
63.241
63.901
64.512
65.074
65.589
66.061
66.491
66.883
67.237
67.554
67.835
68.081
68.294
68.475
68.625
68.745
68.84
68.916
68.978
69.032
69.081
69.13
69.183
69.245
69.321
69.414
69.526
69.658
69.818
70.015
70.264
70.567
70.921
71.315
71.743
72.2
72.68
73.171
73.656
74.126
74.584
75.044
75.526
76.035
76.568
77.106
77.634
78.148
78.657
79.172
79.695
80.225
80.77
81.352
82.002
82.729
83.506
84.28
84.993
85.612
86.118
86.508
86.772
86.886
86.822
86.555
86.074
85.367
84.407
83.15
81.539
79.55
77.202
74.55
71.649
68.535
65.233
61.759
58.146
54.437
50.678
46.915
43.185
39.528
36
32.672
29.626
26.925
24.599
22.654
21.093
19.92
19.132
18.727
18.676
18.939
19.475
20.217
21.087
22.004
22.868
23.575
24.043
24.156
23.778
22.843
21.345
19.385
17.213
15.076
13.165
11.74
11.112
11.503
13.019
15.438
18.158
20.563
22.169
22.596
21.55
18.902
14.767
9.857
5.552
3.533
5.453
12.67
26.514
48.219
78.662
118.292
166.013
218.811
273.463
326.74
376.677
424.688
471.448
515.02
550.641
567.106
552.903
502.005
413.436
296.079
165.014
34.63
-80.551
-171.135
-234.624
-271.975
-288.279
-288.965
-277.054
-254.448
-223.604
-189.347
-157.278
-132.11
-114.572
-100.783
-87.356
-72.695
-57.741
-46.17
-39.978
-38.898
-41.881
-46.678
-51.47
-55.457
-57.893
-58.536
-57.645
-55.506
-52.42
-48.792
-45.033
-41.575
-38.958
-37.435
-36.921
-37.227
-38.083
-39.25
-40.576
-41.871
-42.879
-43.441
-43.486
-42.984
-41.99
-40.548
-38.682
-36.455
-33.962
-31.311
-28.604
-25.928
-23.345
-20.897
-18.615
-16.517
-14.618
-12.921
-11.436
-10.177
-9.145
-8.346
-7.777
-7.426
-7.268
-7.267
-7.381
-7.57
-7.799
-8.041
-8.274
-8.48
-8.645
-8.762
-8.819
-8.804
-8.704
-8.504
-8.187
-7.74
-7.153
-6.417
-5.525
-4.472
-3.252
-1.859
-0.29
1.46
3.397
5.526
7.85
10.373
13.094
16.01
19.119
22.414
25.89
29.536
33.342
37.297
41.389
45.603
49.927
54.343
58.836
63.386
67.976
72.587
77.197
81.786
86.334
90.818
95.216
99.508
103.671
107.684
111.526
115.177
118.617
121.828
124.789
127.485
129.898
132.014
133.816
135.293
136.434
137.227
137.665
137.742
137.452
136.792
135.761
134.358
132.587
130.451
127.955
125.106
121.913
118.387
114.54
110.385
105.939
101.216
96.236
91.015
85.575
79.934
74.114
68.138
62.025
55.8
49.484
43.1
36.671
30.219
23.766
17.334
10.945
4.617
-1.628
-7.772
-13.797
-19.687
-25.426
-31
-36.395
-41.6
-46.605
-51.4
-55.978
-60.332
-64.459
-68.353
-72.014
-75.44
-78.631
-81.588
-84.314
-86.811
-89.084
-91.137
-92.975
-94.603
-96.029
-97.259
-98.3
-99.16
-99.846
-100.367
-100.73
-100.944
-101.017
-100.956
-100.771
-100.47
-100.058
-99.545
-98.938
-98.243
-97.467
-96.616
-95.696
-94.713
-93.673
-92.579
-91.437
-90.251
-89.026
-87.764
-86.472
-85.151
-83.807
-82.444
-81.064
-79.673
-78.275
-76.873
-75.472
-74.076
-72.69
-71.316
-69.96
-68.625
-67.315
-66.034
-64.786
-63.574
-62.401
-61.271
-60.187
-59.15
-58.163
-57.228
-56.346
-55.519
-54.747
-54.03
-53.369
-52.762
-52.208
-51.707
-51.255
-50.849
-50.487
-50.163
-49.873
-49.611
-49.372
-49.148
-48.933
-48.72
-48.502
-48.271
-48.02
-47.741
-47.428
-47.072
-46.667
-46.207
-45.685
-45.096
-44.434
-43.696
-42.879
-41.979
-40.995
-39.927
-38.774
-37.537
-36.221
-34.826
-33.359
-31.824
-30.228
-28.58
-26.889
-25.165
-23.42
-21.668
-19.922
-18.199
-16.515
-14.886
-13.33
-11.864
-10.504
-9.269
-8.172
-7.227
-6.449
-5.852
-5.452
-5.261
-5.293
-5.557
-6.064
-6.82
-7.835
-9.111
-10.645
-12.437
-14.482
-16.782
-19.341
-22.16
-25.231
-28.547
-32.094
-35.852
-39.802
-43.912
-48.139
-52.442
-56.783
-61.125
-65.447
-69.719
-73.903
-77.962
-81.845
-85.51
-88.937
-92.096
-94.966
-97.554
-99.875
-101.97
-103.916
-105.758
-107.545
-109.339
-111.18
-113.135
-115.276
-117.643
-120.311
-123.374
-126.854
-130.738
-134.92
-139.122
-143.064
-146.501
-149.102
-150.555
-150.656
-149.293
-146.684
-143.369
-139.901
-136.738
-134.234
-132.672
-132.224
-132.831
-133.879
-134.209
-132.38
-126.99
-116.994
-101.275
-78.675
-48.366
-9.911
35.726
85.793
137.313
187.494
234.818
280.209
324.164
365.139
398.309
414.899
405.357
363.159
287.468
183.197
60.907
-66.558
-186.692
-287.801
-362.779
-408.191
-424.694
-416.534
-388.36
-347.231
-300.611
-256.146
-221.045
-197.572
-183.973
-175.308
-166.636
-156.536
-146.335
-139.44
-137.98
-141.341
-147.633
-153.926
-158.082
-159.61
-158.575
-155.383
-150.588
-144.664
-138.138
-131.771
-126.292
-122.004
-118.969
-117.094
-116.118
-115.792
-115.878
-116.05
-115.985
-115.528
-114.629
-113.291
-111.572
-109.482
-107.007
-104.185
-101.094
-97.818
-94.43
-90.98
-87.501
-84.043
-80.675
-77.45
-74.395
-71.514
-68.793
-66.231
-63.832
-61.608
-59.564
-57.697
-55.987
-54.406
-52.931
-51.537
-50.198
-48.885
-47.563
-46.202
-44.781
-43.292
-41.725
-40.071
-38.314
-36.438
-34.428
-32.274
-29.962
-27.484
-24.83
-21.989
-18.955
-15.723
-12.291
-8.656
-4.817
-0.77
3.487
7.953
12.624
17.497
22.567
27.826
33.266
38.876
44.642
50.552
56.591
62.743
68.991
75.319
81.706
88.134
94.583
101.032
107.46
113.844
120.164
126.398
132.523
138.519
144.362
150.034
155.513
160.779
165.814
170.6
175.12
179.357
183.299
186.93
190.24
193.217
195.853
198.14
200.072
201.644
202.853
203.699
204.181
204.301
204.063
203.472
202.533
201.254
199.644
197.714
195.476
192.941
190.123
187.039
183.702
180.131
176.341
172.351
168.18
163.846
159.368
154.765
150.057
145.264
140.403
135.495
130.557
125.608
120.665
115.746
110.865
106.04
101.285
96.613
92.038
87.572
83.227
79.011
74.935
71.006
67.232
63.617
60.169
56.889
53.781
50.848
48.089
45.506
43.097
40.861
38.796
36.897
35.161
33.584
32.16
30.883
29.748
28.748
27.876
27.125
26.487
25.955
25.521
25.178
24.916
24.729
24.607
24.543
24.53
24.558
24.622
24.713
24.824
24.948
25.079
25.21
25.335
25.447
25.542
25.613
25.655
25.665
25.637
25.566
25.451
25.285
25.068
24.795
24.465
24.074
23.622
23.106
22.525
21.88
21.168
20.391
19.547
18.639
17.667
16.632
15.537
14.382
13.171
11.906
10.589
9.225
7.816
6.367
4.882
3.365
1.822
0.256
-1.325
-2.916
-4.511
-6.103
-7.686
-9.253
-10.796
-12.308
-13.782
-15.211
-16.587
-17.902
-19.149
-20.322
-21.412
-22.413
-23.317
-24.119
-24.812
-25.39
-25.849
-26.183
-26.388
-26.459
-26.394
-26.189
-25.843
-25.353
-24.718
-23.938
-23.013
-21.946
-20.737
-19.39
-17.909
-16.3
-14.567
-12.719
-10.762
-8.706
-6.56
-4.333
-2.038
0.314
2.711
5.14
7.587
10.038
12.476
14.885
17.249
19.552
21.778
23.911
25.935
27.835
29.6
31.217
32.675
33.962
35.064
35.971
36.674
37.164
37.435
37.479
37.292
36.874
36.231
35.366
34.284
32.983
31.459
29.713
27.75
25.578
23.208
20.655
17.934
15.074
12.113
9.088
6.033
2.971
-0.078
-3.088
-6.03
-8.866
-11.555
-14.067
-16.375
-18.458
-20.308
-21.929
-23.34
-24.586
-25.723
-26.805
-27.893
-29.042
-30.307
-31.754
-33.427
-35.405
-37.789
-40.632
-43.943
-47.635
-51.474
-55.197
-58.565
-61.253
-62.907
-63.259
-62.157
-59.802
-56.774
-53.726
-51.288
-50.03
-50.456
-52.945
-57.567
-63.678
-69.913
-74.559
-75.793
-71.834
-60.882
-41.266
-11.63
27.86
75.238
128.149
183.635
239.965
296.893
352.479
403.618
444.697
467.876
466.632
435.913
374.504
284.398
170.977
45.12
-80.776
-191.742
-274.74
-326.044
-347.475
-347.574
-337.739
-323.085
-305.379
-283.745
-255.262
-221.077
-184.844
-150.142
-121.072
-99.808
-86.241
-79.649
-78.764
-81.932
-87.58
-94.264
-100.291
-104.18
-105.273
-103.432
-98.966
-92.619
-85.173
-77.326
-69.949
-63.832
-59.335
-56.535
-55.246
-55.082
-55.692
-56.765
-57.962
-58.97
-59.603
-59.773
-59.451
-58.656
-57.405
-55.708
-53.595
-51.124
-48.354
-45.352
-42.216
-39.029
-35.869
-32.814
-29.908
-27.177
-24.648
-22.331
-20.233
-18.37
-16.748
-15.364
-14.222
-13.315
-12.622
-12.114
-11.744
-11.459
-11.22
-10.99
-10.739
-10.447
-10.093
-9.659
-9.14
-8.525
-7.8
-6.954
-5.969
-4.83
-3.527
-2.05
-0.394
1.445
3.47
5.688
8.099
10.707
13.514
16.524
19.738
23.159
26.785
30.612
34.633
38.84
43.225
47.775
52.476
57.316
62.277
67.345
72.504
77.734
83.019
88.339
93.675
99.007
104.314
109.577
114.776
119.889
124.896
129.776
134.511
139.08
143.464
147.644
151.603
155.321
158.785
161.977
164.883
167.49
169.785
171.758
173.4
174.703
175.661
176.27
176.527
176.431
175.982
175.183
174.036
172.545
170.718
168.561
166.083
163.293
160.201
156.82
153.162
149.241
145.071
140.668
136.048
131.228
126.226
121.059
115.747
110.31
104.766
99.137
93.441
87.699
81.931
76.156
70.393
64.66
58.977
53.359
47.824
42.387
37.063
31.865
26.807
21.9
17.155
12.581
8.189
3.985
-0.023
-3.828
-7.426
-10.813
-13.985
-16.939
-19.675
-22.193
-24.492
-26.576
-28.446
-30.106
-31.561
-32.816
-33.877
-34.751
-35.445
-35.967
-36.324
-36.526
-36.581
-36.499
-36.288
-35.958
-35.517
-34.974
-34.338
-33.618
-32.822
-31.959
-31.037
-30.064
-29.049
-27.999
-26.923
-25.827
-24.719
-23.607
-22.496
-21.393
-20.303
-19.234
-18.189
-17.173
-16.192
-15.248
-14.346
-13.489
-12.68
-11.922
-11.216
-10.565
-9.97
-9.434
-8.957
-8.542
-8.189
-7.9
-7.676
-7.518
-7.427
-7.404
-7.449
-7.561
-7.741
-7.989
-8.302
-8.681
-9.124
-9.63
-10.196
-10.82
-11.501
-12.234
-13.018
-13.849
-14.722
-15.634
-16.581
-17.557
-18.558
-19.579
-20.615
-21.659
-22.708
-23.753
-24.789
-25.808
-26.805
-27.771
-28.698
-29.58
-30.408
-31.175
-31.875
-32.501
-33.045
-33.502
-33.866
-34.131
-34.293
-34.346
-34.287
-34.112
-33.818
-33.404
-32.869
-32.213
-31.436
-30.542
-29.531
-28.41
-27.182
-25.852
-24.428
-22.915
-21.324
-19.662
-17.941
-16.172
-14.365
-12.536
-10.7
-8.872
-7.067
-5.302
-3.592
-1.952
-0.4
1.051
2.39
3.605
4.683
5.611
6.377
6.97
7.38
7.6
7.62
7.435
7.042
6.442
5.64
4.643
3.452
2.07
0.494
-1.274
-3.23
-5.365
-7.668
-10.125
-12.714
-15.409
-18.171
-20.965
-23.76
-26.53
-29.254
-31.905
-34.457
-36.88
-39.141
-41.209
-43.054
-44.656
-46.008
-47.12
-48.014
-48.725
-49.295
-49.771
-50.214
-50.688
-51.26
-51.996
-52.937
-54.147
-55.721
-57.715
-60.133
-62.868
-65.652
-68.186
-70.216
-71.449
-71.545
-70.281
-67.581
-63.71
-59.349
-55.267
-52.15
-50.628
-51.267
-54.367
-59.802
-66.755
-73.652
-78.579
-79.642
-74.949
-62.576
-40.989
-9.168
32.39
81.233
134.436
188.85
242.603
295.833
347.157
392.905
426.455
437.714
419.63
370.873
295.259
202.093
99.683
-7.028
-113.516
-215.531
-305.83
-375.087
-417.931
-433.76
-427.753
-408.727
-382.796
-353.495
-321.666
-286.307
-248.892
-212.107
-178.915
-152.621
-134.306
-123.293
-118.568
-118.418
-120.991
-124.864
-128.285
-129.502
-127.681
-122.633
-114.605
-104.345
-92.735
-80.538
-68.739
-58.367
-49.95
-43.71
-39.618
-37.367
-36.637
-37.14
-38.491
-40.284
-42.275
-44.283
-46.175
-47.894
-49.341
-50.434
-51.151
-51.487
-51.44
-51.01
-50.201
-49.028
-47.533
-45.771
-43.781
-41.599
-39.25
-36.782
-34.261
-31.763
-29.374
-27.147
-25.119
-23.319
-21.758
-20.439
-19.352
-18.469
-17.755
-17.177
-16.71
-16.328
-16.016
-15.745
-15.483
-15.192
-14.83
-14.36
-13.757
-12.996
-12.059
-10.93
-9.599
-8.063
-6.324
-4.383
-2.237
0.116
2.681
5.459
8.45
11.65
15.054
18.658
22.454
26.437
30.596
34.924
39.411
44.046
48.82
53.721
58.736
63.848
69.04
74.293
79.59
84.909
90.23
95.531
100.79
105.987
111.099
116.105
120.983
125.713
130.272
134.64
138.796
142.722
146.399
149.807
152.932
155.755
158.263
160.443
162.282
163.769
164.896
165.655
166.041
166.049
165.676
164.923
163.789
162.279
160.395
158.146
155.538
152.581
149.286
145.668
141.739
137.516
133.014
128.254
123.252
118.03
112.608
107.007
101.251
95.361
89.361
83.274
77.123
70.93
64.72
58.514
52.335
46.203
40.14
34.165
28.297
22.555
16.955
11.513
6.244
1.161
-3.723
-8.399
-12.856
-17.087
-21.084
-24.844
-28.361
-31.634
-34.661
-37.442
-39.98
-42.276
-44.334
-46.159
-47.757
-49.135
-50.299
-51.258
-52.021
-52.596
-52.994
-53.225
-53.298
-53.225
-53.015
-52.68
-52.229
-51.673
-51.023
-50.288
-49.479
-48.605
-47.676
-46.7
-45.687
-44.644
-43.579
-42.5
-41.414
-40.327
-39.245
-38.175
-37.12
-36.085
-35.076
-34.096
-33.148
-32.235
-31.361
-30.528
-29.739
-28.995
-28.298
-27.649
-27.052
-26.505
-26.012
-25.573
-25.188
-24.859
-24.587
-24.373
-24.215
-24.117
-24.076
-24.094
-24.17
-24.304
-24.495
-24.743
-25.047
-25.406
-25.818
-26.283
-26.797
-27.36
-27.968
-28.618
-29.308
-30.034
-30.792
-31.578
-32.387
-33.214
-34.056
-34.907
-35.761
-36.612
-37.456
-38.286
-39.096
-39.879
-40.629
-41.339
-42.004
-42.615
-43.169
-43.657
-44.076
-44.418
-44.68
-44.857
-44.943
-44.936
-44.832
-44.627
-44.321
-43.91
-43.396
-42.778
-42.058
-41.238
-40.32
-39.31
-38.211
-37.028
-35.769
-34.438
-33.045
-31.597
-30.101
-28.568
-27.008
-25.433
-23.856
-22.291
-20.749
-19.246
-17.794
-16.407
-15.097
-13.876
-12.751
-11.731
-10.827
-10.049
-9.405
-8.903
-8.55
-8.351
-8.312
-8.434
-8.719
-9.165
-9.763
-10.51
-11.404
-12.445
-13.641
-14.992
-16.495
-18.142
-19.926
-21.833
-23.847
-25.942
-28.079
-30.221
-32.34
-34.405
-36.394
-38.283
-40.035
-41.614
-42.982
-44.1
-44.95
-45.532
-45.84
-45.894
-45.722
-45.355
-44.869
-44.356
-43.895
-43.583
-43.502
-43.711
-44.317
-45.45
-47.175
-49.502
-52.315
-55.341
-58.318
-61.031
-63.196
-64.494
-64.699
-63.736
-61.881
-59.754
-58.007
-57.158
-57.628
-59.783
-63.766
-69.324
-75.597
-81.12
-84.142
-82.913
-75.918
-61.719
-39.088
-7.37
33.378
82.395
137.209
193.902
248.948
298.36
340.666
377.812
408.974
431.926
440.75
424.038
376.248
297.11
191.588
73.17
-47.464
-160.986
-258.427
-336.154
-388.926
-414.763
-415.604
-392.71
-352.984
-303.322
-250.443
-204.222
-168.767
-145.119
-131.708
-121.814
-111.999
-101.583
-91.306
-84.655
-82.563
-83.643
-85.882
-86.379
-83.849
-78.525
-70.876
-61.736
-51.899
-41.92
-32.622
-24.903
-19.204
-15.654
-14.144
-14.344
-15.915
-18.537
-21.809
-25.281
-28.632
-31.653
-34.2
-36.236
-37.738
-38.67
-39.032
-38.844
-38.119
-36.885
-35.191
-33.08
-30.607
-27.851
-24.882
-21.786
-18.665
-15.6
-12.66
-9.894
-7.328
-4.974
-2.849
-0.952
0.73
2.216
3.541
4.734
5.82
6.832
7.805
8.781
9.81
10.932
12.172
13.554
15.093
16.802
18.693
20.772
23.036
25.485
28.115
30.927
33.924
37.104
40.463
43.993
47.687
51.536
55.535
59.677
63.953
68.354
72.87
77.493
82.213
87.021
91.901
96.841
101.822
106.829
111.845
116.85
121.826
126.754
131.614
136.389
141.06
145.608
150.015
154.263
158.335
162.213
165.882
169.324
172.527
175.474
178.155
180.555
182.666
184.476
185.978
187.162
188.024
188.557
188.758
188.625
188.154
187.348
186.206
184.732
182.931
180.807
178.368
175.621
172.577
169.245
165.637
161.765
157.642
153.283
148.703
143.917
138.942
133.794
128.49
123.05
117.489
111.827
106.083
100.273
94.417
88.533
82.639
76.753
70.892
65.074
59.316
53.634
48.045
42.563
37.204
31.982
26.909
21.999
17.262
12.709
8.35
4.193
0.247
-3.481
-6.986
-10.263
-13.308
-16.117
-18.69
-21.024
-23.121
-24.981
-26.607
-28
-29.164
-30.104
-30.825
-31.332
-31.631
-31.73
-31.637
-31.36
-30.908
-30.292
-29.522
-28.609
-27.563
-26.397
-25.122
-23.75
-22.295
-20.768
-19.183
-17.552
-15.89
-14.209
-12.523
-10.846
-9.191
-7.57
-5.995
-4.48
-3.034
-1.669
-0.394
0.78
1.844
2.79
3.609
4.293
4.835
5.231
5.473
5.559
5.484
5.248
4.847
4.282
3.553
2.66
1.605
0.392
-0.978
-2.498
-4.164
-5.967
-7.9
-9.951
-12.111
-14.368
-16.709
-19.119
-21.587
-24.099
-26.643
-29.207
-31.778
-34.344
-36.891
-39.409
-41.881
-44.294
-46.631
-48.874
-51.01
-53.023
-54.902
-56.634
-58.208
-59.614
-60.846
-61.896
-62.756
-63.416
-63.86
-64.077
-64.065
-63.828
-63.377
-62.728
-61.898
-60.904
-59.773
-58.525
-57.171
-55.716
-54.148
-52.454
-50.634
-48.699
-46.67
-44.57
-42.403
-40.172
-37.877
-35.504
-33.045
-30.485
-27.787
-24.934
-21.94
-18.836
-15.69
-12.584
-9.573
-6.701
-4.002
-1.499
0.766
2.752
4.43
5.751
6.668
7.126
7.044
6.364
5.075
3.19
0.762
-2.127
-5.424
-9.08
-13.044
-17.281
-21.746
-26.385
-31.159
-36.009
-40.863
-45.643
-50.249
-54.593
-58.623
-62.301
-65.613
-68.572
-71.179
-73.434
-75.354
-76.949
-78.235
-79.24
-79.99
-80.539
-80.962
-81.351
-81.811
-82.446
-83.333
-84.557
-86.222
-88.361
-90.949
-93.897
-96.985
-99.984
-102.706
-104.921
-106.365
-106.881
-106.401
-105.068
-103.357
-101.728
-100.603
-100.354
-101.129
-103.081
-106.323
-110.324
-114.07
-115.894
-113.196
-104.738
-90.284
-70.193
-46.728
-19.167
15.234
57.802
111.094
172.657
235.751
296.645
350.548
394.506
427.501
443.539
435.235
396.726
325.105
222.862
99.277
-31.986
-156.825
-259.583
-329.789
-366.453
-373.879
-362.938
-345.05
-324.837
-303.658
-280.149
-251.825
-220.095
-187.919
-158.12
-133.974
-116.828
-106.221
-101.218
-100.339
-102.079
-105.458
-109.558
-113.079
-114.89
-114.474
-111.809
-107.356
-101.821
-95.706
-89.431
-83.662
-79.047
-75.916
-74.332
-74.058
-74.696
-75.943
-77.577
-79.337
-80.951
-82.236
-83.081
-83.451
-83.375
-82.88
-81.975
-80.681
-79.046
-77.127
-74.997
-72.761
-70.505
-68.305
-66.22
-64.281
-62.506
-60.913
-59.512
-58.306
-57.3
-56.489
-55.867
-55.44
-55.197
-55.119
-55.174
-55.307
-55.467
-55.614
-55.716
-55.745
-55.68
-55.501
-55.192
-54.75
-54.164
-53.425
-52.521
-51.434
-50.152
-48.665
-46.965
-45.051
-42.92
-40.569
-37.997
-35.203
-32.189
-28.953
-25.497
-21.82
-17.922
-13.807
-9.483
-4.957
-0.24
4.657
9.721
14.937
20.29
25.763
31.339
37.002
42.733
48.512
54.321
60.139
65.946
71.721
77.443
83.09
88.641
94.075
99.371
104.508
109.465
114.222
118.76
123.061
127.107
130.881
134.368
137.553
140.423
142.966
145.172
147.032
148.538
149.686
150.471
150.891
150.945
150.634
149.96
148.927
147.54
145.806
143.732
141.328
138.603
135.571
132.244
128.637
124.764
120.642
116.289
111.723
106.963
102.029
96.942
91.723
86.393
80.973
75.487
69.954
64.397
58.837
53.294
47.789
42.342
36.971
31.695
26.53
21.494
16.601
11.866
7.301
2.921
-1.265
-5.246
-9.014
-12.559
-15.875
-18.957
-21.8
-24.4
-26.755
-28.865
-30.728
-32.346
-33.722
-34.858
-35.76
-36.433
-36.883
-37.116
-37.142
-36.968
-36.604
-36.059
-35.343
-34.466
-33.439
-32.273
-30.979
-29.567
-28.049
-26.435
-24.738
-22.966
-21.132
-19.247
-17.32
-15.362
-13.385
-11.397
-9.41
-7.432
-5.473
-3.542
-1.647
0.203
2.002
3.742
5.417
7.021
8.55
9.998
11.363
12.64
13.826
14.92
15.92
16.825
17.633
18.345
18.961
19.481
19.905
20.236
20.474
20.623
20.684
20.661
20.557
20.376
20.123
19.802
19.418
18.978
18.487
17.951
17.377
16.773
16.144
15.497
14.841
14.182
13.527
12.884
12.258
11.656
11.086
10.554
10.066
9.627
9.245
8.925
8.673
8.494
8.394
8.378
8.449
8.612
8.871
9.229
9.687
10.248
10.914
11.684
12.56
13.539
14.621
15.803
17.082
18.454
19.915
21.46
23.083
24.776
26.533
28.347
30.21
32.113
34.046
36
37.965
39.931
41.885
43.815
45.706
47.546
49.321
51.019
52.624
54.124
55.506
56.761
57.88
58.852
59.67
60.322
60.8
61.097
61.207
61.124
60.845
60.367
59.689
58.818
57.759
56.517
55.093
53.485
51.691
49.719
47.577
45.274
42.827
40.255
37.587
34.86
32.113
29.378
26.682
24.047
21.499
19.068
16.789
14.699
12.826
11.193
9.821
8.72
7.872
7.25
6.795
6.435
6.12
5.796
5.401
4.882
4.164
3.169
1.86
0.186
-1.94
-4.542
-7.598
-10.989
-14.39
-17.445
-19.887
-21.42
-21.733
-20.671
-18.17
-14.426
-10.145
-6.091
-2.788
-0.638
-0.004
-1.049
-3.652
-7.261
-9.896
-8.653
-2.075
10.617
29.226
51.559
78.88
113.995
157.376
210.879
271.625
332.948
392.481
446.05
489.097
518.776
526.854
505.536
453.157
370.882
265.183
147.362
26.974
-86.251
-181.497
-252.498
-296.527
-314.264
-311.381
-293.661
-265.069
-230.457
-195.105
-163.333
-138.966
-122.232
-109.029
-96.306
-82.769
-69.026
-58.435
-52.935
-52.141
-54.9
-58.973
-62.346
-64.077
-63.806
-61.641
-57.963
-53.2
-47.722
-41.935
-36.459
-31.919
-28.639
-26.675
-25.869
-25.897
-26.487
-27.441
-28.497
-29.382
-29.924
-30.026
-29.653
-28.843
-27.622
-26
-24.02
-21.751
-19.267
-16.67
-14.05
-11.477
-9.025
-6.746
-4.671
-2.823
-1.212
0.165
1.299
2.185
2.828
3.226
3.387
3.33
3.083
2.69
2.2
1.657
1.103
0.57
0.086
-0.324
-0.643
-0.858
-0.959
-0.928
-0.754
-0.415
0.103
0.815
1.732
2.861
4.209
5.781
7.58
9.609
11.869
14.363
17.09
20.053
23.25
26.68
30.336
34.21
38.293
42.572
47.035
51.664
56.442
61.353
66.376
71.492
76.681
81.921
87.19
92.464
97.722
102.941
108.097
113.167
118.128
122.958
127.634
132.135
136.44
140.528
144.38
147.978
151.303
154.342
157.077
159.497
161.588
163.34
164.744
165.792
166.479
166.8
166.755
166.343
165.566
164.428
162.932
161.087
158.9
156.38
153.54
150.39
146.944
143.218
139.224
134.981
130.504
125.811
120.919
115.848
110.617
105.244
99.751
94.156
88.481
82.746
76.97
71.173
65.373
59.587
53.836
48.138
42.512
36.973
31.537
26.22
21.034
15.992
11.106
6.38
1.82
-2.569
-6.785
-10.818
-14.665
-18.325
-21.8
-25.096
-28.218
-31.171
-33.959
-36.59
-39.07
-41.408
-43.61
-45.674
-47.598
-49.376
-51.013
-52.52
-53.905
-55.172
-56.313
-57.297
-58.1
-58.719
-59.155
-59.431
-59.577
-59.571
-59.404
-59.152
-58.849
-58.5
-58.08
-57.395
-56.246
-54.657
-52.714
-50.425
-47.97
-45.649
-43.715
-42.716
-43.389
-45.338
-48.043
-52.04
-56.777
-63.131
-72.385
-81.543
-88.431
-90.447
-84.351
-72.959
-59.509
-46.503
-37.171
-30.747
-26.234
-23.924
-23.456
-25.393
-29.646
-35.081
-41.038
-46.857
-52.007
-56.181
-58.894
-59.965
-59.772
-58.909
-57.843
-56.82
-55.893
-55.119
-54.697
-54.765
-55.263
-55.987
-56.748
-57.471
-58.177
-58.921
-59.698
-60.465
-61.206
-61.937
-62.684
-63.459
-64.25
-65.018
-65.732
-66.376
-66.941
-67.423
-67.815
-68.104
-68.276
-68.322
-68.234
-68.009
-67.648
-67.15
-66.511
-65.731
-64.81
-63.751
-62.559
-61.238
-59.79
-58.216
-56.52
-54.707
-52.785
-50.766
-48.656
-46.467
-44.208
-41.891
-39.53
-37.137
-34.727
-32.312
-29.906
-27.526
-25.189
-22.913
-20.713
-18.607
-16.61
-14.741
-13.013
-11.441
-10.035
-8.807
-7.767
-6.926
-6.294
-5.88
-5.691
-5.731
-6.005
-6.516
-7.265
-8.246
-9.452
-10.873
-12.503
-14.335
-16.369
-18.599
-21.014
-23.601
-26.346
-29.23
-32.232
-35.321
-38.46
-41.611
-44.743
-47.826
-50.836
-53.742
-56.513
-59.117
-61.516
-63.68
-65.582
-67.201
-68.535
-69.594
-70.401
-70.986
-71.39
-71.657
-71.85
-72.037
-72.285
-72.665
-73.225
-74.031
-75.192
-76.762
-78.74
-81.016
-83.328
-85.41
-87.06
-88.03
-88.02
-86.831
-84.383
-80.91
-77.014
-73.305
-70.285
-68.382
-67.964
-69.256
-72.193
-76.097
-79.704
-81.497
-79.867
-73.412
-60.826
-40.803
-12.465
24.289
68.912
119.394
172.22
224.037
271.03
310.785
344.238
371.538
391.583
400.896
389.864
349.842
277.346
173.593
49.998
-78.492
-199.566
-301.809
-380.855
-435.486
-464.022
-467.531
-445.687
-401.855
-344.496
-283.05
-229.912
-192.11
-169.599
-158.974
-152.102
-143.972
-134.11
-123.833
-117.006
-114.999
-116.397
-118.979
-119.65
-117.009
-111.332
-103.179
-93.492
-83.124
-72.617
-62.809
-54.626
-48.521
-44.653
-42.922
-42.974
-44.46
-47.075
-50.42
-54.068
-57.721
-61.133
-64.133
-66.671
-68.703
-70.197
-71.157
-71.584
-71.483
-70.874
-69.801
-68.312
-66.469
-64.336
-61.97
-59.44
-56.832
-54.248
-51.779
-49.484
-47.399
-45.539
-43.916
-42.543
-41.416
-40.51
-39.785
-39.202
-38.729
-38.337
-37.995
-37.664
-37.297
-36.843
-36.263
-35.528
-34.616
-33.508
-32.186
-30.636
-28.851
-26.831
-24.577
-22.09
-19.365
-16.399
-13.189
-9.74
-6.056
-2.142
1.996
6.355
10.926
15.702
20.673
25.829
31.16
36.656
42.303
48.085
53.985
59.983
66.06
72.195
78.364
84.546
90.717
96.853
102.931
108.928
114.82
120.584
126.196
131.634
136.876
141.898
146.681
151.203
155.446
159.391
163.021
166.321
169.276
171.872
174.099
175.947
177.407
178.474
179.142
179.41
179.275
178.741
177.809
176.485
174.775
172.687
170.232
167.421
164.268
160.787
156.994
152.905
148.54
143.917
139.056
133.979
128.706
123.261
117.665
111.941
106.112
100.202
94.232
88.227
82.207
76.195
70.213
64.28
58.416
52.641
46.972
41.426
36.019
30.766
25.679
20.772
16.055
11.537
7.227
3.132
-0.743
-4.393
-7.816
-11.009
-13.972
-16.706
-19.213
-21.494
-23.555
-25.4
-27.035
-28.465
-29.698
-30.741
-31.603
-32.292
-32.818
-33.188
-33.414
-33.504
-33.469
-33.317
-33.06
-32.706
-32.264
-31.745
-31.157
-30.51
-29.812
-29.07
-28.295
-27.492
-26.669
-25.834
-24.992
-24.149
-23.312
-22.484
-21.672
-20.879
-20.109
-19.367
-18.654
-17.976
-17.333
-16.729
-16.165
-15.644
-15.168
-14.737
-14.353
-14.018
-13.732
-13.497
-13.313
-13.181
-13.102
-13.077
-13.105
-13.187
-13.323
-13.512
-13.756
-14.052
-14.401
-14.803
-15.256
-15.759
-16.312
-16.913
-17.56
-18.252
-18.986
-19.759
-20.57
-21.415
-22.291
-23.193
-24.119
-25.063
-26.023
-26.992
-27.966
-28.938
-29.904
-30.857
-31.791
-32.699
-33.574
-34.41
-35.199
-35.936
-36.613
-37.224
-37.762
-38.222
-38.597
-38.881
-39.069
-39.156
-39.136
-39.007
-38.764
-38.405
-37.928
-37.331
-36.614
-35.776
-34.82
-33.747
-32.56
-31.264
-29.862
-28.361
-26.768
-25.092
-23.342
-21.528
-19.661
-17.754
-15.822
-13.879
-11.94
-10.017
-8.128
-6.288
-4.51
-2.809
-1.197
0.313
1.707
2.969
4.087
5.048
5.839
6.449
6.868
7.086
7.099
6.907
6.508
5.903
5.088
4.058
2.813
1.357
-0.303
-2.157
-4.19
-6.383
-8.705
-11.117
-13.584
-16.077
-18.575
-21.061
-23.512
-25.904
-28.206
-30.391
-32.438
-34.333
-36.056
-37.591
-38.944
-40.147
-41.25
-42.322
-43.405
-44.521
-45.698
-46.966
-48.368
-49.956
-51.768
-53.816
-56.124
-58.741
-61.674
-64.856
-68.099
-71.068
-73.418
-74.87
-75.177
-74.106
-71.548
-67.556
-62.465
-56.935
-51.638
-47.132
-43.811
-41.859
-41.355
-42.184
-43.596
-44.426
-42.838
-36.356
-23.898
-5.207
18.961
46.091
76.024
109.92
148.641
194.304
245.512
298.724
350.812
395.67
427.663
440.387
425.885
381.685
308.956
213.285
105.181
-7.798
-117.945
-217.234
-299.905
-357.63
-386.877
-389.745
-370.982
-341.829
-309.906
-279.036
-251.686
-223.798
-193.869
-162.78
-130.865
-102.504
-80.362
-64.594
-55.693
-51.924
-51.418
-53.506
-56.995
-61.083
-65.375
-69.052
-71.561
-72.756
-72.652
-71.398
-69.255
-66.28
-62.431
-58.026
-53.485
-49.208
-45.431
-42.167
-39.416
-37.331
-36.141
-35.81
-36.024
-36.306
-36.308
-35.921
-35.111
-33.816
-31.906
-29.325
-26.214
-22.868
-19.534
-16.323
-13.258
-10.318
-7.529
-4.955
-2.62
-0.5
1.446
3.243
4.888
6.353
7.632
8.749
9.756
10.714
11.671
12.655
13.688
14.791
15.987
17.299
18.74
20.315
22.031
23.897
25.929
28.142
30.552
33.162
35.974
38.983
42.189
45.591
49.188
52.979
56.96
61.13
65.485
70.026
74.748
79.645
84.707
89.923
95.281
100.767
106.366
112.062
117.838
123.676
129.558
135.464
141.376
147.272
153.132
158.935
164.659
170.283
175.785
181.144
186.339
191.348
196.153
200.733
205.07
209.145
212.942
216.443
219.635
222.503
225.034
227.216
229.039
230.494
231.574
232.272
232.585
232.509
232.045
231.194
229.957
228.339
226.345
223.982
221.259
218.187
214.776
211.039
206.99
202.645
198.019
193.13
187.996
182.635
177.068
171.313
165.392
159.326
153.135
146.841
140.465
134.028
127.552
121.056
114.562
108.089
101.656
95.281
88.982
82.776
76.679
70.706
64.87
59.184
53.66
48.309
43.139
38.159
33.376
28.795
24.421
20.258
16.308
12.574
9.055
5.753
2.666
-0.207
-2.869
-5.323
-7.573
-9.624
-11.48
-13.147
-14.631
-15.938
-17.076
-18.05
-18.868
-19.536
-20.062
-20.453
-20.718
-20.862
-20.894
-20.82
-20.648
-20.384
-20.036
-19.608
-19.108
-18.541
-17.913
-17.231
-16.501
-15.729
-14.921
-14.085
-13.226
-12.352
-11.469
-10.582
-9.699
-8.824
-7.964
-7.124
-6.31
-5.526
-4.779
-4.074
-3.416
-2.811
-2.264
-1.781
-1.365
-1.021
-0.755
-0.568
-0.467
-0.453
-0.532
-0.707
-0.982
-1.36
-1.841
-2.429
-3.123
-3.924
-4.829
-5.835
-6.936
-8.127
-9.404
-10.766
-12.205
-13.72
-15.305
-16.956
-18.674
-20.456
-22.296
-24.186
-26.114
-28.067
-30.036
-32.01
-33.979
-35.93
-37.849
-39.72
-41.535
-43.277
-44.935
-46.493
-47.922
-49.198
-50.308
-51.238
-51.999
-52.61
-53.081
-53.433
-53.688
-53.849
-53.962
-54.078
-54.168
-54.217
-54.189
-54.013
-53.751
-53.485
-53.18
-52.801
-52.413
-52.061
-51.913
-52.202
-52.876
-53.835
-55.029
-56.349
-57.604
-58.52
-58.646
-57.436
-54.598
-50.029
-43.838
-36.338
-28.005
-19.583
-11.886
-5.811
-2.215
-1.613
-4.096
-9.469
-17.208
-26.466
-36.53
-46.676
-56.089
-64.28
-71.062
-76.436
-80.745
-84.51
-88.01
-91.446
-95.033
-98.813
-102.787
-106.911
-110.954
-114.647
-117.853
-120.521
-122.68
-124.412
-125.748
-126.711
-127.356
-127.773
-128.08
-128.388
-128.779
-129.335
-130.122
-131.251
-132.888
-135.113
-137.94
-141.284
-144.897
-148.539
-152.026
-155.078
-157.389
-158.803
-159.208
-158.768
-158.055
-157.568
-157.791
-159.31
-162.439
-167.203
-173.606
-181.137
-188.488
-194.425
-196.858
-192.836
-181.208
-161.477
-134.059
-101.787
-64.488
-20.258
30.874
90.12
154.051
215.744
272.735
321.49
359.509
385.299
389.651
363.436
301.843
203.451
78.187
-58.355
-191.735
-307.132
-396.281
-457.42
-490.666
-500.118
-490.803
-465.918
-430.391
-390.101
-349.31
-313.004
-283.308
-257.987
-236.07
-216.295
-198.568
-185.731
-178.841
-177.626
-180.796
-185.421
-189.094
-190.289
-188.266
-183.166
-175.387
-165.477
-154.213
-142.385
-130.958
-120.894
-112.674
-106.457
-102.172
-99.515
-98.151
-97.741
-97.849
-98.034
-98.046
-97.755
-97.106
-96.125
-94.779
-93.031
-90.892
-88.387
-85.539
-82.375
-78.911
-75.166
-71.208
-67.127
-63.012
-58.958
-55.025
-51.246
-47.659
-44.29
-41.168
-38.311
-35.723
-33.395
-31.318
-29.479
-27.865
-26.454
-25.209
-24.086
-23.039
-22.015
-20.977
-19.897
-18.747
-17.506
-16.153
-14.672
-13.05
-11.282
-9.358
-7.269
-5.004
-2.551
0.094
2.934
5.969
9.2
12.626
16.247
20.06
24.065
28.259
32.64
37.203
41.946
46.862
51.942
57.175
62.548
68.047
73.655
79.357
85.134
90.966
96.835
102.719
108.601
114.458
120.269
126.013
131.669
137.213
142.626
147.884
152.966
157.852
162.52
166.951
171.126
175.027
178.637
181.939
184.919
187.563
189.858
191.794
193.36
194.549
195.356
195.776
195.807
195.449
194.703
193.574
192.067
190.189
187.949
185.356
182.424
179.165
175.595
171.729
167.586
163.183
158.542
153.682
148.626
143.395
138.013
132.503
126.887
121.19
115.435
109.646
103.845
98.056
92.3
86.599
80.974
75.445
70.03
64.747
59.612
54.639
49.842
45.232
40.82
36.615
32.624
28.853
25.306
21.985
18.892
16.026
13.386
10.967
8.767
6.78
4.998
3.415
2.023
0.814
-0.223
-1.097
-1.818
-2.397
-2.844
-3.171
-3.389
-3.509
-3.542
-3.499
-3.389
-3.223
-3.011
-2.761
-2.481
-2.18
-1.865
-1.543
-1.219
-0.9
-0.589
-0.29
-0.006
0.26
0.507
0.734
0.941
1.127
1.292
1.437
1.562
1.667
1.752
1.817
1.864
1.892
1.903
1.897
1.874
1.835
1.782
1.712
1.628
1.527
1.409
1.273
1.119
0.945
0.75
0.533
0.293
0.028
-0.263
-0.582
-0.933
-1.317
-1.738
-2.198
-2.699
-3.243
-3.831
-4.464
-5.142
-5.862
-6.624
-7.424
-8.259
-9.127
-10.024
-10.947
-11.893
-12.859
-13.842
-14.838
-15.841
-16.846
-17.844
-18.826
-19.784
-20.706
-21.583
-22.405
-23.165
-23.854
-24.465
-24.993
-25.432
-25.773
-26.004
-26.111
-26.085
-25.919
-25.611
-25.165
-24.592
-23.907
-23.13
-22.282
-21.379
-20.431
-19.438
-18.389
-17.275
-16.085
-14.816
-13.481
-12.09
-10.651
-9.168
-7.637
-6.046
-4.371
-2.581
-0.637
1.485
3.79
6.255
8.834
11.462
14.066
16.584
18.975
21.196
23.214
24.99
26.489
27.665
28.467
28.824
28.654
27.887
26.483
24.444
21.807
18.633
15.014
11.032
6.762
2.286
-2.329
-7.023
-11.742
-16.438
-21.05
-25.497
-29.676
-33.493
-36.877
-39.801
-42.255
-44.251
-45.842
-47.092
-48.085
-48.932
-49.708
-50.463
-51.245
-52.089
-53.048
-54.209
-55.654
-57.432
-59.594
-62.189
-65.241
-68.736
-72.515
-76.249
-79.58
-82.18
-83.748
-83.977
-82.612
-79.524
-74.897
-69.337
-63.508
-57.898
-53.036
-49.547
-47.91
-48.401
-49.992
-50.217
-47.012
-39.276
-27.838
-14.59
0.883
22.057
54.427
102.03
164.295
235.45
306.863
372.881
430.468
477.179
510.608
522.919
504.72
452.469
366.614
254.747
130.322
3.323
-115.972
-217.633
-296.852
-347.369
-367.275
-361.302
-333.909
-294.911
-254.293
-216.892
-187.778
-166.457
-148.663
-133.128
-118.109
-104.322
-95.238
-91.757
-93.7
-99.659
-106.648
-112.54
-115.923
-116.052
-113.074
-107.303
-99.211
-89.537
-79.003
-68.502
-59.019
-51.093
-44.948
-40.625
-37.911
-36.56
-36.341
-36.894
-37.84
-38.974
-40.169
-41.364
-42.564
-43.7
-44.697
-45.52
-46.122
-46.47
-46.536
-46.279
-45.679
-44.754
-43.532
-42.062
-40.391
-38.537
-36.528
-34.398
-32.188
-29.965
-27.779
-25.664
-23.661
-21.796
-20.084
-18.54
-17.156
-15.909
-14.779
-13.737
-12.755
-11.815
-10.894
-9.964
-8.998
-7.957
-6.807
-5.526
-4.09
-2.478
-0.676
1.331
3.553
5.986
8.632
11.492
14.565
17.853
21.357
25.074
28.998
33.124
37.446
41.957
46.652
51.521
56.555
61.745
67.079
72.548
78.139
83.838
89.628
95.491
101.408
107.36
113.325
119.283
125.21
131.086
136.888
142.595
148.185
153.638
158.931
164.045
168.958
173.652
178.107
182.305
186.23
189.865
193.194
196.204
198.881
201.213
203.189
204.8
206.037
206.893
207.365
207.449
207.142
206.447
205.365
203.9
202.058
199.846
197.275
194.355
191.098
187.518
183.63
179.451
174.996
170.285
165.337
160.17
154.806
149.265
143.568
137.736
131.792
125.757
119.652
113.499
107.32
101.136
94.967
88.834
82.757
76.754
70.844
65.045
59.372
53.84
48.463
43.255
38.225
33.385
28.743
24.306
20.079
16.069
12.279
8.71
5.363
2.24
-0.662
-3.343
-5.807
-8.057
-10.097
-11.932
-13.568
-15.009
-16.262
-17.335
-18.233
-18.965
-19.539
-19.962
-20.243
-20.39
-20.412
-20.317
-20.113
-19.808
-19.41
-18.927
-18.366
-17.734
-17.037
-16.283
-15.476
-14.623
-13.728
-12.797
-11.834
-10.842
-9.827
-8.792
-7.741
-6.677
-5.604
-4.527
-3.448
-2.371
-1.3
-0.238
0.812
1.845
2.859
3.851
4.818
5.757
6.664
7.538
8.376
9.174
9.93
10.641
11.305
11.92
12.481
12.988
13.437
13.826
14.154
14.418
14.617
14.748
14.811
14.805
14.731
14.587
14.376
14.1
13.759
13.357
12.897
12.383
11.818
11.208
10.557
9.87
9.152
8.409
7.647
6.873
6.092
5.312
4.54
3.784
3.049
2.344
1.676
1.052
0.478
-0.037
-0.488
-0.868
-1.17
-1.389
-1.519
-1.557
-1.498
-1.341
-1.083
-0.723
-0.263
0.298
0.955
1.706
2.547
3.472
4.477
5.554
6.695
7.892
9.136
10.417
11.724
13.044
14.361
15.665
16.94
18.172
19.347
20.45
21.468
22.39
23.203
23.896
24.455
24.868
25.122
25.209
25.12
24.847
24.383
23.723
22.867
21.818
20.58
19.155
17.541
15.733
13.732
11.544
9.179
6.65
3.971
1.161
-1.752
-4.729
-7.734
-10.731
-13.695
-16.606
-19.434
-22.149
-24.711
-27.078
-29.221
-31.121
-32.759
-34.137
-35.265
-36.167
-36.89
-37.497
-38.049
-38.623
-39.283
-40.092
-41.123
-42.425
-44.077
-46.183
-48.76
-51.774
-55.124
-58.576
-61.912
-64.966
-67.446
-69.024
-69.53
-68.861
-67.136
-64.803
-62.19
-59.542
-57.266
-55.669
-54.81
-54.753
-55.238
-55.423
-54.566
-51.226
-43.098
-28.54
-6.82
20.645
50.905
81.859
113.255
148.767
192.506
246.057
309.539
376.508
437.403
483.716
503.09
486.742
432.373
339.5
216.837
79.814
-57.475
-178.397
-270.184
-330.663
-361.753
-371.625
-371.588
-366.138
-356.297
-340.459
-315.174
-281.315
-242.547
-202.969
-166.954
-137.087
-114.218
-98.389
-88.721
-84.066
-83.204
-84.746
-87.419
-89.757
-90.382
-88.671
-84.592
-78.497
-71.034
-62.855
-54.52
-46.801
-40.505
-36.013
-33.406
-32.501
-32.893
-34.206
-36.127
-38.285
-40.298
-41.918
-42.982
-43.423
-43.28
-42.581
-41.341
-39.604
-37.42
-34.842
-31.937
-28.783
-25.459
-22.067
-18.714
-15.477
-12.419
-9.592
-7.038
-4.787
-2.855
-1.24
0.074
1.097
1.842
2.325
2.574
2.63
2.539
2.352
2.122
1.895
1.708
1.596
1.586
1.701
1.96
2.374
2.951
3.702
4.641
5.78
7.129
8.697
10.489
12.509
14.759
17.239
19.951
22.894
26.067
29.468
33.096
36.947
41.018
45.3
49.786
54.462
59.316
64.33
69.488
74.77
80.158
85.628
91.16
96.731
102.318
107.897
113.445
118.937
124.349
129.655
134.833
139.857
144.703
149.35
153.773
157.952
161.865
165.492
168.816
171.819
174.485
176.799
178.749
180.324
181.515
182.313
182.714
182.714
182.311
181.507
180.303
178.705
176.719
174.352
171.616
168.521
165.081
161.309
157.223
152.839
148.175
143.251
138.086
132.702
127.121
121.365
115.456
109.418
103.274
97.048
90.763
84.442
78.107
71.781
65.486
59.243
53.071
46.99
41.017
35.171
29.466
23.917
18.536
13.336
8.327
3.517
-1.086
-5.476
-9.649
-13.6
-17.329
-20.833
-24.112
-27.168
-30.003
-32.62
-35.022
-37.215
-39.203
-40.992
-42.59
-44.003
-45.239
-46.307
-47.214
-47.968
-48.579
-49.056
-49.406
-49.638
-49.762
-49.785
-49.715
-49.559
-49.326
-49.021
-48.652
-48.224
-47.742
-47.212
-46.638
-46.026
-45.377
-44.698
-43.99
-43.258
-42.505
-41.733
-40.946
-40.147
-39.337
-38.521
-37.699
-36.875
-36.051
-35.23
-34.413
-33.603
-32.802
-32.012
-31.236
-30.476
-29.734
-29.012
-28.312
-27.637
-26.989
-26.37
-25.785
-25.235
-24.723
-24.252
-23.825
-23.444
-23.113
-22.832
-22.604
-22.431
-22.315
-22.255
-22.254
-22.311
-22.425
-22.597
-22.825
-23.107
-23.442
-23.827
-24.259
-24.735
-25.252
-25.806
-26.394
-27.011
-27.653
-28.317
-28.996
-29.687
-30.383
-31.08
-31.77
-32.448
-33.109
-33.746
-34.352
-34.923
-35.453
-35.936
-36.367
-36.741
-37.055
-37.303
-37.483
-37.592
-37.628
-37.59
-37.479
-37.293
-37.036
-36.709
-36.316
-35.861
-35.347
-34.779
-34.163
-33.505
-32.811
-32.089
-31.346
-30.591
-29.836
-29.093
-28.373
-27.688
-27.052
-26.477
-25.976
-25.561
-25.242
-25.028
-24.928
-24.952
-25.111
-25.413
-25.866
-26.477
-27.249
-28.19
-29.3
-30.581
-32.031
-33.642
-35.412
-37.341
-39.43
-41.683
-44.103
-46.682
-49.413
-52.29
-55.3
-58.427
-61.644
-64.913
-68.196
-71.466
-74.689
-77.844
-80.902
-83.82
-86.563
-89.091
-91.369
-93.386
-95.133
-96.599
-97.793
-98.727
-99.438
-100.012
-100.538
-101.096
-101.776
-102.636
-103.759
-105.282
-107.271
-109.735
-112.617
-115.714
-118.827
-121.834
-124.528
-126.644
-128.04
-128.6
-128.434
-128.025
-127.764
-127.963
-128.972
-130.996
-134.112
-138.289
-143.007
-147.189
-149.743
-149.408
-144.901
-135.282
-119.439
-96.373
-65.774
-27.698
16.689
64.529
113.17
160.142
203.985
245.972
285.982
320.837
344.807
348.473
323.975
269.784
189.077
89.153
-20.218
-131.155
-235.97
-325.295
-392.064
-432.373
-446.546
-441.51
-425.768
-404.785
-381.894
-356.958
-328.187
-296.829
-265.129
-235.646
-211.793
-194.692
-183.658
-177.887
-175.933
-176.228
-177.881
-179.77
-180.342
-178.841
-175.124
-169.306
-162.061
-154.169
-146.1
-138.472
-132.121
-127.455
-124.598
-123.501
-123.761
-124.943
-126.749
-128.841
-130.869
-132.644
-134.035
-134.948
-135.385
-135.349
-134.841
-133.902
-132.576
-130.892
-128.896
-126.656
-124.265
-121.851
-119.52
-117.341
-115.351
-113.578
-112.04
-110.767
-109.779
-109.073
-108.635
-108.454
-108.521
-108.83
-109.361
-110.073
-110.907
-111.799
-112.693
-113.552
-114.342
-115.036
-115.607
-116.033
-116.297
-116.393
-116.312
-116.042
-115.565
-114.866
-113.933
-112.759
-111.343
-109.684
-107.782
-105.634
-103.243
-100.61
-97.74
-94.634
-91.295
-87.727
-83.934
-79.928
-75.72
-71.324
-66.755
-62.032
-57.173
-52.199
-47.132
-41.995
-36.81
-31.6
-26.39
-21.204
-16.067
-11.005
-6.042
-1.203
3.487
8.002
12.32
16.415
20.268
23.854
27.155
30.151
32.825
35.161
37.143
38.76
39.999
40.851
41.309
41.366
41.02
40.268
39.113
37.557
35.605
33.266
30.547
27.461
24.02
20.238
16.133
11.721
7.022
2.057
-3.152
-8.583
-14.211
-20.011
-25.958
-32.025
-38.185
-44.413
-50.681
-56.963
-63.231
-69.46
-75.624
-81.698
-87.657
-93.479
-99.14
-104.619
-109.897
-114.955
-119.776
-124.344
-128.646
-132.668
-136.401
-139.834
-142.96
-145.774
-148.269
-150.443
-152.296
-153.826
-155.035
-155.927
-156.504
-156.773
-156.739
-156.41
-155.794
-154.899
-153.735
-152.313
-150.643
-148.736
-146.603
-144.256
-141.707
-138.966
-136.047
-132.96
-129.716
-126.327
-122.804
-119.155
-115.392
-111.525
-107.561
-103.511
-99.383
-95.185
-90.925
-86.609
-82.245
-77.838
-73.396
-68.924
-64.427
-59.91
-55.379
-50.839
-46.293
-41.747
-37.206
-32.674
-28.154
-23.652
-19.172
-14.718
-10.295
-5.907
-1.557
2.748
7.004
11.207
15.352
19.435
23.451
27.395
31.265
35.055
38.762
42.383
45.915
49.354
52.698
55.946
59.096
62.146
65.096
67.947
70.699
73.354
75.913
78.38
80.759
83.051
85.263
87.399
89.464
91.464
93.406
95.296
97.142
98.951
100.731
102.491
104.239
105.984
107.732
109.493
111.273
113.081
114.924
116.808
118.74
120.724
122.768
124.874
127.046
129.286
131.595
133.975
136.424
138.94
141.519
144.158
146.852
149.593
152.374
155.188
158.024
160.872
163.721
166.559
169.373
172.147
174.866
177.514
180.075
182.531
184.865
187.062
189.106
190.98
192.672
194.171
195.462
196.535
197.375
197.974
198.323
198.416
198.246
197.809
197.103
196.13
194.895
193.406
191.665
189.674
187.431
184.939
182.207
179.248
176.075
172.706
169.159
165.466
161.667
157.802
153.91
150.018
146.154
142.352
138.651
135.103
131.754
128.642
125.793
123.227
120.957
118.985
117.297
115.86
114.614
113.494
112.433
111.364
110.219
108.935
107.425
105.558
103.265
100.53
97.409
94.088
90.765
87.604
84.853
82.826
81.731
81.701
82.636
84.051
85.501
86.601
86.897
86.092
84.034
80.67
76.463
72.53
70.032
70.309
74.871
84.852
101.328
125.392
157.49
197.344
244.473
296.858
350.821
403.115
450.061
489.852
524.757
555.524
580.828
596.556
591.356
555.192
483.944
377.473
247.056
110.169
-17.556
-119.512
-187.266
-223.52
-233.723
-227.458
-212.089
-187.017
-152.169
-109.295
-63.622
-25.229
-0.614
9.959
11.403
10.989
12.882
16.677
19.129
17.919
13.161
7.027
2.598
1.315
3.115
7.466
13.452
20.331
27.553
34.283
39.681
43.37
45.26
45.485
44.365
42.224
39.407
36.309
33.302
30.585
28.224
26.239
24.607
23.34
22.478
22.023
21.954
22.26
22.934
23.946
25.253
26.766
28.353
29.92
31.408
32.776
34.018
35.12
36.063
36.839
37.448
37.889
38.164
38.276
38.221
38.021
37.707
37.326
36.941
36.603
36.349
36.21
36.208
36.362
36.69
37.204
37.908
38.81
39.924
41.26
42.835
44.658
46.735
49.068
51.654
54.49
57.573
60.901
64.467
68.267
72.295
76.545
81.012
85.687
90.56
95.617
100.842
106.216
111.723
117.34
123.045
128.817
134.63
140.462
146.289
152.085
157.826
163.487
169.042
174.467
179.736
184.824
189.708
194.364
198.769
202.9
206.739
210.264
213.459
216.307
218.794
220.906
222.632
223.962
224.887
225.401
225.5
225.181
224.444
223.289
221.721
219.745
217.369
214.601
211.454
207.938
204.069
199.862
195.333
190.502
185.388
180.012
174.394
168.559
162.529
156.327
149.98
143.51
136.943
130.303
123.615
116.901
110.186
103.493
96.842
90.257
83.756
77.36
71.086
64.951
58.972
53.162
47.535
42.102
36.873
31.856
27.059
22.486
18.14
14.025
10.139
6.483
3.053
-0.155
-3.146
-5.927
-8.507
-10.894
-13.098
-15.13
-17.002
-18.726
-20.314
-21.779
-23.134
-24.392
-25.566
-26.669
-27.713
-28.712
-29.676
-30.619
-31.55
-32.482
-33.423
-34.384
-35.372
-36.396
-37.463
-38.577
-39.746
-40.972
-42.258
-43.607
-45.019
-46.495
-48.034
-49.634
-51.293
-53.007
-54.772
-56.584
-58.438
-60.329
-62.25
-64.197
-66.163
-68.142
-70.13
-72.119
-74.104
-76.08
-78.042
-79.984
-81.902
-83.79
-85.646
-87.464
-89.242
-90.976
-92.665
-94.305
-95.894
-97.432
-98.918
-100.351
-101.732
-103.059
-104.336
-105.561
-106.738
-107.868
-108.952
-109.992
-110.991
-111.949
-112.869
-113.751
-114.598
-115.409
-116.185
-116.926
-117.633
-118.304
-118.938
-119.534
-120.091
-120.606
-121.077
-121.501
-121.875
-122.195
-122.458
-122.661
-122.8
-122.871
-122.871
-122.797
-122.643
-122.408
-122.088
-121.679
-121.179
-120.585
-119.896
-119.11
-118.226
-117.244
-116.164
-114.989
-113.721
-112.364
-110.921
-109.397
-107.798
-106.131
-104.405
-102.627
-100.808
-98.957
-97.087
-95.211
-93.343
-91.496
-89.686
-87.926
-86.23
-84.615
-83.094
-81.677
-80.376
-79.203
-78.168
-77.283
-76.559
-76.004
-75.627
-75.436
-75.436
-75.633
-76.029
-76.621
-77.404
-78.376
-79.537
-80.888
-82.431
-84.16
-86.067
-88.143
-90.373
-92.738
-95.211
-97.754
-100.329
-102.903
-105.446
-107.936
-110.343
-112.639
-114.788
-116.755
-118.509
-120.029
-121.291
-122.281
-123.011
-123.506
-123.823
-124.03
-124.179
-124.322
-124.519
-124.834
-125.336
-126.088
-127.117
-128.456
-130.185
-132.353
-134.956
-137.861
-140.784
-143.431
-145.564
-146.919
-147.166
-146.027
-143.373
-139.451
-134.87
-130.186
-125.924
-122.642
-120.886
-121.306
-123.427
-125.134
-124.386
-119.449
-111.09
-102.917
-95.638
-86.873
-70.435
-37.123
16.309
86.652
166.225
244.15
313.557
371.452
414.824
440.455
442.253
413.193
350.958
257.258
139.938
12.553
-111.755
-219.059
-299.131
-350.197
-374.353
-379.083
-373.607
-361.622
-344.56
-321.86
-291.57
-255.534
-217.471
-180.879
-149.648
-125.899
-109.995
-101.67
-99.826
-102.924
-109.449
-117.912
-126.727
-134.388
-139.696
-142.014
-141.325
-138.029
-132.724
-126.034
-118.623
-111.24
-104.598
-99.099
-94.805
-91.583
-89.16
-87.268
-85.699
-84.2
-82.511
-80.497
-78.128
-75.436
-72.521
-69.46
-66.292
-63.071
-59.849
-56.661
-53.542
-50.519
-47.608
-44.837
-42.229
-39.797
-37.551
-35.49
-33.609
-31.9
-30.349
-28.936
-27.649
-26.477
-25.41
-24.437
-23.542
-22.705
-21.906
-21.126
-20.343
-19.539
-18.694
-17.79
-16.813
-15.75
-14.588
-13.316
-11.923
-10.395
-8.718
-6.881
-4.872
-2.681
-0.299
2.282
5.069
8.065
11.274
14.697
18.335
22.188
26.254
30.53
35.011
39.692
44.566
49.624
54.855
60.249
65.791
71.468
77.263
83.161
89.142
95.189
101.283
107.402
113.527
119.636
125.707
131.719
137.649
143.475
149.174
154.724
160.103
165.289
170.261
174.999
179.484
183.697
187.619
191.235
194.529
197.486
200.093
202.339
204.213
205.706
206.813
207.527
207.846
207.767
207.292
206.421
205.159
203.512
201.485
199.089
196.332
193.228
189.789
186.031
181.969
177.621
173.005
168.141
163.05
157.752
152.27
146.626
140.842
134.94
128.942
122.873
116.759
110.618
104.47
98.344
92.266
86.259
80.35
74.553
68.873
63.335
57.966
52.755
47.702
42.804
38.052
33.469
29.097
24.921
20.915
17.164
13.773
10.679
7.888
5.417
3.046
1.353
0.899
0.869
1.009
-0.176
-4.477
-9.931
-15.234
-18.442
-16.876
-12.926
-8.617
-5.343
-5.395
-7.155
-8.98
-10.513
-10.757
-10.308
-9.928
-9.483
-9.078
-8.671
-8.118
-7.526
-6.982
-6.465
-5.976
-5.528
-5.125
-4.764
-4.446
-4.159
-3.889
-3.644
-3.434
-3.257
-3.113
-3.005
-2.93
-2.89
-2.887
-2.92
-2.987
-3.087
-3.219
-3.381
-3.574
-3.795
-4.044
-4.319
-4.619
-4.943
-5.291
-5.662
-6.054
-6.467
-6.901
-7.355
-7.827
-8.318
-8.827
-9.353
-9.896
-10.453
-11.025
-11.61
-12.206
-12.811
-13.424
-14.043
-14.665
-15.287
-15.907
-16.522
-17.129
-17.725
-18.308
-18.873
-19.418
-19.939
-20.432
-20.894
-21.319
-21.705
-22.047
-22.342
-22.585
-22.774
-22.904
-22.973
-22.977
-22.913
-22.78
-22.576
-22.297
-21.945
-21.517
-21.015
-20.439
-19.79
-19.071
-18.287
-17.439
-16.534
-15.577
-14.572
-13.528
-12.451
-11.349
-10.23
-9.104
-7.98
-6.87
-5.786
-4.742
-3.749
-2.822
-1.974
-1.217
-0.566
-0.03
0.382
0.659
0.793
0.773
0.59
0.236
-0.296
-1.01
-1.912
-3.006
-4.294
-5.773
-7.437
-9.28
-11.301
-13.498
-15.876
-18.433
-21.163
-24.054
-27.099
-30.281
-33.582
-36.976
-40.421
-43.882
-47.328
-50.728
-54.058
-57.291
-60.387
-63.312
-66.027
-68.497
-70.703
-72.64
-74.3
-75.696
-76.857
-77.813
-78.633
-79.393
-80.159
-81.01
-82.019
-83.243
-84.767
-86.691
-89.057
-91.872
-95.059
-98.406
-101.701
-104.73
-107.226
-108.916
-109.585
-109.093
-107.56
-105.421
-103.127
-101.15
-99.926
-99.705
-100.792
-103.418
-107.154
-111.065
-113.574
-112.268
-105.813
-93.632
-75.755
-53.74
-27.109
5.905
46.759
97.706
157.619
222.073
286.455
344.761
390.585
418.847
423.938
400.39
347.744
268.757
167.805
53.86
-64.733
-180.038
-280.4
-357.259
-406.629
-428.378
-429.729
-419.781
-403.525
-383.297
-358.524
-327.218
-290.668
-252.003
-214.49
-181.801
-155.91
-137.275
-125.659
-120.024
-119.06
-121.474
-125.905
-130.842
-134.843
-136.738
-135.979
-132.659
-127.212
-120.248
-112.417
-104.438
-97.104
-91.151
-86.957
-84.53
-83.661
-84.003
-85.218
-86.999
-89
-90.872
-92.387
-93.423
-93.945
-93.993
-93.597
-92.771
-91.548
-89.974
-88.1
-85.981
-83.683
-81.269
-78.813
-76.395
-74.081
-71.918
-69.952
-68.215
-66.726
-65.492
-64.511
-63.773
-63.264
-62.974
-62.878
-62.944
-63.137
-63.414
-63.722
-64.006
-64.218
-64.313
-64.265
-64.057
-63.66
-63.045
-62.221
-61.194
-59.968
-58.55
-56.913
-55.015
-52.866
-50.496
-47.817
-44.726
-41.287
-37.496
-33.336
-29.031
-23.994
-17.657
-10.848
-3.824
1.896
4.494
5.951
7.58
11.344
19.944
30.949
42.29
52.543
59.368
64.392
69.265
74.332
80.585
87.405
94.001
100.49
106.748
112.8
118.771
124.537
129.99
135.133
139.951
144.411
148.497
152.197
155.497
158.397
160.902
162.995
164.659
165.892
166.688
167.046
166.968
166.454
165.508
164.138
162.353
160.164
157.585
154.629
151.312
147.651
143.665
139.372
134.793
129.951
124.867
119.566
114.071
108.406
102.598
96.67
90.647
84.556
78.419
72.261
66.106
59.976
53.894
47.879
41.952
36.133
30.437
24.882
19.481
14.249
9.195
4.33
-0.337
-4.799
-9.052
-13.091
-16.912
-20.515
-23.899
-27.064
-30.013
-32.749
-35.275
-37.597
-39.72
-41.652
-43.398
-44.968
-46.368
-47.608
-48.696
-49.641
-50.451
-51.136
-51.705
-52.165
-52.525
-52.794
-52.978
-53.086
-53.123
-53.096
-53.011
-52.871
-52.683
-52.45
-52.176
-51.863
-51.516
-51.135
-50.725
-50.285
-49.819
-49.328
-48.811
-48.272
-47.71
-47.127
-46.524
-45.901
-45.26
-44.603
-43.931
-43.245
-42.549
-41.844
-41.132
-40.417
-39.701
-38.987
-38.28
-37.583
-36.9
-36.235
-35.594
-34.98
-34.399
-33.855
-33.353
-32.898
-32.495
-32.147
-31.859
-31.635
-31.479
-31.393
-31.381
-31.445
-31.587
-31.808
-32.108
-32.488
-32.946
-33.482
-34.091
-34.772
-35.521
-36.333
-37.204
-38.127
-39.097
-40.106
-41.147
-42.213
-43.294
-44.383
-45.47
-46.545
-47.599
-48.623
-49.606
-50.54
-51.415
-52.223
-52.953
-53.599
-54.151
-54.603
-54.948
-55.178
-55.288
-55.275
-55.133
-54.861
-54.456
-53.917
-53.245
-52.442
-51.509
-50.449
-49.268
-47.97
-46.561
-45.05
-43.443
-41.751
-39.982
-38.148
-36.262
-34.337
-32.387
-30.424
-28.462
-26.517
-24.6
-22.727
-20.906
-19.149
-17.466
-15.869
-14.37
-12.978
-11.704
-10.555
-9.539
-8.664
-7.933
-7.349
-6.909
-6.609
-6.448
-6.427
-6.55
-6.819
-7.23
-7.777
-8.451
-9.237
-10.118
-11.069
-12.052
-13.034
-13.984
-14.878
-15.697
-16.419
-17.019
-17.469
-17.734
-17.792
-17.623
-17.214
-16.561
-15.685
-14.616
-13.411
-12.143
-10.864
-9.637
-8.528
-7.596
-6.911
-6.54
-6.523
-6.925
-7.827
-9.252
-11.157
-13.393
-15.665
-17.68
-19.194
-19.904
-19.484
-17.739
-14.638
-10.434
-5.699
-1.005
3.25
6.693
8.938
9.853
9.643
8.971
9.054
11.322
17.026
27.299
43.447
66.517
97.011
135.076
179.516
227.422
275.886
321.932
363.343
400.911
435.188
463.963
482.895
483.609
456.994
399.974
313.987
204.974
84.524
-36.805
-148.232
-237.309
-297.186
-325.706
-325.977
-308.751
-283.333
-254.168
-222.51
-184.352
-138.417
-89.727
-44.509
-10.845
7.795
15.228
15.958
15.042
14.945
14.173
12.229
9.604
7.528
7.993
11.595
17.824
25.93
34.943
44.118
52.727
59.969
65.429
69.065
71.134
72.092
72.326
72.112
71.75
71.544
71.691
72.313
73.451
75.051
77.072
79.488
82.258
85.346
88.704
92.259
95.913
99.558
103.098
106.472
109.641
112.578
115.256
117.645
119.719
121.479
122.932
124.082
124.931
125.477
125.734
125.733
125.529
125.179
124.732
124.22
123.673
123.117
122.575
122.069
121.614
121.215
120.882
120.627
120.468
120.423
120.506
120.725
121.087
121.596
122.257
123.078
124.063
125.215
126.54
128.04
129.723
131.593
133.654
135.905
138.344
140.966
143.765
146.735
149.867
153.148
156.568
160.113
163.771
167.526
171.364
175.267
179.218
183.198
187.189
191.171
195.124
199.027
202.859
206.599
210.227
213.721
217.062
220.227
223.198
225.955
228.48
230.754
232.76
234.481
235.903
237.012
237.796
238.243
238.344
238.091
237.479
236.503
235.161
233.452
231.377
228.938
226.14
222.988
219.491
215.657
211.498
207.025
202.254
197.199
191.875
186.302
180.498
174.481
168.273
161.894
155.366
148.711
141.951
135.109
128.207
121.268
114.313
107.365
100.444
93.572
86.768
80.05
73.438
66.948
60.596
54.397
48.364
42.509
36.843
31.376
26.115
21.067
16.238
11.631
7.25
3.095
-0.832
-4.532
-8.007
-11.259
-14.293
-17.112
-19.722
-22.128
-24.336
-26.354
-28.188
-29.846
-31.335
-32.663
-33.839
-34.87
-35.765
-36.532
-37.178
-37.712
-38.142
-38.474
-38.716
-38.874
-38.956
-38.968
-38.915
-38.804
-38.639
-38.425
-38.169
-37.873
-37.543
-37.183
-36.797
-36.389
-35.962
-35.521
-35.07
-34.613
-34.153
-33.694
-33.241
-32.798
-32.368
-31.957
-31.568
-31.205
-30.873
-30.576
-30.317
-30.1
-29.93
-29.808
-29.74
-29.727
-29.773
-29.879
-30.048
-30.28
-30.578
-30.942
-31.371
-31.866
-32.424
-33.045
-33.726
-34.464
-35.254
-36.094
-36.976
-37.896
-38.847
-39.822
-40.813
-41.811
-42.808
-43.794
-44.759
-45.693
-46.585
-47.425
-48.202
-48.906
-49.526
-50.053
-50.476
-50.787
-50.975
-51.035
-50.957
-50.736
-50.365
-49.841
-49.158
-48.315
-47.311
-46.146
-44.82
-43.336
-41.698
-39.912
-37.984
-35.922
-33.736
-31.437
-29.036
-26.548
-23.988
-21.373
-18.718
-16.044
-13.37
-10.718
-8.109
-5.566
-3.11
-0.763
1.452
3.514
5.402
7.098
8.584
9.841
10.85
11.595
12.061
12.232
12.097
11.646
10.868
9.759
8.319
6.549
4.451
2.026
-0.728
-3.81
-7.21
-10.917
-14.918
-19.191
-23.714
-28.454
-33.364
-38.402
-43.527
-48.704
-53.907
-59.102
-64.25
-69.311
-74.238
-78.993
-83.554
-87.891
-91.977
-95.808
-99.396
-102.782
-106.038
-109.218
-112.356
-115.493
-118.661
-121.906
-125.298
-128.892
-132.717
-136.803
-141.197
-145.91
-150.91
-156.051
-161.024
-165.476
-169.094
-171.593
-172.663
-172.097
-169.839
-166.076
-161.383
-156.464
-151.824
-147.826
-144.992
-143.713
-143.929
-145.206
-145.831
-143.064
-135.686
-123.133
-105.379
-84.279
-58.461
-24.974
17.133
69.957
130.777
193.162
253.549
306.842
349.524
379.555
390.891
377.374
334.216
259.614
156.461
32.745
-98.83
-225.304
-332.481
-409.037
-452.666
-464.682
-451.197
-422.644
-385.04
-345.071
-310.526
-283.166
-264.404
-252.189
-239.079
-222.514
-202.553
-181.024
-163.496
-152.315
-146.714
-145.769
-147.299
-149.604
-152.282
-154.697
-156.116
-156.388
-155.552
-153.599
-150.745
-147.346
-143.65
-140.129
-137.37
-135.509
-134.462
-134.111
-134.228
-134.659
-135.303
-135.926
-136.218
-135.996
-135.185
-133.796
-131.915
-129.583
-126.825
-123.708
-120.341
-116.861
-113.377
-109.961
-106.639
-103.42
-100.324
-97.38
-94.61
-92.03
-89.643
-87.438
-85.413
-83.57
-81.902
-80.392
-79.005
-77.686
-76.39
-75.086
-73.749
-72.362
-70.906
-69.363
-67.719
-65.968
-64.106
-62.125
-60.015
-57.762
-55.354
-52.785
-50.051
-47.152
-44.087
-40.853
-37.448
-33.873
-30.126
-26.208
-22.12
-17.857
-13.421
-8.816
-4.046
0.882
5.959
11.175
16.521
21.982
27.546
33.197
38.922
44.705
50.53
56.379
62.234
68.078
73.89
79.651
85.342
90.942
96.429
101.784
106.987
112.016
116.852
121.475
125.866
130.008
133.882
137.473
140.764
143.741
146.39
148.699
150.658
152.257
153.489
154.349
154.831
154.933
154.656
153.999
152.964
151.556
149.78
147.642
145.152
142.321
139.159
135.68
131.9
127.834
123.501
118.918
114.107
109.089
103.884
98.515
93.007
87.382
81.665
75.879
70.049
64.199
58.352
52.531
46.76
41.058
35.448
29.95
24.581
19.361
14.305
9.429
4.748
0.274
-3.982
-8.009
-11.799
-15.346
-18.642
-21.686
-24.473
-27.003
-29.277
-31.297
-33.066
-34.589
-35.872
-36.923
-37.749
-38.361
-38.768
-38.982
-39.014
-38.876
-38.58
-38.14
-37.568
-36.876
-36.079
-35.188
-34.216
-33.175
-32.078
-30.936
-29.761
-28.564
-27.354
-26.143
-24.938
-23.751
-22.588
-21.457
-20.366
-19.321
-18.327
-17.39
-16.514
-15.702
-14.957
-14.282
-13.678
-13.146
-12.686
-12.3
-11.987
-11.746
-11.577
-11.479
-11.451
-11.492
-11.6
-11.774
-12.012
-12.315
-12.678
-13.102
-13.585
-14.125
-14.72
-15.368
-16.068
-16.818
-17.615
-18.456
-19.341
-20.266
-21.228
-22.225
-23.255
-24.314
-25.399
-26.509
-27.638
-28.785
-29.945
-31.115
-32.291
-33.468
-34.641
-35.807
-36.96
-38.093
-39.203
-40.283
-41.328
-42.33
-43.284
-44.183
-45.02
-45.79
-46.485
-47.099
-47.625
-48.058
-48.392
-48.622
-48.742
-48.749
-48.637
-48.405
-48.048
-47.564
-46.952
-46.209
-45.336
-44.333
-43.201
-41.943
-40.561
-39.059
-37.441
-35.715
-33.886
-31.962
-29.95
-27.86
-25.702
-23.487
-21.227
-18.932
-16.618
-14.297
-11.987
-9.703
-7.461
-5.277
-3.168
-1.149
0.762
2.553
4.209
5.721
7.075
8.258
9.26
10.067
10.673
11.069
11.249
11.207
10.938
10.442
9.723
8.785
7.631
6.261
4.667
2.852
0.822
-1.413
-3.84
-6.441
-9.198
-12.082
-15.05
-18.063
-21.085
-24.087
-27.042
-29.92
-32.682
-35.285
-37.682
-39.842
-41.738
-43.354
-44.684
-45.74
-46.543
-47.143
-47.601
-47.982
-48.357
-48.789
-49.346
-50.105
-51.128
-52.498
-54.308
-56.58
-59.282
-62.318
-65.465
-68.487
-71.176
-73.248
-74.405
-74.505
-73.485
-71.477
-68.908
-66.18
-63.644
-61.66
-60.408
-59.919
-60.196
-60.874
-61.111
-59.3
-53.114
-40.793
-21.615
2.728
29.156
56.401
85.217
119.951
165.648
223.709
291.744
362.207
426.167
475.046
501.311
501.296
471.818
413.618
331.379
229.458
116.776
2.659
-104.956
-195.489
-262.769
-306.059
-326.221
-328.618
-318.688
-296.967
-265.996
-229.565
-190.681
-156.423
-130.309
-110.714
-97.102
-86.808
-78.633
-75.046
-76.513
-82.647
-92.427
-102.867
-111.729
-117.88
-120.671
-120.305
-117.297
-112.15
-105.505
-98.135
-90.848
-84.364
-79.087
-75.121
-72.359
-70.553
-69.43
-68.701
-68.061
-67.244
-66.11
-64.622
-62.807
-60.741
-58.489
-56.103
-53.641
-51.156
-48.679
-46.231
-43.829
-41.491
-39.252
-37.151
-35.216
-33.465
-31.905
-30.536
-29.358
-28.362
-27.532
-26.848
-26.295
-25.858
-25.524
-25.278
-25.098
-24.962
-24.845
-24.722
-24.567
-24.359
-24.074
-23.692
-23.197
-22.572
-21.802
-20.874
-19.772
-18.483
-16.991
-15.284
-13.349
-11.176
-8.754
-6.077
-3.137
0.067
3.537
7.274
11.275
15.538
20.057
24.825
29.832
35.068
40.521
46.175
52.015
58.021
64.175
70.455
76.839
83.303
89.823
96.374
102.931
109.466
115.955
122.37
128.684
134.87
140.902
146.752
152.396
157.806
162.96
167.832
172.4
176.644
180.543
184.081
187.24
190.006
192.366
194.309
195.826
196.911
197.559
197.766
197.534
196.864
195.76
194.23
192.28
189.923
187.169
184.032
180.529
176.676
172.492
167.996
163.211
158.158
152.861
147.345
141.635
135.757
129.737
123.601
117.374
111.085
104.757
98.417
92.089
85.797
79.566
73.416
67.37
61.446
55.665
50.043
44.595
39.335
34.276
29.429
24.802
20.404
16.24
12.316
8.633
5.194
1.999
-0.953
-3.667
-6.145
-8.393
-10.417
-12.226
-13.827
-15.229
-16.442
-17.476
-18.341
-19.048
-19.609
-20.033
-20.334
-20.521
-20.605
-20.598
-20.51
-20.35
-20.128
-19.853
-19.533
-19.176
-18.789
-18.379
-17.952
-17.513
-17.067
-16.619
-16.172
-15.729
-15.293
-14.865
-14.446
-14.038
-13.64
-13.252
-12.874
-12.506
-12.146
-11.794
-11.449
-11.109
-10.775
-10.444
-10.117
-9.792
-9.469
-9.147
-8.827
-8.51
-8.194
-7.882
-7.573
-7.269
-6.971
-6.681
-6.398
-6.125
-5.864
-5.615
-5.381
-5.163
-4.964
-4.786
-4.63
-4.499
-4.395
-4.32
-4.275
-4.263
-4.285
-4.341
-4.434
-4.562
-4.728
-4.931
-5.169
-5.443
-5.75
-6.089
-6.458
-6.852
-7.27
-7.706
-8.158
-8.621
-9.09
-9.561
-10.03
-10.491
-10.939
-11.37
-11.778
-12.157
-12.503
-12.809
-13.07
-13.281
-13.435
-13.528
-13.556
-13.513
-13.395
-13.198
-12.919
-12.555
-12.102
-11.56
-10.926
-10.2
-9.381
-8.473
-7.474
-6.389
-5.222
-3.975
-2.656
-1.269
0.179
1.682
3.232
4.821
6.44
8.079
9.729
11.381
13.02
14.635
16.212
17.737
19.199
20.582
21.875
23.063
24.137
25.087
25.904
26.578
27.099
27.458
27.645
27.654
27.48
27.116
26.558
25.805
24.859
23.727
22.414
20.924
19.259
17.414
15.392
13.199
10.845
8.341
5.706
2.958
0.126
-2.748
-5.63
-8.488
-11.295
-14.029
-16.665
-19.172
-21.52
-23.675
-25.608
-27.297
-28.73
-29.908
-30.85
-31.585
-32.156
-32.62
-33.034
-33.464
-33.98
-34.648
-35.54
-36.708
-38.214
-40.146
-42.544
-45.387
-48.559
-51.816
-54.87
-57.482
-59.406
-60.346
-60.114
-58.666
-56.206
-53.256
-50.418
-48.209
-46.961
-46.942
-48.379
-51.12
-54.48
-57.46
-57.991
-53.976
-44.881
-29.679
-8.751
16.771
48.954
88.575
135.442
188.76
242.987
292.441
334.317
367.847
393.377
410.23
413.593
394.359
347.274
271.534
170.645
56.075
-61.119
-171.093
-262.626
-329.749
-371.094
-388.417
-388.135
-377.472
-359.179
-334.204
-304.374
-269.828
-234.145
-202.451
-175.084
-153.365
-137.385
-124.601
-115.783
-111.082
-109.271
-110.275
-112.444
-113.54
-112.489
-108.682
-102.167
-93.625
-83.76
-73.087
-62.193
-51.905
-42.974
-35.835
-30.642
-27.223
-25.227
-24.381
-24.436
-25.075
-25.986
-26.919
-27.674
-28.152
-28.32
-28.148
-27.618
-26.718
-25.451
-23.821
-21.85
-19.572
-17.037
-14.298
-11.397
-8.374
-5.273
-2.155
0.897
3.818
6.556
9.084
11.387
13.452
15.265
16.831
18.174
19.325
20.325
21.206
21.993
22.714
23.406
24.109
24.872
25.735
26.726
27.871
29.191
30.706
32.435
34.388
36.566
38.971
41.606
44.473
47.577
50.92
54.498
58.306
62.338
66.587
71.046
75.708
80.562
85.597
90.801
96.161
101.665
107.297
113.04
118.875
124.778
130.729
136.705
142.681
148.631
154.531
160.354
166.077
171.674
177.12
182.39
187.459
192.304
196.902
201.23
205.266
208.991
212.386
215.433
218.117
220.422
222.335
223.846
224.945
225.622
225.874
225.695
225.085
224.042
222.569
220.671
218.355
215.629
212.504
208.992
205.107
200.865
196.284
191.382
186.18
180.699
174.961
168.991
162.812
156.449
149.927
143.273
136.513
129.673
122.778
115.855
108.928
102.023
95.164
88.374
81.676
75.092
68.641
62.343
56.215
50.273
44.533
39.006
33.704
28.635
23.809
19.23
14.904
10.831
7.015
3.453
0.145
-2.915
-5.73
-8.307
-10.654
-12.778
-14.691
-16.402
-17.923
-19.265
-20.44
-21.462
-22.344
-23.098
-23.739
-24.279
-24.732
-25.111
-25.428
-25.696
-25.926
-26.129
-26.314
-26.493
-26.672
-26.86
-27.064
-27.289
-27.541
-27.823
-28.139
-28.492
-28.883
-29.312
-29.781
-30.287
-30.831
-31.41
-32.022
-32.664
-33.334
-34.027
-34.741
-35.472
-36.216
-36.97
-37.729
-38.49
-39.25
-40.005
-40.752
-41.489
-42.212
-42.921
-43.614
-44.289
-44.946
-45.585
-46.206
-46.81
-47.398
-47.973
-48.535
-49.089
-49.635
-50.179
-50.722
-51.268
-51.821
-52.384
-52.961
-53.554
-54.168
-54.806
-55.47
-56.162
-56.885
-57.64
-58.429
-59.252
-60.111
-61.003
-61.93
-62.89
-63.88
-64.9
-65.946
-67.015
-68.104
-69.208
-70.323
-71.444
-72.565
-73.681
-74.784
-75.869
-76.929
-77.957
-78.946
-79.889
-80.78
-81.613
-82.381
-83.079
-83.701
-84.241
-84.696
-85.061
-85.334
-85.512
-85.594
-85.578
-85.465
-85.256
-84.953
-84.558
-84.075
-83.508
-82.861
-82.141
-81.353
-80.504
-79.602
-78.656
-77.675
-76.671
-75.657
-74.643
-73.641
-72.665
-71.727
-70.839
-70.012
-69.255
-68.576
-67.985
-67.493
-67.108
-66.84
-66.693
-66.675
-66.789
-67.041
-67.433
-67.961
-68.62
-69.407
-70.318
-71.356
-72.525
-73.826
-75.255
-76.805
-78.467
-80.233
-82.088
-84.009
-85.962
-87.915
-89.838
-91.711
-93.513
-95.218
-96.798
-98.217
-99.437
-100.434
-101.186
-101.682
-101.922
-101.912
-101.669
-101.232
-100.664
-100.039
-99.436
-98.936
-98.612
-98.528
-98.768
-99.452
-100.644
-102.35
-104.502
-106.905
-109.353
-111.688
-113.691
-115.065
-115.615
-115.227
-113.996
-112.388
-110.842
-109.7
-109.358
-110.119
-112.139
-115.452
-119.615
-123.546
-126.079
-125.962
-121.864
-112.57
-96.798
-73.432
-41.838
-2.654
42.065
89.864
138.083
185.475
233.218
281.419
327.498
365.177
383.402
372.949
330.778
259.829
169.09
67.436
-39.245
-145.679
-246.383
-332.672
-395.762
-431.724
-441.13
-431.389
-410.801
-383.404
-353.482
-321.607
-288.022
-256.545
-227.424
-201.561
-180.453
-162.852
-149.83
-142.067
-138.569
-139.005
-141.747
-144.837
-147.125
-147.492
-145.52
-141.446
-135.616
-128.544
-120.812
-113
-105.757
-99.737
-95.291
-92.427
-90.942
-90.481
-90.688
-91.299
-92.044
-92.629
-92.866
-92.644
-91.9
-90.663
-88.969
-86.826
-84.272
-81.346
-78.081
-74.544
-70.822
-67.007
-63.202
-59.48
-55.881
-52.444
-49.198
-46.17
-43.392
-40.871
-38.596
-36.565
-34.775
-33.22
-31.897
-30.775
-29.81
-28.951
-28.144
-27.349
-26.534
-25.67
-24.731
-23.695
-22.541
-21.259
-19.843
-18.281
-16.559
-14.663
-12.575
-10.286
-7.792
-5.087
-2.168
0.967
4.321
7.895
11.69
15.706
19.945
24.407
29.091
33.996
39.115
44.44
49.96
55.663
61.537
67.564
73.729
80.013
86.396
92.859
99.382
105.942
112.518
119.085
125.621
132.101
138.5
144.794
150.959
156.969
162.802
168.433
173.839
178.999
183.891
188.495
192.792
196.766
200.398
203.674
206.581
209.107
211.241
212.977
214.308
215.23
215.741
215.841
215.533
214.819
213.706
212.201
210.314
208.055
205.438
202.477
199.187
195.586
191.691
187.523
183.103
178.45
173.589
168.54
163.329
157.976
152.508
146.945
141.313
135.633
129.929
124.222
118.533
112.883
107.292
101.778
96.359
91.05
85.867
80.824
75.932
71.203
66.646
62.268
58.078
54.08
50.277
46.673
43.268
40.063
37.056
34.245
31.626
29.195
26.948
24.879
22.981
21.247
19.671
18.246
16.962
15.813
14.79
13.886
13.092
12.399
11.801
11.289
10.855
10.494
10.198
9.961
9.776
9.64
9.546
9.491
9.469
9.479
9.518
9.581
9.669
9.779
9.911
10.064
10.238
10.432
10.646
10.879
11.131
11.401
11.689
11.992
12.311
12.644
12.99
13.348
13.717
14.096
14.485
14.88
15.282
15.689
16.098
16.507
16.914
17.318
17.715
18.103
18.48
18.843
19.19
19.516
19.82
20.098
20.346
20.561
20.741
20.883
20.986
21.05
21.075
21.063
21.017
20.939
20.833
20.702
20.547
20.373
20.182
19.974
19.752
19.519
19.278
19.035
18.795
18.565
18.353
18.164
18.008
17.893
17.826
17.811
17.854
17.96
18.138
18.402
18.76
19.215
19.766
20.411
21.141
21.947
22.813
23.707
24.603
25.476
26.303
27.08
27.803
28.465
29.061
29.581
30.027
30.418
30.781
31.132
31.495
31.892
32.355
32.947
33.718
34.703
35.925
37.372
39.023
40.857
42.845
44.942
47.086
49.182
51.122
52.824
54.209
55.196
55.697
55.592
54.778
53.185
50.769
47.518
43.439
38.535
32.826
26.37
19.25
11.586
3.515
-4.85
-13.403
-22.028
-30.592
-38.941
-46.938
-54.476
-61.479
-67.885
-73.636
-78.674
-82.951
-86.456
-89.215
-91.278
-92.709
-93.562
-93.886
-93.755
-93.288
-92.622
-91.882
-91.185
-90.596
-90.203
-90.143
-90.492
-91.283
-92.459
-93.807
-95.094
-96.147
-96.721
-96.524
-95.361
-93.065
-89.713
-85.795
-81.804
-78.214
-75.565
-74.28
-74.668
-76.882
-80.491
-84.347
-87.11
-87.212
-82.988
-72.85
-55.066
-28.228
8.342
53.821
106.019
162.422
220.06
277.331
333.892
387.717
435.865
472.127
487.677
476.909
436.541
368.569
279.274
173.324
57.586
-60.29
-171.744
-264.169
-328.483
-361.566
-365.044
-346.297
-313.263
-271.373
-225.787
-181.809
-143.984
-116.035
-98.875
-89.366
-84.016
-80.569
-78.535
-79.767
-85.052
-93.408
-102.796
-110.256
-114.168
-114.389
-111.231
-105.522
-98.117
-89.634
-80.966
-73.092
-66.505
-61.399
-57.761
-55.325
-53.808
-52.952
-52.37
-51.674
-50.676
-49.296
-47.544
-45.505
-43.226
-40.741
-38.118
-35.424
-32.699
-29.972
-27.25
-24.54
-21.876
-19.303
-16.872
-14.617
-12.558
-10.701
-9.05
-7.604
-6.36
-5.304
-4.417
-3.685
-3.094
-2.63
-2.282
-2.031
-1.854
-1.728
-1.628
-1.53
-1.415
-1.264
-1.058
-0.783
-0.423
0.034
0.599
1.287
2.11
3.08
4.211
5.513
6.996
8.668
10.538
12.611
14.892
17.383
20.088
23.005
26.135
29.475
33.021
36.769
40.711
44.839
49.143
53.612
58.234
62.993
67.876
72.865
77.942
83.09
88.288
93.516
98.753
103.978
109.169
114.303
119.357
124.311
129.14
133.823
138.338
142.664
146.778
150.661
154.293
157.656
160.731
163.503
165.956
168.075
169.85
171.268
172.321
173.001
173.301
173.218
172.75
171.894
170.654
169.032
167.032
164.662
161.929
158.845
155.42
151.669
147.606
143.247
138.609
133.712
128.575
123.219
117.664
111.934
106.05
100.037
93.918
87.717
81.457
75.163
68.858
62.564
56.305
50.102
43.977
37.949
32.037
26.261
20.637
15.181
9.907
4.83
-0.04
-4.691
-9.114
-13.302
-17.249
-20.951
-24.403
-27.604
-30.553
-33.252
-35.701
-37.904
-39.865
-41.589
-43.082
-44.351
-45.403
-46.247
-46.892
-47.347
-47.621
-47.725
-47.669
-47.462
-47.115
-46.638
-46.041
-45.333
-44.525
-43.626
-42.646
-41.592
-40.474
-39.3
-38.077
-36.812
-35.512
-34.183
-32.831
-31.46
-30.075
-28.68
-27.28
-25.878
-24.477
-23.078
-21.686
-20.301
-18.926
-17.562
-16.211
-14.875
-13.555
-12.252
-10.969
-9.707
-8.468
-7.254
-6.066
-4.907
-3.778
-2.682
-1.621
-0.596
0.39
1.335
2.236
3.092
3.9
4.658
5.364
6.016
6.612
7.15
7.629
8.046
8.401
8.692
8.918
9.08
9.176
9.208
9.176
9.081
8.926
8.712
8.444
8.123
7.755
7.344
6.895
6.414
5.906
5.378
4.838
4.291
3.747
3.211
2.693
2.2
1.739
1.318
0.945
0.627
0.372
0.187
0.078
0.051
0.114
0.272
0.53
0.891
1.36
1.939
2.63
3.434
4.352
5.381
6.519
7.764
9.112
10.557
12.092
13.709
15.399
17.152
18.957
20.802
22.673
24.554
26.431
28.289
30.113
31.886
33.592
35.216
36.744
38.162
39.456
40.613
41.615
42.451
43.107
43.57
43.83
43.877
43.7
43.296
42.665
41.804
40.715
39.395
37.838
36.043
34.016
31.762
29.292
26.623
23.773
20.773
17.663
14.479
11.254
8.015
4.779
1.569
-1.583
-4.647
-7.583
-10.361
-12.965
-15.373
-17.563
-19.54
-21.329
-22.975
-24.561
-26.144
-27.753
-29.429
-31.203
-33.121
-35.252
-37.65
-40.34
-43.359
-46.76
-50.553
-54.702
-59.04
-63.229
-66.904
-69.759
-71.513
-71.872
-70.663
-67.868
-63.739
-58.926
-54.169
-49.972
-46.688
-44.796
-44.611
-46.01
-48.466
-50.201
-48.489
-42.091
-30.387
-13.277
7.559
33.56
67.565
110.213
163.067
223.083
283.887
343.271
397.912
444.839
481.941
499.121
485.366
435.039
346.096
227.873
96.526
-34.495
-151.461
-245.874
-315.477
-358.323
-376.955
-375.565
-356.353
-323.04
-279.006
-228.515
-179.638
-139.757
-112.997
-99.555
-94.35
-91.611
-88.433
-84.804
-83.298
-85.567
-90.951
-97.213
-101.393
-102.057
-99.26
-93.582
-85.994
-77.312
-68.178
-59.52
-52.24
-46.76
-43.192
-41.406
-41.074
-41.88
-43.498
-45.498
-47.485
-49.247
-50.7
-51.836
-52.691
-53.249
-53.466
-53.338
-52.882
-52.109
-51.032
-49.658
-48.011
-46.157
-44.201
-42.249
-40.38
-38.637
-37.04
-35.604
-34.348
-33.292
-32.449
-31.818
-31.398
-31.185
-31.174
-31.359
-31.717
-32.212
-32.792
-33.4
-33.994
-34.54
-35.016
-35.399
-35.672
-35.816
-35.819
-35.675
-35.376
-34.91
-34.263
-33.421
-32.375
-31.119
-29.652
-27.975
-26.087
-23.988
-21.677
-19.156
-16.426
-13.488
-10.343
-6.991
-3.435
0.317
4.258
8.376
12.658
17.093
21.664
26.355
31.147
36.022
40.962
45.946
50.956
55.969
60.964
65.919
70.812
75.619
80.319
84.888
89.302
93.539
97.577
101.394
104.968
108.279
111.305
114.027
116.427
118.486
120.186
121.512
122.45
122.984
123.105
122.801
122.065
120.889
119.27
117.204
114.689
111.726
108.318
104.467
100.178
95.46
90.321
84.77
78.821
72.486
65.781
58.722
51.327
43.615
35.606
27.321
18.783
10.014
1.039
-8.117
-17.429
-26.872
-36.417
-46.04
-55.713
-65.41
-75.104
-84.77
-94.381
-103.913
-113.341
-122.642
-131.792
-140.769
-149.552
-158.122
-166.459
-174.546
-182.366
-189.904
-197.146
-204.08
-210.694
-216.979
-222.926
-228.529
-233.781
-238.678
-243.217
-247.398
-251.219
-254.682
-257.789
-260.544
-262.953
-265.02
-266.753
-268.159
-269.248
-270.029
-270.514
-270.712
-270.635
-270.297
-269.71
-268.887
-267.843
-266.59
-265.142
-263.515
-261.722
-259.776
-257.693
-255.486
-253.168
-250.753
-248.254
-245.684
-243.054
-240.376
-237.661
-234.92
-232.161
-229.395
-226.63
-223.873
-221.13
-218.41
-215.716
-213.053
-210.425
-207.835
-205.286
-202.778
-200.313
-197.89
-195.509
-193.168
-190.865
-188.598
-186.364
-184.158
-181.978
-179.817
-177.672
-175.537
-173.406
-171.273
-169.133
-166.979
-164.806
-162.606
-160.375
-158.105
-155.791
-153.427
-151.007
-148.526
-145.977
-143.357
-140.66
-137.882
-135.019
-132.068
-129.025
-125.889
-122.656
-119.325
-115.896
-112.367
-108.738
-105.009
-101.181
-97.254
-93.23
-89.112
-84.901
-80.6
-76.214
-71.745
-67.199
-62.58
-57.894
-53.145
-48.34
-43.484
-38.586
-33.651
-28.688
-23.704
-18.707
-13.707
-8.713
-3.734
1.22
6.139
11.013
15.831
20.584
25.259
29.848
34.338
38.718
42.977
47.099
51.073
54.886
58.526
61.981
65.238
68.288
71.12
73.73
76.11
78.253
80.153
81.803
83.199
84.337
85.216
85.833
86.188
86.283
86.125
85.724
85.088
84.224
83.136
81.823
80.29
78.548
76.609
74.484
72.19
69.747
67.184
64.541
61.853
59.151
56.461
53.808
51.22
48.731
46.375
44.186
42.194
40.423
38.885
37.587
36.517
35.659
34.987
34.449
33.987
33.542
33.041
32.419
31.623
30.578
29.182
27.381
25.162
22.592
19.875
17.228
14.847
12.987
11.933
11.885
12.952
14.998
17.526
20.038
22.078
23.134
22.804
20.845
17.184
12.305
7.329
3.458
2.065
4.746
12.865
27.699
50.426
81.464
120.497
167.028
218.89
272.221
323.434
368.46
406.156
439.25
468.201
491.653
502.653
487.937
438.894
352.216
233.698
99.933
-32.327
-147.255
-234.211
-291.653
-321.957
-331.097
-324.817
-305.13
-273.344
-230.872
-181.951
-134.839
-96.23
-69.548
-53.629
-42.52
-32.171
-21.352
-11.135
-5.059
-4.443
-8.181
-14.236
-19.683
-22.713
-23.043
-20.891
-16.779
-11.243
-4.691
2.315
9.048
14.797
19.225
22.369
24.422
25.695
26.437
26.82
27.103
27.595
28.457
29.755
31.5
33.604
36.032
38.808
41.866
45.104
48.526
52.117
55.722
59.291
62.796
65.999
69.46
73.711
77.945
81.919
84.167
82.945
80.191
77.187
75.859
78.861
83.891
89.021
92.945
93.462
92.204
90.819
89.689
89.825
90.67
91.491
92.44
93.433
94.532
95.905
97.47
99.159
101.004
103.017
105.19
107.528
110.041
112.731
115.612
118.702
121.994
125.481
129.167
133.047
137.115
141.365
145.785
150.362
155.085
159.94
164.91
169.982
175.135
180.354
185.617
190.906
196.198
201.473
206.708
211.88
216.966
221.942
226.786
231.473
235.982
240.289
244.373
248.214
251.789
255.082
258.073
260.746
263.086
265.077
266.708
267.966
268.843
269.329
269.418
269.105
268.388
267.265
265.736
263.805
261.475
258.752
255.643
252.158
248.309
244.107
239.566
234.704
229.535
224.08
218.357
212.387
206.191
199.793
193.214
186.478
179.608
172.63
165.566
158.44
151.276
144.097
136.927
129.787
122.699
115.685
108.764
101.956
95.279
88.75
82.385
76.198
70.202
64.41
58.832
53.476
48.349
43.458
38.807
34.398
30.233
26.312
22.633
19.194
15.991
13.017
10.269
7.737
5.414
3.292
1.36
-0.39
-1.97
-3.39
-4.661
-5.796
-6.804
-7.699
-8.491
-9.192
-9.813
-10.365
-10.86
-11.306
-11.713
-12.092
-12.449
-12.793
-13.131
-13.47
-13.814
-14.17
-14.54
-14.93
-15.341
-15.775
-16.233
-16.718
-17.228
-17.763
-18.323
-18.907
-19.513
-20.14
-20.786
-21.448
-22.124
-22.813
-23.511
-24.216
-24.925
-25.636
-26.346
-27.053
-27.754
-28.448
-29.134
-29.808
-30.47
-31.119
-31.753
-32.373
-32.978
-33.568
-34.143
-34.704
-35.253
-35.789
-36.314
-36.829
-37.335
-37.834
-38.326
-38.813
-39.295
-39.773
-40.247
-40.718
-41.184
-41.646
-42.102
-42.551
-42.992
-43.424
-43.844
-44.25
-44.64
-45.012
-45.362
-45.687
-45.985
-46.252
-46.483
-46.675
-46.824
-46.925
-46.974
-46.967
-46.899
-46.766
-46.565
-46.291
-45.942
-45.514
-45.005
-44.413
-43.736
-42.976
-42.131
-41.203
-40.193
-39.105
-37.942
-36.708
-35.411
-34.054
-32.646
-31.193
-29.705
-28.189
-26.653
-25.107
-23.561
-22.028
-20.523
-19.059
-17.652
-16.316
-15.066
-13.917
-12.884
-11.978
-11.21
-10.586
-10.117
-9.813
-9.685
-9.743
-9.993
-10.436
-11.074
-11.904
-12.927
-14.137
-15.528
-17.091
-18.824
-20.727
-22.808
-25.073
-27.521
-30.147
-32.941
-35.887
-38.968
-42.168
-45.471
-48.862
-52.317
-55.795
-59.252
-62.639
-65.916
-69.053
-71.992
-74.656
-77.006
-79.072
-80.964
-82.816
-84.674
-86.478
-88.168
-89.79
-91.38
-92.864
-94.017
-94.592
-94.543
-94.145
-93.793
-93.621
-93.693
-94.189
-95.398
-97.655
-101.103
-105.457
-110.245
-115.399
-120.983
-126.925
-133.161
-139.486
-145.644
-151.582
-157.214
-162.051
-165.325
-166.177
-163.659
-156.217
-142.567
-122.424
-95.126
-61.839
-24.081
19.142
66.404
117.065
171.177
224.706
277.127
327.477
370.586
402.555
414.777
397.614
348.8
269.489
165.644
48.77
-71.691
-186.896
-285.755
-361.458
-410.932
-433.667
-436.657
-427.464
-409.571
-387.317
-361.353
-331.423
-301.163
-271.082
-242.183
-216.482
-193.402
-174.756
-161.793
-153.819
-150.674
-150.752
-152.284
-154.265
-155.49
-155.083
-152.806
-148.741
-143.23
-136.825
-130.039
-123.375
-117.433
-112.821
-109.841
-108.463
-108.463
-109.453
-111.077
-113.086
-115.189
-117.068
-118.509
-119.361
-119.568
-119.173
-118.212
-116.704
-114.687
-112.206
-109.314
-106.099
-102.658
-99.087
-95.489
-91.935
-88.475
-85.157
-82.021
-79.107
-76.442
-74.023
-71.843
-69.897
-68.177
-66.683
-65.399
-64.291
-63.315
-62.426
-61.574
-60.727
-59.856
-58.934
-57.94
-56.86
-55.679
-54.396
-53.012
-51.521
-49.917
-48.195
-46.346
-44.372
-42.274
-40.054
-37.716
-35.265
-32.705
-30.041
-27.279
-24.422
-21.475
-18.442
-15.328
-12.138
-8.882
-5.57
-2.212
1.179
4.59
8.007
11.415
14.8
18.147
21.441
24.668
27.812
30.859
33.792
36.598
39.262
41.767
44.1
46.248
48.196
49.933
51.446
52.724
53.759
54.54
55.06
55.312
55.289
54.987
54.402
53.53
52.37
50.922
49.185
47.163
44.857
42.273
39.416
36.291
32.908
29.274
25.398
21.291
16.964
12.43
7.7
2.79
-2.286
-7.513
-12.874
-18.355
-23.938
-29.607
-35.344
-41.134
-46.959
-52.801
-58.646
-64.476
-70.276
-76.028
-81.718
-87.331
-92.855
-98.276
-103.582
-108.76
-113.797
-118.685
-123.416
-127.977
-132.353
-136.534
-140.508
-144.274
-147.838
-151.189
-154.315
-157.234
-159.963
-162.512
-164.902
-167.119
-169.133
-170.963
-172.646
-174.1
-175.232
-176.105
-176.718
-177.057
-177.34
-177
-175.486
-173.598
-171.583
-170.908
-173.326
-176.909
-180.372
-181.801
-178.563
-172.998
-167.091
-162.202
-160.577
-160.621
-160.715
-160.503
-159.003
-156.791
-154.613
-152.332
-150.046
-147.712
-145.183
-142.564
-139.936
-137.278
-134.59
-131.886
-129.168
-126.435
-123.69
-120.923
-118.122
-115.3
-112.468
-109.629
-106.788
-103.951
-101.12
-98.303
-95.507
-92.735
-89.99
-87.277
-84.599
-81.96
-79.366
-76.818
-74.32
-71.876
-69.487
-67.155
-64.884
-62.674
-60.524
-58.437
-56.41
-54.442
-52.533
-50.678
-48.876
-47.121
-45.411
-43.739
-42.1
-40.488
-38.896
-37.317
-35.743
-34.166
-32.577
-30.967
-29.329
-27.652
-25.928
-24.148
-22.303
-20.386
-18.386
-16.297
-14.111
-11.82
-9.418
-6.899
-4.257
-1.488
1.411
4.441
7.604
10.9
14.328
17.884
21.564
25.363
29.275
33.292
37.406
41.605
45.877
50.211
54.592
59.006
63.435
67.86
72.264
76.626
80.927
85.146
89.264
93.259
97.113
100.807
104.325
107.649
110.762
113.646
116.285
118.663
120.768
122.587
124.112
125.334
126.247
126.856
127.16
127.163
126.865
126.259
125.345
124.133
122.629
120.847
118.809
116.537
114.065
111.438
108.698
105.886
103.04
100.184
97.35
94.58
91.913
89.4
87.086
84.994
83.162
81.615
80.346
79.344
78.571
77.955
77.458
77.036
76.627
76.19
75.657
74.958
74.057
72.883
71.343
69.418
67.132
64.612
62.154
60.053
58.562
58.021
58.76
60.972
64.72
69.734
75.42
81.194
86.576
91.145
94.535
96.584
97.486
98.02
99.489
103.395
111.255
124.383
144.05
171.404
207.072
251
302.521
359.358
417.756
474.167
524.636
567.95
606.321
639.911
667.422
682.044
671.151
626.797
545.965
435.327
311.614
189.732
83.428
-0.068
-61.528
-100.428
-118.508
-116.219
-92.167
-51.004
0.484
52.847
96.1
126.928
146.85
161.164
175.341
190.771
205.9
217.211
222.518
222.298
218.496
214.203
211.714
212.1
215.769
222.418
231.618
242.991
255.995
269.945
284.088
297.636
310.098
321.355
331.452
340.564
348.885
356.523
363.628
370.392
376.891
383.131
389.075
394.615
399.672
404.244
408.335
411.983
415.268
418.234
420.922
423.384
425.656
427.807
429.907
431.995
434.106
436.267
438.497
440.829
443.293
445.877
448.557
451.287
454.005
456.682
459.303
461.851
464.318
466.687
468.943
471.097
473.167
475.17
477.124
479.038
480.926
482.819
484.756
486.78
488.94
491.273
493.807
496.572
499.591
502.885
506.472
510.358
514.545
519.035
523.833
528.943
534.368
540.107
546.153
552.5
559.138
566.058
573.249
580.699
588.393
596.319
604.46
612.801
621.325
630.013
638.842
647.788
656.825
665.925
675.06
684.198
693.308
702.356
711.31
720.137
728.801
737.268
745.505
753.474
761.142
768.473
775.433
781.986
788.099
793.738
798.871
803.468
807.497
810.93
813.739
815.899
817.386
818.178
818.255
817.598
816.192
814.023
811.082
807.359
802.85
797.551
791.462
784.587
776.93
768.499
759.305
749.361
738.683
727.289
715.199
702.438
689.03
675.003
660.385
645.209
629.508
613.315
596.667
579.599
562.151
544.361
526.267
507.91
489.329
470.565
451.656
432.644
413.566
394.462
375.367
356.319
337.354
318.504
299.802
281.28
262.966
244.887
227.071
209.539
192.314
175.415
158.86
142.663
126.838
111.396
96.346
81.694
67.447
53.606
40.174
27.15
14.532
2.316
-9.504
-20.933
-31.98
-42.654
-52.966
-62.926
-72.548
-81.843
-90.827
-99.513
-107.915
-116.05
-123.931
-131.576
-138.998
-146.214
-153.239
-160.087
-166.773
-173.312
-179.718
-186.003
-192.181
-198.264
-204.264
-210.192
-216.058
-221.874
-227.648
-233.389
-239.106
-244.806
-250.496
-256.183
-261.873
-267.569
-273.278
-279.002
-284.745
-290.508
-296.295
-302.105
-307.94
-313.799
-319.683
-325.59
-331.52
-337.471
-343.44
-349.425
-355.424
-361.432
-367.447
-373.465
-379.481
-385.489
-391.487
-397.466
-403.423
-409.35
-415.241
-421.087
-426.883
-432.619
-438.288
-443.882
-449.392
-454.809
-460.126
-465.335
-470.426
-475.394
-480.23
-484.926
-489.476
-493.872
-498.108
-502.178
-506.074
-509.791
-513.323
-516.665
-519.813
-522.762
-525.51
-528.052
-530.387
-532.512
-534.428
-536.134
-537.631
-538.921
-540.007
-540.893
-541.584
-542.088
-542.41
-542.559
-542.543
-542.373
-542.057
-541.607
-541.032
-540.343
-539.552
-538.671
-537.711
-536.687
-535.611
-534.498
-533.364
-532.224
-531.093
-529.989
-528.925
-527.915
-526.973
-526.113
-525.346
-524.683
-524.134
-523.71
-523.421
-523.275
-523.279
-523.437
-523.753
-524.23
-524.869
-525.673
-526.635
-527.758
-529.042
-530.492
-532.119
-533.923
-535.902
-538.051
-540.365
-542.832
-545.436
-548.149
-550.929
-553.735
-556.526
-559.265
-561.922
-564.45
-566.797
-568.906
-570.716
-572.194
-573.32
-574.071
-574.413
-574.323
-573.804
-572.907
-571.73
-570.36
-568.865
-567.292
-565.71
-564.26
-563.055
-562.139
-561.453
-560.802
-560.02
-559.046
-557.795
-556.081
-553.798
-550.938
-547.709
-544.654
-542.182
-540.511
-539.956
-540.697
-542.645
-544.872
-545.262
-541.616
-532.747
-519.555
-504.85
-490.477
-474.869
-452.735
-415.982
-358.187
-281.013
-193.678
