Name,Criss Capps
Date of Birth,"Feb 5, 1952"
Recorded Date,2021-01-21 08:33:54 -0400
Classification,Sinus Rhythm
Symptoms,
Software Version,1.90
Device,"Watch5,4"
Sample Rate,512.844 hertz


Lead,Lead I
Unit,µV

-18.493
-19.601
-20.541
-21.3
-21.872
-22.249
-22.428
-22.407
-22.189
-21.777
-21.177
-20.394
-19.437
-18.314
-17.035
-15.609
-14.048
-12.365
-10.572
-8.683
-6.715
-4.681
-2.604
-0.506
1.602
3.711
5.808
7.887
9.931
11.913
13.836
15.699
17.448
19.036
20.431
21.588
22.523
23.281
23.841
24.168
24.426
24.802
25.234
25.752
26.398
26.852
28.034
30.848
34.082
37.386
38.484
34.643
28.93
23.369
20.941
25.724
33.941
42.387
48.869
49.805
47.633
44.82
41.831
40.108
38.691
36.327
33.09
28.821
23.686
18.164
12.634
7.51
3.212
0.258
-0.831
0.002
2.575
6.281
9.783
12.082
12.619
10.596
5.511
-2.146
-11.391
-20.258
-25.502
-24.591
-15.556
4.018
35.779
80.119
136.608
203.029
275.42
350.169
423.365
489.895
545.027
584.531
604.726
603.751
581.155
536.754
471.671
389.169
293.54
189.955
84.009
-19.309
-115.224
-198.826
-266.086
-315.184
-346.207
-360.506
-360.338
-348.286
-327.327
-301.495
-275.223
-251.312
-230.931
-214.601
-202.232
-193.635
-188.725
-186.11
-183.381
-179.264
-173.498
-166.127
-157.665
-148.321
-137.786
-126.692
-116.517
-108.135
-102.011
-98.278
-96.54
-96.652
-98.82
-102.805
-107.989
-113.839
-119.791
-125.476
-130.864
-135.836
-140.188
-143.792
-146.517
-148.295
-149.168
-149.153
-148.242
-146.465
-143.852
-140.479
-136.5
-132.078
-127.39
-122.605
-117.825
-113.129
-108.59
-104.267
-100.228
-96.516
-93.135
-90.08
-87.345
-84.927
-82.825
-81.024
-79.474
-78.117
-76.893
-75.738
-74.611
-73.482
-72.319
-71.097
-69.795
-68.396
-66.896
-65.293
-63.577
-61.734
-59.749
-57.605
-55.296
-52.816
-50.156
-47.312
-44.277
-41.041
-37.598
-33.941
-30.06
-25.944
-21.585
-16.971
-12.098
-6.961
-1.56
4.104
10.028
16.205
22.629
29.29
36.177
43.279
50.581
58.07
65.729
73.54
81.483
89.537
97.678
105.883
114.124
122.375
130.606
138.789
146.894
154.889
162.743
170.424
177.9
185.139
192.108
198.774
205.105
211.07
216.637
221.778
226.465
230.671
234.372
237.546
240.173
242.236
243.717
244.605
244.888
244.558
243.61
242.039
239.848
237.037
233.613
229.585
224.965
219.768
214.01
207.713
200.898
193.592
185.822
177.618
169.013
160.041
150.739
141.146
131.3
121.243
111.017
100.664
90.227
79.749
69.272
58.837
48.486
38.258
28.192
18.326
8.694
-0.669
-9.731
-18.463
-26.838
-34.831
-42.419
-49.583
-56.307
-62.576
-68.379
-73.709
-78.558
-82.926
-86.81
-90.215
-93.146
-95.611
-97.622
-99.19
-100.333
-101.067
-101.413
-101.392
-101.027
-100.341
-99.36
-98.109
-96.613
-94.899
-92.994
-90.923
-88.712
-86.388
-83.975
-81.498
-78.978
-76.439
-73.902
-71.385
-68.908
-66.486
-64.135
-61.869
-59.7
-57.639
-55.694
-53.875
-52.186
-50.632
-49.215
-47.937
-46.797
-45.793
-44.923
-44.183
-43.567
-43.07
-42.686
-42.407
-42.227
-42.138
-42.133
-42.203
-42.341
-42.539
-42.789
-43.086
-43.421
-43.789
-44.185
-44.603
-45.039
-45.49
-45.952
-46.422
-46.899
-47.381
-47.867
-48.356
-48.849
-49.347
-49.851
-50.363
-50.884
-51.419
-51.968
-52.536
-53.125
-53.738
-54.378
-55.048
-55.751
-56.489
-57.265
-58.079
-58.933
-59.829
-60.767
-61.746
-62.766
-63.825
-64.922
-66.054
-67.218
-68.41
-69.625
-70.859
-72.106
-73.361
-74.618
-75.868
-77.106
-78.324
-79.515
-80.669
-81.78
-82.838
-83.835
-84.762
-85.612
-86.376
-87.045
-87.61
-88.064
-88.399
-88.608
-88.684
-88.62
-88.411
-88.051
-87.536
-86.862
-86.026
-85.025
-83.858
-82.523
-81.021
-79.354
-77.524
-75.533
-73.385
-71.086
-68.641
-66.059
-63.346
-60.511
-57.564
-54.516
-51.379
-48.165
-44.89
-41.566
-38.21
-34.841
-31.478
-28.139
-24.845
-21.614
-18.467
-15.423
-12.501
-9.718
-7.089
-4.63
-2.358
-0.29
1.557
3.167
4.527
5.623
6.444
6.977
7.218
7.166
6.82
6.18
5.24
3.988
2.418
0.533
-1.664
-4.161
-6.939
-9.975
-13.228
-16.642
-20.166
-23.75
-27.355
-30.957
-34.518
-37.997
-41.346
-44.503
-47.429
-50.097
-52.478
-54.548
-56.318
-57.828
-59.158
-60.428
-61.73
-63.122
-64.669
-66.432
-68.49
-70.937
-73.855
-77.285
-81.28
-85.934
-91.234
-97.069
-103.179
-109.063
-114.243
-118.374
-121.051
-121.833
-120.635
-117.553
-113.009
-108.025
-103.296
-99.1
-95.941
-94.136
-93.35
-93.005
-91.771
-87.316
-78.001
-62.714
-39.843
-8.146
32.946
83.773
142.244
203.743
264.759
321.745
373.635
423.392
470.441
511.929
540.425
541.394
505.772
430.25
319.343
190.503
61.249
-52.264
-137.881
-195.191
-228.576
-246.486
-257.778
-265.371
-268.951
-265.827
-254.649
-237.858
-219.542
-203.807
-192.677
-186.09
-183.171
-182.768
-183.842
-185.219
-185.562
-184.109
-180.765
-175.843
-169.914
-163.481
-156.951
-150.86
-145.784
-142.038
-139.672
-138.54
-138.362
-138.903
-139.996
-141.465
-143.109
-144.741
-146.192
-147.328
-148.085
-148.428
-148.327
-147.763
-146.725
-145.225
-143.31
-141.045
-138.494
-135.716
-132.76
-129.67
-126.505
-123.328
-120.206
-117.203
-114.363
-111.711
-109.267
-107.041
-105.041
-103.261
-101.685
-100.286
-99.042
-97.936
-96.953
-96.078
-95.292
-94.574
-93.903
-93.256
-92.617
-91.968
-91.293
-90.576
-89.802
-88.959
-88.033
-87.014
-85.889
-84.645
-83.265
-81.733
-80.036
-78.162
-76.101
-73.842
-71.375
-68.694
-65.792
-62.665
-59.311
-55.724
-51.898
-47.83
-43.519
-38.967
-34.179
-29.161
-23.919
-18.46
-12.799
-6.951
-0.931
5.251
11.592
18.089
24.728
31.482
38.32
45.213
52.134
59.053
65.931
72.721
79.389
85.917
92.309
98.567
104.683
110.632
116.376
121.882
127.135
132.133
136.874
141.342
145.529
149.451
153.15
156.678
160.055
163.254
166.215
168.884
171.229
173.226
174.851
176.071
176.846
177.144
176.955
176.288
175.125
173.416
171.07
167.999
164.166
159.59
154.32
148.393
141.842
134.726
127.138
119.189
110.968
102.537
93.924
85.15
76.273
67.383
58.597
50.02
41.723
33.746
26.124
18.911
12.137
5.779
-0.238
-5.998
-11.554
-16.919
-22.081
-27.037
-31.811
-36.435
-40.942
-45.355
-49.689
-53.965
-58.221
-62.508
-66.844
-71.204
-75.52
-79.728
-83.792
-87.699
-91.447
-95.023
-98.408
-101.594
-104.587
-107.404
-110.049
-112.515
-114.776
-116.807
-118.601
-120.176
-121.561
-122.785
-123.865
-124.813
-125.641
-126.371
-127.018
-127.589
-128.076
-128.475
-128.787
-129.02
-129.189
-129.308
-129.383
-129.42
-129.422
-129.396
-129.347
-129.281
-129.2
-129.105
-128.999
-128.889
-128.786
-128.697
-128.63
-128.591
-128.584
-128.618
-128.697
-128.825
-129.007
-129.243
-129.537
-129.893
-130.313
-130.8
-131.354
-131.978
-132.672
-133.438
-134.273
-135.177
-136.148
-137.183
-138.278
-139.43
-140.635
-141.888
-143.185
-144.519
-145.885
-147.28
-148.697
-150.13
-151.573
-153.022
-154.471
-155.915
-157.347
-158.764
-160.159
-161.528
-162.867
-164.171
-165.437
-166.661
-167.838
-168.966
-170.042
-171.063
-172.025
-172.927
-173.765
-174.539
-175.245
-175.883
-176.452
-176.949
-177.374
-177.727
-178.005
-178.209
-178.336
-178.385
-178.354
-178.241
-178.043
-177.757
-177.379
-176.907
-176.335
-175.661
-174.881
-173.989
-172.982
-171.856
-170.606
-169.23
-167.722
-166.079
-164.299
-162.379
-160.317
-158.112
-155.763
-153.27
-150.634
-147.856
-144.941
-141.891
-138.709
-135.403
-131.977
-128.44
-124.802
-121.072
-117.262
-113.385
-109.46
-105.502
-101.533
-97.569
-93.633
-89.744
-85.926
-82.198
-78.58
-75.091
-71.749
-68.575
-65.59
-62.816
-60.271
-57.973
-55.937
-54.179
-52.714
-51.551
-50.692
-50.139
-49.897
-49.972
-50.381
-51.133
-52.228
-53.663
-55.427
-57.503
-59.872
-62.498
-65.331
-68.324
-71.428
-74.605
-77.831
-81.07
-84.275
-87.393
-90.352
-93.103
-95.616
-97.851
-99.787
-101.435
-102.816
-103.99
-105.055
-106.066
-107.086
-108.187
-109.424
-110.889
-112.672
-114.838
-117.494
-120.774
-124.702
-129.209
-134.08
-138.888
-143.213
-146.712
-148.963
-149.495
-148.062
-144.761
-140.085
-134.968
-130.333
-126.681
-124.406
-124.037
-125.654
-128.598
-131.513
-132.163
-128.162
-117.821
-99.568
-71.677
-32.92
17.117
77.481
145.849
218.565
290.969
359.447
420.649
472.454
515.555
546.455
558.264
544.811
498.43
421.128
325.306
221.027
118.667
22.257
-73.236
-165.563
-248.457
-314.345
-351.009
-355.424
-332.687
-291.848
-248.602
-214.35
-195.234
-191.134
-193.651
-196.302
-194.336
-186.671
-177.779
-169.529
-162.307
-156.008
-148.437
-139.022
-128.554
-117.536
-106.868
-97.368
-89.412
-83.284
-79.151
-76.869
-76.155
-76.763
-78.441
-80.927
-83.935
-87.179
-90.384
-93.346
-95.957
-98.137
-99.824
-100.962
-101.494
-101.38
-100.596
-99.151
-97.068
-94.398
-91.222
-87.64
-83.793
-79.819
-75.843
-71.976
-68.287
-64.823
-61.611
-58.671
-56.011
-53.64
-51.57
-49.803
-48.342
-47.178
-46.29
-45.643
-45.185
-44.864
-44.63
-44.442
-44.266
-44.078
-43.857
-43.589
-43.266
-42.876
-42.401
-41.825
-41.124
-40.277
-39.268
-38.079
-36.697
-35.112
-33.312
-31.288
-29.03
-26.528
-23.771
-20.751
-17.455
-13.875
-10.006
-5.842
-1.383
3.369
8.411
13.738
19.343
25.216
31.345
37.718
44.319
51.132
58.141
65.329
72.676
80.161
87.761
95.45
103.205
110.998
118.799
126.577
134.296
141.925
149.434
156.798
163.993
170.989
177.753
184.249
190.442
196.302
201.801
206.91
211.599
215.844
219.627
222.94
225.784
228.151
230.033
231.407
232.251
232.559
232.345
231.649
230.517
228.977
227.023
224.641
221.833
218.622
215.059
211.138
206.778
201.977
196.873
191.752
186.932
182.513
178.285
173.983
169.549
164.883
159.68
153.301
144.949
134.331
121.929
108.598
94.902
81.257
68.184
56.564
47.579
41.824
38.863
37.626
37.28
37.326
37.37
36.838
34.823
30.776
24.955
18.182
11.171
4.308
-2.236
-8.323
-13.588
-17.739
-20.836
-23.213
-25.197
-26.953
-28.496
-29.755
-30.747
-31.537
-32.139
-32.519
-32.626
-32.439
-31.983
-31.32
-30.502
-29.554
-28.487
-27.302
-26.006
-24.615
-23.145
-21.611
-20.025
-18.4
-16.745
-15.07
-13.387
-11.704
-10.029
-8.365
-6.716
-5.086
-3.484
-1.922
-0.411
1.042
2.43
3.751
4.998
6.168
7.256
8.262
9.183
10.018
10.767
11.43
12.005
12.495
12.901
13.228
13.477
13.654
13.763
13.807
13.793
13.724
13.607
13.446
13.247
13.016
12.757
12.477
12.179
11.869
11.552
11.232
10.913
10.598
10.292
9.996
9.715
9.449
9.201
8.971
8.762
8.572
8.401
8.25
8.115
7.996
7.89
7.794
7.705
7.619
7.531
7.439
7.336
7.219
7.084
6.925
6.739
6.522
6.27
5.98
5.649
5.276
4.857
4.391
3.879
3.32
2.714
2.063
1.369
0.634
-0.138
-0.945
-1.78
-2.64
-3.519
-4.41
-5.306
-6.199
-7.081
-7.943
-8.776
-9.568
-10.309
-10.988
-11.594
-12.115
-12.541
-12.862
-13.066
-13.145
-13.088
-12.887
-12.534
-12.023
-11.347
-10.5
-9.48
-8.282
-6.907
-5.353
-3.623
-1.718
0.358
2.598
4.996
7.545
10.236
13.059
16
19.048
22.187
25.401
28.671
31.977
35.297
38.606
41.88
45.096
48.229
51.254
54.146
56.885
59.45
61.823
63.982
65.906
67.574
68.971
70.082
70.893
71.394
71.574
71.427
70.954
70.157
69.038
67.595
65.818
63.699
61.235
58.434
55.309
51.874
48.148
44.159
39.947
35.569
31.079
26.522
21.937
17.362
12.849
8.466
4.289
0.388
-3.184
-6.388
-9.202
-11.604
-13.595
-15.193
-16.434
-17.402
-18.189
-18.886
-19.587
-20.389
-21.379
-22.708
-24.6
-27.141
-30.289
-33.85
-37.437
-40.742
-43.592
-45.692
-46.605
-46.075
-44.167
-41.454
-39.03
-37.695
-37.737
-39.28
-42.519
-47.549
-53.836
-59.813
-62.94
-60.822
-51.931
-35.27
-9.635
26.362
73.266
130.257
194.85
263.829
334.612
404.802
470.935
528.62
573.591
602.301
613.102
605.565
578.916
532.845
468.76
389.832
300.523
205.89
109.926
16.188
-70.935
-147.157
-209.131
-255.196
-285.443
-300.944
-302.629
-291.754
-270.86
-243.314
-212.84
-182.275
-153.451
-127.869
-106.876
-91.653
-82.48
-78.504
-78.117
-79.953
-82.854
-85.571
-87.158
-86.607
-83.277
-77.372
-69.565
-60.607
-51.414
-42.944
-35.797
-30.507
-27.405
-26.392
-27.225
-29.526
-32.742
-36.308
-39.828
-43.034
-45.784
-48.057
-49.822
-51.046
-51.721
-51.868
-51.508
-50.651
-49.299
-47.457
-45.156
-42.491
-39.591
-36.589
-33.613
-30.748
-28.038
-25.528
-23.248
-21.225
-19.487
-18.045
-16.891
-16.025
-15.443
-15.132
-15.08
-15.25
-15.581
-16.011
-16.474
-16.918
-17.309
-17.617
-17.812
-17.869
-17.768
-17.491
-17.032
-16.376
-15.505
-14.401
-13.047
-11.428
-9.542
-7.383
-4.95
-2.242
0.746
4.013
7.56
11.386
15.491
19.874
24.534
29.466
34.66
40.104
45.784
51.683
57.784
64.068
70.513
77.096
83.796
90.589
97.45
104.357
111.282
118.198
125.081
131.901
138.631
145.244
151.713
158.009
164.107
169.98
175.604
180.953
186.005
190.736
195.125
199.152
202.799
206.048
208.883
211.292
213.263
214.786
215.854
216.462
216.607
216.285
215.499
214.25
212.542
210.38
207.772
204.727
201.257
197.373
193.09
188.425
183.393
178.014
172.308
166.295
159.997
153.437
146.638
139.626
132.424
125.059
117.557
109.942
102.242
94.482
86.687
78.882
71.091
63.338
55.645
48.035
40.529
33.147
25.908
18.83
11.93
5.224
-1.276
-7.555
-13.604
-19.411
-24.969
-30.27
-35.31
-40.083
-44.586
-48.818
-52.778
-56.467
-59.888
-63.044
-65.939
-68.579
-70.972
-73.124
-75.044
-76.742
-78.226
-79.507
-80.595
-81.503
-82.24
-82.82
-83.253
-83.552
-83.728
-83.794
-83.76
-83.638
-83.438
-83.172
-82.848
-82.477
-82.068
-81.628
-81.167
-80.691
-80.207
-79.721
-79.239
-78.765
-78.303
-77.857
-77.429
-77.02
-76.632
-76.265
-75.92
-75.595
-75.29
-75.002
-74.73
-74.471
-74.222
-73.981
-73.743
-73.506
-73.265
-73.018
-72.759
-72.487
-72.198
-71.888
-71.555
-71.195
-70.807
-70.387
-69.935
-69.448
-68.926
-68.369
-67.775
-67.146
-66.483
-65.787
-65.061
-64.307
-63.528
-62.728
-61.911
-61.082
-60.246
-59.407
-58.571
-57.744
-56.932
-56.141
-55.378
-54.647
-53.955
-53.307
-52.71
-52.168
-51.687
-51.27
-50.923
-50.648
-50.45
-50.331
-50.293
-50.337
-50.463
-50.671
-50.959
-51.324
-51.765
-52.276
-52.853
-53.489
-54.178
-54.914
-55.686
-56.487
-57.306
-58.133
-58.957
-59.766
-60.548
-61.292
-61.985
-62.615
-63.17
-63.639
-64.009
-64.269
-64.407
-64.413
-64.278
-63.99
-63.541
-62.923
-62.13
-61.156
-59.997
-58.65
-57.114
-55.388
-53.475
-51.378
-49.101
-46.65
-44.033
-41.258
-38.338
-35.284
-32.11
-28.833
-25.469
-22.038
-18.562
-15.062
-11.558
-8.075
-4.633
-1.256
2.035
5.219
8.278
11.191
13.937
16.495
18.845
20.967
22.844
24.463
25.807
26.864
27.627
28.095
28.268
28.143
27.713
26.965
25.894
24.503
22.797
20.788
18.496
15.945
13.172
10.231
7.172
4.041
0.877
-2.295
-5.441
-8.513
-11.459
-14.215
-16.732
-18.983
-20.931
-22.554
-23.865
-24.886
-25.682
-26.352
-26.958
-27.568
-28.263
-29.1
-30.163
-31.555
-33.339
-35.629
-38.565
-42.152
-46.31
-50.852
-55.389
-59.561
-63.11
-65.589
-66.488
-65.653
-63.188
-59.577
-55.748
-52.327
-49.509
-47.728
-47.569
-48.963
-51.284
-53.076
-51.991
-46.286
-34.929
-16.425
10.978
48.223
95.475
151.378
212.986
277.832
343.604
406.65
462.557
506.988
535.903
546.992
539.565
512.631
465.901
401.23
322.079
233.204
140.099
47.35
-41.002
-120.22
-186.019
-235.822
-268.895
-286.384
-290.476
-283.3
-267.262
-245.648
-222.266
-200.359
-181.711
-166.719
-155.233
-147.033
-141.852
-139.109
-137.262
-134.601
-130.428
-124.793
-117.993
-110.386
-101.96
-92.519
-82.673
-73.444
-65.396
-58.774
-53.496
-49.337
-46.427
-45.066
-45.145
-46.183
-47.635
-49.055
-50.356
-51.487
-52.101
-52.012
-51.247
-49.78
-48.013
-45.457
-40.258
-32.764
-24.669
-18.805
-20.633
-30.001
-41.604
-50.149
-48.021
-34.68
-17.45
-2.001
5.587
4.184
-0.724
-5.73
-8.546
-8.447
-7.674
-7.255
-7.084
-7.196
-7.198
-6.953
-6.727
-6.575
-6.404
-6.189
-5.916
-5.565
-5.124
-4.563
-3.816
-2.845
-1.649
-0.217
1.463
3.399
5.599
8.068
10.802
13.79
17.031
20.519
24.256
28.256
32.518
37.031
41.776
46.724
51.848
57.125
62.522
67.996
73.514
79.05
84.599
90.174
95.773
101.38
106.966
112.484
117.905
123.225
128.437
133.543
138.547
143.444
148.253
153.022
157.758
162.441
167.014
171.367
175.427
179.147
182.494
185.457
188.007
190.095
191.681
192.737
193.223
193.103
192.312
190.742
188.348
185.131
181.141
176.495
171.277
165.537
159.329
152.694
145.683
138.361
130.775
122.949
114.928
106.767
98.55
90.401
82.394
74.563
66.91
59.39
51.978
44.68
37.487
30.394
23.4
16.5
9.71
3.069
-3.404
-9.702
-15.835
-21.834
-27.711
-33.456
-39.051
-44.462
-49.664
-54.645
-59.388
-63.872
-68.087
-72.026
-75.699
-79.125
-82.319
-85.289
-88.041
-90.575
-92.896
-95.017
-96.948
-98.703
-100.293
-101.731
-103.03
-104.206
-105.271
-106.236
-107.106
-107.884
-108.576
-109.186
-109.719
-110.18
-110.573
-110.902
-111.171
-111.386
-111.549
-111.663
-111.728
-111.745
-111.712
-111.63
-111.495
-111.308
-111.064
-110.763
-110.403
-109.98
-109.493
-108.939
-108.317
-107.625
-106.862
-106.027
-105.121
-104.143
-103.096
-101.981
-100.8
-99.557
-98.254
-96.895
-95.484
-94.023
-92.517
-90.971
-89.388
-87.772
-86.128
-84.461
-82.777
-81.08
-79.377
-77.673
-75.973
-74.283
-72.61
-70.958
-69.333
-67.74
-66.184
-64.67
-63.202
-61.785
-60.422
-59.115
-57.867
-56.68
-55.554
-54.489
-53.487
-52.547
-51.669
-50.854
-50.101
-49.41
-48.781
-48.214
-47.708
-47.262
-46.876
-46.55
-46.281
-46.068
-45.911
-45.809
-45.759
-45.76
-45.811
-45.908
-46.049
-46.232
-46.453
-46.71
-46.998
-47.314
-47.655
-48.018
-48.4
-48.797
-49.205
-49.621
-50.04
-50.458
-50.869
-51.267
-51.645
-51.998
-52.319
-52.599
-52.833
-53.013
-53.13
-53.178
-53.149
-53.036
-52.83
-52.524
-52.112
-51.588
-50.946
-50.183
-49.293
-48.275
-47.127
-45.847
-44.435
-42.893
-41.222
-39.424
-37.503
-35.463
-33.312
-31.058
-28.709
-26.277
-23.775
-21.219
-18.624
-16.007
-13.386
-10.78
-8.208
-5.691
-3.246
-0.893
1.347
3.457
5.415
7.2
8.793
10.176
11.33
12.24
12.888
13.262
13.358
13.168
12.688
11.911
10.826
9.423
7.707
5.679
3.344
0.716
-2.188
-5.338
-8.682
-12.176
-15.774
-19.434
-23.129
-26.828
-30.485
-34.06
-37.497
-40.745
-43.783
-46.581
-49.105
-51.343
-53.304
-55.036
-56.639
-58.204
-59.792
-61.448
-63.203
-65.113
-67.258
-69.712
-72.55
-75.817
-79.548
-83.847
-88.732
-94.085
-99.651
-104.925
-109.357
-112.571
-114.11
-113.447
-110.464
-105.245
-98.25
-90.662
-83.407
-77.029
-72.402
-70.195
-70.225
-71.939
-73.779
-72.909
-67.206
-54.931
-33.543
-0.971
43.645
100.449
166.835
237.491
309.368
379.822
446.189
508.308
560.906
595.346
604.898
581.735
525.664
445.47
350.246
250.835
154.163
60.413
-28.876
-111.043
-182.401
-237.862
-275.529
-296.536
-303.002
-297.587
-282.98
-262.225
-239.18
-217.493
-199.148
-184.644
-173.859
-166.325
-161.651
-159.197
-157.206
-153.902
-148.58
-141.211
-132.205
-122.196
-111.378
-99.85
-88.499
-78.217
-69.434
-62.425
-57.106
-53.235
-50.842
-49.98
-50.348
-51.587
-53.389
-55.39
-57.384
-59.276
-60.909
-62.164
-63.014
-63.439
-63.433
-63.026
-62.2
-60.906
-59.14
-56.907
-54.222
-51.163
-47.82
-44.307
-40.776
-37.348
-34.096
-31.079
-28.32
-25.827
-23.609
-21.661
-19.966
-18.532
-17.362
-16.455
-15.814
-15.417
-15.227
-15.199
-15.268
-15.372
-15.469
-15.518
-15.493
-15.374
-15.141
-14.782
-14.293
-13.661
-12.87
-11.903
-10.738
-9.357
-7.749
-5.904
-3.817
-1.485
1.096
3.928
7.015
10.358
13.96
17.824
21.953
26.348
31.009
35.929
41.102
46.517
52.164
58.029
64.097
70.352
76.776
83.35
90.057
96.876
103.787
110.77
117.8
124.852
131.902
138.924
145.893
152.787
159.574
166.224
172.721
179.045
185.177
191.103
196.789
202.196
207.315
212.139
216.613
220.695
224.346
227.519
230.226
232.504
234.315
235.598
236.479
237.112
237.398
237.345
236.983
235.977
235.241
235.67
236.004
235.866
232.941
224.453
213.502
202.16
193.506
191.766
193.238
194.791
194.285
188.171
179.028
169.464
160.081
152.479
145.768
138.794
131.805
124.676
117.508
110.562
103.705
96.832
90.004
83.25
76.573
69.991
63.529
57.208
51.061
45.128
39.407
33.897
28.611
23.557
18.737
14.156
9.808
5.691
1.805
-1.845
-5.265
-8.468
-11.454
-14.21
-16.731
-19.007
-21.046
-22.885
-24.535
-25.978
-27.246
-28.41
-29.529
-30.666
-31.835
-32.961
-34.036
-35.155
-36.227
-36.951
-37.284
-37.317
-37.016
-36.74
-35.805
-32.301
-26.775
-20.937
-17.805
-22.864
-35.424
-50.079
-61.314
-61.314
-50.071
-34.875
-21.326
-15.624
-18.465
-24.372
-30.103
-33.304
-33.43
-32.731
-32.134
-31.587
-31.155
-30.492
-29.539
-28.597
-27.748
-26.944
-26.198
-25.524
-24.912
-24.354
-23.822
-23.269
-22.685
-22.097
-21.518
-20.947
-20.391
-19.852
-19.337
-18.856
-18.416
-18.018
-17.666
-17.364
-17.115
-16.924
-16.797
-16.735
-16.744
-16.825
-16.983
-17.218
-17.534
-17.931
-18.41
-18.973
-19.618
-20.346
-21.155
-22.044
-23.01
-24.05
-25.162
-26.34
-27.579
-28.872
-30.215
-31.598
-33.015
-34.457
-35.915
-37.38
-38.843
-40.293
-41.721
-43.117
-44.47
-45.768
-47.002
-48.161
-49.232
-50.206
-51.071
-51.817
-52.433
-52.912
-53.242
-53.417
-53.426
-53.264
-52.923
-52.398
-51.684
-50.776
-49.671
-48.369
-46.869
-45.172
-43.282
-41.201
-38.935
-36.491
-33.876
-31.101
-28.175
-25.108
-21.914
-18.606
-15.2
-11.711
-8.158
-4.559
-0.935
2.691
6.298
9.863
13.364
16.779
20.086
23.263
26.292
29.154
31.828
34.296
36.537
38.531
40.261
41.713
42.869
43.718
44.245
44.442
44.307
43.835
43.022
41.86
40.336
38.444
36.189
33.581
30.636
27.376
23.827
20.031
16.05
11.946
7.776
3.597
-0.55
-4.615
-8.532
-12.23
-15.637
-18.692
-21.369
-23.648
-25.51
-26.96
-28.032
-28.798
-29.383
-29.916
-30.502
-31.248
-32.253
-33.625
-35.496
-37.993
-41.212
-45.22
-50.017
-55.566
-61.83
-68.707
-76.041
-83.62
-91.123
-98.209
-104.574
-109.859
-113.673
-115.641
-115.27
-112.049
-105.67
-95.907
-82.756
-66.558
-47.669
-26.434
-3.448
20.632
45.476
70.896
97.121
125.318
156.749
192.1
232.131
276.329
322.058
368.191
413.8
457.75
501.421
540.588
565.864
568.524
538.501
474.92
387.6
286.738
184.065
86.191
-7.276
-94.37
-172.462
-238.229
-286.862
-316.824
-328.847
-324.164
-305.644
-276.895
-241.548
-203.678
-166.675
-132.909
-104.692
-83.882
-71.128
-66.105
-67.675
-73.912
-83.152
-93.92
-104.199
-112.253
-117.132
-118.374
-116.222
-111.503
-104.887
-97.143
-89.452
-82.674
-77.269
-73.519
-71.267
-70.137
-69.846
-69.982
-70.027
-69.699
-68.854
-67.43
-65.527
-63.242
-60.628
-57.799
-54.868
-51.895
-48.93
-45.99
-43.08
-40.24
-37.528
-35
-32.702
-30.654
-28.862
-27.329
-26.053
-25.025
-24.226
-23.629
-23.215
-22.971
-22.883
-22.939
-23.12
-23.399
-23.75
-24.144
-24.552
-24.95
-25.313
-25.619
-25.851
-25.988
-26.015
-25.916
-25.675
-25.272
-24.692
-23.914
-22.924
-21.706
-20.248
-18.537
-16.564
-14.321
-11.804
-9.007
-5.928
-2.566
1.079
5.005
9.208
13.684
18.424
23.421
28.664
34.14
39.835
45.736
51.824
58.082
64.491
71.029
77.677
84.412
91.211
98.049
104.903
111.746
118.553
125.298
131.956
138.499
144.901
151.138
157.184
163.015
168.607
173.939
178.989
183.736
188.161
192.245
195.973
199.327
202.293
204.86
207.016
208.751
210.057
210.928
211.36
211.349
210.895
209.998
208.661
206.889
204.687
202.063
199.029
195.595
191.775
187.585
183.04
178.16
172.963
167.469
161.7
155.677
149.422
142.959
136.312
129.504
122.559
115.501
108.354
101.143
93.891
86.621
79.357
72.122
64.937
57.825
50.807
43.903
37.132
30.513
24.062
17.796
11.728
5.872
0.239
-5.163
-10.323
-15.236
-19.896
-24.3
-28.445
-32.33
-35.954
-39.319
-42.427
-45.282
-47.887
-50.247
-52.369
-54.257
-55.92
-57.365
-58.601
-59.636
-60.48
-61.144
-61.639
-61.977
-62.169
-62.228
-62.168
-62
-61.738
-61.394
-60.981
-60.511
-59.995
-59.444
-58.869
-58.28
-57.686
-57.096
-56.517
-55.959
-55.426
-54.926
-54.464
-54.045
-53.674
-53.356
-53.094
-52.892
-52.754
-52.682
-52.678
-52.744
-52.88
-53.086
-53.363
-53.707
-54.117
-54.591
-55.124
-55.712
-56.352
-57.038
-57.765
-58.528
-59.321
-60.14
-60.979
-61.832
-62.694
-63.561
-64.427
-65.289
-66.142
-66.982
-67.805
-68.609
-69.389
-70.142
-70.865
-71.555
-72.209
-72.825
-73.399
-73.931
-74.419
-74.861
-75.258
-75.61
-75.917
-76.181
-76.403
-76.586
-76.732
-76.845
-76.929
-76.987
-77.023
-77.042
-77.048
-77.046
-77.04
-77.035
-77.034
-77.042
-77.062
-77.098
-77.153
-77.23
-77.332
-77.462
-77.623
-77.815
-78.042
-78.306
-78.606
-78.943
-79.319
-79.732
-80.183
-80.669
-81.188
-81.738
-82.316
-82.917
-83.537
-84.171
-84.811
-85.452
-86.087
-86.707
-87.304
-87.87
-88.395
-88.871
-89.288
-89.638
-89.912
-90.1
-90.193
-90.184
-90.062
-89.822
-89.454
-88.951
-88.307
-87.516
-86.572
-85.472
-84.21
-82.784
-81.192
-79.431
-77.504
-75.41
-73.152
-70.735
-68.163
-65.444
-62.585
-59.599
-56.496
-53.289
-49.995
-46.63
-43.212
-39.76
-36.294
-32.834
-29.402
-26.018
-22.703
-19.477
-16.361
-13.375
-10.542
-7.884
-5.421
-3.174
-1.163
0.594
2.079
3.277
4.178
4.776
5.064
5.033
4.668
3.961
2.912
1.524
-0.196
-2.235
-4.575
-7.185
-10.018
-13.03
-16.179
-19.428
-22.759
-26.147
-29.558
-32.952
-36.272
-39.471
-42.522
-45.402
-48.084
-50.55
-52.8
-54.876
-56.866
-58.848
-60.866
-62.928
-65.027
-67.185
-69.451
-71.885
-74.557
-77.499
-80.75
-84.398
-88.446
-92.785
-97.155
-101.087
-104.076
-105.771
-105.802
-103.752
-99.577
-93.527
-86.185
-78.622
-71.706
-65.878
-61.712
-59.813
-59.998
-61.46
-62.612
-60.988
-54.658
-42.281
-22.178
7.235
46.781
96.533
154.831
218.776
285.047
349.211
407.798
458.032
498.495
530.677
552.287
557.609
540.721
494.287
419.985
328.518
230.007
135.621
50.87
-25.626
-92.604
-148.624
-192.695
-222.527
-238.476
-242.958
-238.184
-227.047
-213.154
-199.441
-187.762
-179.076
-173.272
-169.628
-167.526
-166.193
-164.263
-160.431
-154.079
-145.102
-133.942
-121.365
-107.976
-94.332
-81.168
-69.18
-58.807
-50.299
-43.686
-38.836
-35.653
-34.038
-33.848
-34.921
-37.057
-40.052
-43.712
-47.831
-52.211
-56.661
-60.98
-65
-68.604
-71.68
-74.136
-75.917
-76.984
-77.322
-76.951
-75.896
-74.212
-71.979
-69.292
-66.269
-63.027
-59.677
-56.343
-53.12
-50.075
-47.268
-44.747
-42.539
-40.668
-39.144
-37.955
-37.091
-36.536
-36.263
-36.243
-36.431
-36.78
-37.236
-37.743
-38.253
-38.732
-39.144
-39.464
-39.668
-39.737
-39.653
-39.409
-38.991
-38.383
-37.572
-36.542
-35.281
-33.781
-32.035
-30.037
-27.783
-25.267
-22.484
-19.43
-16.099
-12.49
-8.598
-4.423
0.034
4.769
9.775
15.041
20.556
26.307
32.279
38.453
44.813
51.339
58.012
64.811
71.713
78.696
85.735
92.805
99.879
106.931
113.933
120.857
127.676
134.362
140.887
147.226
153.352
159.239
164.864
170.201
175.228
179.925
184.27
188.247
191.837
195.026
197.801
200.151
202.066
203.54
204.566
205.141
205.263
204.932
204.15
202.92
201.248
199.141
196.608
193.661
190.313
186.579
182.475
178.019
173.231
168.132
162.743
157.087
151.189
145.071
138.76
132.28
125.657
118.917
112.084
105.185
98.243
91.284
84.33
77.407
70.534
63.736
57.031
50.44
43.981
37.673
31.531
25.57
19.804
14.245
8.905
3.793
-1.085
-5.72
-10.109
-14.249
-18.137
-21.774
-25.16
-28.297
-31.19
-33.842
-36.259
-38.448
-40.416
-42.17
-43.718
-45.071
-46.238
-47.228
-48.052
-48.72
-49.242
-49.629
-49.892
-50.04
-50.085
-50.036
-49.903
-49.696
-49.424
-49.096
-48.72
-48.304
-47.855
-47.379
-46.883
-46.372
-45.849
-45.32
-44.788
-44.255
-43.723
-43.194
-42.669
-42.148
-41.632
-41.12
-40.612
-40.107
-39.604
-39.101
-38.597
-38.091
-37.581
-37.065
-36.541
-36.009
-35.466
-34.911
-34.342
-33.758
-33.158
-32.54
-31.905
-31.251
-30.577
-29.885
-29.172
-28.441
-27.69
-26.922
-26.137
-25.336
-24.522
-23.698
-22.865
-22.027
-21.187
-20.349
-19.517
-18.694
-17.884
-17.09
-16.316
-15.565
-14.842
-14.15
-13.494
-12.877
-12.302
-11.774
-11.297
-10.873
-10.505
-10.197
-9.949
-9.766
-9.649
-9.601
-9.624
-9.72
-9.889
-10.133
-10.453
-10.848
-11.317
-11.856
-12.463
-13.134
-13.865
-14.648
-15.477
-16.348
-17.256
-18.195
-19.16
-20.144
-21.141
-22.146
-23.151
-24.146
-25.12
-26.058
-26.948
-27.778
-28.536
-29.214
-29.8
-30.282
-30.651
-30.902
-31.026
-31.012
-30.845
-30.502
-29.969
-29.245
-28.334
-27.249
-26.002
-24.599
-23.053
-21.391
-19.624
-17.757
-15.78
-13.658
-11.378
-8.937
-6.35
-3.648
-0.846
2.063
5.085
8.23
11.508
14.921
18.494
22.277
26.281
30.485
34.828
39.203
43.53
47.761
51.854
55.791
59.532
63.016
66.196
69.029
71.463
73.447
74.898
75.699
75.791
75.164
73.85
71.941
69.502
66.571
63.193
59.406
55.257
50.811
46.123
41.248
36.262
31.252
26.329
21.629
17.244
13.233
9.627
6.416
3.6
1.18
-0.866
-2.553
-3.906
-4.972
-5.809
-6.501
-7.166
-7.928
-8.917
-10.267
-12.073
-14.412
-17.358
-20.96
-25.252
-30.223
-35.819
-41.966
-48.595
-55.656
-62.962
-70.149
-76.761
-82.284
-86.21
-88.14
-87.714
-84.473
-78.274
-69.401
-58.235
-45.407
-31.865
-18.424
-5.5
6.358
18.066
32.226
49.479
70.145
93.776
117.183
142.47
174.608
216.39
272.734
340.957
413.271
486.529
552.9
606.651
642.497
646.541
612.153
539.201
434.165
315.521
197.593
88.358
-8.198
-94.389
-169.836
-230.99
-275.368
-300.917
-308.575
-301.983
-284.994
-261.885
-236.829
-213.24
-193.34
-177.996
-167.075
-159.748
-154.925
-151.349
-147.51
-142.035
-134.308
-124.407
-112.798
-100.231
-87.384
-74.833
-63.271
-53.34
-45.388
-39.541
-35.715
-33.675
-33.209
-34.122
-36.163
-39.065
-42.544
-46.315
-50.155
-53.874
-57.326
-60.421
-63.073
-65.214
-66.793
-67.744
-68.037
-67.678
-66.678
-65.075
-62.923
-60.281
-57.253
-53.981
-50.598
-47.241
-44.007
-40.943
-38.094
-35.492
-33.161
-31.131
-29.411
-27.99
-26.861
-26.017
-25.442
-25.126
-25.032
-25.105
-25.286
-25.512
-25.735
-25.923
-26.046
-26.08
-26.003
-25.795
-25.445
-24.947
-24.293
-23.466
-22.453
-21.236
-19.804
-18.152
-16.277
-14.175
-11.843
-9.277
-6.472
-3.426
-0.135
3.404
7.198
11.251
15.564
20.136
24.963
30.038
35.355
40.903
46.67
52.644
58.809
65.148
71.647
78.287
85.048
91.912
98.857
105.861
112.9
119.951
126.989
133.989
140.925
147.771
154.5
161.087
167.505
173.728
179.73
185.485
190.97
196.157
201.023
205.545
209.701
213.468
216.828
219.764
222.258
224.298
225.871
226.968
227.582
227.707
227.34
226.481
225.13
223.291
220.971
218.176
214.917
211.207
207.059
202.49
197.518
192.162
186.444
180.388
174.017
167.357
160.437
153.283
145.924
138.39
130.711
122.918
115.043
107.116
99.169
91.232
83.335
75.508
67.779
60.175
52.718
45.431
38.335
31.451
24.8
18.4
12.266
6.412
0.849
-4.413
-9.364
-14.001
-18.324
-22.336
-26.041
-29.438
-32.528
-35.312
-37.794
-39.99
-41.917
-43.595
-45.039
-46.268
-47.301
-48.162
-48.873
-49.448
-49.896
-50.222
-50.436
-50.554
-50.604
-50.619
-50.619
-50.601
-50.541
-50.408
-50.193
-49.918
-49.618
-49.315
-49.007
-48.669
-48.329
-48.09
-47.986
-47.912
-47.608
-46.787
-45.369
-43.581
-41.719
-39.878
-38.171
-36.922
-36.791
-38.584
-42.64
-48.525
-55.395
-62.7
-70.052
-76.951
-82.544
-85.683
-85.759
-83.189
-79.064
-74.23
-69.194
-64.365
-60.313
-57.933
-57.805
-59.699
-62.793
-66.377
-70.064
-73.674
-77.076
-79.916
-81.886
-83.036
-83.696
-84.186
-84.674
-85.172
-85.604
-85.977
-86.355
-86.745
-87.109
-87.393
-87.566
-87.646
-87.689
-87.74
-87.818
-87.926
-88.057
-88.209
-88.39
-88.605
-88.861
-89.162
-89.507
-89.897
-90.333
-90.816
-91.344
-91.914
-92.521
-93.157
-93.816
-94.498
-95.202
-95.931
-96.679
-97.443
-98.215
-98.988
-99.755
-100.508
-101.238
-101.934
-102.586
-103.183
-103.717
-104.178
-104.555
-104.839
-105.02
-105.087
-105.032
-104.848
-104.527
-104.063
-103.451
-102.683
-101.754
-100.664
-99.416
-98.013
-96.457
-94.743
-92.874
-90.863
-88.717
-86.427
-83.974
-81.341
-78.531
-75.58
-72.524
-69.366
-66.129
-62.892
-59.776
-56.898
-54.319
-52.003
-49.901
-48.072
-46.492
-44.872
-42.953
-40.69
-38.17
-35.751
-32.844
-27.531
-18.904
-8.167
-0.157
-1.972
-16.919
-41.579
-65.636
-77.237
-70.875
-50.433
-27.544
-13.352
-12.669
-23.126
-37.132
-48.79
-56.137
-59.908
-62.638
-65.583
-68.548
-71.269
-73.444
-75.142
-76.683
-78.148
-79.494
-80.74
-81.944
-83.181
-84.517
-85.978
-87.581
-89.368
-91.408
-93.755
-96.46
-99.58
-103.152
-107.189
-111.686
-116.603
-121.901
-127.535
-133.316
-138.913
-143.878
-147.658
-149.76
-149.817
-147.525
-142.639
-135.168
-125.348
-113.676
-101.013
-88.256
-76.113
-64.927
-54.718
-45.014
-34.984
-23.667
-9.571
9.136
34.066
66.317
106.464
153.955
207.471
264.783
321.986
374.75
419.531
456.31
487.159
512.701
530.357
528.935
495.434
424.236
317.014
189.401
62.729
-48.978
-136.078
-199.704
-248.112
-285.661
-316.672
-340.989
-353.883
-353.562
-339.452
-313.865
-282.421
-249.093
-215.944
-184.313
-154.679
-128.385
-107.624
-93.222
-84.749
-81.402
-82.459
-87.295
-95.214
-104.735
-113.476
-119.877
-123.407
-123.961
-121.765
-117.066
-110.073
-101.542
-92.828
-84.836
-77.931
-72.185
-67.327
-63.186
-59.773
-56.936
-54.367
-51.89
-49.449
-47.097
-45.011
-43.284
-41.899
-40.816
-40.007
-39.458
-39.165
-39.129
-39.333
-39.733
-40.283
-40.921
-41.561
-42.136
-42.588
-42.85
-42.893
-42.713
-42.337
-41.843
-41.302
-40.751
-40.214
-39.69
-39.168
-38.651
-38.136
-37.613
-37.089
-36.567
-36.046
-35.536
-35.03
-34.502
-33.918
-33.221
-32.356
-31.284
-29.975
-28.404
-26.558
-24.423
-21.992
-19.268
-16.25
-12.934
-9.318
-5.393
-1.157
3.387
8.23
13.363
18.772
24.442
30.36
36.512
42.883
49.458
56.221
63.159
70.257
77.495
84.854
92.308
99.834
107.406
114.999
122.583
130.132
137.617
145.011
152.287
159.419
166.379
173.141
179.679
185.969
191.985
197.704
203.102
208.157
212.849
217.156
221.062
224.55
227.604
230.212
232.363
234.048
235.259
235.992
236.242
236.01
235.296
234.102
232.436
230.303
227.714
224.681
221.216
217.337
213.059
208.4
203.382
198.024
192.348
186.379
180.14
173.657
166.955
160.061
153.002
145.806
138.5
131.111
123.667
116.194
108.719
101.266
93.86
86.525
79.284
72.157
65.164
58.324
51.655
45.172
38.888
32.818
26.971
21.358
15.986
10.863
5.993
1.38
-2.973
-7.065
-10.898
-14.471
-17.788
-20.853
-23.671
-26.248
-28.591
-30.707
-32.606
-34.296
-35.787
-37.09
-38.214
-39.171
-39.971
-40.625
-41.144
-41.537
-41.816
-41.99
-42.068
-42.059
-41.972
-41.814
-41.594
-41.319
-40.995
-40.63
-40.228
-39.797
-39.34
-38.862
-38.368
-37.862
-37.346
-36.824
-36.298
-35.771
-35.244
-34.719
-34.196
-33.676
-33.161
-32.648
-32.139
-31.632
-31.127
-30.623
-30.12
-29.617
-29.114
-28.611
-28.108
-27.605
-27.103
-26.602
-26.103
-25.608
-25.116
-24.629
-24.149
-23.675
-23.21
-22.755
-22.31
-21.879
-21.461
-21.06
-20.675
-20.309
-19.964
-19.641
-19.342
-19.07
-18.828
-18.617
-18.442
-18.304
-18.208
-18.157
-18.152
-18.198
-18.295
-18.448
-18.655
-18.92
-19.243
-19.624
-20.063
-20.56
-21.114
-21.724
-22.389
-23.106
-23.873
-24.688
-25.546
-26.444
-27.379
-28.344
-29.336
-30.349
-31.376
-32.411
-33.447
-34.475
-35.487
-36.474
-37.425
-38.331
-39.181
-39.964
-40.668
-41.285
-41.801
-42.208
-42.495
-42.653
-42.672
-42.544
-42.262
-41.818
-41.206
-40.422
-39.461
-38.32
-36.997
-35.49
-33.801
-31.932
-29.885
-27.666
-25.281
-22.737
-20.045
-17.216
-14.263
-11.203
-8.053
-4.828
-1.55
1.762
5.084
8.396
11.673
14.895
18.036
21.072
23.979
26.731
29.305
31.678
33.828
35.733
37.372
38.725
39.776
40.515
40.931
41.015
40.759
40.149
39.186
37.874
36.223
34.243
31.951
29.361
26.503
23.415
20.138
16.706
13.15
9.488
5.745
1.948
-1.865
-5.646
-9.366
-13.001
-16.53
-19.938
-23.202
-26.302
-29.244
-32.071
-34.831
-37.556
-40.251
-42.885
-45.421
-47.847
-50.187
-52.473
-54.731
-56.979
-59.204
-61.438
-63.803
-66.294
-68.747
-70.836
-72.011
-71.791
-69.96
-66.22
-60.195
-51.956
-41.829
-30.574
-19.695
-10.386
-3.336
0.569
0.736
-2.45
-8.136
-14.503
-18.447
-17.417
-9.236
8.695
38.251
80.032
133.685
197.143
266.646
338.512
408.503
471.332
521.957
555.947
569.91
562.183
532.592
481.756
411.983
327.373
233.035
134.751
37.965
-52.389
-131.592
-195.694
-242.486
-271.395
-283.429
-280.774
-265.693
-241.109
-211.047
-179.525
-149.732
-124.145
-103.994
-89.751
-82.138
-81.058
-85.098
-92.46
-101.318
-109.868
-117.208
-122.829
-125.784
-125.653
-122.76
-117.701
-111.499
-105.348
-99.776
-95.02
-91.493
-89.303
-88.384
-88.606
-89.456
-90.296
-90.82
-90.886
-90.408
-89.449
-88.013
-86.068
-83.719
-81.103
-78.305
-75.397
-72.391
-69.267
-66.054
-62.811
-59.606
-56.52
-53.601
-50.869
-48.342
-46.028
-43.934
-42.069
-40.418
-38.958
-37.674
-36.554
-35.593
-34.791
-34.131
-33.594
-33.155
-32.788
-32.471
-32.186
-31.912
-31.633
-31.332
-30.992
-30.602
-30.149
-29.62
-28.999
-28.268
-27.41
-26.409
-25.251
-23.922
-22.409
-20.699
-18.783
-16.653
-14.299
-11.714
-8.892
-5.825
-2.511
1.056
4.875
8.948
13.274
17.849
22.666
27.719
32.998
38.491
44.187
50.07
56.125
62.335
68.681
75.146
81.713
88.365
95.084
101.85
108.639
115.429
122.192
128.902
135.53
142.048
148.424
154.634
160.652
166.459
172.041
177.377
182.439
187.192
191.597
195.621
199.248
202.462
205.253
207.629
209.593
211.161
212.364
213.217
213.722
213.863
213.591
212.869
211.713
210.165
208.291
206.138
203.681
200.872
197.708
194.179
190.267
185.895
180.892
175.179
168.901
162.393
155.987
149.806
143.823
137.974
132.136
126.225
120.007
112.585
104.114
95.238
85.238
74.597
61.665
44.19
25.687
8.978
-1.904
-2.418
3.29
11.079
18.003
20.07
19.356
17.798
15.07
12.177
8.442
3.434
-2.055
-7.896
-13.878
-19.615
-24.851
-29.346
-33.073
-36.322
-39.371
-42.312
-45.135
-47.809
-50.379
-52.936
-55.496
-57.931
-60.121
-62.086
-63.754
-64.866
-65.404
-65.516
-65.185
-64.739
-63.64
-59.974
-54.079
-47.79
-43.95
-48.048
-60.014
-74.273
-85.364
-85.521
-73.893
-57.92
-43.375
-36.38
-38.302
-43.614
-48.829
-51.677
-51.351
-50.104
-49.035
-48.064
-47.289
-46.386
-45.256
-44.213
-43.36
-42.647
-42.085
-41.687
-41.443
-41.339
-41.347
-41.414
-41.522
-41.693
-41.933
-42.238
-42.603
-43.026
-43.501
-44.032
-44.616
-45.245
-45.911
-46.608
-47.33
-48.071
-48.825
-49.587
-50.349
-51.107
-51.855
-52.589
-53.305
-53.999
-54.668
-55.311
-55.926
-56.512
-57.071
-57.604
-58.111
-58.594
-59.055
-59.496
-59.917
-60.322
-60.71
-61.084
-61.443
-61.789
-62.122
-62.443
-62.752
-63.049
-63.333
-63.605
-63.865
-64.111
-64.342
-64.558
-64.757
-64.936
-65.093
-65.224
-65.325
-65.391
-65.416
-65.393
-65.317
-65.18
-64.973
-64.69
-64.321
-63.858
-63.295
-62.622
-61.834
-60.922
-59.881
-58.706
-57.394
-55.941
-54.347
-52.609
-50.729
-48.709
-46.551
-44.258
-41.835
-39.286
-36.619
-33.842
-30.963
-27.993
-24.943
-21.827
-18.662
-15.466
-12.257
-9.054
-5.877
-2.749
0.31
3.279
6.137
8.868
11.451
13.866
16.091
18.105
19.89
21.43
22.709
23.714
24.43
24.851
24.975
24.802
24.33
23.551
22.45
21.019
19.26
17.179
14.785
12.098
9.14
5.945
2.57
-0.935
-4.52
-8.141
-11.774
-15.377
-18.904
-22.3
-25.497
-28.444
-31.115
-33.473
-35.498
-37.205
-38.62
-39.808
-40.875
-41.893
-42.941
-44.113
-45.48
-47.135
-49.168
-51.637
-54.645
-58.301
-62.607
-67.491
-72.741
-77.961
-82.802
-86.976
-90.08
-91.696
-91.566
-89.653
-86.318
-82.319
-78.277
-74.489
-71.236
-68.784
-67.166
-66.214
-64.995
-61.625
-54.573
-41.839
-21.323
7.356
45.202
91.153
141.586
195.558
251.556
309.863
374.208
444.624
518.254
587.718
640.247
662.938
645.615
586.304
489.421
363.554
223.619
82.103
-47.42
-148.769
-216.696
-251.232
-259.399
-257.603
-254.403
-252.016
-249.29
-239.708
-221.771
-198.752
-173.711
-150.218
-130.173
-113.681
-100.988
-92.421
-87.799
-86.555
-88.251
-92.54
-98.661
-105.539
-112.102
-117.139
-120.007
-120.707
-119.25
-115.801
-110.902
-105.331
-99.815
-95.045
-91.375
-88.762
-87.063
-86.036
-85.346
-84.618
-83.594
-82.152
-80.275
-78.091
-75.786
-73.514
-71.403
-69.551
-67.956
-66.548
-65.287
-64.136
-63.09
-62.189
-61.442
-60.844
-60.408
-60.113
-59.927
-59.798
-59.621
-59.299
-58.79
-58.083
-57.213
-56.256
-55.247
-54.211
-53.179
-52.158
-51.152
-50.162
-49.165
-48.14
-47.08
-45.994
-44.909
-43.853
-42.827
-41.816
-40.792
-39.709
-38.535
-37.236
-35.774
-34.12
-32.254
-30.16
-27.837
-25.291
-22.517
-19.511
-16.263
-12.763
-9.005
-4.99
-0.719
3.803
8.569
13.571
18.796
24.229
29.86
35.675
41.665
47.818
54.12
60.557
67.112
73.765
80.496
87.281
94.097
100.917
107.714
114.462
121.133
127.7
134.135
140.412
146.504
152.385
158.028
163.409
168.503
173.287
177.738
181.835
185.559
188.89
191.812
194.311
196.374
197.991
199.154
199.855
200.091
199.859
199.16
197.996
196.371
194.291
191.765
188.805
185.424
181.639
177.467
172.928
168.043
162.834
157.326
151.543
145.511
139.257
132.807
126.189
119.431
112.559
105.603
98.588
91.543
84.492
77.463
70.478
63.562
56.736
50.022
43.438
37.002
30.732
24.642
18.745
13.052
7.575
2.321
-2.704
-7.494
-12.048
-16.362
-20.439
-24.28
-27.888
-31.268
-34.426
-37.367
-40.1
-42.633
-44.974
-47.132
-49.118
-50.942
-52.613
-54.143
-55.541
-56.817
-57.983
-59.048
-60.022
-60.913
-61.731
-62.483
-63.178
-63.822
-64.424
-64.988
-65.521
-66.028
-66.512
-66.978
-67.428
-67.864
-68.287
-68.699
-69.098
-69.484
-69.856
-70.212
-70.551
-70.871
-71.169
-71.443
-71.691
-71.91
-72.098
-72.254
-72.374
-72.458
-72.502
-72.506
-72.469
-72.391
-72.269
-72.099
-71.881
-71.612
-71.294
-70.927
-70.508
-70.031
-69.504
-68.935
-68.331
-67.701
-67.037
-66.325
-65.579
-64.817
-64.008
-63.131
-62.17
-61.099
-59.947
-58.77
-57.542
-56.219
-54.934
-53.848
-52.871
-52.016
-51.315
-50.434
-50.284
-51.748
-53.573
-55.379
-54.859
-49.248
-41.613
-33.999
-29.449
-32.144
-38.392
-45.065
-50.02
-49.717
-46.691
-43.515
-40.759
-39.99
-40.296
-40.507
-40.839
-41.139
-41.477
-42.085
-42.801
-43.496
-44.205
-44.931
-45.654
-46.375
-47.1
-47.826
-48.568
-49.342
-50.126
-50.897
-51.648
-52.364
-53.03
-53.634
-54.16
-54.599
-54.942
-55.18
-55.295
-55.266
-55.077
-54.721
-54.194
-53.493
-52.622
-51.588
-50.413
-49.137
-47.796
-46.413
-44.994
-43.529
-42.011
-40.435
-38.797
-37.092
-35.299
-33.39
-31.346
-29.161
-26.823
-24.305
-21.551
-18.471
-14.995
-11.089
-6.755
-2.026
3.063
8.462
14.104
19.892
25.693
31.387
36.88
42.098
46.967
51.389
55.229
58.325
60.548
61.811
62.067
61.292
59.475
56.645
52.871
48.27
43.006
37.223
31.039
24.573
17.937
11.258
4.693
-1.607
-7.514
-12.918
-17.733
-21.884
-25.304
-27.989
-29.969
-31.305
-32.111
-32.492
-32.56
-32.482
-32.404
-32.46
-32.779
-33.451
-34.557
-36.208
-38.486
-41.479
-45.257
-49.788
-55.064
-61.112
-67.794
-74.885
-81.995
-88.453
-93.69
-97.287
-98.731
-97.667
-94.021
-87.854
-79.778
-70.856
-61.9
-53.689
-46.978
-41.885
-38.075
-34.789
-30.277
-22.37
-9.113
11.527
41.495
81.916
132.726
192.922
259.328
326.873
391.901
451.188
502.446
546.292
579.002
593.126
582.172
538.461
463.176
367.171
261.124
157.096
61.522
-26.248
-104.626
-171.758
-225.629
-263.033
-284.038
-291.145
-286.699
-273.873
-256.305
-237.086
-219.098
-204.175
-192.574
-183.822
-177.354
-172.376
-167.817
-162.541
-155.403
-145.884
-134.265
-121.163
-107.292
-93.303
-79.756
-67.243
-56.381
-47.564
-40.893
-36.296
-33.57
-32.498
-32.906
-34.596
-37.316
-40.798
-44.773
-48.963
-53.137
-57.136
-60.821
-64.079
-66.812
-68.909
-70.299
-70.967
-70.919
-70.184
-68.802
-66.81
-64.272
-61.302
-58.034
-54.62
-51.211
-47.902
-44.761
-41.849
-39.207
-36.883
-34.906
-33.271
-31.96
-30.96
-30.254
-29.831
-29.673
-29.731
-29.95
-30.269
-30.622
-30.961
-31.251
-31.455
-31.546
-31.499
-31.293
-30.92
-30.376
-29.651
-28.731
-27.602
-26.248
-24.659
-22.831
-20.758
-18.436
-15.862
-13.03
-9.938
-6.585
-2.966
0.919
5.074
9.501
14.198
19.16
24.381
29.849
35.555
41.485
47.625
53.958
60.468
67.136
73.945
80.875
87.907
95.02
102.192
109.399
116.619
123.825
130.994
138.098
145.112
152.009
158.761
165.344
171.729
177.892
183.808
189.451
194.798
199.826
204.514
208.841
212.79
216.343
219.486
222.206
224.491
226.332
227.722
228.656
229.129
229.139
228.686
227.771
226.398
224.572
222.3
219.592
216.458
212.913
208.971
204.649
199.967
194.944
189.602
183.965
178.056
171.901
165.526
158.957
152.221
145.344
138.354
131.277
124.14
116.967
109.783
102.613
95.479
88.403
81.407
74.511
67.733
61.09
54.601
48.279
42.139
36.192
30.451
24.925
19.621
14.545
9.703
5.097
0.729
-3.401
-7.295
-10.956
-14.387
-17.594
-20.583
-23.361
-25.934
-28.312
-30.501
-32.512
-34.351
-36.029
-37.553
-38.931
-40.173
-41.284
-42.275
-43.151
-43.92
-44.588
-45.164
-45.653
-46.061
-46.395
-46.66
-46.862
-47.006
-47.096
-47.136
-47.13
-47.08
-46.99
-46.86
-46.692
-46.488
-46.249
-45.974
-45.664
-45.32
-44.943
-44.531
-44.087
-43.611
-43.104
-42.568
-42.004
-41.415
-40.804
-40.173
-39.526
-38.866
-38.196
-37.52
-36.842
-36.164
-35.49
-34.824
-34.167
-33.523
-32.896
-32.288
-31.702
-31.142
-30.611
-30.111
-29.645
-29.218
-28.831
-28.488
-28.192
-27.945
-27.75
-27.609
-27.525
-27.498
-27.529
-27.62
-27.769
-27.976
-28.239
-28.557
-28.927
-29.346
-29.811
-30.319
-30.866
-31.447
-32.059
-32.699
-33.36
-34.039
-34.731
-35.431
-36.135
-36.836
-37.53
-38.21
-38.871
-39.507
-40.111
-40.675
-41.194
-41.658
-42.061
-42.395
-42.653
-42.827
-42.909
-42.895
-42.775
-42.546
-42.202
-41.738
-41.149
-40.431
-39.581
-38.598
-37.478
-36.222
-34.827
-33.295
-31.625
-29.819
-27.88
-25.81
-23.613
-21.294
-18.858
-16.313
-13.666
-10.927
-8.107
-5.219
-2.277
0.703
3.704
6.71
9.703
12.664
15.576
18.424
21.189
23.855
26.405
28.822
31.085
33.178
35.083
36.783
38.261
39.503
40.495
41.234
41.714
41.926
41.863
41.509
40.852
39.891
38.623
37.051
35.188
33.048
30.667
28.097
25.385
22.575
19.707
16.802
13.887
11.004
8.191
5.5
2.979
0.643
-1.484
-3.377
-5.034
-6.485
-7.806
-9.126
-10.56
-12.185
-14.054
-16.211
-18.723
-21.681
-25.171
-29.276
-34.028
-39.459
-45.669
-52.648
-60.235
-68.106
-75.673
-82.323
-87.673
-91.298
-92.702
-91.814
-88.777
-84.042
-78.773
-73.855
-69.642
-66.704
-65.417
-65.312
-65.675
-65.109
-61.043
-51.492
-35.081
-10.108
24.719
69.849
125.055
188.919
257.66
326.439
392.087
451.627
503.285
548.061
581.963
597.287
587.672
545.042
469.671
371.982
261.941
151.064
46.756
-50.784
-139.456
-216.433
-278.974
-323.414
-349.028
-357.853
-352.713
-337.257
-315.537
-291.308
-267.915
-247.548
-230.986
-218.124
-208.33
-200.693
-194.024
-186.949
-178.204
-167.248
-154.294
-139.885
-124.762
-109.625
-95.087
-81.873
-70.699
-61.93
-55.627
-51.652
-49.718
-49.568
-50.994
-53.71
-57.387
-61.701
-66.327
-71.015
-75.572
-79.826
-83.632
-86.853
-89.353
-91.061
-91.954
-92.035
-91.341
-89.917
-87.814
-85.116
-81.933
-78.398
-74.661
-70.862
-67.129
-63.567
-60.25
-57.248
-54.62
-52.4
-50.599
-49.216
-48.233
-47.63
-47.392
-47.488
-47.88
-48.517
-49.344
-50.3
-51.326
-52.369
-53.39
-54.353
-55.227
-55.986
-56.611
-57.086
-57.4
-57.54
-57.485
-57.22
-56.725
-55.99
-55.003
-53.759
-52.254
-50.482
-48.439
-46.122
-43.525
-40.644
-37.471
-33.998
-30.218
-26.128
-21.731
-17.031
-12.039
-6.767
-1.23
4.552
10.561
16.78
23.197
29.807
36.6
43.557
50.654
57.856
65.118
72.399
79.654
86.828
93.876
100.764
107.466
113.985
120.323
126.473
132.419
138.126
143.559
148.703
153.545
158.081
162.335
166.327
170.089
173.695
177.196
180.625
183.993
187.246
190.306
193.116
195.619
197.776
199.56
200.911
201.787
202.153
201.948
201.122
199.606
197.267
193.992
189.7
184.329
177.918
170.563
162.342
153.364
143.741
133.583
123.046
112.259
101.315
90.321
79.368
68.566
58.094
48.121
38.796
30.264
22.58
15.742
9.755
4.574
0.128
-3.667
-6.945
-9.817
-12.341
-14.572
-16.546
-18.308
-19.95
-21.563
-23.228
-25.04
-27.052
-29.285
-31.765
-34.478
-37.381
-40.415
-43.485
-46.508
-49.446
-52.274
-54.981
-57.564
-60.001
-62.272
-64.37
-66.271
-67.957
-69.419
-70.643
-71.632
-72.408
-73.003
-73.465
-73.838
-74.149
-74.414
-74.647
-74.849
-75.027
-75.18
-75.302
-75.391
-75.451
-75.485
-75.503
-75.509
-75.5
-75.473
-75.422
-75.34
-75.22
-75.06
-74.855
-74.605
-74.31
-73.972
-73.597
-73.188
-72.749
-72.281
-71.784
-71.259
-70.707
-70.129
-69.523
-68.892
-68.236
-67.557
-66.859
-66.144
-65.413
-64.669
-63.916
-63.155
-62.389
-61.621
-60.854
-60.09
-59.333
-58.586
-57.853
-57.137
-56.441
-55.77
-55.126
-54.514
-53.937
-53.398
-52.899
-52.444
-52.035
-51.674
-51.362
-51.099
-50.887
-50.723
-50.608
-50.54
-50.515
-50.531
-50.586
-50.678
-50.804
-50.964
-51.153
-51.368
-51.606
-51.864
-52.133
-52.405
-52.668
-52.911
-53.126
-53.303
-53.432
-53.506
-53.512
-53.443
-53.294
-53.057
-52.722
-52.274
-51.689
-50.957
-50.076
-49.051
-47.895
-46.619
-45.229
-43.739
-42.176
-40.55
-38.866
-37.113
-35.258
-33.285
-31.193
-28.995
-26.722
-24.389
-21.99
-19.52
-16.967
-14.32
-11.575
-8.707
-5.665
-2.436
0.963
4.477
7.999
11.451
14.785
17.959
20.958
23.747
26.267
28.473
30.325
31.78
32.801
33.317
33.217
32.44
30.969
28.837
26.154
22.996
19.409
15.448
11.163
6.62
1.921
-2.863
-7.684
-12.486
-17.216
-21.783
-26.047
-29.914
-33.313
-36.228
-38.702
-40.755
-42.381
-43.619
-44.532
-45.212
-45.797
-46.366
-46.945
-47.589
-48.355
-49.337
-50.665
-52.437
-54.703
-57.523
-60.971
-65.02
-69.547
-74.258
-78.665
-82.312
-84.868
-85.944
-85.102
-82.236
-77.537
-71.534
-65.205
-59.232
-53.842
-49.465
-46.589
-45.036
-44.111
-42.394
-37.696
-28.413
-13.547
8.364
38.751
78.224
126.861
183.283
244.747
309.002
372.537
430.821
480.564
517.66
540.792
550.195
542.324
515.359
465.332
389.745
294.575
185.973
75.057
-26.959
-114.924
-183.236
-232.913
-267.079
-287.166
-297.167
-297.114
-287.109
-269.792
-246.691
-221.319
-196.883
-174.249
-154.194
-137.228
-123.144
-111.887
-103.627
-97.929
-94.356
-92.881
-93.022
-93.872
-94.956
-95.792
-95.677
-94.477
-92.195
-88.704
-84.409
-80.007
-75.84
-72.235
-69.535
-67.698
-66.621
-66.215
-66.129
-65.957
-65.497
-64.61
-63.217
-61.392
-59.189
-56.663
-53.935
-51.123
-48.3
-45.52
-42.812
-40.191
-37.705
-35.413
-33.358
-31.57
-30.064
-28.839
-27.893
-27.214
-26.777
-26.551
-26.504
-26.615
-26.864
-27.236
-27.712
-28.268
-28.881
-29.521
-30.163
-30.778
-31.34
-31.828
-32.221
-32.502
-32.654
-32.665
-32.517
-32.197
-31.685
-30.966
-30.023
-28.841
-27.405
-25.704
-23.728
-21.467
-18.917
-16.074
-12.932
-9.492
-5.753
-1.716
2.615
7.234
12.136
17.312
22.749
28.436
34.358
40.499
46.843
53.369
60.059
66.89
73.842
80.89
88.01
95.179
102.369
109.555
116.711
123.809
130.821
137.721
144.481
151.074
157.474
163.655
169.592
175.262
180.64
185.706
190.438
194.817
198.825
202.446
205.665
208.471
210.853
212.802
214.312
215.38
216.002
216.18
215.913
215.207
214.065
212.496
210.508
208.113
205.321
202.149
198.61
194.722
190.503
185.973
181.15
176.055
170.711
165.139
159.361
153.402
147.283
141.028
134.661
128.205
121.683
115.117
108.528
101.938
95.365
88.828
82.345
75.932
69.605
63.378
57.263
51.272
45.417
39.707
34.149
28.752
23.52
18.458
13.571
8.862
4.332
-0.016
-4.181
-8.163
-11.96
-15.575
-19.008
-22.26
-25.333
-28.231
-30.957
-33.513
-35.904
-38.133
-40.205
-42.123
-43.893
-45.517
-47
-48.347
-49.561
-50.647
-51.61
-52.453
-53.179
-53.794
-54.3
-54.7
-54.998
-55.197
-55.301
-55.312
-55.236
-55.076
-54.837
-54.524
-54.143
-53.7
-53.201
-52.65
-52.056
-51.423
-50.757
-50.065
-49.353
-48.626
-47.891
-47.152
-46.415
-45.686
-44.968
-44.266
-43.584
-42.925
-42.292
-41.689
-41.118
-40.583
-40.086
-39.632
-39.223
-38.862
-38.551
-38.294
-38.091
-37.944
-37.853
-37.818
-37.839
-37.913
-38.039
-38.214
-38.437
-38.704
-39.013
-39.36
-39.742
-40.155
-40.597
-41.063
-41.55
-42.056
-42.577
-43.111
-43.657
-44.214
-44.779
-45.351
-45.928
-46.508
-47.089
-47.666
-48.236
-48.794
-49.336
-49.857
-50.351
-50.811
-51.234
-51.615
-51.952
-52.24
-52.476
-52.658
-52.78
-52.843
-52.843
-52.775
-52.632
-52.408
-52.097
-51.696
-51.201
-50.608
-49.912
-49.107
-48.192
-47.167
-46.028
-44.772
-43.384
-41.854
-40.176
-38.362
-36.426
-34.382
-32.241
-30.015
-27.724
-25.394
-23.042
-20.672
-18.269
-15.816
-13.31
-10.765
-8.209
-5.673
-3.17
-0.694
1.765
4.205
6.621
9.017
11.419
13.868
16.372
18.895
21.36
23.685
25.821
27.74
29.434
30.885
32.061
32.915
33.417
33.556
33.315
32.661
31.521
29.804
27.473
24.559
21.143
17.31
13.117
8.608
3.831
-1.136
-6.206
-11.301
-16.372
-21.392
-26.31
-31.051
-35.498
-39.518
-43.036
-46.039
-48.543
-50.564
-52.124
-53.264
-54.067
-54.67
-55.181
-55.667
-56.179
-56.764
-57.508
-58.529
-59.961
-61.905
-64.449
-67.714
-71.702
-76.313
-81.29
-86.111
-90.223
-93.203
-94.558
-93.765
-90.741
-85.642
-79.002
-72.102
-65.963
-61.16
-58.534
-58.686
-61.254
-65.457
-69.592
-70.545
-65.82
-53.52
-31.085
3.592
51.335
112.277
183.703
259.653
335.336
407.193
474.233
538.125
596.673
641.901
660.645
639.849
575.989
477.986
363.458
249.356
142.646
40.765
-60.189
-158.671
-243.588
-299.634
-319.488
-305.387
-269.267
-229.214
-196.234
-175.535
-167.662
-165.457
-164.885
-164.188
-161.112
-158.23
-156.551
-154.849
-153.089
-149.724
-143.885
-136.37
-127.719
-118.703
-110.173
-102.587
-96.351
-91.71
-88.617
-86.877
-86.221
-86.414
-87.267
-88.586
-90.171
-91.809
-93.307
-94.515
-95.348
-95.748
-95.671
-95.1
-94.025
-92.471
-90.496
-88.169
-85.556
-82.718
-79.709
-76.578
-73.39
-70.219
-67.136
-64.214
-61.499
-59.021
-56.8
-54.844
-53.154
-51.722
-50.522
-49.525
-48.703
-48.038
-47.51
-47.103
-46.796
-46.564
-46.384
-46.231
-46.084
-45.924
-45.731
-45.487
-45.173
-44.776
-44.283
-43.681
-42.956
-42.093
-41.077
-39.892
-38.524
-36.959
-35.185
-33.188
-30.959
-28.49
-25.773
-22.804
-19.578
-16.091
-12.344
-8.335
-4.067
0.459
5.236
10.259
15.521
21.012
26.721
32.637
38.745
45.031
51.479
58.069
64.784
71.603
78.505
85.467
92.466
99.478
106.479
113.444
120.348
127.165
133.869
140.435
146.838
153.053
159.055
164.82
170.325
175.548
180.466
185.06
189.309
193.197
196.705
199.819
202.526
204.812
206.669
208.086
209.058
209.58
209.648
209.263
208.425
207.138
205.406
203.238
200.643
197.631
194.216
190.411
186.233
181.698
176.825
171.636
166.151
160.392
154.384
148.151
141.719
135.113
128.36
121.486
114.519
107.483
100.407
93.315
86.234
79.189
72.202
65.299
58.501
51.829
45.302
38.94
32.759
26.774
20.999
15.446
10.125
5.046
0.216
-4.359
-8.674
-12.726
-16.513
-20.036
-23.295
-26.294
-29.036
-31.527
-33.773
-35.782
-37.564
-39.126
-40.48
-41.635
-42.605
-43.4
-44.034
-44.518
-44.866
-45.09
-45.204
-45.22
-45.15
-45.006
-44.799
-44.541
-44.241
-43.908
-43.552
-43.181
-42.803
-42.424
-42.052
-41.692
-41.349
-41.028
-40.732
-40.465
-40.228
-40.024
-39.853
-39.715
-39.612
-39.541
-39.502
-39.493
-39.512
-39.558
-39.626
-39.714
-39.818
-39.934
-40.06
-40.19
-40.322
-40.451
-40.574
-40.689
-40.791
-40.879
-40.95
-41.002
-41.033
-41.041
-41.026
-40.986
-40.92
-40.83
-40.714
-40.573
-40.409
-40.223
-40.015
-39.789
-39.546
-39.288
-39.018
-38.738
-38.451
-38.161
-37.871
-37.585
-37.307
-37.041
-36.791
-36.562
-36.357
-36.182
-36.039
-35.932
-35.865
-35.841
-35.862
-35.931
-36.05
-36.221
-36.443
-36.718
-37.046
-37.424
-37.851
-38.326
-38.844
-39.404
-40
-40.628
-41.283
-41.961
-42.656
-43.36
-44.069
-44.773
-45.466
-46.14
-46.784
-47.391
-47.95
-48.451
-48.886
-49.244
-49.515
-49.69
-49.759
-49.713
-49.543
-49.241
-48.798
-48.208
-47.465
-46.563
-45.498
-44.269
-42.874
-41.311
-39.582
-37.689
-35.636
-33.426
-31.066
-28.561
-25.919
-23.151
-20.265
-17.275
-14.194
-11.036
-7.82
-4.564
-1.286
1.991
5.248
8.463
11.614
14.679
17.639
20.473
23.161
25.684
28.021
30.15
32.053
33.711
35.107
36.227
37.057
37.587
37.815
37.737
37.35
36.651
35.628
34.272
32.584
30.567
28.229
25.586
22.661
19.487
16.117
12.602
8.991
5.33
1.648
-2.018
-5.624
-9.117
-12.437
-15.527
-18.355
-20.893
-23.106
-24.988
-26.569
-27.905
-29.105
-30.268
-31.456
-32.74
-34.19
-35.889
-37.949
-40.471
-43.522
-47.198
-51.598
-56.739
-62.554
-68.809
-75.07
-80.87
-85.794
-89.401
-91.221
-90.994
-88.771
-84.937
-80.284
-75.618
-71.397
-68.018
-65.998
-65.409
-65.658
-65.591
-63.26
-56.563
-43.964
-23.94
5.155
44.454
94.399
154.492
222.877
295.949
369.029
437.34
496.786
546.4
587.237
618.308
635.469
630.103
592.403
518.097
409.371
275.81
131.87
-7.637
-127.751
-218.128
-275.455
-303.022
-310.781
-308.023
-299.357
-285.837
-265.635
-238.933
-209.385
-181.186
-158.133
-142.459
-134.66
-133.929
-138.439
-145.639
-152.613
-157.517
-159.675
-158.586
-153.792
-145.318
-133.615
-119.908
-106.103
-93.371
-82.158
-72.778
-65.4
-60.169
-57.181
-56.149
-56.408
-57.475
-59.073
-61.015
-63.267
-65.738
-68.266
-70.738
-73.082
-75.258
-77.238
-78.979
-80.388
-81.362
-81.839
-81.794
-81.253
-80.266
-78.888
-77.17
-75.149
-72.888
-70.458
-67.95
-65.466
-63.065
-60.779
-58.635
-56.662
-54.903
-53.394
-52.139
-51.116
-50.304
-49.679
-49.224
-48.924
-48.741
-48.627
-48.536
-48.412
-48.22
-47.933
-47.526
-46.976
-46.26
-45.358
-44.258
-42.956
-41.441
-39.699
-37.717
-35.483
-32.989
-30.238
-27.226
-23.957
-20.435
-16.66
-12.635
-8.356
-3.813
1
6.076
11.406
16.968
22.732
28.669
34.747
40.923
47.165
53.451
59.767
66.123
72.53
78.983
85.466
91.948
98.395
104.8
111.16
117.474
123.761
130.036
136.319
142.662
149.09
155.589
162.121
168.599
174.916
181.001
186.8
192.272
197.391
202.105
206.361
210.121
213.326
215.915
217.817
218.917
219.133
218.447
216.871
214.484
211.397
207.684
203.408
198.631
193.395
187.753
181.762
175.453
168.867
162.066
155.122
148.149
141.246
134.458
127.806
121.268
114.792
108.355
101.941
95.525
89.105
82.678
76.246
69.836
63.475
57.174
50.932
44.727
38.54
32.375
26.248
20.188
14.238
8.431
2.794
-2.638
-7.841
-12.798
-17.5
-21.949
-26.155
-30.119
-33.841
-37.315
-40.535
-43.501
-46.216
-48.683
-50.912
-52.91
-54.685
-56.251
-57.619
-58.796
-59.792
-60.611
-61.256
-61.733
-62.047
-62.205
-62.214
-62.082
-61.818
-61.431
-60.932
-60.331
-59.636
-58.856
-58
-57.076
-56.093
-55.058
-53.979
-52.865
-51.722
-50.559
-49.383
-48.201
-47.02
-45.846
-44.686
-43.544
-42.427
-41.339
-40.284
-39.266
-38.29
-37.359
-36.477
-35.645
-34.868
-34.146
-33.483
-32.88
-32.335
-31.851
-31.426
-31.059
-30.75
-30.496
-30.296
-30.148
-30.05
-29.999
-29.993
-30.028
-30.101
-30.209
-30.349
-30.517
-30.709
-30.922
-31.154
-31.401
-31.661
-31.93
-32.208
-32.492
-32.779
-33.069
-33.359
-33.65
-33.94
-34.229
-34.516
-34.803
-35.089
-35.376
-35.664
-35.955
-36.25
-36.551
-36.859
-37.176
-37.504
-37.845
-38.2
-38.572
-38.963
-39.373
-39.806
-40.26
-40.738
-41.239
-41.763
-42.31
-42.877
-43.464
-44.069
-44.689
-45.32
-45.96
-46.604
-47.246
-47.883
-48.507
-49.112
-49.691
-50.236
-50.74
-51.194
-51.59
-51.92
-52.175
-52.347
-52.428
-52.409
-52.282
-52.039
-51.673
-51.177
-50.543
-49.768
-48.844
-47.77
-46.543
-45.159
-43.619
-41.921
-40.068
-38.061
-35.904
-33.602
-31.158
-28.582
-25.881
-23.067
-20.149
-17.142
-14.06
-10.919
-7.738
-4.534
-1.329
1.859
5.01
8.102
11.114
14.03
16.829
19.493
22.004
24.341
26.486
28.42
30.126
31.586
32.787
33.711
34.35
34.699
34.755
34.513
33.967
33.103
31.913
30.398
28.563
26.412
23.964
21.237
18.273
15.128
11.858
8.516
5.147
1.78
-1.547
-4.787
-7.889
-10.794
-13.453
-15.842
-17.935
-19.702
-21.142
-22.281
-23.2
-24.024
-24.875
-25.842
-26.988
-28.38
-30.101
-32.251
-34.934
-38.235
-42.191
-46.841
-52.254
-58.393
-65.105
-72.082
-78.78
-84.689
-89.423
-92.522
-93.61
-92.611
-89.592
-84.975
-79.559
-73.783
-67.949
-62.582
-57.763
-53.1
-47.931
-40.822
-30.064
-14.684
6.342
34.502
70.625
115.104
167.851
226.161
285.994
344.764
399.134
448.703
497.194
543.233
583.643
611.017
609.682
571.885
495.919
384.67
253.712
116.545
-13.828
-120.916
-198.546
-244.779
-264.143
-271.166
-274.424
-277.62
-280.507
-276.864
-265.578
-249.839
-232.6
-217.739
-206.586
-197.991
-191.217
-185.421
-179.246
-171.563
-161.785
-149.804
-136.16
-121.716
-107.066
-92.674
-79.191
-67.326
-57.576
-50.189
-45.103
-42.051
-40.795
-41.132
-42.85
-45.68
-49.309
-53.421
-57.708
-61.932
-65.936
-69.579
-72.738
-75.301
-77.151
-78.224
-78.516
-78.047
-76.853
-74.988
-72.496
-69.451
-65.985
-62.241
-58.38
-54.56
-50.877
-47.403
-44.202
-41.324
-38.816
-36.708
-34.993
-33.652
-32.673
-32.037
-31.732
-31.733
-31.99
-32.444
-33.033
-33.689
-34.363
-35.015
-35.607
-36.108
-36.491
-36.733
-36.822
-36.75
-36.505
-36.07
-35.427
-34.559
-33.455
-32.107
-30.508
-28.654
-26.538
-24.155
-21.502
-18.577
-15.374
-11.892
-8.128
-4.079
0.253
4.863
9.743
14.882
20.269
25.889
31.727
37.763
43.98
50.358
56.875
63.511
70.243
77.049
83.904
90.783
97.662
104.513
111.311
118.029
124.641
131.121
137.441
143.578
149.505
155.199
160.636
165.794
170.65
175.183
179.375
183.207
186.663
189.728
192.39
194.637
196.461
197.856
198.816
199.338
199.421
199.066
198.275
197.051
195.401
193.331
190.851
187.971
184.704
181.064
177.065
172.724
168.06
163.091
157.837
152.319
146.558
140.577
134.399
128.047
121.546
114.919
108.191
101.385
94.525
87.633
80.733
73.845
66.991
60.19
53.461
46.822
40.291
33.883
27.614
21.496
15.542
9.764
4.171
-1.228
-6.426
-11.416
-16.194
-20.756
-25.098
-29.219
-33.12
-36.799
-40.26
-43.504
-46.536
-49.359
-51.98
-54.403
-56.635
-58.683
-60.554
-62.255
-63.795
-65.181
-66.421
-67.522
-68.494
-69.344
-70.08
-70.71
-71.241
-71.682
-72.038
-72.317
-72.525
-72.67
-72.757
-72.791
-72.779
-72.726
-72.635
-72.512
-72.361
-72.185
-71.987
-71.771
-71.537
-71.29
-71.029
-70.757
-70.476
-70.185
-69.887
-69.581
-69.268
-68.949
-68.623
-68.291
-67.953
-67.608
-67.257
-66.899
-66.534
-66.163
-65.784
-65.398
-65.004
-64.602
-64.192
-63.774
-63.348
-62.914
-62.472
-62.023
-61.567
-61.105
-60.638
-60.167
-59.694
-59.219
-58.744
-58.27
-57.8
-57.334
-56.874
-56.423
-55.982
-55.554
-55.14
-54.742
-54.363
-54.004
-53.667
-53.352
-53.063
-52.799
-52.562
-52.353
-52.172
-52.019
-51.895
-51.8
-51.732
-51.691
-51.674
-51.68
-51.705
-51.747
-51.802
-51.866
-51.934
-52.003
-52.068
-52.122
-52.16
-52.177
-52.165
-52.119
-52.03
-51.891
-51.695
-51.435
-51.104
-50.695
-50.201
-49.617
-48.935
-48.152
-47.261
-46.259
-45.141
-43.903
-42.545
-41.063
-39.458
-37.731
-35.883
-33.916
-31.836
-29.648
-27.357
-24.971
-22.499
-19.948
-17.33
-14.656
-11.94
-9.193
-6.432
-3.674
-0.935
1.762
4.4
6.959
9.418
11.758
13.959
16.003
17.874
19.557
21.037
22.299
23.325
24.101
24.613
24.851
24.806
24.469
23.833
22.898
21.671
20.156
18.358
16.278
13.908
11.246
8.302
5.084
1.609
-2.097
-6.009
-10.085
-14.27
-18.51
-22.757
-26.969
-31.121
-35.175
-39.087
-42.806
-46.266
-49.421
-52.242
-54.692
-56.75
-58.435
-59.772
-60.828
-61.704
-62.463
-63.173
-63.92
-64.77
-65.82
-67.171
-68.885
-71.069
-73.858
-77.282
-81.281
-85.658
-89.999
-93.896
-97.045
-99.057
-99.499
-98.165
-95.125
-90.815
-86.135
-81.944
-78.641
-76.539
-76.045
-77.144
-79.257
-81.215
-80.952
-76.244
-65.67
-48.01
-21.7
14.354
60.579
116.838
180.324
246.222
311.125
371.466
426.477
479.295
528.515
569.378
592.893
585.051
539.166
457.387
347.222
221.373
90.993
-36.552
-151.793
-243.313
-304.13
-331.951
-332.671
-320.495
-305.354
-291.981
-281.15
-268.689
-253.817
-238.574
-224.568
-214.09
-207.338
-202.738
-198.911
-194.207
-187.226
-177.563
-165.331
-150.967
-135.262
-118.95
-102.672
-87.184
-73.213
-61.192
-51.331
-43.611
-37.841
-33.856
-31.507
-30.626
-31
-32.385
-34.539
-37.25
-40.349
-43.687
-47.105
-50.403
-53.411
-55.999
-58.054
-59.53
-60.397
-60.626
-60.219
-59.195
-57.599
-55.514
-53.039
-50.264
-47.278
-44.166
-41.014
-37.941
-35.039
-32.37
-29.987
-27.91
-26.151
-24.729
-23.64
-22.862
-22.37
-22.127
-22.09
-22.228
-22.502
-22.862
-23.26
-23.634
-23.931
-24.113
-24.148
-24.008
-23.672
-23.114
-22.32
-21.284
-19.999
-18.456
-16.646
-14.559
-12.187
-9.529
-6.585
-3.356
0.155
3.946
8.016
12.36
16.975
21.855
26.996
32.393
38.038
43.92
50.026
56.34
62.845
69.523
76.354
83.316
90.386
97.543
104.763
112.022
119.297
126.563
133.795
140.966
148.053
155.029
161.87
168.551
175.049
181.34
187.403
193.218
198.764
204.022
208.974
213.603
217.893
221.828
225.395
228.58
231.373
233.765
235.747
237.314
238.461
239.186
239.488
239.368
238.828
237.872
236.505
234.735
232.57
230.019
227.094
223.809
220.176
216.212
211.931
207.352
202.492
197.367
191.998
186.402
180.599
174.608
168.45
162.146
155.716
149.182
142.564
135.885
129.163
122.421
115.678
108.953
102.265
95.632
89.071
82.6
76.234
69.987
63.873
57.905
52.095
46.453
40.988
35.708
30.621
25.733
21.048
16.572
12.309
8.262
4.433
0.824
-2.564
-5.731
-8.679
-11.409
-13.924
-16.228
-18.323
-20.216
-21.912
-23.416
-24.734
-25.874
-26.841
-27.644
-28.29
-28.786
-29.14
-29.361
-29.454
-29.429
-29.292
-29.051
-28.712
-28.283
-27.771
-27.182
-26.524
-25.804
-25.029
-24.205
-23.34
-22.441
-21.513
-20.564
-19.599
-18.624
-17.644
-16.664
-15.688
-14.72
-13.765
-12.826
-11.906
-11.006
-10.13
-9.28
-8.456
-7.661
-6.895
-6.16
-5.457
-4.786
-4.149
-3.546
-2.977
-2.442
-1.939
-1.466
-1.029
-0.628
-0.264
0.065
0.364
0.634
0.865
1.062
1.248
1.438
1.65
1.887
2.119
2.342
2.588
2.835
3.013
3.07
2.947
2.635
2.221
1.729
1.064
0.322
-0.162
-0.319
-0.248
0.093
0.342
1.167
4.66
10.369
16.373
19.507
13.817
-0.332
-16.965
-30.128
-31.365
-20.137
-4.438
9.55
15.158
11.22
3.718
-3.675
-8.449
-9.841
-10.283
-10.875
-11.529
-12.321
-12.878
-13.099
-13.306
-13.59
-13.888
-14.199
-14.531
-14.864
-15.176
-15.43
-15.56
-15.545
-15.402
-15.136
-14.737
-14.205
-13.534
-12.722
-11.776
-10.698
-9.486
-8.138
-6.659
-5.05
-3.317
-1.468
0.491
2.548
4.693
6.913
9.194
11.518
13.868
16.224
18.568
20.88
23.139
25.325
27.417
29.399
31.253
32.962
34.507
35.87
37.034
37.984
38.704
39.178
39.393
39.335
38.998
38.379
37.475
36.284
34.799
33.006
30.899
28.483
25.759
22.736
19.43
15.862
12.078
8.14
4.105
0.031
-4.039
-8.075
-12.032
-15.863
-19.521
-22.942
-26.093
-28.959
-31.508
-33.721
-35.605
-37.194
-38.593
-39.952
-41.393
-43.018
-44.893
-47.077
-49.68
-52.796
-56.505
-60.884
-65.915
-71.619
-78.109
-85.343
-93.121
-101.107
-108.706
-115.351
-120.655
-124.115
-125.264
-124.004
-120.482
-115.243
-109.117
-102.856
-97.311
-93.178
-90.806
-89.206
-85.588
-78.202
-66.369
-50.711
-34.556
-15.99
11.718
53.929
117.474
199.999
288.119
371.805
441.239
492.012
530.467
556.106
562.883
545.352
493.915
409.336
304.187
190.285
80.822
-16.534
-102.18
-174.975
-233.608
-277.184
-303.714
-313.978
-311.082
-298.382
-279.939
-259.709
-240.794
-225.248
-213.943
-206.744
-202.845
-201.232
-200.722
-199.912
-197.533
-192.981
-186.291
-177.914
-168.542
-158.796
-149.219
-140.407
-132.933
-127.079
-122.866
-120.147
-118.642
-118.112
-118.377
-119.227
-120.428
-121.763
-123.031
-124.061
-124.764
-125.077
-124.948
-124.358
-123.294
-121.768
-119.834
-117.557
-115.001
-112.226
-109.284
-106.223
-103.109
-100.013
-97.012
-94.177
-91.556
-89.176
-87.057
-85.206
-83.622
-82.295
-81.199
-80.301
-79.575
-78.999
-78.553
-78.223
-77.984
-77.814
-77.688
-77.583
-77.477
-77.351
-77.188
-76.968
-76.677
-76.3
-75.827
-75.246
-74.546
-73.713
-72.731
-71.588
-70.268
-68.759
-67.049
-65.126
-62.98
-60.603
-57.99
-55.135
-52.034
-48.685
-45.086
-41.237
-37.139
-32.793
-28.204
-23.375
-18.313
-13.025
-7.519
-1.807
4.102
10.193
16.454
22.869
29.421
36.093
42.866
49.72
56.633
63.585
70.551
77.509
84.433
91.299
98.082
104.756
111.297
117.679
123.879
129.871
135.633
141.141
146.374
151.31
155.928
160.21
164.136
167.69
170.857
173.622
175.974
177.901
179.394
180.446
181.052
181.207
180.91
180.162
178.964
177.321
175.241
172.73
169.801
166.465
162.738
158.635
154.173
149.374
144.256
138.842
133.155
127.219
121.059
114.701
108.169
101.492
94.695
87.805
80.848
73.851
66.838
59.835
52.866
45.955
39.125
32.399
25.797
19.339
13.045
6.932
1.017
-4.687
-10.166
-15.408
-20.404
-25.145
-29.625
-33.837
-37.78
-41.449
-44.846
-47.971
-50.825
-53.414
-55.74
-57.811
-59.633
-61.215
-62.563
-63.688
-64.599
-65.305
-65.818
-66.147
-66.304
-66.3
-66.146
-65.854
-65.436
-64.905
-64.271
-63.547
-62.745
-61.876
-60.951
-59.982
-58.977
-57.948
-56.903
-55.852
-54.803
-53.762
-52.737
-51.734
-50.759
-49.815
-48.907
-48.039
-47.212
-46.429
-45.693
-45.004
-44.364
-43.774
-43.234
-42.745
-42.307
-41.92
-41.582
-41.293
-41.05
-40.852
-40.696
-40.579
-40.497
-40.449
-40.429
-40.435
-40.462
-40.506
-40.564
-40.631
-40.705
-40.782
-40.857
-40.93
-40.997
-41.056
-41.106
-41.145
-41.174
-41.19
-41.195
-41.187
-41.167
-41.136
-41.092
-41.037
-40.971
-40.895
-40.811
-40.719
-40.623
-40.523
-40.424
-40.327
-40.237
-40.156
-40.088
-40.036
-40.006
-40
-40.022
-40.077
-40.167
-40.296
-40.466
-40.681
-40.94
-41.247
-41.601
-42.002
-42.449
-42.941
-43.476
-44.052
-44.666
-45.315
-45.995
-46.703
-47.435
-48.185
-48.949
-49.719
-50.491
-51.256
-52.007
-52.737
-53.436
-54.096
-54.709
-55.264
-55.752
-56.164
-56.489
-56.717
-56.84
-56.849
-56.735
-56.49
-56.107
-55.58
-54.904
-54.074
-53.088
-51.942
-50.634
-49.165
-47.536
-45.746
-43.799
-41.697
-39.444
-37.046
-34.51
-31.842
-29.053
-26.15
-23.147
-20.055
-16.887
-13.658
-10.384
-7.081
-3.769
-0.467
2.804
6.023
9.17
12.224
15.163
17.968
20.622
23.108
25.41
27.512
29.399
31.056
32.468
33.622
34.509
35.119
35.445
35.48
35.228
34.692
33.873
32.774
31.387
29.711
27.752
25.518
23.02
20.279
17.32
14.176
10.899
7.534
4.126
0.713
-2.681
-6.026
-9.284
-12.41
-15.35
-18.055
-20.497
-22.65
-24.484
-25.995
-27.211
-28.18
-28.998
-29.741
-30.443
-31.147
-31.9
-32.761
-33.822
-35.164
-36.841
-38.943
-41.587
-44.809
-48.543
-52.553
-56.391
-59.599
-61.811
-62.642
-61.656
-58.644
-53.757
-47.555
-41.081
-35.369
-31.009
-28.493
-28.445
-30.989
-35.454
-40.393
-43.389
-41.857
-33.926
-17.773
8.694
46.857
96.915
157.74
226.553
299.733
373.735
444.325
506.365
554.86
585.632
595.821
584.24
551.062
497.3
425.551
340.242
246.773
150.796
57.65
-28.041
-102.533
-162.673
-206.756
-234.956
-248.608
-249.884
-241.514
-226.155
-206.314
-184.902
-164.196
-145.507
-129.836
-117.473
-108.14
-101.822
-98.513
-97.409
-97.826
-99.174
-100.504
-101.437
-101.976
-101.725
-100.245
-97.61
-93.938
-89.618
-85.492
-81.911
-78.908
-76.675
-75.35
-74.921
-75.348
-76.323
-77.281
-77.918
-78.122
-77.82
-77.042
-75.787
-74.028
-71.838
-69.363
-66.707
-63.944
-61.11
-58.197
-55.238
-52.297
-49.441
-46.744
-44.253
-41.984
-39.953
-38.166
-36.628
-35.333
-34.262
-33.389
-32.692
-32.155
-31.768
-31.521
-31.4
-31.382
-31.443
-31.556
-31.697
-31.847
-31.985
-32.093
-32.153
-32.147
-32.061
-31.882
-31.593
-31.177
-30.617
-29.894
-28.99
-27.889
-26.578
-25.042
-23.271
-21.253
-18.98
-16.446
-13.646
-10.575
-7.23
-3.61
0.285
4.452
8.889
13.589
18.546
23.75
29.192
34.858
40.736
46.809
53.061
59.473
66.027
72.701
79.473
86.32
93.217
100.14
107.062
113.957
120.799
127.561
134.215
140.736
147.097
153.274
159.24
164.973
170.448
175.645
180.54
185.113
189.347
193.222
196.723
199.835
202.544
204.84
206.712
208.153
209.157
209.719
209.838
209.512
208.744
207.538
205.898
203.834
201.354
198.471
195.199
191.55
187.544
183.196
178.527
173.555
168.301
162.788
157.036
151.071
144.914
138.59
132.123
125.537
118.858
112.108
105.312
98.493
91.674
84.877
78.125
71.437
64.835
58.336
51.961
45.724
39.642
33.729
27.996
22.456
17.118
11.988
7.074
2.381
-2.088
-6.331
-10.344
-14.13
-17.687
-21.018
-24.125
-27.013
-29.686
-32.149
-34.408
-36.47
-38.342
-40.032
-41.548
-42.898
-44.091
-45.136
-46.042
-46.819
-47.475
-48.021
-48.466
-48.819
-49.088
-49.283
-49.409
-49.476
-49.487
-49.451
-49.37
-49.251
-49.098
-48.913
-48.701
-48.465
-48.207
-47.931
-47.637
-47.329
-47.007
-46.674
-46.33
-45.977
-45.616
-45.249
-44.876
-44.499
-44.117
-43.733
-43.346
-42.956
-42.564
-42.17
-41.773
-41.375
-40.974
-40.573
-40.17
-39.769
-39.37
-38.974
-38.584
-38.203
-37.832
-37.473
-37.129
-36.803
-36.496
-36.211
-35.95
-35.714
-35.505
-35.324
-35.173
-35.052
-34.962
-34.902
-34.873
-34.874
-34.906
-34.967
-35.058
-35.178
-35.328
-35.507
-35.716
-35.954
-36.22
-36.516
-36.84
-37.192
-37.57
-37.973
-38.401
-38.852
-39.324
-39.816
-40.325
-40.851
-41.391
-41.944
-42.509
-43.084
-43.667
-44.258
-44.856
-45.461
-46.072
-46.689
-47.31
-47.937
-48.567
-49.2
-49.835
-50.469
-51.101
-51.727
-52.345
-52.951
-53.54
-54.109
-54.653
-55.165
-55.641
-56.075
-56.46
-56.79
-57.058
-57.26
-57.387
-57.435
-57.397
-57.266
-57.036
-56.7
-56.253
-55.688
-54.998
-54.178
-53.222
-52.124
-50.882
-49.49
-47.946
-46.246
-44.391
-42.379
-40.213
-37.894
-35.427
-32.817
-30.07
-27.197
-24.207
-21.112
-17.926
-14.666
-11.347
-7.989
-4.61
-1.231
2.13
5.451
8.711
11.893
14.974
17.937
20.761
23.423
25.902
28.177
30.228
32.036
33.584
34.856
35.838
36.524
36.905
36.977
36.73
36.151
35.228
33.96
32.351
30.408
28.146
25.588
22.764
19.719
16.496
13.136
9.674
6.132
2.536
-1.079
-4.666
-8.172
-11.542
-14.739
-17.74
-20.512
-23.047
-25.366
-27.512
-29.564
-31.596
-33.638
-35.72
-37.88
-40.152
-42.611
-45.33
-48.348
-51.758
-55.677
-60.111
-65.016
-70.18
-75.165
-79.579
-83.083
-85.256
-85.715
-84.258
-80.847
-75.965
-70.539
-65.291
-60.792
-57.517
-55.794
-55.874
-57.623
-59.909
-60.857
-58.675
-51.589
-38.013
-16.527
14.344
55.667
107.366
168.213
236.439
308.436
378.94
442.972
496.458
539.174
573.786
601.044
617.067
610.419
568.905
485.628
361.554
212.664
58.944
-80.362
-186.449
-255.385
-290.746
-300.472
-299.359
-294.136
-286.026
-274.448
-255.059
-228.433
-198.716
-169.282
-144.12
-124.872
-111.131
-103.076
-100.12
-100.815
-103.899
-108.015
-111.777
-114.618
-116.207
-115.787
-113.096
-108.478
-102.412
-95.75
-89.477
-83.98
-79.436
-76.181
-74.258
-73.552
-73.9
-74.813
-75.711
-76.314
-76.482
-76.125
-75.297
-74.011
-72.256
-70.142
-67.8
-65.315
-62.757
-60.149
-57.482
-54.792
-52.144
-49.605
-47.253
-45.133
-43.264
-41.657
-40.314
-39.234
-38.409
-37.816
-37.423
-37.203
-37.136
-37.21
-37.41
-37.716
-38.1
-38.532
-38.98
-39.416
-39.819
-40.164
-40.432
-40.603
-40.658
-40.585
-40.369
-39.996
-39.45
-38.716
-37.776
-36.616
-35.224
-33.588
-31.698
-29.545
-27.122
-24.425
-21.449
-18.194
-14.659
-10.845
-6.754
-2.39
2.241
7.132
12.274
17.659
23.273
29.104
35.138
41.358
47.749
54.291
60.966
67.754
74.633
81.584
88.583
95.609
102.639
109.648
116.614
123.513
130.319
137.008
143.557
149.941
156.138
162.124
167.877
173.378
178.605
183.539
188.163
192.458
196.41
200.002
203.223
206.061
208.504
210.545
212.177
213.395
214.196
214.576
214.535
214.076
213.2
211.911
210.214
208.118
205.631
202.763
199.53
195.941
192.012
187.758
183.195
178.344
173.228
167.861
162.261
156.459
150.484
144.366
138.137
131.811
125.392
118.917
112.422
105.893
99.323
92.712
86.045
79.368
72.753
66.188
59.631
53.244
47.211
41.443
35.963
30.812
25.635
21.429
19.164
17.47
15.934
12.033
2.742
-8.589
-19.73
-27.36
-26.919
-22.447
-17.372
-14.043
-16.342
-21.506
-26.733
-31.408
-33.825
-34.989
-36.183
-37.173
-38.132
-38.981
-39.471
-39.78
-40.053
-40.255
-40.385
-40.469
-40.512
-40.512
-40.474
-40.38
-40.209
-39.979
-39.709
-39.399
-39.055
-38.682
-38.281
-37.859
-37.423
-36.974
-36.511
-36.037
-35.552
-35.058
-34.557
-34.049
-33.535
-33.017
-32.496
-31.973
-31.449
-30.925
-30.401
-29.88
-29.36
-28.841
-28.325
-27.81
-27.296
-26.783
-26.271
-25.76
-25.249
-24.74
-24.232
-23.727
-23.225
-22.728
-22.238
-21.756
-21.284
-20.827
-20.386
-19.966
-19.569
-19.199
-18.859
-18.553
-18.283
-18.053
-17.864
-17.719
-17.621
-17.571
-17.571
-17.625
-17.732
-17.896
-18.118
-18.398
-18.74
-19.142
-19.605
-20.129
-20.713
-21.356
-22.057
-22.813
-23.622
-24.479
-25.38
-26.319
-27.291
-28.289
-29.304
-30.329
-31.354
-32.37
-33.368
-34.338
-35.271
-36.156
-36.985
-37.749
-38.438
-39.042
-39.553
-39.961
-40.259
-40.439
-40.492
-40.412
-40.193
-39.829
-39.316
-38.649
-37.827
-36.845
-35.703
-34.402
-32.942
-31.326
-29.559
-27.646
-25.594
-23.414
-21.116
-18.712
-16.218
-13.648
-11.019
-8.347
-5.653
-2.953
-0.267
2.385
4.984
7.513
9.951
12.281
14.484
16.54
18.432
20.142
21.652
22.945
24.007
24.82
25.373
25.659
25.671
25.404
24.853
24.006
22.858
21.414
19.681
17.669
15.393
12.873
10.139
7.241
4.224
1.133
-1.997
-5.145
-8.289
-11.398
-14.435
-17.355
-20.12
-22.715
-25.131
-27.35
-29.367
-31.19
-32.866
-34.499
-36.185
-37.994
-39.963
-42.089
-44.384
-46.897
-49.679
-52.784
-56.264
-60.114
-64.36
-69.101
-74.316
-79.834
-85.321
-90.197
-93.914
-96.148
-96.52
-94.596
-90.319
-83.935
-76.077
-67.924
-60.425
-54.081
-49.542
-47.435
-47.598
-49.29
-50.965
-50.207
-45.076
-34.098
-15.467
12.47
50.542
98.805
155.843
218.987
284.787
348.679
405.886
452.385
487.675
513.703
530.847
536.419
520.344
471.016
384.079
262.712
123.136
-13.675
-133.073
-224.479
-288.777
-333.829
-364.153
-384.591
-395.308
-392.074
-374.763
-345.499
-308.44
-270.114
-234.885
-204.64
-180.595
-163.431
-153.199
-149.098
-149.499
-152.023
-154.447
-155.755
-155.293
-152.229
-146.288
-137.704
-127.164
-116.147
-106.149
-97.82
-91.497
-87.448
-85.627
-85.953
-88.171
-91.554
-95.319
-98.987
-102.282
-105.104
-107.457
-109.251
-110.373
-110.791
-110.538
-109.673
-108.238
-106.237
-103.682
-100.632
-97.216
-93.626
-90.027
-86.538
-83.234
-80.147
-77.306
-74.754
-72.522
-70.628
-69.079
-67.865
-66.981
-66.432
-66.206
-66.273
-66.578
-67.038
-67.586
-68.172
-68.759
-69.32
-69.834
-70.275
-70.627
-70.882
-71.031
-71.062
-70.957
-70.692
-70.249
-69.616
-68.782
-67.743
-66.493
-65.024
-63.328
-61.397
-59.223
-56.801
-54.12
-51.169
-47.941
-44.433
-40.643
-36.573
-32.225
-27.605
-22.719
-17.576
-12.186
-6.56
-0.709
5.355
11.616
18.061
24.672
31.433
38.323
45.324
52.414
59.571
66.772
73.993
81.21
88.398
95.531
102.584
109.53
116.344
123
129.471
135.731
141.755
147.518
152.996
158.166
163.007
167.497
171.618
175.352
178.684
181.6
184.086
186.132
187.728
188.865
189.54
189.746
189.483
188.751
187.55
185.886
183.765
181.195
178.185
174.747
170.896
166.647
162.017
157.026
151.694
146.043
140.098
133.883
127.424
120.748
113.882
106.854
99.692
92.425
85.079
77.684
70.267
62.855
55.475
48.153
40.914
33.782
26.78
19.93
13.253
6.767
0.491
-5.56
-11.369
-16.924
-22.213
-27.226
-31.955
-36.393
-40.534
-44.377
-47.92
-51.163
-54.109
-56.759
-59.12
-61.198
-63
-64.535
-65.812
-66.842
-67.636
-68.206
-68.565
-68.726
-68.702
-68.508
-68.157
-67.663
-67.039
-66.301
-65.462
-64.534
-63.531
-62.466
-61.351
-60.199
-59.019
-57.824
-56.622
-55.422
-54.233
-53.063
-51.917
-50.801
-49.72
-48.678
-47.678
-46.722
-45.812
-44.948
-44.132
-43.361
-42.637
-41.957
-41.32
-40.723
-40.165
-39.643
-39.155
-38.698
-38.27
-37.867
-37.489
-37.131
-36.792
-36.47
-36.163
-35.869
-35.587
-35.316
-35.054
-34.802
-34.559
-34.327
-34.105
-33.896
-33.7
-33.52
-33.359
-33.218
-33.101
-33.011
-32.951
-32.924
-32.934
-32.984
-33.076
-33.213
-33.397
-33.63
-33.914
-34.25
-34.637
-35.075
-35.563
-36.099
-36.681
-37.307
-37.971
-38.67
-39.398
-40.15
-40.919
-41.699
-42.482
-43.26
-44.024
-44.766
-45.475
-46.142
-46.756
-47.305
-47.78
-48.168
-48.46
-48.645
-48.711
-48.65
-48.452
-48.108
-47.611
-46.955
-46.132
-45.139
-43.972
-42.63
-41.111
-39.416
-37.549
-35.511
-33.309
-30.95
-28.443
-25.795
-23.019
-20.124
-17.126
-14.038
-10.876
-7.655
-4.393
-1.111
2.172
5.43
8.643
11.787
14.838
17.775
20.572
23.21
25.67
27.934
29.987
31.812
33.39
34.707
35.75
36.509
36.973
37.135
36.989
36.536
35.782
34.734
33.398
31.774
29.86
27.656
25.17
22.413
19.399
16.149
12.692
9.069
5.334
1.544
-2.255
-6.016
-9.702
-13.27
-16.665
-19.832
-22.715
-25.271
-27.464
-29.256
-30.625
-31.587
-32.18
-32.473
-32.556
-32.491
-32.343
-32.214
-32.202
-32.419
-32.994
-34.002
-35.541
-37.763
-40.691
-44.253
-48.254
-52.241
-55.766
-58.527
-60.078
-59.93
-58.015
-54.421
-49.602
-44.656
-40.369
-37.178
-35.792
-36.688
-39.528
-43.568
-47.197
-47.773
-43.237
-31.743
-11.002
20.647
63.905
118.507
182.566
252.941
326.518
399.222
466
522.141
562.875
584.368
584.681
562.394
517.8
454.665
376.506
286.662
188.671
83.192
-24.365
-123.078
-202.979
-254.2
-275.531
-275.323
-261.984
-244.467
-227.344
-209.836
-192.833
-176.854
-162.652
-152.537
-146.729
-144.334
-144.4
-144.878
-143.992
-141.112
-136.057
-129.143
-121.085
-112.456
-103.749
-95.614
-88.679
-83.254
-79.406
-77.007
-75.751
-75.385
-75.715
-76.526
-77.587
-78.691
-79.653
-80.316
-80.613
-80.495
-79.924
-78.888
-77.382
-75.424
-73.071
-70.396
-67.465
-64.345
-61.093
-57.759
-54.408
-51.11
-47.936
-44.955
-42.213
-39.736
-37.543
-35.642
-34.036
-32.715
-31.655
-30.827
-30.202
-29.759
-29.478
-29.342
-29.327
-29.408
-29.559
-29.758
-29.98
-30.207
-30.417
-30.592
-30.713
-30.764
-30.73
-30.6
-30.356
-29.983
-29.463
-28.778
-27.913
-26.852
-25.579
-24.08
-22.342
-20.356
-18.11
-15.6
-12.818
-9.76
-6.422
-2.804
1.094
5.27
9.722
14.444
19.43
24.671
30.159
35.882
41.828
47.985
54.335
60.864
67.554
74.386
81.34
88.395
95.527
102.714
109.93
117.149
124.346
131.494
138.564
145.529
152.361
159.034
165.519
171.79
177.822
183.588
189.066
194.232
199.064
203.541
207.644
211.357
214.661
217.543
219.989
221.989
223.532
224.611
225.22
225.355
225.013
224.197
222.906
221.147
218.926
216.252
213.137
209.593
205.635
201.282
196.551
191.465
186.044
180.314
174.299
168.025
161.518
154.807
147.918
140.88
133.721
126.468
119.148
111.79
104.419
97.062
89.745
82.491
75.324
68.267
61.342
54.568
47.965
41.548
35.334
29.336
23.568
18.039
12.759
7.735
2.972
-1.525
-5.756
-9.719
-13.417
-16.851
-20.027
-22.949
-25.624
-28.06
-30.265
-32.249
-34.021
-35.59
-36.969
-38.167
-39.196
-40.067
-40.792
-41.382
-41.849
-42.203
-42.455
-42.616
-42.695
-42.701
-42.644
-42.533
-42.374
-42.176
-41.946
-41.69
-41.414
-41.125
-40.825
-40.52
-40.212
-39.905
-39.599
-39.297
-39
-38.709
-38.425
-38.147
-37.876
-37.612
-37.354
-37.101
-36.854
-36.609
-36.367
-36.128
-35.889
-35.652
-35.417
-35.183
-34.953
-34.727
-34.507
-34.295
-34.091
-33.896
-33.712
-33.54
-33.38
-33.233
-33.102
-32.985
-32.886
-32.807
-32.748
-32.711
-32.697
-32.709
-32.747
-32.812
-32.905
-33.029
-33.184
-33.372
-33.595
-33.855
-34.154
-34.492
-34.869
-35.284
-35.737
-36.225
-36.742
-37.284
-37.845
-38.421
-39.006
-39.597
-40.188
-40.775
-41.357
-41.934
-42.502
-43.056
-43.592
-44.1
-44.575
-45.008
-45.389
-45.709
-45.957
-46.126
-46.208
-46.204
-46.108
-45.911
-45.602
-45.163
-44.584
-43.863
-42.997
-41.986
-40.839
-39.568
-38.203
-36.788
-35.352
-33.91
-32.469
-31.018
-29.549
-28.058
-26.535
-24.971
-23.357
-21.67
-19.903
-18.057
-16.111
-14.031
-11.762
-9.212
-6.327
-3.093
0.483
4.364
8.499
12.838
17.299
21.779
26.184
30.425
34.434
38.173
41.571
44.538
46.961
48.687
49.611
49.686
48.884
47.21
44.691
41.367
37.318
32.682
27.57
22.078
16.282
10.223
3.974
-2.354
-8.628
-14.695
-20.429
-25.749
-30.585
-34.869
-38.55
-41.589
-43.987
-45.804
-47.083
-47.855
-48.14
-47.954
-47.335
-46.353
-45.115
-43.739
-42.355
-41.102
-40.103
-39.45
-39.282
-39.779
-41.021
-42.999
-45.54
-48.246
-50.791
-52.987
-54.539
-55.07
-54.324
-52.192
-49.07
-46.018
-43.935
-43.246
-44.539
-48.44
-55.087
-64.507
-74.724
-81.376
-82.161
-76.183
-64.065
-49.105
-28.748
3.858
54.099
127.056
217.976
314.274
405.888
485.024
551.021
606.92
649.61
669.925
656.662
602.961
513.329
402.899
287.592
178.839
81.201
-7.087
-85.881
-152.429
-204.24
-238.794
-256.416
-260.224
-253.298
-239.081
-221.84
-205.276
-191.817
-182.763
-178.051
-176.754
-177.991
-180.701
-183.179
-183.664
-181.114
-175.202
-166.275
-155.132
-142.495
-128.973
-115.354
-102.469
-90.847
-80.772
-72.3
-65.273
-59.589
-55.226
-52.097
-50.106
-49.175
-49.176
-49.989
-51.508
-53.574
-56.052
-58.824
-61.741
-64.671
-67.488
-70.084
-72.397
-74.375
-75.947
-77.053
-77.652
-77.72
-77.286
-76.392
-75.09
-73.445
-71.515
-69.362
-67.064
-64.702
-62.361
-60.108
-57.98
-56.008
-54.229
-52.673
-51.36
-50.295
-49.458
-48.829
-48.387
-48.107
-47.963
-47.921
-47.939
-47.972
-47.968
-47.889
-47.703
-47.384
-46.906
-46.249
-45.391
-44.321
-43.034
-41.526
-39.786
-37.806
-35.578
-33.096
-30.36
-27.371
-24.131
-20.642
-16.906
-12.926
-8.707
-4.252
0.432
5.338
10.461
15.791
21.316
27.023
32.896
38.916
45.068
51.33
57.685
64.112
70.588
77.09
83.596
90.082
96.524
102.903
109.189
115.353
121.379
127.25
132.946
138.453
143.739
148.765
153.522
158.001
162.152
165.931
169.3
172.215
174.685
176.749
178.367
179.483
180.218
180.723
180.902
180.761
180.331
179.282
178.51
178.892
179.191
179.04
176.166
167.849
157.127
146.03
137.576
135.907
137.393
138.964
138.523
132.59
123.692
114.388
105.266
97.897
91.407
84.665
77.915
71.032
64.116
57.422
50.819
44.203
37.635
31.141
24.725
18.405
12.208
6.15
0.269
-5.398
-10.851
-16.092
-21.107
-25.891
-30.44
-34.746
-38.811
-42.638
-46.223
-49.567
-52.674
-55.545
-58.186
-60.603
-62.802
-64.79
-66.576
-68.166
-69.57
-70.796
-71.854
-72.752
-73.499
-74.104
-74.578
-74.928
-75.164
-75.295
-75.331
-75.279
-75.15
-74.951
-74.689
-74.373
-74.009
-73.603
-73.16
-72.687
-72.186
-71.663
-71.121
-70.563
-69.991
-69.407
-68.815
-68.214
-67.607
-66.994
-66.376
-65.755
-65.13
-64.503
-63.876
-63.247
-62.62
-61.995
-61.372
-60.752
-60.137
-59.526
-58.921
-58.32
-57.726
-57.138
-56.556
-55.981
-55.414
-54.856
-54.308
-53.772
-53.25
-52.744
-52.255
-51.785
-51.338
-50.916
-50.519
-50.148
-49.805
-49.495
-49.224
-48.996
-48.816
-48.683
-48.596
-48.562
-48.579
-48.63
-48.689
-48.736
-48.759
-48.77
-48.79
-48.826
-48.902
-49.093
-49.485
-50.135
-51.075
-52.272
-53.632
-55.113
-56.574
-57.642
-58.099
-57.997
-57.39
-56.543
-54.92
-51.023
-44.439
-36.317
-31.165
-35.281
-51.595
-78.359
-105.527
-120.057
-114.846
-88.779
-52.81
-22.156
-4.457
-3.892
-15.406
-30.582
-48.271
-66.304
-82.919
-95.665
-97.511
-85.561
-63.476
-39.373
-22.287
-16.72
-20.752
-28.072
-33.599
-35.308
-33.649
-30.902
-28.21
-25.437
-22.464
-19.097
-15.437
-11.846
-8.443
-5.189
-2.111
0.765
3.438
5.924
8.265
10.499
12.614
14.569
16.335
17.896
19.237
20.344
21.198
21.784
22.088
22.105
21.835
21.281
20.445
19.326
17.917
16.204
14.181
11.855
9.235
6.337
3.181
-0.212
-3.804
-7.542
-11.373
-15.25
-19.136
-23.01
-26.831
-30.546
-34.089
-37.381
-40.369
-43.024
-45.313
-47.225
-48.764
-49.949
-50.837
-51.512
-52.054
-52.55
-53.089
-53.744
-54.615
-55.793
-57.419
-59.704
-62.715
-66.38
-70.5
-74.692
-78.624
-82.109
-84.83
-86.312
-86.315
-84.907
-82.603
-80.426
-79.088
-78.749
-79.438
-81.24
-84.124
-87.572
-90.208
-89.775
-84.243
-72.452
-53.654
-27.049
8.231
52.699
106.014
166.497
231.975
299.715
365.934
426.765
478.872
522.085
558.501
588.786
609.858
611.159
579.94
508.446
397.595
261.277
119.561
-7.696
-106.281
-173.449
-213.827
-237.32
-253.176
-264.68
-271.351
-269.645
-257.504
-236.702
-211.298
-186.085
-163.918
-145.77
-131.616
-120.778
-113.115
-108.728
-106.779
-106.462
-107.119
-107.743
-107.962
-107.802
-106.859
-104.707
-101.455
-97.243
-92.473
-88.004
-84.182
-81.028
-78.729
-77.403
-77.021
-77.528
-78.605
-79.665
-80.395
-80.679
-80.439
-79.706
-78.485
-76.751
-74.583
-72.136
-69.517
-66.804
-64.036
-61.208
-58.354
-55.54
-52.835
-50.312
-48.016
-45.964
-44.167
-42.632
-41.358
-40.336
-39.543
-38.949
-38.529
-38.265
-38.141
-38.148
-38.266
-38.47
-38.734
-39.031
-39.335
-39.626
-39.882
-40.087
-40.223
-40.274
-40.226
-40.067
-39.783
-39.359
-38.778
-38.024
-37.081
-35.936
-34.576
-32.989
-31.165
-29.094
-26.771
-24.188
-21.342
-18.23
-14.85
-11.2
-7.283
-3.102
1.341
6.039
10.984
16.168
21.581
27.211
33.046
39.071
45.272
51.632
58.135
64.761
71.494
78.311
85.194
92.12
99.068
106.014
112.936
119.809
126.61
133.314
139.897
146.336
152.606
158.685
164.549
170.176
175.545
180.635
185.426
189.899
194.035
197.819
201.235
204.268
206.906
209.137
210.952
212.342
213.3
213.821
213.902
213.54
212.735
211.49
209.806
207.691
205.151
202.194
198.832
195.078
190.944
186.448
181.605
176.436
170.959
165.196
159.17
152.902
146.417
139.74
132.896
125.91
118.808
111.617
104.361
97.068
89.762
82.469
75.214
68.022
60.914
53.915
47.047
40.328
33.78
27.42
21.265
15.33
9.629
4.175
-1.023
-5.954
-10.612
-14.991
-19.087
-22.897
-26.42
-29.656
-32.607
-35.277
-37.67
-39.792
-41.65
-43.252
-44.606
-45.722
-46.612
-47.287
-47.758
-48.038
-48.14
-48.078
-47.864
-47.512
-47.036
-46.449
-45.765
-44.995
-44.153
-43.251
-42.3
-41.311
-40.295
-39.262
-38.22
-37.178
-36.144
-35.124
-34.125
-33.152
-32.211
-31.305
-30.437
-29.611
-28.83
-28.094
-27.406
-26.765
-26.173
-25.63
-25.134
-24.686
-24.285
-23.929
-23.617
-23.349
-23.123
-22.938
-22.792
-22.685
-22.616
-22.583
-22.586
-22.624
-22.696
-22.803
-22.944
-23.119
-23.328
-23.572
-23.852
-24.167
-24.519
-24.908
-25.336
-25.802
-26.309
-26.857
-27.446
-28.079
-28.754
-29.472
-30.234
-31.038
-31.886
-32.774
-33.703
-34.67
-35.672
-36.708
-37.775
-38.868
-39.984
-41.119
-42.268
-43.425
-44.586
-45.745
-46.895
-48.029
-49.141
-50.224
-51.27
-52.273
-53.224
-54.115
-54.94
-55.689
-56.354
-56.928
-57.402
-57.767
-58.017
-58.144
-58.142
-58.005
-57.728
-57.305
-56.733
-56.009
-55.13
-54.095
-52.903
-51.553
-50.048
-48.389
-46.579
-44.623
-42.526
-40.293
-37.932
-35.452
-32.861
-30.169
-27.386
-24.525
-21.599
-18.622
-15.607
-12.571
-9.53
-6.505
-3.514
-0.577
2.285
5.053
7.708
10.228
12.597
14.8
16.821
18.648
20.266
21.66
22.818
23.729
24.381
24.765
24.874
24.7
24.246
23.515
22.513
21.246
19.716
17.919
15.858
13.541
10.977
8.18
5.171
1.976
-1.359
-4.781
-8.235
-11.674
-15.06
-18.363
-21.545
-24.569
-27.388
-29.954
-32.239
-34.211
-35.844
-37.119
-38.043
-38.658
-39.046
-39.31
-39.533
-39.774
-40.083
-40.526
-41.183
-42.132
-43.466
-45.227
-47.464
-50.307
-53.761
-57.704
-61.883
-65.769
-68.799
-70.581
-70.616
-68.359
-63.758
-56.989
-48.61
-39.933
-32.019
-25.585
-21.645
-20.877
-22.961
-27.105
-31.581
-33.395
-30.045
-19.242
1.821
35.136
81.33
139.969
208.881
284.128
361.633
436.595
503.048
555.337
588.681
599.576
586.259
548.612
487.58
405.839
308.098
200.25
88.606
-21.093
-123.482
-213.581
-287.256
-341.714
-376.06
-391.389
-389.853
-373.624
-345.767
-310.205
-270.915
-231.846
-196.105
-165.197
-139.975
-121.386
-109.381
-102.925
-100.596
-100.309
-100.103
-99.101
-96.709
-92.161
-85.323
-76.589
-66.61
-56.665
-48.035
-41.234
-36.535
-34.19
-34.104
-36.067
-39.728
-44.337
-49.132
-53.709
-57.817
-61.314
-64.155
-66.196
-67.323
-67.568
-67.009
-65.723
-63.767
-61.162
-57.952
-54.263
-50.27
-46.172
-42.132
-38.241
-34.562
-31.145
-28.038
-25.303
-22.97
-21.031
-19.475
-18.287
-17.457
-16.983
-16.836
-16.952
-17.26
-17.679
-18.143
-18.612
-19.047
-19.417
-19.695
-19.855
-19.88
-19.768
-19.51
-19.091
-18.492
-17.694
-16.681
-15.449
-13.992
-12.306
-10.385
-8.223
-5.814
-3.156
-0.244
2.927
6.363
10.069
14.047
18.292
22.802
27.567
32.581
37.831
43.307
48.993
54.874
60.935
67.16
73.531
80.03
86.638
93.335
100.1
106.912
113.749
120.588
127.406
134.179
140.883
147.494
153.988
160.34
166.526
172.523
178.308
183.857
189.15
194.165
198.882
203.282
207.348
211.063
214.413
217.384
219.964
222.144
223.914
225.268
226.199
226.704
226.78
226.426
225.642
224.431
222.795
220.741
218.274
215.404
212.14
208.495
204.482
200.116
195.414
190.393
185.073
179.474
173.618
167.525
161.22
154.726
148.066
141.264
134.345
127.333
120.252
113.126
105.979
98.835
91.714
84.64
77.632
70.712
63.899
57.21
50.663
44.275
38.059
32.031
26.202
20.583
15.185
10.015
5.079
0.384
-4.068
-8.274
-12.233
-15.946
-19.414
-22.641
-25.629
-28.383
-30.91
-33.215
-35.307
-37.193
-38.882
-40.384
-41.707
-42.862
-43.859
-44.708
-45.419
-46.002
-46.468
-46.826
-47.087
-47.261
-47.356
-47.382
-47.348
-47.262
-47.131
-46.962
-46.762
-46.537
-46.292
-46.032
-45.763
-45.487
-45.208
-44.93
-44.656
-44.387
-44.125
-43.872
-43.629
-43.396
-43.174
-42.962
-42.762
-42.572
-42.391
-42.22
-42.057
-41.902
-41.752
-41.607
-41.467
-41.33
-41.196
-41.064
-40.934
-40.808
-40.685
-40.566
-40.452
-40.344
-40.242
-40.147
-40.06
-39.981
-39.91
-39.85
-39.801
-39.766
-39.744
-39.738
-39.75
-39.779
-39.829
-39.9
-39.995
-40.113
-40.259
-40.432
-40.637
-40.875
-41.149
-41.46
-41.81
-42.2
-42.63
-43.099
-43.606
-44.147
-44.72
-45.321
-45.948
-46.597
-47.266
-47.953
-48.655
-49.372
-50.102
-50.841
-51.584
-52.326
-53.057
-53.77
-54.455
-55.103
-55.706
-56.257
-56.747
-57.172
-57.529
-57.81
-58.008
-58.11
-58.099
-57.964
-57.696
-57.294
-56.762
-56.113
-55.366
-54.544
-53.672
-52.768
-51.842
-50.89
-49.896
-48.841
-47.705
-46.482
-45.182
-43.813
-42.379
-40.878
-39.301
-37.624
-35.811
-33.814
-31.578
-29.064
-26.264
-23.198
-19.925
-16.523
-13.089
-9.697
-6.404
-3.258
-0.307
2.398
4.807
6.856
8.472
9.562
10.011
9.723
8.642
6.765
4.139
0.846
-2.998
-7.295
-11.95
-16.865
-21.958
-27.145
-32.357
-37.532
-42.603
-47.471
-52.012
-56.108
-59.674
-62.692
-65.178
-67.178
-68.766
-70.011
-71.011
-71.896
-72.779
-73.763
-74.917
-76.28
-77.89
-79.79
-82.054
-84.757
-87.94
-91.607
-95.731
-100.238
-105.088
-110.26
-115.57
-120.702
-125.211
-128.496
-130.095
-129.71
-126.963
-121.586
-113.6
-103.236
-91.282
-79.005
-67.436
-57.403
-49.582
-44.063
-40.474
-38.1
-35.223
-29.454
-18.537
-0.221
27.215
64.334
110.874
165.78
226.519
289.484
350.478
404.689
447.379
474.44
482.484
469.006
434.072
380.337
311.383
230.982
140.198
38.674
-70.409
-179.583
-275.118
-341.757
-372.911
-369.74
-342.668
-308.738
-278.282
-257.277
-247.218
-241.435
-236.49
-231.165
-223.722
-217.104
-212.601
-208.834
-205.315
-200.285
-192.647
-183.011
-171.898
-160.005
-148.113
-136.801
-126.641
-117.993
-110.97
-105.475
-101.315
-98.404
-96.64
-95.893
-96.008
-96.746
-97.874
-99.187
-100.5
-101.673
-102.607
-103.214
-103.446
-103.298
-102.769
-101.879
-100.633
-98.996
-96.958
-94.524
-91.714
-88.601
-85.277
-81.856
-78.474
-75.235
-72.209
-69.449
-66.978
-64.797
-62.909
-61.299
-59.952
-58.878
-58.08
-57.558
-57.31
-57.312
-57.528
-57.913
-58.402
-58.935
-59.466
-59.956
-60.373
-60.697
-60.908
-60.99
-60.934
-60.725
-60.344
-59.769
-58.978
-57.951
-56.673
-55.133
-53.323
-51.239
-48.876
-46.23
-43.295
-40.068
-36.544
-32.72
-28.591
-24.154
-19.41
-14.363
-9.021
-3.393
2.509
8.672
15.081
21.717
28.563
35.599
42.804
50.156
57.633
65.211
72.863
80.564
88.287
96.005
103.689
111.311
118.843
126.255
133.519
140.608
147.494
154.15
160.551
166.669
172.482
177.965
183.095
187.852
192.216
196.168
199.694
202.779
205.41
207.579
209.278
210.502
211.247
211.512
211.299
210.609
209.449
207.826
205.748
203.227
200.276
196.91
193.146
189.003
184.5
179.658
174.501
169.05
163.332
157.372
151.195
144.829
138.3
131.637
124.867
118.017
111.115
104.188
97.262
90.363
83.515
76.742
70.066
63.509
57.092
50.832
44.747
38.853
33.163
27.69
22.445
17.437
12.673
8.159
3.9
-0.103
-3.847
-7.333
-10.564
-13.54
-16.268
-18.752
-21
-23.018
-24.816
-26.402
-27.788
-28.983
-30
-30.85
-31.545
-32.097
-32.519
-32.823
-33.02
-33.124
-33.146
-33.097
-32.988
-32.828
-32.629
-32.399
-32.146
-31.877
-31.6
-31.319
-31.042
-30.771
-30.511
-30.265
-30.034
-29.821
-29.627
-29.45
-29.292
-29.15
-29.023
-28.909
-28.804
-28.707
-28.614
-28.521
-28.426
-28.323
-28.21
-28.082
-27.937
-27.771
-27.581
-27.363
-27.117
-26.838
-26.527
-26.182
-25.802
-25.388
-24.941
-24.462
-23.952
-23.413
-22.85
-22.264
-21.659
-21.041
-20.413
-19.781
-19.15
-18.526
-17.917
-17.326
-16.763
-16.232
-15.74
-15.294
-14.9
-14.563
-14.29
-14.084
-13.95
-13.893
-13.915
-14.019
-14.206
-14.477
-14.832
-15.269
-15.785
-16.379
-17.045
-17.778
-18.573
-19.423
-20.319
-21.253
-22.216
-23.198
-24.188
-25.173
-26.142
-27.082
-27.979
-28.822
-29.597
-30.29
-30.889
-31.38
-31.752
-31.992
-32.089
-32.033
-31.813
-31.422
-30.851
-30.095
-29.149
-28.01
-26.675
-25.145
-23.421
-21.507
-19.408
-17.13
-14.681
-12.071
-9.313
-6.42
-3.408
-0.293
2.906
6.168
9.472
12.793
16.109
19.396
22.628
25.781
28.829
31.751
34.522
37.121
39.526
41.712
43.657
45.343
46.748
47.856
48.649
49.111
49.233
49.013
48.448
47.534
46.271
44.649
42.667
40.336
37.665
34.668
31.366
27.784
23.963
19.962
15.832
11.621
7.368
3.097
-1.155
-5.341
-9.416
-13.319
-17.009
-20.471
-23.671
-26.576
-29.175
-31.478
-33.55
-35.496
-37.389
-39.268
-41.15
-43.043
-45.002
-47.1
-49.404
-51.982
-54.839
-57.986
-61.536
-65.498
-69.732
-73.969
-77.654
-80.243
-81.467
-80.994
-78.419
-73.739
-67.087
-58.95
-50.539
-42.754
-36.016
-30.972
-28.037
-26.862
-26.882
-26.715
-23.774
-16.126
-2.387
19.374
50.783
92.571
144.962
205.489
268.646
330.128
387.339
440.906
493.956
545.507
588.089
607.716
590.388
530.826
435.618
322.245
209.136
107.667
21.069
-53.68
-119.851
-177.058
-221.613
-250.6
-262.018
-256.168
-239.551
-217.867
-197.489
-185.195
-179.068
-176.632
-175.522
-171.443
-165.981
-160.729
-155.109
-149.581
-142.809
-133.801
-123.305
-111.92
-100.338
-89.268
-79.131
-70.395
-63.456
-58.489
-55.427
-54.04
-54.133
-55.528
-58.027
-61.395
-65.315
-69.439
-73.499
-77.323
-80.795
-83.851
-86.413
-88.387
-89.712
-90.336
-90.25
-89.48
-88.048
-85.986
-83.356
-80.25
-76.812
-73.224
-69.637
-66.153
-62.838
-59.725
-56.845
-54.237
-51.919
-49.9
-48.175
-46.736
-45.581
-44.713
-44.116
-43.757
-43.583
-43.522
-43.517
-43.527
-43.518
-43.469
-43.357
-43.161
-42.868
-42.474
-41.969
-41.342
-40.575
-39.646
-38.539
-37.242
-35.746
-34.047
-32.139
-30.014
-27.667
-25.091
-22.283
-19.236
-15.944
-12.399
-8.597
-4.539
-0.224
4.341
9.149
14.195
19.466
24.953
30.641
36.517
42.568
48.778
55.131
61.609
68.193
74.863
81.597
88.374
95.169
101.959
108.719
115.423
122.047
128.565
134.951
141.18
147.228
153.07
158.682
164.041
169.125
173.912
178.382
182.517
186.299
189.714
192.746
195.385
197.619
199.441
200.842
201.816
202.36
202.471
202.148
201.391
200.205
198.593
196.564
194.126
191.289
188.066
184.472
180.522
176.232
171.623
166.713
161.524
156.077
150.396
144.505
138.426
132.186
125.808
119.316
112.736
106.089
99.401
92.694
85.989
79.31
72.677
66.112
59.633
53.261
47.012
40.905
34.953
29.173
23.576
18.174
12.976
7.992
3.229
-1.308
-5.615
-9.688
-13.526
-17.129
-20.498
-23.636
-26.547
-29.234
-31.703
-33.96
-36.011
-37.864
-39.526
-41.003
-42.306
-43.441
-44.417
-45.244
-45.931
-46.487
-46.923
-47.248
-47.471
-47.602
-47.651
-47.627
-47.537
-47.391
-47.197
-46.962
-46.692
-46.396
-46.077
-45.742
-45.396
-45.042
-44.683
-44.324
-43.965
-43.61
-43.259
-42.915
-42.579
-42.251
-41.934
-41.628
-41.333
-41.05
-40.779
-40.519
-40.271
-40.034
-39.806
-39.587
-39.376
-39.171
-38.971
-38.776
-38.583
-38.393
-38.204
-38.014
-37.825
-37.635
-37.445
-37.256
-37.067
-36.881
-36.699
-36.522
-36.352
-36.192
-36.043
-35.908
-35.789
-35.688
-35.606
-35.547
-35.513
-35.506
-35.528
-35.582
-35.67
-35.794
-35.956
-36.159
-36.404
-36.693
-37.028
-37.41
-37.839
-38.316
-38.84
-39.412
-40.028
-40.688
-41.389
-42.125
-42.895
-43.691
-44.51
-45.345
-46.189
-47.036
-47.879
-48.708
-49.517
-50.297
-51.039
-51.732
-52.368
-52.938
-53.43
-53.837
-54.148
-54.355
-54.446
-54.415
-54.252
-53.95
-53.499
-52.894
-52.127
-51.195
-50.092
-48.817
-47.368
-45.744
-43.947
-41.981
-39.848
-37.555
-35.108
-32.514
-29.783
-26.925
-23.952
-20.876
-17.712
-14.478
-11.191
-7.873
-4.543
-1.222
2.067
5.302
8.46
11.52
14.464
17.271
19.921
22.395
24.669
26.724
28.542
30.108
31.405
32.422
33.143
33.562
33.678
33.487
32.987
32.169
31.017
29.523
27.686
25.512
23.013
20.203
17.1
13.735
10.159
6.422
2.579
-1.325
-5.255
-9.167
-13.009
-16.716
-20.209
-23.428
-26.335
-28.903
-31.12
-32.989
-34.52
-35.76
-36.793
-37.722
-38.67
-39.748
-41.059
-42.708
-44.787
-47.436
-50.857
-55.117
-60.175
-65.867
-71.862
-77.911
-83.873
-89.442
-94.19
-97.837
-100.195
-101.488
-102.364
-103.149
-103.929
-104.749
-105.529
-106.231
-106.745
-106.197
-103.127
-96.28
-84.393
-66.638
-42.568
-11.192
28.388
76.266
132.188
194.26
258.676
322.51
382.881
439.333
495.333
550.899
602.399
639.853
646.463
612.29
536.499
428.847
308.809
190.647
81.654
-16.255
-106.176
-187.248
-255.375
-307.025
-338.793
-350.284
-343.546
-321.259
-287.474
-246.992
-204.421
-163.773
-128.089
-99.445
-79.411
-68.669
-66.629
-71.514
-80.834
-92.133
-103.276
-112.685
-119.091
-121.671
-120.301
-115.574
-108.612
-100.719
-93.203
-86.876
-82.198
-79.436
-78.529
-79.232
-81.15
-83.701
-86.238
-88.378
-89.942
-90.858
-91.206
-91.011
-90.265
-89.035
-87.396
-85.429
-83.234
-80.867
-78.345
-75.723
-73.067
-70.457
-67.997
-65.736
-63.683
-61.842
-60.202
-58.767
-57.556
-56.572
-55.812
-55.262
-54.889
-54.67
-54.59
-54.619
-54.73
-54.886
-55.04
-55.166
-55.253
-55.287
-55.257
-55.151
-54.944
-54.621
-54.169
-53.572
-52.818
-51.892
-50.777
-49.46
-47.93
-46.179
-44.2
-41.985
-39.524
-36.81
-33.838
-30.604
-27.107
-23.347
-19.323
-15.038
-10.498
-5.709
-0.679
4.58
10.06
15.748
21.63
27.691
33.917
40.289
46.791
53.405
60.112
66.891
73.723
80.587
87.46
94.32
101.145
107.911
114.595
121.173
127.622
133.92
140.043
145.969
151.677
157.147
162.357
167.289
171.923
176.241
180.228
183.868
187.147
190.054
192.577
194.706
196.434
197.754
198.662
199.152
199.222
198.871
198.1
196.91
195.305
193.289
190.871
188.057
184.859
181.288
177.358
173.083
168.479
163.563
158.354
152.871
147.134
141.165
134.987
128.621
122.093
115.425
108.641
101.767
94.825
87.839
80.832
73.828
66.848
59.914
53.047
46.267
39.595
33.049
26.648
20.408
14.344
8.472
2.803
-2.65
-7.877
-12.871
-17.623
-22.128
-26.382
-30.381
-34.123
-37.608
-40.837
-43.813
-46.539
-49.021
-51.264
-53.275
-55.063
-56.636
-58.004
-59.177
-60.164
-60.976
-61.625
-62.122
-62.479
-62.707
-62.818
-62.826
-62.741
-62.576
-62.341
-62.048
-61.705
-61.324
-60.913
-60.48
-60.033
-59.581
-59.129
-58.684
-58.252
-57.838
-57.445
-57.077
-56.737
-56.426
-56.144
-55.893
-55.673
-55.482
-55.319
-55.184
-55.073
-54.985
-54.917
-54.864
-54.824
-54.792
-54.764
-54.734
-54.7
-54.656
-54.598
-54.524
-54.429
-54.311
-54.168
-53.996
-53.794
-53.56
-53.294
-52.993
-52.658
-52.289
-51.886
-51.451
-50.985
-50.49
-49.97
-49.427
-48.863
-48.284
-47.692
-47.091
-46.488
-45.885
-45.29
-44.708
-44.145
-43.609
-43.105
-42.641
-42.223
-41.857
-41.549
-41.304
-41.126
-41.02
-40.989
-41.036
-41.163
-41.372
-41.664
-42.038
-42.493
-43.027
-43.637
-44.318
-45.067
-45.878
-46.744
-47.659
-48.616
-49.608
-50.626
-51.661
-52.703
-53.742
-54.767
-55.767
-56.727
-57.636
-58.479
-59.245
-59.921
-60.494
-60.952
-61.284
-61.477
-61.522
-61.41
-61.131
-60.679
-60.045
-59.226
-58.218
-57.019
-55.63
-54.051
-52.285
-50.336
-48.211
-45.917
-43.46
-40.851
-38.099
-35.216
-32.215
-29.113
-25.924
-22.665
-19.357
-16.022
-12.681
-9.359
-6.078
-2.862
0.265
3.279
6.159
8.883
11.434
13.791
15.935
17.846
19.507
20.9
22.012
22.828
23.34
23.537
23.417
22.983
22.238
21.187
19.827
18.151
16.157
13.853
11.246
8.351
5.189
1.791
-1.8
-5.522
-9.32
-13.139
-16.938
-20.687
-24.345
-27.868
-31.208
-34.305
-37.114
-39.609
-41.753
-43.519
-44.916
-45.983
-46.797
-47.482
-48.129
-48.801
-49.573
-50.515
-51.711
-53.261
-55.25
-57.722
-60.735
-64.398
-68.712
-73.57
-78.707
-83.598
-87.737
-90.758
-92.219
-91.633
-88.888
-84.075
-77.653
-70.785
-64.331
-58.703
-54.548
-52.321
-51.712
-52.133
-52.193
-49.188
-41.022
-26.231
-2.78
31.008
75.858
132.091
197.435
266.539
335.076
400.035
460.907
519.113
572.3
612.762
628.538
609.297
551.982
462.094
350.817
228.104
101.799
-20.585
-129.447
-213.185
-264.427
-284.371
-282.855
-271.9
-259.078
-245.679
-228.206
-204.731
-176.982
-148.182
-122.537
-102.453
-88.16
-79.684
-76.354
-77.031
-80.619
-86.123
-92.527
-98.783
-104.131
-107.778
-109.24
-108.646
-106.386
-102.865
-98.662
-94.502
-90.85
-88.116
-86.554
-86.053
-86.414
-87.401
-88.637
-89.717
-90.405
-90.549
-90.089
-89.094
-87.613
-85.699
-83.454
-80.981
-78.349
-75.607
-72.78
-69.878
-66.944
-64.038
-61.223
-58.548
-56.042
-53.718
-51.583
-49.643
-47.895
-46.329
-44.926
-43.671
-42.556
-41.577
-40.73
-40.007
-39.389
-38.858
-38.392
-37.97
-37.574
-37.184
-36.783
-36.355
-35.887
-35.367
-34.787
-34.134
-33.394
-32.553
-31.598
-30.514
-29.286
-27.899
-26.335
-24.578
-22.618
-20.443
-18.046
-15.416
-12.546
-9.43
-6.068
-2.456
1.408
5.533
9.934
14.613
19.56
24.76
30.187
35.818
41.634
47.605
53.692
59.87
66.118
72.433
78.835
85.326
91.891
98.507
105.129
111.731
118.31
124.862
131.392
137.904
144.394
150.882
157.416
164.003
170.622
177.211
183.659
189.887
195.847
201.497
206.823
211.792
216.346
220.441
224.042
227.103
229.582
231.407
232.462
232.695
232.099
230.719
228.664
226.012
222.804
219.087
214.897
210.274
205.28
199.951
194.305
188.382
182.229
175.925
169.588
163.288
157.056
150.888
144.735
138.572
132.4
126.211
119.998
113.76
107.494
101.216
94.969
88.773
82.638
76.558
70.505
64.47
58.469
52.523
46.674
40.951
35.374
29.967
24.759
19.767
15.006
10.477
6.166
2.068
-1.818
-5.489
-8.937
-12.16
-15.162
-17.949
-20.527
-22.901
-25.08
-27.074
-28.894
-30.553
-32.057
-33.413
-34.624
-35.695
-36.632
-37.441
-38.13
-38.703
-39.169
-39.533
-39.807
-39.996
-40.108
-40.149
-40.125
-40.041
-39.903
-39.715
-39.481
-39.207
-38.896
-38.553
-38.18
-37.783
-37.364
-36.928
-36.477
-36.014
-35.541
-35.062
-34.576
-34.087
-33.595
-33.102
-32.609
-32.118
-31.63
-31.145
-30.666
-30.194
-29.728
-29.27
-28.821
-28.381
-27.951
-27.531
-27.124
-26.729
-26.35
-25.986
-25.641
-25.316
-25.013
-24.733
-24.478
-24.25
-24.049
-23.879
-23.739
-23.633
-23.563
-23.529
-23.534
-23.581
-23.671
-23.807
-23.99
-24.222
-24.506
-24.842
-25.232
-25.677
-26.178
-26.737
-27.352
-28.024
-28.753
-29.538
-30.377
-31.269
-32.211
-33.2
-34.232
-35.303
-36.41
-37.548
-38.71
-39.893
-41.089
-42.292
-43.496
-44.693
-45.876
-47.036
-48.166
-49.256
-50.298
-51.282
-52.199
-53.039
-53.792
-54.451
-55.005
-55.445
-55.764
-55.953
-56.004
-55.911
-55.667
-55.267
-54.704
-53.976
-53.08
-52.012
-50.773
-49.363
-47.783
-46.034
-44.121
-42.048
-39.821
-37.447
-34.934
-32.292
-29.53
-26.662
-23.701
-20.661
-17.556
-14.405
-11.227
-8.042
-4.871
-1.734
1.347
4.351
7.255
10.039
12.685
15.175
17.492
19.618
21.534
23.221
24.666
25.853
26.772
27.411
27.759
27.812
27.571
27.039
26.216
25.1
23.68
21.952
19.921
17.593
14.981
12.105
8.986
5.658
2.173
-1.423
-5.082
-8.767
-12.454
-16.105
-19.677
-23.117
-26.357
-29.348
-32.061
-34.455
-36.507
-38.229
-39.639
-40.799
-41.802
-42.708
-43.58
-44.495
-45.516
-46.735
-48.249
-50.128
-52.492
-55.484
-59.152
-63.454
-68.201
-72.987
-77.415
-81.163
-83.819
-84.905
-84.131
-81.52
-77.522
-73.073
-69.089
-66.058
-64.376
-64.608
-66.988
-71.071
-75.615
-78.323
-76.755
-69.3
-54.277
-29.593
6.469
55.062
114.836
181.459
250.965
319.989
388.128
457.997
527.265
590.012
635.051
645.786
614.589
542.292
438.436
322.176
207.052
99.897
2.927
-86.918
-169.229
-239.866
-295.095
-331.959
-350.536
-353.57
-343.759
-323.791
-296.685
-265.812
-234.539
-205.269
-179.578
-158.096
-141.154
-129.36
-122.589
-119.728
-119.361
-120.091
-120.592
-120.281
-118.792
-115.323
-109.569
-101.874
-92.827
-83.444
-74.873
-67.622
-61.92
-58.13
-56.323
-56.369
-58.047
-60.756
-63.749
-66.616
-69.143
-71.189
-72.758
-73.795
-74.196
-73.96
-73.149
-71.805
-69.968
-67.644
-64.809
-61.508
-57.851
-53.987
-50.1
-46.313
-42.692
-39.281
-36.111
-33.217
-30.639
-28.399
-26.489
-24.902
-23.634
-22.687
-22.067
-21.753
-21.701
-21.845
-22.108
-22.435
-22.784
-23.122
-23.422
-23.655
-23.795
-23.825
-23.738
-23.522
-23.16
-22.63
-21.907
-20.973
-19.818
-18.432
-16.811
-14.946
-12.829
-10.452
-7.811
-4.9
-1.712
1.759
5.52
9.574
13.921
18.558
23.477
28.671
34.13
39.842
45.79
51.959
58.33
64.885
71.604
78.466
85.447
92.523
99.671
106.864
114.076
121.28
128.449
135.554
142.567
149.461
156.208
162.779
169.148
175.288
181.173
186.779
192.08
197.054
201.677
205.931
209.794
213.25
216.282
218.876
221.021
222.706
223.924
224.669
224.937
224.726
224.038
222.873
221.238
219.138
216.581
213.578
210.141
206.284
202.022
197.373
192.356
186.99
181.296
175.298
169.018
162.481
155.712
148.736
141.58
134.27
126.833
119.296
111.685
104.026
96.347
88.672
81.026
73.434
65.92
58.504
51.209
44.054
37.057
30.235
23.605
17.18
10.973
4.995
-0.744
-6.236
-11.475
-16.455
-21.173
-25.625
-29.812
-33.734
-37.391
-40.788
-43.926
-46.812
-49.45
-51.849
-54.014
-55.954
-57.678
-59.197
-60.519
-61.655
-62.617
-63.416
-64.063
-64.568
-64.944
-65.201
-65.35
-65.401
-65.364
-65.249
-65.065
-64.82
-64.523
-64.181
-63.801
-63.389
-62.952
-62.495
-62.024
-61.542
-61.054
-60.564
-60.074
-59.587
-59.106
-58.633
-58.17
-57.717
-57.276
-56.846
-56.429
-56.024
-55.631
-55.249
-54.878
-54.516
-54.164
-53.821
-53.486
-53.159
-52.84
-52.53
-52.228
-51.937
-51.656
-51.387
-51.131
-50.889
-50.664
-50.455
-50.266
-50.099
-49.954
-49.835
-49.743
-49.68
-49.649
-49.65
-49.687
-49.761
-49.874
-50.027
-50.223
-50.462
-50.747
-51.079
-51.458
-51.887
-52.365
-52.892
-53.468
-54.091
-54.76
-55.472
-56.224
-57.013
-57.834
-58.682
-59.554
-60.443
-61.344
-62.25
-63.155
-64.05
-64.929
-65.783
-66.604
-67.384
-68.113
-68.784
-69.387
-69.915
-70.359
-70.711
-70.963
-71.106
-71.134
-71.039
-70.813
-70.45
-69.945
-69.292
-68.49
-67.534
-66.424
-65.158
-63.737
-62.164
-60.441
-58.573
-56.565
-54.423
-52.154
-49.769
-47.279
-44.695
-42.031
-39.301
-36.524
-33.718
-30.9
-28.091
-25.31
-22.577
-19.913
-17.337
-14.869
-12.525
-10.326
-8.288
-6.432
-4.778
-3.342
-2.141
-1.191
-0.507
-0.104
0.008
-0.171
-0.645
-1.418
-2.494
-3.884
-5.594
-7.617
-9.948
-12.576
-15.484
-18.653
-22.041
-25.595
-29.262
-32.992
-36.747
-40.503
-44.224
-47.866
-51.378
-54.703
-57.801
-60.658
-63.245
-65.533
-67.514
-69.205
-70.678
-72.046
-73.394
-74.779
-76.232
-77.784
-79.501
-81.465
-83.759
-86.455
-89.572
-93.135
-97.229
-101.831
-106.792
-111.823
-116.406
-120.061
-122.469
-123.23
-122.019
-118.835
-113.851
-107.586
-100.92
-94.378
-88.337
-83.407
-79.719
-76.827
-73.948
-69.527
-61.78
-49.619
-31.777
-6.566
26.783
68.366
117.747
172.985
231.803
292.55
351.326
403.295
445.984
475.937
492.639
497.5
485.838
454.645
401.339
323.865
230.283
129.121
27.917
-64.667
-146.629
-216.378
-271.064
-310.727
-334.563
-342.659
-337.496
-321.54
-297.657
-269.302
-239.724
-211.175
-185.206
-163.084
-145.179
-131.585
-122.642
-117.912
-116.312
-117.159
-119.578
-122.336
-124.896
-126.769
-127.088
-125.653
-122.699
-118.352
-113.18
-108.032
-103.233
-99.045
-95.86
-93.67
-92.325
-91.687
-91.347
-90.837
-89.96
-88.602
-86.681
-84.267
-81.409
-78.15
-74.622
-70.954
-67.223
-63.487
-59.777
-56.112
-52.544
-49.146
-45.97
-43.053
-40.416
-38.063
-35.994
-34.206
-32.68
-31.389
-30.308
-29.418
-28.702
-28.15
-27.747
-27.473
-27.303
-27.213
-27.175
-27.164
-27.156
-27.129
-27.063
-26.943
-26.753
-26.479
-26.105
-25.615
-24.991
-24.215
-23.269
-22.136
-20.801
-19.248
-17.465
-15.443
-13.172
-10.644
-7.855
-4.798
-1.471
2.128
6
10.143
14.553
19.226
24.154
29.328
34.738
40.372
46.216
52.256
58.476
64.858
71.384
78.036
84.793
91.635
98.539
105.483
112.445
119.399
126.323
133.191
139.98
146.663
153.216
159.616
165.839
171.86
177.659
183.211
188.497
193.497
198.191
202.562
206.594
210.271
213.58
216.509
219.049
221.19
222.925
224.25
225.158
225.649
225.72
225.371
224.605
223.424
221.834
219.841
217.453
214.679
211.529
208.017
204.155
199.959
195.444
190.628
185.528
180.163
174.553
168.718
162.679
156.458
150.074
143.55
136.907
130.166
123.348
116.474
109.563
102.637
95.713
88.812
81.952
75.151
68.426
61.794
55.271
48.873
42.614
36.508
30.568
24.805
19.231
13.855
8.685
3.73
-1.004
-5.512
-9.788
-13.831
-17.637
-21.204
-24.534
-27.625
-30.479
-33.098
-35.486
-37.644
-39.577
-41.29
-42.788
-44.076
-45.16
-46.049
-46.747
-47.265
-47.61
-47.79
-47.816
-47.696
-47.441
-47.06
-46.564
-45.963
-45.267
-44.486
-43.631
-42.711
-41.736
-40.717
-39.663
-38.582
-37.483
-36.375
-35.264
-34.158
-33.064
-31.987
-30.934
-29.91
-28.92
-27.967
-27.056
-26.19
-25.371
-24.601
-23.882
-23.214
-22.597
-22.032
-21.517
-21.053
-20.637
-20.269
-19.947
-19.67
-19.436
-19.242
-19.086
-18.965
-18.876
-18.816
-18.781
-18.77
-18.779
-18.808
-18.854
-18.917
-18.995
-19.088
-19.196
-19.317
-19.453
-19.604
-19.769
-19.952
-20.152
-20.374
-20.618
-20.89
-21.19
-21.521
-21.886
-22.285
-22.72
-23.19
-23.695
-24.234
-24.803
-25.404
-26.035
-26.695
-27.385
-28.105
-28.855
-29.636
-30.443
-31.275
-32.124
-32.981
-33.838
-34.682
-35.503
-36.291
-37.036
-37.729
-38.361
-38.927
-39.416
-39.819
-40.118
-40.294
-40.33
-40.216
-39.946
-39.521
-38.953
-38.259
-37.458
-36.575
-35.625
-34.616
-33.542
-32.382
-31.114
-29.716
-28.178
-26.507
-24.708
-22.784
-20.733
-18.546
-16.2
-13.659
-10.878
-7.802
-4.399
-0.66
3.385
7.677
12.131
16.649
21.147
25.566
29.848
33.943
37.795
41.349
44.53
47.253
49.416
50.902
51.621
51.516
50.569
48.81
46.303
43.153
39.452
35.276
30.692
25.761
20.551
15.144
9.632
4.112
-1.306
-6.499
-11.36
-15.793
-19.729
-23.133
-26.014
-28.419
-30.399
-31.995
-33.237
-34.161
-34.834
-35.363
-35.871
-36.459
-37.223
-38.25
-39.617
-41.421
-43.764
-46.707
-50.286
-54.497
-59.274
-64.604
-70.511
-76.872
-83.444
-89.805
-95.337
-99.562
-102.157
-102.701
-100.848
-96.491
-89.653
-80.886
-71.191
-61.284
-51.767
-43.185
-35.595
-28.71
-21.973
-13.976
-2.772
13.392
36.252
67.342
107.492
156.768
214.518
277.854
341.903
402.256
455.318
500.995
541.772
576.42
598.879
597.547
560.317
484.789
379.26
260.07
144.444
42.027
-44.933
-118.202
-179.221
-227.357
-261.005
-278.997
-282.708
-274.915
-258.843
-238.411
-216.602
-195.342
-176.096
-159.544
-145.869
-135.152
-127.017
-120.797
-116.226
-113.099
-111.193
-110.305
-109.854
-109.4
-108.885
-108.135
-106.794
-104.674
-101.676
-97.993
-94.295
-90.985
-88.148
-85.947
-84.491
-83.772
-83.761
-84.181
-84.535
-84.536
-84.077
-83.097
-81.633
-79.719
-77.364
-74.667
-71.775
-68.79
-65.784
-62.79
-59.814
-56.897
-54.105
-51.507
-49.158
-47.087
-45.305
-43.819
-42.628
-41.723
-41.082
-40.676
-40.476
-40.463
-40.62
-40.933
-41.386
-41.956
-42.619
-43.347
-44.111
-44.885
-45.646
-46.371
-47.04
-47.635
-48.136
-48.53
-48.798
-48.924
-48.887
-48.668
-48.25
-47.613
-46.744
-45.626
-44.248
-42.599
-40.671
-38.455
-35.948
-33.145
-30.042
-26.641
-22.941
-18.944
-14.655
-10.079
-5.224
-0.099
5.286
10.917
16.78
22.859
29.138
35.595
42.213
48.969
55.841
62.806
69.839
76.915
84.009
91.093
98.141
105.125
112.019
118.793
125.423
131.88
138.138
144.174
149.962
155.478
160.701
165.609
170.181
174.398
178.242
181.698
184.75
187.384
189.591
191.36
192.685
193.559
193.979
193.945
193.455
192.514
191.124
189.293
187.029
184.341
181.242
177.746
173.868
169.625
165.037
160.123
154.904
149.403
143.643
137.646
131.438
125.043
118.487
111.795
104.992
98.104
91.156
84.173
77.18
70.201
63.258
56.373
49.568
42.863
36.275
29.824
23.526
17.395
11.447
5.694
0.147
-5.185
-10.293
-15.169
-19.81
-24.211
-28.369
-32.283
-35.954
-39.381
-42.569
-45.518
-48.235
-50.724
-52.991
-55.043
-56.887
-58.531
-59.983
-61.253
-62.349
-63.28
-64.055
-64.683
-65.173
-65.535
-65.776
-65.906
-65.934
-65.868
-65.717
-65.488
-65.19
-64.83
-64.415
-63.952
-63.447
-62.906
-62.334
-61.737
-61.119
-60.483
-59.835
-59.176
-58.511
-57.84
-57.167
-56.492
-55.818
-55.145
-54.474
-53.806
-53.143
-52.484
-51.832
-51.187
-50.551
-49.923
-49.306
-48.699
-48.104
-47.52
-46.95
-46.392
-45.849
-45.319
-44.803
-44.302
-43.816
-43.347
-42.893
-42.457
-42.039
-41.64
-41.261
-40.905
-40.572
-40.266
-39.988
-39.741
-39.528
-39.35
-39.211
-39.113
-39.058
-39.048
-39.085
-39.169
-39.302
-39.485
-39.718
-40.002
-40.337
-40.724
-41.161
-41.65
-42.188
-42.775
-43.41
-44.091
-44.816
-45.582
-46.386
-47.225
-48.095
-48.99
-49.906
-50.836
-51.774
-52.712
-53.641
-54.552
-55.437
-56.285
-57.086
-57.829
-58.505
-59.102
-59.613
-60.025
-60.331
-60.52
-60.583
-60.513
-60.301
-59.939
-59.42
-58.739
-57.888
-56.865
-55.666
-54.286
-52.725
-50.982
-49.057
-46.954
-44.675
-42.226
-39.612
-36.843
-33.928
-30.88
-27.712
-24.44
-21.081
-17.653
-14.18
-10.682
-7.181
-3.701
-0.265
3.103
6.38
9.544
12.574
15.448
18.145
20.641
22.913
24.941
26.705
28.188
29.373
30.242
30.785
30.997
30.873
30.408
29.596
28.424
26.885
24.983
22.727
20.129
17.21
13.995
10.521
6.841
3.004
-0.942
-4.959
-9.021
-13.091
-17.121
-21.056
-24.829
-28.389
-31.712
-34.767
-37.519
-39.967
-42.132
-44.071
-45.883
-47.632
-49.345
-51.059
-52.812
-54.672
-56.732
-59.069
-61.731
-64.784
-68.308
-72.317
-76.744
-81.35
-85.718
-89.431
-92.161
-93.605
-93.389
-91.301
-87.387
-81.982
-75.845
-69.699
-63.827
-58.459
-54.011
-50.634
-48.021
-45.351
-40.908
-32.841
-20.056
-1.535
24.213
58.642
102.746
156.63
217.648
281.269
344.229
404.038
461.096
517.646
571.303
615.289
638.035
625.575
571.22
478.236
357.595
226.876
102.758
-5.31
-91.693
-156.294
-204.792
-240.694
-265.969
-281.813
-283.995
-270.371
-246.232
-217.067
-191.418
-176.709
-169.991
-168.036
-167.514
-163.661
-158.14
-152.163
-144.882
-137.293
-128.561
-117.992
-106.553
-94.71
-83.065
-72.542
-63.712
-56.881
-52.214
-49.605
-48.747
-49.389
-51.342
-54.369
-58.188
-62.494
-66.932
-71.224
-75.224
-78.833
-81.965
-84.532
-86.421
-87.541
-87.869
-87.427
-86.254
-84.394
-81.888
-78.801
-75.249
-71.391
-67.409
-63.453
-59.617
-55.958
-52.522
-49.352
-46.497
-43.989
-41.829
-40.004
-38.503
-37.321
-36.457
-35.891
-35.582
-35.466
-35.475
-35.552
-35.66
-35.769
-35.852
-35.883
-35.839
-35.705
-35.474
-35.138
-34.684
-34.093
-33.342
-32.416
-31.304
-29.998
-28.494
-26.781
-24.852
-22.699
-20.314
-17.691
-14.824
-11.703
-8.319
-4.668
-0.747
3.442
7.896
12.61
17.577
22.788
28.232
33.896
39.766
45.826
52.062
58.456
64.988
71.639
78.388
85.211
92.087
98.99
105.895
112.777
119.61
126.368
133.024
139.552
145.925
152.119
158.107
163.866
169.37
174.596
179.522
184.126
188.387
192.289
195.813
198.944
201.669
203.976
205.858
207.306
208.314
208.88
209.002
208.68
207.916
206.715
205.083
203.027
200.558
197.688
194.429
190.798
186.81
182.485
177.84
172.896
167.675
162.199
156.49
150.573
144.471
138.208
131.811
125.302
118.708
112.052
105.358
98.65
91.95
85.279
78.658
72.106
65.642
59.283
53.044
46.941
40.986
35.193
29.571
24.13
18.878
13.822
8.967
4.317
-0.125
-4.357
-8.378
-12.189
-15.791
-19.185
-22.375
-25.363
-28.154
-30.753
-33.165
-35.397
-37.454
-39.344
-41.073
-42.648
-44.075
-45.362
-46.516
-47.542
-48.448
-49.239
-49.922
-50.502
-50.986
-51.377
-51.683
-51.907
-52.053
-52.127
-52.133
-52.073
-51.951
-51.772
-51.537
-51.252
-50.917
-50.538
-50.117
-49.658
-49.163
-48.636
-48.079
-47.496
-46.889
-46.262
-45.618
-44.96
-44.292
-43.616
-42.937
-42.259
-41.586
-40.92
-40.268
-39.631
-39.014
-38.421
-37.855
-37.32
-36.819
-36.357
-35.936
-35.56
-35.232
-34.955
-34.732
-34.566
-34.457
-34.409
-34.421
-34.495
-34.631
-34.83
-35.091
-35.414
-35.797
-36.241
-36.741
-37.297
-37.906
-38.563
-39.265
-40.007
-40.784
-41.591
-42.422
-43.27
-44.131
-44.997
-45.862
-46.718
-47.558
-48.375
-49.16
-49.906
-50.604
-51.245
-51.821
-52.323
-52.743
-53.074
-53.309
-53.439
-53.457
-53.358
-53.133
-52.778
-52.288
-51.657
-50.88
-49.956
-48.882
-47.657
-46.281
-44.755
-43.082
-41.263
-39.305
-37.211
-34.989
-32.645
-30.188
-27.627
-24.974
-22.24
-19.439
-16.585
-13.694
-10.784
-7.876
-4.987
-2.137
0.653
3.364
5.973
8.461
10.81
13.003
15.022
16.849
18.465
19.85
20.991
21.871
22.481
22.807
22.84
22.575
22.013
21.157
20.008
18.564
16.812
14.751
12.386
9.725
6.78
3.572
0.123
-3.532
-7.343
-11.263
-15.246
-19.255
-23.268
-27.249
-31.152
-34.925
-38.5
-41.825
-44.871
-47.595
-49.97
-52.001
-53.7
-55.126
-56.367
-57.476
-58.506
-59.52
-60.571
-61.752
-63.148
-64.808
-66.836
-69.362
-72.437
-76.047
-80.016
-83.928
-87.417
-90.227
-91.989
-92.261
-90.752
-87.429
-82.735
-77.701
-73.193
-69.448
-66.877
-66.266
-67.913
-71.708
-75.808
-76.021
-70.166
-58.127
-40.913
-21.667
1.714
35.513
84.602
154.278
241.678
336.053
427.434
504.333
559.945
594.467
607.474
599.256
569.889
517.542
443.374
351.578
247.798
138.923
30.949
-70.892
-161.479
-236.498
-293.018
-329.949
-348.312
-350.312
-338.096
-314.695
-284.101
-250.331
-217.315
-188.043
-163.792
-145.197
-133.101
-127.406
-126.936
-130.06
-134.489
-138.148
-140.222
-140.218
-137.381
-131.517
-122.934
-112.281
-100.953
-90.427
-81.394
-74.263
-69.401
-66.821
-66.476
-68.2
-71.373
-75.268
-79.392
-83.376
-87.019
-90.293
-93.108
-95.366
-97.048
-98.129
-98.607
-98.494
-97.766
-96.408
-94.432
-91.881
-88.857
-85.506
-81.982
-78.434
-74.965
-71.629
-68.484
-65.572
-62.934
-60.613
-58.621
-56.95
-55.606
-54.588
-53.89
-53.507
-53.402
-53.516
-53.788
-54.152
-54.559
-54.978
-55.377
-55.728
-56.006
-56.191
-56.27
-56.237
-56.078
-55.777
-55.314
-54.667
-53.822
-52.772
-51.507
-50.02
-48.305
-46.351
-44.152
-41.701
-38.994
-36.021
-32.777
-29.255
-25.451
-21.367
-17.006
-12.374
-7.478
-2.329
3.063
8.683
14.515
20.544
26.753
33.125
39.64
46.278
53.019
59.839
66.716
73.625
80.541
87.438
94.289
101.067
107.744
114.295
120.691
126.907
132.917
138.696
144.218
149.461
154.402
159.018
163.291
167.201
170.733
173.87
176.601
178.914
180.801
182.254
183.27
183.843
183.972
183.659
182.903
181.709
180.082
178.03
175.562
172.688
169.423
165.78
161.777
157.431
152.761
147.788
142.534
137.021
131.272
125.311
119.163
112.853
106.406
99.847
93.2
86.491
79.744
72.983
66.229
59.506
52.833
46.231
39.719
33.316
27.038
20.901
14.921
9.111
3.484
-1.948
-7.176
-12.191
-16.987
-21.558
-25.898
-30.006
-33.88
-37.519
-40.923
-44.094
-47.034
-49.747
-52.237
-54.51
-56.57
-58.425
-60.081
-61.544
-62.822
-63.922
-64.852
-65.618
-66.228
-66.688
-67.006
-67.19
-67.246
-67.182
-67.005
-66.722
-66.341
-65.869
-65.312
-64.676
-63.969
-63.195
-62.361
-61.472
-60.534
-59.551
-58.529
-57.473
-56.388
-55.278
-54.147
-52.999
-51.84
-50.672
-49.501
-48.33
-47.165
-46.01
-44.87
-43.751
-42.659
-41.598
-40.573
-39.591
-38.656
-37.772
-36.944
-36.174
-35.466
-34.824
-34.25
-33.745
-33.312
-32.951
-32.663
-32.448
-32.305
-32.233
-32.228
-32.29
-32.413
-32.594
-32.828
-33.112
-33.438
-33.801
-34.194
-34.609
-35.038
-35.47
-35.897
-36.307
-36.688
-37.027
-37.315
-37.537
-37.684
-37.743
-37.702
-37.553
-37.284
-36.887
-36.353
-35.674
-34.842
-33.854
-32.703
-31.387
-29.904
-28.253
-26.434
-24.452
-22.309
-20.01
-17.563
-14.974
-12.252
-9.406
-6.449
-3.393
-0.253
2.957
6.216
9.506
12.803
16.082
19.322
22.498
25.584
28.556
31.392
34.07
36.574
38.884
40.983
42.852
44.473
45.832
46.917
47.719
48.227
48.434
48.338
47.941
47.252
46.273
45.006
43.45
41.597
39.448
37.01
34.296
31.318
28.098
24.66
21.044
17.304
13.491
9.652
5.834
2.074
-1.573
-5.048
-8.292
-11.248
-13.86
-16.092
-17.925
-19.342
-20.356
-20.985
-21.248
-21.218
-20.979
-20.627
-20.287
-20.063
-20.048
-20.383
-21.248
-22.724
-24.783
-27.246
-29.738
-31.902
-33.491
-34.213
-33.677
-31.68
-28.372
-24.259
-20.34
-17.616
-16.577
-17.589
-21.135
-27.207
-35.058
-43.22
-49.19
-50.235
-44.487
-30.262
-5.597
30.86
79.539
139.642
207.722
278.699
348.457
413.616
473.221
528.238
576.929
613.809
628.843
611.422
557.202
471.204
367.386
260.56
160.736
71.362
-9.57
-82.473
-145.102
-194.734
-228.866
-247.942
-254.708
-251.479
-240.86
-226.041
-209.738
-194.266
-180.62
-168.17
-156.169
-144.607
-133.657
-122.997
-112.087
-100.373
-88.206
-76.953
-67.64
-60.42
-54.794
-50.38
-47.195
-45.419
-44.814
-44.558
-43.991
-43.017
-42.086
-41.603
-41.587
-41.86
-42.264
-42.876
-43.822
-44.993
-46.03
-46.59
-46.487
-45.661
-44.145
-41.943
-39.024
-35.443
-31.335
-26.866
-22.223
-17.545
-12.927
-8.457
-4.207
-0.231
3.422
6.725
9.667
12.23
14.394
16.148
17.479
18.39
18.895
19.026
18.827
18.348
17.628
16.705
15.603
14.346
12.954
11.443
9.819
8.092
6.276
4.388
2.452
0.489
-1.484
-3.449
-5.393
