Name,Criss Capps
Date of Birth,"Feb 5, 1952"
Recorded Date,2022-08-01 15:44:17 -0400
Classification,Poor Recording
Symptoms,
Software Version,1.90
Device,"Watch5,4"
Sample Rate,512.844 hertz


Lead,Lead I
Unit,µV

-39.401
-41.41
-43.323
-45.127
-46.814
-48.371
-49.79
-51.059
-52.17
-53.114
-53.882
-54.467
-54.863
-55.063
-55.063
-54.858
-54.445
-53.823
-52.989
-51.945
-50.691
-49.23
-47.564
-45.698
-43.638
-41.39
-38.961
-36.361
-33.598
-30.683
-27.627
-24.443
-21.143
-17.741
-14.251
-10.687
-7.064
-3.398
0.296
4.004
7.708
11.395
15.049
18.656
22.201
25.671
29.052
32.333
35.501
38.545
41.456
44.224
46.84
49.298
51.59
53.712
55.658
57.427
59.014
60.42
61.643
62.685
63.548
64.234
64.747
65.093
65.277
65.306
65.187
64.929
64.541
64.031
63.411
62.691
61.881
60.992
60.036
59.023
57.965
56.874
55.76
54.635
53.508
52.39
51.291
50.221
49.189
48.202
47.27
46.398
45.595
44.867
44.217
43.652
43.175
42.788
42.495
42.296
42.192
42.182
42.267
42.442
42.706
43.055
43.486
43.993
44.571
45.214
45.916
46.67
47.47
48.307
49.175
50.066
50.972
51.885
52.797
53.701
54.588
55.452
56.285
57.08
57.829
58.527
59.167
59.744
60.251
60.684
61.039
61.312
61.5
61.6
61.611
61.531
61.36
61.098
60.746
60.305
59.777
59.165
58.472
57.702
56.858
55.945
54.968
53.933
52.844
51.708
50.531
49.319
48.077
46.813
45.533
44.243
42.949
41.658
40.376
39.109
37.863
36.644
35.455
34.303
33.192
32.125
31.106
30.138
29.224
28.364
27.561
26.814
26.125
25.492
24.914
24.389
23.915
23.49
23.109
22.769
22.465
22.194
21.948
21.724
21.516
21.317
21.121
20.922
20.713
20.489
20.241
19.964
19.651
19.295
18.89
18.43
17.91
17.323
16.665
15.93
15.115
14.217
13.23
12.154
10.986
9.724
8.367
6.916
5.37
3.731
2
0.181
-1.726
-3.715
-5.783
-7.927
-10.14
-12.418
-14.755
-17.145
-19.582
-22.06
-24.572
-27.111
-29.67
-32.243
-34.823
-37.402
-39.975
-42.535
-45.075
-47.59
-50.074
-52.522
-54.928
-57.288
-59.597
-61.853
-64.052
-66.192
-68.27
-70.285
-72.236
-74.123
-75.945
-77.704
-79.399
-81.032
-82.605
-84.121
-85.58
-86.985
-88.341
-89.648
-90.91
-92.131
-93.313
-94.459
-95.572
-96.655
-97.71
-98.74
-99.746
-100.73
-101.693
-102.638
-103.563
-104.47
-105.357
-106.226
-107.073
-107.898
-108.699
-109.472
-110.215
-110.924
-111.595
-112.225
-112.807
-113.338
-113.813
-114.226
-114.571
-114.845
-115.04
-115.152
-115.175
-115.104
-114.935
-114.662
-114.282
-113.79
-113.184
-112.46
-111.616
-110.65
-109.561
-108.349
-107.013
-105.554
-103.973
-102.273
-100.456
-98.526
-96.486
-94.342
-92.099
-89.763
-87.341
-84.84
-82.267
-79.63
-76.937
-74.198
-71.42
-68.613
-65.786
-62.947
-60.107
-57.273
-54.454
-51.659
-48.896
-46.172
-43.495
-40.871
-38.306
-35.806
-33.375
-31.019
-28.741
-26.543
-24.429
-22.399
-20.453
-18.593
-16.817
-15.124
-13.511
-11.976
-10.515
-9.123
-7.798
-6.532
-5.321
-4.16
-3.041
-1.958
-0.904
0.126
1.141
2.147
3.151
4.159
5.178
6.214
7.272
8.358
9.478
10.634
11.833
13.076
14.368
15.709
17.103
18.55
20.05
21.603
23.208
24.864
26.568
28.317
30.108
31.937
33.799
35.689
37.601
39.53
41.469
43.411
45.35
47.277
49.187
51.071
52.922
54.732
56.493
58.2
59.844
61.418
62.917
64.333
65.661
66.895
68.031
69.063
69.988
70.802
71.503
72.087
72.555
72.904
73.135
73.247
73.243
73.122
72.889
72.544
72.093
71.54
70.888
70.143
69.311
68.397
67.41
66.355
65.24
64.072
62.861
61.613
60.337
59.041
57.735
56.427
55.124
53.837
52.572
51.339
50.145
48.998
47.906
46.876
45.914
45.028
44.223
43.504
42.876
42.344
41.913
41.586
41.366
41.254
41.255
41.371
41.605
41.959
42.432
43.018
43.722
44.543
45.473
46.505
47.633
48.848
50.152
51.55
53.034
54.589
56.238
58.007
59.874
61.834
63.891
65.97
68.25
70.902
73.668
76.468
78.833
80.201
81.185
82.189
83.819
86.912
90.72
94.612
98.154
100.63
102.546
104.415
106.351
108.665
111.173
113.637
116.102
118.535
120.951
123.397
125.84
128.254
130.649
133.023
135.376
137.706
140.016
142.307
144.583
146.85
149.107
151.35
153.582
155.803
158.013
160.213
162.403
164.582
166.75
168.909
171.057
173.196
175.324
177.441
179.546
181.64
183.722
185.79
187.843
189.881
191.903
193.906
195.891
197.854
199.796
201.713
203.605
205.469
207.303
209.106
210.875
212.609
214.304
215.959
217.572
219.14
220.662
222.135
223.558
224.929
226.246
227.509
228.715
229.864
230.955
231.987
232.96
233.873
234.727
235.522
236.258
236.935
237.555
238.119
238.628
239.083
239.485
239.838
240.143
240.401
240.616
240.79
240.926
241.027
241.095
241.134
241.147
241.136
241.104
241.055
240.991
240.914
240.828
240.733
240.632
240.527
240.419
240.309
240.198
240.087
239.976
239.866
239.755
239.643
239.53
239.414
239.295
239.17
239.038
238.897
238.745
238.579
238.396
238.194
237.969
237.718
237.439
237.127
236.78
236.394
235.967
235.495
234.977
234.408
233.788
233.114
232.385
231.6
230.757
229.857
228.898
227.882
226.809
225.679
224.494
223.255
221.964
220.624
219.236
217.804
216.329
214.816
213.267
211.686
210.077
208.444
206.79
205.12
203.439
201.749
200.055
198.362
196.672
194.99
193.318
191.66
190.018
188.394
186.791
185.21
183.651
182.116
180.605
179.117
177.652
176.209
174.788
173.385
172
170.63
169.273
167.927
166.588
165.253
163.92
162.584
161.243
159.892
158.528
157.147
155.745
154.318
152.862
151.373
149.849
148.286
146.681
145.031
143.334
141.588
139.791
137.942
136.04
134.085
132.078
130.017
127.905
125.742
123.53
121.271
118.966
116.619
114.232
111.808
109.349
106.859
104.343
101.802
99.242
96.666
94.078
91.484
88.886
86.291
83.701
81.123
78.56
76.017
73.498
71.006
68.547
66.124
63.74
61.399
59.103
56.855
54.658
52.513
50.422
48.387
46.409
44.489
42.627
40.825
39.082
37.399
35.776
34.211
32.705
31.256
29.864
28.527
27.243
26.011
24.828
23.692
22.6
21.55
20.538
19.562
18.618
17.703
16.814
15.948
15.101
14.27
13.452
12.644
11.844
11.048
10.253
9.458
8.66
7.856
7.046
6.227
5.397
4.557
3.705
2.841
1.964
1.076
0.176
-0.733
-1.65
-2.573
-3.499
-4.423
-5.342
-6.252
-7.146
-8.019
-8.866
-9.68
-10.456
-11.185
-11.861
-12.477
-13.025
-13.496
-13.884
-14.178
-14.372
-14.457
-14.426
-14.272
-13.988
-13.566
-12.998
-12.28
-11.404
-10.363
-9.15
-7.755
-6.174
-4.416
-2.485
-0.381
1.886
4.305
6.867
9.553
12.354
15.294
18.39
21.637
25.052
28.674
32.489
36.474
40.614
44.758
48.954
53.552
58.461
63.381
67.585
69.545
69.101
67.597
67.14
70.773
79.339
90.641
101.324
107.655
108.131
104.539
100.026
97.423
97.949
100.777
103.941
105.838
106.111
105.284
104.496
104.998
106.62
108.3
108.934
107.06
102.732
97.356
91.998
87.856
85.106
82.736
80.148
76.912
72.924
68.618
64.187
59.629
54.982
50.217
45.358
40.498
35.676
30.895
26.163
21.46
16.756
11.994
7.087
1.985
-3.301
-8.724
-14.181
-19.576
-24.892
-30.074
-35.024
-39.776
-44.443
-49.214
-54.428
-60.332
-67.035
-74.725
-83.597
-93.347
-103.295
-112.712
-120.718
-127.487
-134.073
-140.699
-147.04
-151.125
-149.621
-140.443
-122.862
-99.074
-73.985
-52.764
-40.264
-38.189
-45.126
-58.392
-74.332
-91.124
-108.63
-127.09
-147.312
-168.997
-191.002
-212.183
-231.159
-247.157
-260.098
-270.077
-277.456
-282.803
-286.603
-289.463
-292.189
-295.313
-299.107
-303.721
-309.082
-314.996
-321.308
-327.744
-333.899
-339.547
-344.608
-349.068
-353.033
-356.609
-359.863
-362.92
-365.943
-369.017
-372.169
-375.376
-378.571
-381.719
-384.784
-387.702
-390.432
-392.957
-395.307
-397.581
-399.862
-402.207
-404.688
-407.367
-410.245
-413.289
-416.354
-419.189
-421.588
-423.391
-424.487
-424.88
-424.699
-424.214
-423.857
-424.383
-426.785
-431.686
-439.442
-449.662
-460.678
-471.687
-482.841
-495.085
-511.407
-533.158
-558.48
-583.432
-600.989
-604.927
-593.362
-568.328
-535.737
-502.682
-474.127
-451.933
-436
-425.585
-420.182
-420.381
-425.538
-433.258
-440.44
-443.239
-440.194
-432.53
-422.579
-413.666
-407.475
-403.739
-401.587
-399.59
-397.024
-394.079
-391.086
-388.442
-386.263
-384.379
-382.604
-380.772
-378.839
-376.832
-374.761
-372.653
-370.491
-368.235
-365.883
-363.477
-361.084
-358.74
-356.475
-354.307
-352.185
-350.302
-348.84
-347.553
-346.349
-344.737
-342.145
-339.19
-336.295
-334.094
-333.435
-333.565
-333.834
-333.783
-332.677
-331.018
-329.309
-327.656
-326.37
-325.269
-324.132
-323.041
-321.991
-321.015
-320.166
-319.41
-318.723
-318.122
-317.61
-317.183
-316.84
-316.596
-316.479
-316.515
-316.721
-317.076
-317.528
-318.039
-318.56
-318.995
-319.291
-319.472
-319.527
-319.562
-319.622
-319.448
-319.087
-318.873
-319.294
-321.227
-324.768
-328.882
-332.055
-332.709
-330.339
-325.996
-321.639
-319.061
-319.306
-322.458
-327.599
-333.896
-340.716
-347.558
-354.648
-362.103
-369.839
-377.771
-385.289
-391.946
-397.649
-402.371
-406.341
-409.693
-412.317
-414.153
-415.181
-415.361
-414.692
-413.105
-410.436
-406.589
-401.521
-395.218
-387.708
-379.006
-369.105
-358.027
-345.807
-332.506
-318.238
-303.118
-287.264
-270.806
-253.836
-236.442
-218.71
-200.722
-182.564
-164.327
-146.087
-127.939
-110.001
-92.404
-75.304
-58.821
-43.015
-27.925
-13.552
0.115
13.065
25.294
36.808
47.613
57.728
67.175
75.968
84.146
91.779
98.964
105.837
112.506
119.038
125.483
131.862
138.186
144.477
150.741
156.97
163.156
169.287
175.355
181.363
187.294
193.112
198.762
204.166
209.264
214.02
218.405
222.407
226.017
229.229
232.049
234.499
236.599
238.363
239.806
240.934
241.762
242.314
242.62
242.716
242.632
242.388
242.004
241.495
240.876
240.157
239.345
238.437
237.435
236.345
235.172
233.925
232.611
231.234
229.799
228.312
226.779
225.207
223.602
221.972
220.324
218.665
217.006
215.354
213.719
212.108
210.527
208.982
207.48
206.025
204.623
203.278
201.992
200.771
199.618
198.536
197.529
196.598
195.745
194.974
194.285
193.68
193.16
192.724
192.373
192.105
191.921
191.817
191.792
191.844
191.969
192.165
192.428
192.754
193.14
193.581
194.073
194.611
195.192
195.812
196.465
197.148
197.857
198.589
199.34
200.107
200.886
201.675
202.472
203.273
204.078
204.884
205.691
206.496
207.3
208.103
208.904
209.704
210.504
211.306
212.112
212.923
213.742
214.572
215.416
216.278
217.161
218.069
219.007
219.979
220.989
222.041
223.14
224.289
225.493
226.755
228.079
229.468
230.926
232.454
234.056
235.734
237.488
239.321
241.234
243.226
245.299
247.453
249.685
251.996
254.384
256.848
259.384
261.99
264.664
267.4
270.197
273.048
275.95
278.897
281.884
284.905
287.954
291.025
294.112
297.209
300.309
303.405
306.492
309.561
312.608
315.625
318.605
321.542
324.43
327.262
330.032
332.734
335.361
337.907
340.365
342.731
344.997
347.158
349.208
351.142
352.954
354.64
356.193
357.609
358.884
360.014
360.994
361.821
362.492
363.003
363.353
363.538
363.556
363.406
363.087
362.598
361.938
361.107
360.105
358.934
357.594
356.088
354.418
352.587
350.598
348.456
346.164
343.729
341.157
338.453
335.624
332.678
329.623
326.467
323.219
319.886
316.479
313.006
309.476
305.9
302.286
298.644
294.983
291.312
287.64
283.975
280.325
276.698
273.102
269.543
266.028
262.562
259.151
255.799
252.51
249.288
246.133
243.049
240.035
237.092
234.219
231.414
228.674
225.998
223.38
220.817
218.304
215.835
213.406
211.009
208.64
206.29
203.956
201.628
199.303
196.973
194.633
192.277
189.9
187.498
185.066
182.601
180.099
177.558
174.977
172.354
169.689
166.983
164.236
161.451
158.631
155.779
152.9
150
147.084
144.159
141.234
138.316
135.413
132.536
129.694
126.897
124.156
121.48
118.881
116.369
113.954
111.647
109.459
107.398
105.475
103.699
102.077
100.619
99.331
98.222
97.296
96.56
96.018
95.674
95.532
95.594
95.861
96.334
97.012
97.894
98.978
100.261
101.739
103.406
105.256
107.283
109.479
111.836
114.345
116.995
119.776
122.678
125.688
128.794
131.984
135.245
138.563
141.926
145.319
148.729
152.14
155.54
158.913
162.246
165.524
168.734
171.86
174.891
177.811
180.609
183.271
185.785
188.14
190.324
192.327
194.139
195.75
197.153
198.34
199.303
200.036
200.535
200.794
200.81
200.58
200.102
199.374
198.398
197.172
195.698
193.979
192.017
189.817
187.381
184.716
181.828
178.723
175.408
171.891
168.181
164.286
160.216
155.98
151.589
147.053
142.384
137.591
132.687
127.682
122.587
117.415
112.176
106.882
101.544
96.173
90.779
85.373
79.967
74.569
69.19
63.84
58.527
53.261
48.049
42.902
37.826
32.828
27.917
23.099
18.379
13.765
9.261
4.874
0.606
-3.536
-7.549
-11.43
-15.176
-18.783
-22.249
-25.574
-28.754
-31.788
-34.677
-37.42
-40.016
-42.466
-44.771
-46.932
-48.951
-50.83
-52.57
-54.175
-55.649
-56.993
-58.213
-59.313
-60.297
-61.171
-61.94
-62.61
-63.187
-63.678
-64.088
-64.426
-64.698
-64.912
-65.074
-65.194
-65.277
-65.331
-65.365
-65.386
-65.4
-65.415
-65.438
-65.475
-65.533
-65.618
-65.735
-65.889
-66.085
-66.327
-66.62
-66.965
-67.365
-67.823
-68.339
-68.915
-69.55
-70.244
-70.995
-71.802
-72.663
-73.574
-74.531
-75.532
-76.571
-77.644
-78.745
-79.869
-81.011
-82.165
-83.324
-84.484
-85.637
-86.779
-87.903
-89.005
-90.08
-91.121
-92.126
-93.09
-94.01
-94.882
-95.704
-96.474
-97.191
-97.853
-98.461
-99.015
-99.516
-99.966
-100.365
-100.718
-101.027
-101.295
-101.526
-101.726
-101.897
-102.046
-102.176
-102.293
-102.403
-102.509
-102.618
-102.733
-102.86
-103.002
-103.164
-103.348
-103.557
-103.795
-104.062
-104.36
-104.689
-105.049
-105.439
-105.859
-106.305
-106.775
-107.266
-107.773
-108.292
-108.818
-109.345
-109.867
-110.377
-110.869
-111.335
-111.769
-112.162
-112.508
-112.799
-113.027
-113.186
-113.268
-113.266
-113.175
-112.989
-112.702
-112.311
-111.81
-111.197
-110.469
-109.625
-108.664
-107.586
-106.391
-105.081
-103.66
-102.13
-100.495
-98.76
-96.932
-95.016
-93.02
-90.951
-88.817
-86.627
-84.389
-82.114
-79.81
-77.488
-75.157
-72.826
-70.507
-68.207
-65.937
-63.707
-61.524
-59.397
-57.334
-55.343
-53.43
-51.602
-49.864
-48.222
-46.678
-45.238
-43.902
-42.674
-41.553
-40.541
-39.637
-38.839
-38.146
-37.555
-37.064
-36.668
-36.363
-36.145
-36.009
-35.95
-35.961
-36.037
-36.172
-36.36
-36.595
-36.871
-37.18
-37.519
-37.88
-38.257
-38.647
-39.042
-39.439
-39.833
-40.22
-40.595
-40.957
-41.301
-41.627
-41.931
-42.212
-42.469
-42.703
-42.913
-43.099
-43.262
-43.404
-43.525
-43.629
-43.717
-43.791
-43.854
-43.909
-43.959
-44.007
-44.056
-44.109
-44.169
-44.241
-44.326
-44.428
-44.55
-44.695
-44.865
-45.064
-45.294
-45.557
-45.856
-46.191
-46.566
-46.98
-47.436
-47.934
-48.475
-49.06
-49.688
-50.359
-51.074
-51.83
-52.628
-53.467
-54.344
-55.26
-56.211
-57.197
-58.214
-59.262
-60.338
-61.44
-62.565
-63.71
-64.873
-66.051
-67.242
-68.442
-69.648
-70.857
-72.067
-73.274
-74.474
-75.665
-76.843
-78.005
-79.148
-80.267
-81.361
-82.425
-83.456
-84.45
-85.405
-86.317
-87.182
-87.998
-88.761
-89.467
-90.114
-90.698
-91.215
-91.664
-92.04
-92.341
-92.564
-92.705
-92.763
-92.734
-92.615
-92.404
-92.1
-91.699
-91.199
-90.599
-89.898
-89.092
-88.182
-87.166
-86.043
-84.812
-83.473
-82.027
-80.472
-78.81
-77.042
-75.167
-73.189
-71.108
-68.927
-66.649
-64.275
-61.811
-59.259
-56.624
-53.909
-51.121
-48.265
-45.346
-42.37
-39.345
-36.277
-33.174
-30.042
-26.892
-23.73
-20.565
-17.407
-14.265
-11.149
-8.067
-5.032
-2.051
0.863
3.701
6.453
9.108
11.655
14.085
16.388
18.554
20.573
22.437
24.136
25.663
27.01
28.17
29.136
29.902
30.464
30.816
30.956
30.88
30.586
30.073
29.341
28.39
27.223
25.841
24.248
22.449
20.45
18.256
15.875
13.315
10.586
7.697
4.659
1.485
-1.815
-5.226
-8.736
-12.331
-15.996
-19.716
-23.478
-27.265
-31.063
-34.856
-38.63
-42.37
-46.061
-49.689
-53.24
-56.701
-60.059
-63.303
-66.42
-69.401
-72.236
-74.916
-77.433
-79.782
-81.956
-83.95
-85.763
-87.391
-88.834
-90.093
-91.167
-92.061
-92.778
-93.322
-93.7
-93.919
-93.985
-93.909
-93.698
-93.364
-92.917
-92.369
-91.731
-91.016
-90.236
-89.404
-88.533
-87.636
-86.725
-85.814
-84.915
-84.04
-83.201
-82.409
-81.675
-81.008
-80.418
-79.914
-79.502
-79.189
-78.982
-78.884
-78.9
-79.032
-79.282
-79.652
-80.139
-80.745
-81.465
-82.299
-83.241
-84.287
-85.433
-86.672
-87.997
-89.402
-90.88
-92.421
-94.019
-95.664
-97.349
-99.064
-100.801
-102.551
-104.306
-106.058
-107.8
-109.524
-111.222
-112.89
-114.522
-116.111
-117.655
-119.148
-120.589
-121.975
-123.303
-124.575
-125.788
-126.943
-128.043
-129.087
-130.079
-131.021
-131.917
-132.769
-133.582
-134.361
-135.109
-135.832
-136.534
-137.221
-137.897
-138.567
-139.236
-139.908
-140.588
-141.279
-141.985
-142.71
-143.455
-144.222
-145.014
-145.832
-146.674
-147.542
-148.434
-149.35
-150.286
-151.24
-152.21
-153.191
-154.18
-155.172
-156.163
-157.147
-158.118
-159.072
-160.003
-160.904
-161.77
-162.594
-163.372
-164.096
-164.762
-165.364
-165.896
-166.355
-166.735
-167.033
-167.244
-167.366
-167.396
-167.332
-167.173
-166.917
-166.564
-166.115
-165.57
-164.93
-164.198
-163.375
-162.464
-161.469
-160.394
-159.242
-158.018
-156.726
-155.371
-153.959
-152.494
-150.982
-149.428
-147.838
-146.217
-144.571
-142.904
-141.222
-139.53
-137.832
-136.134
-134.439
-132.751
-131.075
-129.414
-127.77
-126.147
-124.547
-122.972
-121.424
-119.903
-118.412
-116.951
-115.52
-114.12
-112.75
-111.409
-110.097
-108.813
-107.556
-106.324
-105.116
-103.93
-102.765
-101.618
-100.488
-99.372
-98.268
-97.175
-96.09
-95.011
-93.935
-92.861
-91.787
-90.709
-89.627
-88.538
-87.439
-86.33
-85.207
-84.069
-82.914
-81.74
-80.545
-79.327
-78.084
-76.815
-75.518
-74.191
-72.833
-71.441
-70.016
-68.555
-67.057
-65.521
-63.945
-62.329
-60.672
-58.972
-57.23
-55.444
-53.615
-51.74
-49.822
-47.858
-45.85
-43.798
-41.701
-39.562
-37.38
-35.156
-32.893
-30.591
-28.253
-25.88
-23.475
-21.041
-18.579
-16.094
-13.589
-11.066
-8.529
-5.983
-3.43
-0.875
1.677
4.224
6.761
9.283
11.787
14.268
16.722
19.145
21.532
23.88
26.185
28.443
30.65
32.803
34.898
36.931
38.902
40.806
42.641
44.406
46.098
47.717
49.262
50.732
52.127
53.447
54.693
55.865
56.966
57.996
58.958
59.853
60.684
61.454
62.166
62.822
63.427
63.983
64.496
64.967
65.403
65.806
66.182
66.535
66.87
67.19
67.502
67.809
68.117
68.429
68.75
69.085
69.436
69.809
70.207
70.633
71.09
71.58
72.106
72.671
73.275
73.92
74.607
75.337
76.11
76.927
77.786
78.689
79.634
80.619
81.644
82.706
83.804
84.935
86.096
87.285
88.498
89.732
90.982
92.246
93.518
94.795
96.071
97.343
98.606
99.856
101.087
102.296
103.479
104.63
105.745
106.822
107.855
108.842
109.778
110.661
111.486
112.252
112.954
113.589
114.156
114.651
115.072
115.416
115.682
115.867
115.97
115.989
115.923
115.77
115.53
115.202
114.785
114.278
113.681
112.994
112.216
111.348
110.39
109.341
108.201
106.971
105.651
104.241
102.741
101.152
99.474
97.709
95.855
93.916
91.891
89.783
87.593
85.323
82.976
80.554
78.06
75.496
72.868
70.177
67.429
64.628
61.777
58.883
55.949
52.983
49.988
46.971
43.938
40.896
37.85
34.808
31.777
28.763
25.774
22.818
19.901
17.031
14.215
11.46
8.775
6.164
3.636
1.196
-1.149
-3.394
-5.535
-7.565
-9.482
-11.28
-12.958
-14.512
-15.94
-17.241
-18.413
-19.457
-20.371
-21.157
-21.816
-22.348
-22.756
-23.043
-23.211
-23.262
-23.202
-23.034
-22.761
-22.389
-21.922
-21.365
-20.723
-20.002
-19.206
-18.341
-17.412
-16.423
-15.38
-14.288
-13.151
-11.973
-10.758
-9.511
-8.234
-6.93
-5.603
-4.255
-2.888
-1.504
-0.104
1.309
2.735
4.173
5.623
7.083
8.553
10.034
11.524
13.024
14.534
16.053
17.582
19.121
20.669
22.227
23.794
25.369
26.953
28.544
30.142
31.744
33.351
34.961
36.571
38.179
39.784
41.383
42.974
44.552
46.116
47.661
49.185
50.683
52.153
53.589
54.989
56.349
57.665
58.932
60.149
61.31
62.413
63.455
64.433
65.343
66.184
66.954
67.65
68.271
68.816
69.284
69.674
69.988
70.224
70.384
70.469
70.481
70.421
70.293
70.099
69.843
69.529
69.162
68.745
68.285
67.788
67.258
66.703
66.13
65.545
64.956
64.369
63.793
63.235
62.703
62.205
61.749
61.342
60.991
60.705
60.491
60.355
60.305
60.347
60.487
60.73
61.082
61.547
62.129
62.832
63.659
64.611
65.691
66.898
68.232
69.692
71.277
72.982
74.806
76.743
78.789
80.936
83.178
85.508
87.916
90.395
92.934
95.523
98.152
100.808
103.48
106.157
108.826
111.474
114.088
116.657
119.168
121.607
123.963
126.224
128.378
130.413
132.32
134.087
135.706
137.167
138.464
139.588
140.534
141.296
141.871
142.255
142.446
142.443
142.245
141.854
141.271
140.499
139.542
138.405
137.092
135.611
133.968
132.171
130.229
128.15
125.944
123.621
121.19
118.662
116.047
113.357
110.601
107.791
104.936
102.047
99.133
96.204
93.268
90.335
87.412
84.506
81.625
78.773
75.958
73.182
70.452
67.769
65.138
62.559
60.034
57.564
55.15
52.791
50.486
48.234
46.034
43.882
41.778
39.717
37.698
35.716
33.769
31.854
29.967
28.104
26.264
24.443
22.637
20.846
19.065
17.295
15.531
13.775
12.023
10.276
8.533
6.795
5.06
3.331
1.608
-0.107
-1.815
-3.511
-5.196
-6.865
-8.518
-10.152
-11.764
-13.352
-14.912
-16.443
-17.941
-19.404
-20.83
-22.216
-23.56
-24.859
-26.113
-27.32
-28.478
-29.587
-30.646
-31.655
-32.613
-33.522
-34.382
-35.194
-35.96
-36.681
-37.358
-37.996
-38.594
-39.158
-39.689
-40.19
-40.666
-41.119
-41.554
-41.974
-42.383
-42.785
-43.185
-43.586
-43.993
-44.41
-44.841
-45.291
-45.763
-46.262
-46.79
-47.353
-47.952
-48.592
-49.276
-50.006
-50.785
-51.615
-52.498
-53.436
-54.43
-55.481
-56.59
-57.758
-58.984
-60.27
-61.613
-63.015
-64.473
-65.986
-67.553
-69.171
-70.838
-72.552
-74.31
-76.108
-77.942
-79.809
-81.705
-83.625
-85.565
-87.519
-89.482
-91.449
-93.414
-95.372
-97.317
-99.243
-101.144
-103.014
-104.847
-106.637
-108.378
-110.064
-111.689
-113.247
-114.732
-116.139
-117.463
-118.698
-119.839
-120.882
-121.821
-122.653
-123.373
-123.979
-124.467
-124.834
-125.078
-125.197
-125.188
-125.052
-124.788
-124.395
-123.873
-123.224
-122.448
-121.547
-120.523
-119.377
-118.113
-116.734
-115.242
-113.641
-111.936
-110.13
-108.227
-106.232
-104.151
-101.987
-99.746
-97.433
-95.053
-92.611
-90.113
-87.563
-84.967
-82.33
-79.656
-76.951
-74.219
-71.464
-68.691
-65.903
-63.104
-60.297
-57.486
-54.673
-51.861
-49.053
-46.25
-43.454
-40.667
-37.892
-35.128
-32.377
-29.64
-26.919
-24.213
-21.524
-18.852
-16.197
-13.561
-10.944
-8.346
-5.768
-3.21
-0.674
1.84
4.33
6.797
9.238
11.651
14.037
16.392
18.714
21.002
23.254
25.466
27.636
29.761
31.839
33.867
35.841
37.758
39.616
41.412
43.143
44.806
46.399
47.918
49.362
50.729
52.016
53.222
54.346
55.387
56.343
57.216
58.004
58.708
59.33
59.869
60.327
60.707
61.011
61.241
61.401
61.493
61.522
61.492
61.406
61.269
61.086
60.861
60.599
60.306
59.984
59.641
59.279
58.904
58.519
58.13
57.738
57.349
56.965
56.588
56.222
55.867
55.526
55.199
54.887
54.589
54.306
54.035
53.776
53.527
53.285
53.047
52.809
52.569
52.321
52.061
51.786
51.488
51.165
50.81
50.418
49.984
49.503
48.97
48.379
47.727
47.009
46.221
45.359
44.42
43.402
42.302
41.119
39.851
38.498
37.06
35.538
33.933
32.247
30.482
28.642
26.731
24.752
22.711
20.614
18.465
16.272
14.041
11.78
9.495
7.194
4.885
2.577
0.276
-2.009
-4.27
-6.499
-8.69
-10.834
-12.925
-14.955
-16.919
-18.811
-20.625
-22.356
-23.999
-25.552
-27.01
-28.37
-29.632
-30.792
-31.851
-32.808
-33.663
-34.417
-35.071
-35.627
-36.087
-36.455
-36.733
-36.925
-37.035
-37.067
-37.026
-36.915
-36.74
-36.506
-36.218
-35.88
-35.498
-35.077
-34.622
-34.137
-33.628
-33.098
-32.553
-31.996
-31.431
-30.862
-30.292
-29.724
-29.16
-28.604
-28.056
-27.519
-26.995
-26.484
-25.986
-25.504
-25.037
-24.585
-24.148
-23.726
-23.319
-22.926
-22.547
-22.181
-21.826
-21.483
-21.15
-20.826
-20.51
-20.201
-19.898
-19.6
-19.305
-19.012
-18.721
-18.429
-18.136
-17.842
-17.544
-17.242
-16.937
-16.626
-16.31
-15.988
-15.661
-15.327
-14.988
-14.642
-14.292
-13.935
-13.573
-13.207
-12.836
-12.461
-12.082
-11.699
-11.314
-10.927
-10.538
-10.148
-9.758
-9.368
-8.981
-8.596
-8.215
-7.84
-7.471
-7.111
-6.761
-6.422
-6.096
-5.785
-5.489
-5.211
-4.952
-4.713
-4.495
-4.299
-4.127
-3.979
-3.855
-3.758
-3.687
-3.642
-3.624
-3.633
-3.67
-3.734
-3.825
-3.943
-4.087
-4.258
-4.452
-4.671
-4.911
-5.172
-5.452
-5.747
-6.055
-6.375
-6.702
-7.033
-7.366
-7.697
-8.021
-8.336
-8.639
-8.924
-9.189
-9.431
-9.645
-9.829
-9.98
-10.094
-10.167
-10.199
-10.185
-10.123
-10.011
-9.846
-9.626
-9.35
-9.015
-8.619
-8.163
-7.645
-7.065
-6.421
-5.715
-4.948
-4.119
-3.231
-2.285
-1.282
-0.226
0.881
2.037
3.239
4.483
5.766
7.086
8.437
9.818
11.225
12.654
14.102
15.566
17.041
18.524
20.013
21.503
22.99
24.472
25.945
27.405
28.85
30.275
31.678
33.056
34.406
35.725
37.012
38.264
39.48
40.658
41.796
42.895
43.953
44.969
45.944
46.877
47.768
48.617
49.424
50.189
50.913
51.596
52.237
52.838
53.399
53.919
54.401
54.843
55.247
55.615
55.945
56.24
56.501
56.728
56.922
57.085
57.217
57.319
57.393
57.437
57.454
57.443
57.404
57.337
57.242
57.118
56.965
56.782
56.568
56.322
56.043
55.73
55.383
55
54.581
54.124
53.628
53.093
52.517
51.9
51.241
50.538
49.792
49
48.161
47.276
46.343
45.361
44.33
43.249
42.118
40.937
39.707
38.427
37.1
35.725
34.306
32.843
31.34
29.8
28.224
26.617
24.983
23.325
21.648
19.956
18.253
16.545
14.836
13.131
11.436
9.756
8.096
6.462
4.861
3.296
1.775
0.304
-1.112
-2.466
-3.754
-4.968
-6.104
-7.157
-8.12
-8.99
-9.762
-10.433
-10.998
-11.455
-11.801
-12.035
-12.155
-12.16
-12.049
-11.823
-11.482
-11.027
-10.459
-9.78
-8.993
-8.098
-7.101
-6.003
-4.808
-3.52
-2.144
-0.684
0.855
2.469
4.151
5.896
7.698
9.552
11.45
13.389
15.36
17.358
19.378
21.413
23.458
25.508
27.557
29.6
31.634
33.653
35.654
37.632
39.586
41.511
43.404
45.263
47.085
48.868
50.61
52.309
53.964
55.572
57.134
58.647
60.111
61.526
62.89
64.204
65.467
66.679
67.841
68.952
70.014
71.026
71.99
72.904
73.771
74.59
75.362
76.088
76.767
77.4
77.989
78.532
79.03
79.484
79.895
80.262
80.587
80.869
81.111
81.314
81.477
81.603
81.693
81.748
81.77
81.762
81.725
81.661
81.573
81.463
81.334
81.188
81.027
80.856
80.676
80.491
80.304
80.117
79.935
79.76
79.595
79.444
79.31
79.196
79.104
79.039
79.002
78.997
79.025
79.089
79.19
79.33
79.51
79.731
79.993
80.297
80.642
81.026
81.45
81.911
82.407
82.936
83.494
84.079
84.687
85.314
85.955
86.606
87.262
87.918
88.568
89.206
89.828
90.425
90.993
91.525
92.015
92.455
92.841
93.164
93.42
93.601
93.701
93.715
93.638
93.462
93.184
92.799
92.302
91.69
90.959
90.107
89.13
88.027
86.797
85.439
83.952
82.338
80.596
78.728
76.736
74.621
72.388
70.04
67.579
65.011
62.34
59.571
56.71
53.763
50.737
47.637
44.472
41.249
37.975
34.659
31.309
27.933
24.541
21.14
17.739
14.348
10.975
7.628
4.316
1.047
-2.171
-5.33
-8.422
-11.44
-14.378
-17.228
-19.985
-22.642
-25.195
-27.637
-29.964
-32.171
-34.256
-36.214
-38.043
-39.739
-41.302
-42.729
-44.02
-45.175
-46.193
-47.075
-47.824
-48.44
-48.926
-49.285
-49.52
-49.635
-49.633
-49.52
-49.3
-48.977
-48.558
-48.046
-47.449
-46.771
-46.019
-45.197
-44.313
-43.372
-42.38
-41.343
-40.267
-39.159
-38.023
-36.866
-35.694
-34.513
-33.327
-32.142
-30.964
-29.798
-28.647
-27.516
-26.409
-25.331
-24.284
-23.272
-22.299
-21.367
-20.479
-19.636
-18.842
-18.097
-17.405
-16.765
-16.181
-15.654
-15.185
-14.777
-14.432
-14.15
-13.932
-13.78
-13.694
-13.675
-13.726
-13.849
-14.044
-14.312
-14.655
-15.074
-15.569
-16.142
-16.791
-17.515
-18.312
-19.184
-20.13
-21.152
-22.252
-23.424
-24.664
-25.969
-27.329
-28.748
-30.227
-31.763
-33.353
-34.994
-36.673
-38.403
-40.2
-42.03
-43.869
-45.69
-47.449
-49.186
-50.952
-52.724
-54.483
-56.294
-58.184
-60.233
-62.544
-65.007
-67.496
-70.007
-72.504
-74.906
-77.184
-79.198
-80.79
-82.093
-83.242
-84.261
-85.222
-86.165
-87.088
-88.114
-89.37
-90.758
-92.186
-93.622
-94.994
-96.305
-97.58
-98.757
-99.781
-100.693
-101.526
-102.304
-103.066
-103.8
-104.488
-105.146
-105.784
-106.398
-106.99
-107.555
-108.084
-108.586
-109.068
-109.531
-109.981
-110.414
-110.83
-111.227
-111.606
-111.965
-112.304
-112.621
-112.914
-113.181
-113.42
-113.629
-113.805
-113.945
-114.047
-114.108
-114.125
-114.095
-114.017
-113.89
-113.712
-113.481
-113.195
-112.854
-112.457
-112.002
-111.49
-110.919
-110.291
-109.605
-108.863
-108.065
-107.212
-106.306
-105.349
-104.342
-103.289
-102.192
-101.053
-99.876
-98.664
-97.42
-96.147
-94.849
-93.53
-92.193
-90.84
-89.477
-88.105
-86.728
-85.348
-83.97
-82.594
-81.225
-79.863
-78.511
-77.172
-75.846
-74.536
-73.242
-71.967
-70.711
-69.475
-68.26
-67.066
-65.894
-64.745
-63.618
-62.514
-61.432
-60.371
-59.333
-58.315
-57.317
-56.339
-55.379
-54.438
-53.514
-52.606
-51.713
-50.835
-49.971
-49.119
-48.28
-47.452
-46.635
-45.828
-45.029
-44.239
-43.457
-42.68
-41.91
-41.143
-40.38
-39.618
-38.858
-38.096
-37.332
-36.564
-35.79
-35.009
-34.219
-33.419
-32.606
-31.779
-30.938
-30.079
-29.202
-28.305
-27.387
-26.447
-25.483
-24.494
-23.48
-22.438
-21.369
-20.272
-19.145
-17.99
-16.805
-15.59
-14.345
-13.071
-11.769
-10.438
-9.081
-7.698
-6.291
-4.863
-3.415
-1.949
-0.468
1.025
2.527
4.036
5.548
7.06
8.57
10.074
11.568
13.051
14.519
15.97
17.399
18.806
20.187
21.539
22.861
24.15
25.405
26.623
27.802
28.941
30.038
31.092
32.102
33.067
33.985
34.857
35.682
36.46
37.19
37.874
38.51
39.099
39.641
40.138
40.589
40.994
41.354
41.669
41.938
42.163
42.342
42.476
42.563
42.604
42.597
42.541
42.436
42.28
42.073
41.812
41.497
41.126
40.699
40.214
39.67
39.066
38.402
37.676
36.887
36.037
35.123
34.147
33.108
32.008
30.846
29.625
28.346
27.011
25.623
24.184
22.7
21.172
19.607
18.009
16.384
14.738
13.077
11.408
9.738
8.076
6.428
4.804
3.21
1.656
0.15
-1.301
-2.687
-4.002
-5.237
-6.384
-7.437
-8.389
-9.233
-9.964
-10.576
-11.066
-11.428
-11.661
-11.761
-11.728
-11.561
-11.261
-10.828
-10.266
-9.577
-8.767
-7.84
-6.802
-5.661
-4.425
-3.103
-1.705
-0.24
1.28
2.845
4.441
6.057
7.68
9.298
10.897
12.465
13.989
15.457
16.855
18.173
19.397
20.519
21.526
22.409
23.161
23.772
24.235
24.546
24.698
24.689
24.514
24.174
23.667
22.994
22.158
21.161
20.01
18.709
17.265
15.683
13.974
12.146
10.208
8.171
6.045
3.844
1.578
-0.739
-3.092
-5.469
-7.858
-10.246
-12.622
-14.973
-17.285
-19.544
-21.738
-23.856
-25.887
-27.821
-29.647
-31.357
-32.947
-34.411
-35.75
-36.959
-38.035
-38.973
-39.769
-40.425
-40.949
-41.35
-41.642
-41.828
-41.905
-41.877
-41.749
-41.529
-41.234
-40.864
-40.388
-39.827
-39.238
-38.675
-38.207
-37.84
-37.477
-37.09
-36.718
-36.312
-35.775
-34.995
-33.779
-32.132
-30.294
-28.392
-26.463
-24.619
-22.972
-21.688
-21.067
-21.131
-21.6
-22.306
-23.146
-24.003
-24.833
-25.511
-25.776
-25.596
-25.165
-24.607
-24.028
-23.496
-22.983
-22.527
-22.248
-22.159
-22.185
-22.269
-22.347
-22.393
-22.438
-22.484
-22.507
-22.502
-22.471
-22.42
-22.362
-22.297
-22.213
-22.099
-21.95
-21.763
-21.541
-21.286
-20.998
-20.677
-20.321
-19.932
-19.51
-19.056
-18.573
-18.062
-17.524
-16.962
-16.377
-15.774
-15.155
-14.523
-13.879
-13.224
-12.56
-11.889
-11.214
-10.538
-9.863
-9.192
-8.526
-7.869
-7.224
-6.59
-5.971
-5.368
-4.78
-4.209
-3.657
-3.124
-2.611
-2.119
-1.648
-1.199
-0.772
-0.368
0.015
0.377
0.718
1.041
1.347
1.635
1.907
2.165
2.41
2.644
2.867
3.083
3.294
3.503
3.713
3.928
4.149
4.382
4.626
4.886
5.162
5.455
5.764
6.091
6.438
6.804
7.191
7.6
8.034
8.493
8.981
9.498
10.042
10.612
11.203
11.813
12.44
13.078
13.723
14.37
15.018
15.666
16.314
16.959
17.594
18.209
18.799
19.359
19.887
20.381
20.84
21.266
21.671
22.076
22.5
22.955
23.444
23.961
24.5
25.058
25.631
26.21
26.777
27.312
27.802
28.239
28.617
28.918
29.103
29.115
28.904
28.436
27.697
26.677
25.37
23.785
21.946
19.898
17.719
15.475
13.223
11.007
8.867
6.855
5.051
3.547
2.422
1.741
1.552
1.904
2.85
4.403
6.543
9.211
12.3
15.716
19.376
23.195
27.102
31.021
34.857
38.523
41.945
45.05
47.77
50.03
51.741
52.857
53.372
53.312
52.751
51.759
50.402
48.763
46.914
44.913
42.824
40.691
38.543
36.422
34.371
32.438
30.69
29.169
27.892
26.861
26.052
25.433
24.972
24.615
24.316
24.043
23.773
23.499
23.224
22.941
22.645
22.331
21.98
21.581
21.13
20.622
20.063
19.464
18.841
18.22
17.628
17.078
16.581
16.143
15.76
15.434
15.162
14.939
14.764
14.636
14.556
14.527
14.549
14.621
14.738
14.896
15.087
15.306
15.55
15.813
16.092
16.387
16.695
17.016
17.351
17.698
18.056
18.421
18.792
19.166
19.54
19.91
20.275
20.631
20.978
21.314
21.638
21.948
22.243
22.522
22.783
23.026
23.25
23.452
23.633
23.79
23.924
24.034
24.12
24.182
24.22
24.234
24.226
24.194
24.141
24.067
23.972
23.858
23.725
23.576
23.411
23.234
23.045
22.848
22.645
22.439
22.231
22.025
21.823
21.628
21.442
21.268
21.109
20.967
20.845
20.745
20.67
20.623
20.604
20.617
20.661
20.739
20.852
21
21.183
21.402
21.657
21.947
22.272
22.629
23.019
23.44
23.888
24.363
24.862
25.382
25.919
26.472
27.035
27.607
28.182
28.758
29.33
29.894
30.446
30.981
31.497
31.987
32.45
32.881
33.277
33.634
33.95
34.223
34.449
34.628
34.757
34.837
34.865
34.843
34.77
34.646
34.473
34.251
33.983
33.669
33.313
32.916
32.48
32.009
31.505
30.972
30.413
29.832
29.231
28.615
27.988
27.353
26.714
26.074
25.438
24.809
24.189
23.583
22.992
22.42
21.868
21.339
20.834
20.353
19.899
19.472
19.071
18.696
18.349
18.027
17.73
17.458
17.209
16.982
16.776
16.589
16.421
16.269
16.132
16.009
15.898
15.798
15.707
15.623
15.545
15.471
15.401
15.333
15.266
15.199
15.13
15.06
14.989
14.914
14.838
14.76
14.679
14.597
14.514
14.431
14.349
14.268
14.189
14.113
14.041
13.973
13.911
13.855
13.804
13.76
13.723
13.693
13.67
13.653
13.642
13.637
13.637
13.642
13.651
13.664
13.679
13.695
13.712
13.729
13.744
13.757
13.765
13.77
13.768
13.759
13.743
13.719
13.685
13.641
13.587
13.523
13.448
13.364
13.269
13.166
13.055
12.936
12.813
12.686
12.558
12.43
12.306
12.187
12.077
11.978
11.893
11.827
11.78
11.758
11.763
11.799
11.867
11.973
12.118
12.306
12.538
12.818
13.147
13.527
13.96
14.448
14.991
15.589
16.244
16.954
17.72
18.541
19.415
20.341
21.317
22.34
23.407
24.516
25.663
26.844
28.055
29.292
30.55
31.824
33.108
34.399
35.689
36.973
38.246
39.501
40.733
41.936
43.104
44.232
45.313
46.343
47.317
48.228
49.073
49.846
50.544
51.163
51.698
52.147
52.505
52.771
52.942
53.016
52.991
52.866
52.64
52.313
51.884
51.354
50.723
49.993
49.166
48.243
47.227
46.121
44.929
43.654
42.3
40.871
39.373
37.81
36.187
34.51
32.785
31.018
29.213
27.378
25.519
23.641
21.752
19.857
17.962
16.074
14.199
12.343
10.511
8.71
6.945
5.22
3.542
1.913
0.339
-1.177
-2.632
-4.023
-5.349
-6.607
-7.798
-8.92
-9.973
-10.959
-11.88
-12.736
-13.53
-14.266
-14.947
-15.576
-16.159
-16.701
-17.206
-17.681
-18.132
-18.564
-18.985
-19.401
-19.82
-20.249
-20.695
-21.166
-21.669
-22.211
-22.799
-23.441
-24.144
-24.912
-25.753
-26.672
-27.673
-28.762
-29.942
-31.215
-32.586
-34.054
-35.623
-37.292
-39.06
-40.929
-42.895
-44.957
-47.112
-49.357
-51.687
-54.099
-56.587
-59.146
-61.77
-64.453
-67.187
-69.965
-72.781
-75.626
-78.492
-81.372
-84.256
-87.137
-90.007
-92.858
-95.681
-98.469
-101.215
-103.911
-106.55
-109.127
-111.635
-114.069
-116.423
-118.692
-120.874
-122.963
-124.957
-126.853
-128.648
-130.341
-131.93
-133.415
-134.793
-136.065
-137.231
-138.292
-139.247
-140.099
-140.848
-141.497
-142.046
-142.499
-142.857
-143.123
-143.299
-143.389
-143.395
-143.32
-143.167
-142.939
-142.639
-142.27
-141.834
-141.336
-140.777
-140.16
-139.488
-138.764
-137.991
-137.17
-136.305
-135.399
-134.453
-133.471
-132.455
-131.408
-130.332
-129.231
-128.106
-126.961
-125.799
-124.621
-123.432
-122.233
-121.028
-119.819
-118.608
-117.399
-116.194
-114.996
-113.807
-112.63
-111.468
-110.322
-109.196
-108.091
-107.01
-105.955
-104.927
-103.93
-102.965
-102.034
-101.14
-100.282
-99.464
-98.687
-97.951
-97.257
-96.606
-95.998
-95.434
-94.914
-94.439
-94.009
-93.624
-93.282
-92.983
-92.725
-92.508
-92.33
-92.19
-92.087
-92.019
-91.986
-91.989
-92.028
-92.101
-92.207
-92.341
-92.5
-92.688
-92.904
-93.152
-93.435
-93.748
-94.084
-94.443
-94.822
-95.221
-95.646
-96.077
-96.493
-96.921
-97.378
-97.885
-98.477
-99.108
-99.717
-100.321
-100.928
-101.467
-101.9
-102.14
-102.072
-101.802
-101.447
-101.005
-100.502
-100.014
-99.563
-99.282
-99.326
-99.555
-99.827
-100.112
-100.334
-100.45
-100.457
-100.232
-99.643
-98.788
-97.761
-96.596
-95.363
-94.065
-92.678
-91.267
-89.893
-88.518
-87.113
-85.659
-84.122
-82.52
-80.877
-79.182
-77.432
-75.637
-73.8
-71.934
-70.052
-68.152
-66.231
-64.293
-62.339
-60.374
-58.405
-56.435
-54.468
-52.506
-50.552
-48.61
-46.68
-44.767
-42.871
-40.993
-39.133
-37.294
-35.474
-33.674
-31.894
-30.132
-28.385
-26.651
-24.929
-23.214
-21.505
-19.798
-18.091
-16.381
-14.663
-12.934
-11.192
-9.433
-7.653
-5.85
-4.02
-2.161
-0.269
1.658
3.622
5.625
7.67
9.756
11.887
14.061
16.28
18.544
20.852
23.204
25.598
28.032
30.506
33.017
35.563
38.142
40.75
43.384
46.043
48.722
51.419
54.13
56.853
59.583
62.318
65.054
67.79
70.521
73.244
75.958
78.659
81.346
84.014
86.663
89.291
91.894
94.472
97.023
99.546
102.039
104.501
106.932
109.329
111.694
114.024
116.319
118.578
120.801
122.988
125.136
127.247
129.318
131.349
133.34
135.288
137.193
139.053
140.868
142.635
144.352
146.019
147.634
149.194
150.698
152.144
153.531
154.856
156.118
157.315
158.445
159.507
160.499
161.419
162.267
163.041
163.74
164.364
164.912
165.383
165.777
166.094
166.335
166.499
166.588
166.603
166.543
166.412
166.211
165.941
165.604
165.203
164.739
164.216
163.635
162.999
162.31
161.572
160.786
159.954
159.081
158.167
157.214
156.226
155.204
154.149
153.065
151.951
150.81
149.643
148.45
147.234
145.994
144.731
143.446
142.14
140.812
139.462
138.091
136.698
135.284
133.848
132.389
130.908
129.405
127.878
126.329
124.756
123.161
121.543
119.902
118.24
116.556
114.852
113.129
111.387
109.627
107.853
106.064
104.263
102.452
100.632
98.806
96.976
95.143
93.311
91.482
89.657
87.839
86.031
84.234
82.45
80.683
78.934
77.204
75.496
73.812
72.152
70.518
68.912
67.334
65.786
64.266
62.777
61.318
59.89
58.491
57.122
55.782
54.471
53.187
51.931
50.701
49.496
48.314
47.157
46.021
44.907
43.813
42.738
41.683
40.646
39.626
38.623
37.636
36.665
35.71
34.77
33.846
32.937
32.043
31.164
30.301
29.455
28.624
27.81
27.013
26.234
25.473
24.73
24.006
23.3
22.614
21.947
21.298
20.669
20.058
19.465
18.889
18.328
17.783
17.252
16.732
16.223
15.722
15.228
14.739
14.252
13.766
13.277
12.784
12.284
11.776
11.256
10.723
10.175
9.609
9.024
8.418
7.79
7.138
6.461
5.759
5.031
4.277
3.498
2.693
1.864
1.012
0.137
-0.757
-1.669
-2.598
-3.54
-4.493
-5.453
-6.417
-7.381
-8.343
-9.299
-10.247
-11.184
-12.106
-13.011
-13.897
-14.761
-15.6
-16.411
-17.191
-17.937
-18.649
-19.326
-19.969
-20.577
-21.151
-21.687
-22.184
-22.643
-23.065
-23.448
-23.794
-24.105
-24.382
-24.633
-24.863
-25.08
-25.287
-25.483
-25.67
-25.849
-26.029
-26.226
-26.455
-26.727
-27.04
-27.39
-27.777
-28.207
-28.689
-29.219
-29.768
-30.331
-30.941
-31.672
-32.607
-33.764
-35.075
-36.453
-37.871
-39.287
-40.604
-41.626
-42.113
-41.969
-41.32
-40.398
-39.35
-38.284
-37.336
-36.746
-36.843
-37.782
-39.429
-41.468
-43.652
-45.831
-47.885
-49.643
-50.84
-51.316
-51.142
-50.548
-49.739
-48.822
-47.846
-46.852
-45.947
-45.216
-44.646
-44.145
-43.625
-43.045
-42.408
-41.738
-41.04
-40.302
-39.527
-38.732
-37.939
-37.164
-36.406
-35.656
-34.906
-34.158
-33.415
-32.685
-31.972
-31.277
-30.603
-29.95
-29.318
-28.711
-28.128
-27.571
-27.041
-26.539
-26.067
-25.626
-25.217
-24.841
-24.496
-24.179
-23.885
-23.611
-23.353
-23.107
-22.873
-22.649
-22.436
-22.233
-22.041
-21.862
-21.698
-21.55
-21.42
-21.304
-21.201
-21.113
-21.042
-20.994
-20.973
-20.977
-21.006
-21.058
-21.132
-21.222
-21.318
-21.401
-21.453
-21.463
-21.431
-21.361
-21.258
-21.126
-20.967
-20.784
-20.592
-20.411
-20.256
-20.139
-20.072
-20.073
-20.178
-20.433
-20.88
-21.545
-22.431
-23.531
-24.839
-26.347
-28.044
-29.905
-31.877
-33.906
-35.949
-37.961
-39.903
-41.717
-43.325
-44.636
-45.577
-46.093
-46.161
-45.767
-44.888
-43.51
-41.627
-39.25
-36.434
-33.235
-29.696
-25.872
-21.819
-17.612
-13.362
-9.174
-5.129
-1.296
2.283
5.575
8.526
11.093
13.242
14.944
16.213
17.063
17.501
17.554
17.257
16.663
15.863
14.933
13.923
12.877
11.822
10.781
9.797
8.901
8.123
7.496
7.034
6.746
6.649
6.74
7.006
7.422
7.939
8.518
9.141
9.791
10.463
11.156
11.857
12.561
13.269
13.971
14.662
15.341
15.998
16.637
17.266
17.901
18.564
19.278
20.053
20.899
21.822
22.822
23.903
25.063
26.299
27.606
28.987
30.439
31.964
33.56
35.223
36.947
38.724
40.544
42.402
44.288
46.196
48.119
50.053
51.992
53.931
55.868
57.797
59.711
61.604
63.469
65.299
67.088
68.828
70.512
72.134
73.689
75.17
76.573
77.893
79.124
80.262
81.304
82.246
83.084
83.816
84.441
84.958
85.366
85.665
85.857
85.944
85.927
85.809
85.594
85.286
84.889
84.407
83.846
83.212
82.51
81.747
80.93
80.065
79.162
78.226
77.266
76.29
75.306
74.32
73.342
72.377
71.433
70.518
69.637
68.797
68.004
67.262
66.577
65.952
65.392
64.898
64.473
64.118
63.835
63.623
63.482
63.411
63.409
63.473
63.6
63.787
64.03
64.326
64.669
65.056
65.48
65.936
66.418
66.92
67.437
67.96
68.484
69.001
69.506
69.991
70.449
70.875
71.261
71.601
71.889
72.12
72.288
72.388
72.415
72.365
72.234
72.019
71.718
71.329
70.851
70.282
69.622
68.872
68.033
67.104
66.088
64.986
63.8
62.533
61.188
59.768
58.277
56.722
55.105
53.434
51.714
49.952
48.153
46.324
44.473
42.607
40.732
38.858
36.991
35.14
33.313
31.517
29.76
28.047
26.386
24.782
23.238
21.758
20.345
19.002
17.732
16.539
15.425
14.392
13.442
12.579
11.802
11.112
10.505
9.977
9.522
9.135
8.809
8.539
8.318
8.137
7.985
7.853
7.734
7.616
7.491
7.341
7.151
6.909
6.606
6.241
5.812
5.32
4.768
4.156
3.495
2.793
2.061
1.306
0.518
-0.321
-1.236
-2.238
-3.323
-4.483
-5.727
-7.091
-8.589
-10.208
-11.891
-13.582
-15.292
-17.109
-19.128
-21.362
-23.816
-26.542
-29.685
-33.445
-37.887
-42.852
-48.066
-53.337
-58.521
-63.43
-67.767
-71.131
-73.282
-74.296
-74.462
-74.028
-73.161
-72.021
-70.832
-69.908
-69.452
-69.424
-69.602
-69.796
-69.91
-69.913
-69.791
-69.476
-68.93
-68.211
-67.447
-66.746
-66.149
-65.637
-65.151
-64.66
-64.157
-63.623
-63.037
-62.375
-61.626
-60.795
-59.9
-58.947
-57.927
-56.827
-55.634
-54.348
-52.976
-51.535
-50.048
-48.535
-47.017
-45.508
-44.019
-42.558
-41.13
-39.734
-38.368
-37.033
-35.731
-34.471
-33.259
-32.104
-31.008
-29.975
-29.006
-28.103
-27.266
-26.497
-25.796
-25.168
-24.614
-24.141
-23.753
-23.455
-23.252
-23.146
-23.138
-23.23
-23.423
-23.716
-24.108
-24.599
-25.186
-25.868
-26.644
-27.51
-28.465
-29.505
-30.625
-31.823
-33.094
-34.432
-35.832
-37.289
-38.797
-40.351
-41.943
-43.57
-45.223
-46.899
-48.591
-50.294
-52.002
-53.71
-55.415
-57.111
-58.796
-60.465
-62.116
-63.748
-65.359
-66.948
-68.517
-70.065
-71.594
-73.106
-74.602
-76.087
-77.561
-79.03
-80.497
-81.966
-83.44
-84.925
-86.425
-87.944
-89.487
-91.057
-92.658
-94.293
-95.967
-97.68
-99.436
-101.234
-103.077
-104.964
-106.894
-108.865
-110.874
-112.919
-114.995
-117.096
-119.216
-121.348
-123.485
-125.617
-127.736
-129.83
-131.891
-133.905
-135.863
-137.752
-139.56
-141.274
-142.883
-144.375
-145.736
-146.957
-148.025
-148.929
-149.66
-150.207
-150.563
-150.719
-150.668
-150.405
-149.925
-149.223
-148.298
-147.149
-145.775
-144.177
-142.359
-140.325
-138.079
-135.629
-132.981
-130.146
-127.132
-123.951
-120.615
-117.138
-113.532
-109.813
-105.995
-102.095
-98.128
-94.11
-90.059
-85.991
-81.923
-77.871
-73.852
-69.881
-65.975
-62.148
-58.414
-54.788
-51.283
-47.911
-44.683
-41.609
-38.7
-35.962
-33.405
-31.033
-28.851
-26.864
-25.074
-23.482
-22.089
-20.894
-19.894
-19.087
-18.469
-18.033
-17.775
-17.687
-17.76
-17.987
-18.357
-18.861
-19.487
-20.225
-21.062
-21.987
-22.986
-24.049
-25.161
-26.31
-27.483
-28.667
-29.849
-31.017
-32.158
-33.26
-34.313
-35.304
-36.224
-37.061
-37.807
-38.453
-38.991
-39.413
-39.715
-39.889
-39.932
-39.839
-39.609
-39.24
-38.73
-38.081
-37.293
-36.369
-35.311
-34.124
-32.812
-31.381
-29.838
-28.189
-26.443
-24.608
-22.694
-20.71
-18.667
-16.575
-14.445
-12.289
-10.119
-7.946
-5.783
-3.64
-1.531
0.533
2.54
4.48
6.342
8.114
9.789
11.356
12.807
14.135
15.333
16.394
17.315
18.091
18.718
19.195
19.52
19.694
19.716
19.589
19.315
18.897
18.341
17.651
16.834
15.897
14.847
13.694
12.445
11.112
9.704
8.231
6.705
5.138
3.539
1.923
0.3
-1.315
-2.912
-4.479
-6.005
-7.479
-8.89
-10.229
-11.485
-12.649
-13.713
-14.668
-15.505
-16.217
-16.795
-17.235
-17.533
-17.685
-17.689
-17.54
-17.234
-16.768
-16.139
-15.347
-14.391
-13.271
-11.987
-10.542
-8.945
-7.202
-5.32
-3.307
-1.165
1.105
3.494
5.992
8.576
11.227
13.927
16.671
19.457
22.277
25.118
27.961
30.801
33.657
36.525
39.364
42.083
44.587
46.842
48.906
50.857
52.713
54.5
56.307
58.323
60.782
63.773
67.162
70.694
74.202
77.567
80.637
83.155
84.778
85.33
84.936
83.918
82.531
80.926
79.227
77.608
76.341
75.598
75.314
75.251
75.205
75.068
74.793
74.349
73.635
72.572
71.181
69.569
67.839
66.049
64.209
62.307
60.351
58.369
56.371
54.352
52.303
50.222
48.121
46.022
43.944
41.897
39.887
37.916
35.987
34.105
32.275
30.501
28.786
27.131
25.536
24.003
22.531
21.12
19.768
18.472
17.228
16.035
14.889
13.789
12.734
11.721
10.746
9.807
8.9
8.021
7.167
6.334
5.519
4.718
3.928
3.147
2.371
1.599
0.829
0.058
-0.714
-1.489
-2.268
-3.049
-3.834
-4.62
-5.409
-6.197
-6.983
-7.765
-8.542
-9.309
-10.066
-10.809
-11.535
-12.241
-12.925
-13.583
-14.213
-14.81
-15.373
-15.899
-16.384
-16.827
-17.224
-17.573
-17.872
-18.12
-18.315
-18.456
-18.542
-18.573
-18.549
-18.469
-18.335
-18.148
-17.909
-17.62
-17.283
-16.9
-16.475
-16.011
-15.509
-14.975
-14.41
-13.819
-13.204
-12.57
-11.92
-11.258
-10.586
-9.907
-9.226
-8.545
-7.866
-7.192
-6.525
-5.868
-5.222
-4.589
-3.97
-3.365
-2.776
-2.201
-1.642
-1.097
-0.565
-0.046
0.464
0.964
1.459
1.95
2.441
2.933
3.431
3.937
4.455
4.987
5.537
6.108
6.703
7.324
7.974
8.655
9.37
10.119
10.904
11.727
12.588
13.487
14.425
15.401
16.415
17.464
18.549
19.667
20.815
21.991
23.191
24.414
25.653
26.907
28.17
29.437
30.704
31.966
33.218
34.455
35.671
36.861
38.022
39.147
40.232
41.272
42.264
43.204
44.088
44.913
45.677
46.378
47.013
47.582
48.083
48.516
48.881
49.178
49.407
49.571
49.67
49.707
49.685
49.605
49.472
49.289
49.059
48.788
48.479
48.138
47.769
47.379
46.972
46.554
46.133
45.713
45.301
44.903
44.525
44.172
43.851
43.567
43.323
43.126
42.979
42.887
42.854
42.884
42.981
43.148
43.388
43.704
44.099
44.573
45.129
45.769
46.492
47.3
48.192
49.17
50.23
51.374
52.598
53.9
55.275
56.72
58.229
59.797
61.418
63.083
64.787
66.521
68.28
70.056
71.841
73.631
75.416
77.191
78.947
80.677
82.37
84.015
85.603
87.122
88.562
89.914
91.167
92.312
93.343
94.253
95.036
95.685
96.19
96.54
96.73
96.756
96.619
96.324
95.879
95.299
94.599
93.796
92.904
91.929
90.871
89.724
88.484
87.143
85.704
84.178
82.575
80.902
79.166
77.37
75.503
73.548
71.482
69.278
66.922
64.419
61.786
59.056
56.272
53.485
50.735
48.047
45.439
42.913
40.479
38.151
35.962
33.958
32.191
30.723
29.599
28.848
28.486
28.507
28.88
29.554
30.49
31.664
33.074
34.736
36.654
38.817
41.198
43.752
46.432
49.173
51.908
54.57
57.094
59.437
61.579
63.518
65.233
66.684
67.817
68.561
68.877
68.745
68.146
67.056
65.46
63.354
60.761
57.738
54.319
50.511
46.333
41.829
37.114
32.337
27.589
22.891
18.225
13.605
9.061
4.579
0.019
-4.832
-10.091
-15.727
-21.557
-27.425
-33.25
-38.914
-44.142
-48.521
-51.665
-53.355
-53.671
-52.766
-50.728
-47.693
-43.951
-40.043
-36.732
-34.691
-34.237
-35.326
-37.684
-41.33
-46.436
-53.187
-61.869
-71.64
-80.998
-88.712
-93.142
-94.035
-92.718
-90.228
-88.096
-87.214
-86.889
-86.657
-86.226
-85.454
-84.888
-84.947
-85.529
-86.381
-87.281
-88.093
-88.832
-89.566
-90.235
-90.72
-91.011
-91.175
-91.259
-91.311
-91.326
-91.254
-91.087
-90.84
-90.513
-90.096
-89.575
-88.929
-88.152
-87.256
-86.247
-85.131
-83.913
-82.59
-81.162
-79.632
-77.999
-76.266
-74.43
-72.489
-70.443
-68.289
-66.028
-63.661
-61.189
-58.614
-55.939
-53.166
-50.299
-47.346
-44.313
-41.209
-38.043
-34.823
-31.556
-28.253
-24.923
-21.575
-18.219
-14.861
-11.511
-8.179
-4.877
-1.616
1.591
4.733
7.796
10.768
13.636
16.388
19.012
21.501
23.846
26.035
28.057
29.897
31.544
32.993
34.24
35.281
36.117
36.754
37.207
37.498
37.645
37.656
37.534
37.276
36.878
36.339
35.657
34.828
33.847
32.707
31.405
29.947
28.324
26.521
24.509
22.239
19.683
16.834
13.697
10.292
6.649
2.797
-1.214
-5.319
-9.463
-13.595
-17.673
-21.675
-25.56
-29.273
-32.749
-35.901
-38.669
-41.018
-42.925
-44.384
-45.405
-46.011
-46.252
-46.21
-45.946
-45.511
-44.947
-44.273
-43.524
-42.749
-42
-41.339
-40.817
-40.465
-40.312
-40.379
-40.669
-41.175
-41.864
-42.68
-43.579
-44.536
-45.531
-46.558
-47.606
-48.655
-49.691
-50.699
-51.664
-52.578
-53.427
-54.199
-54.89
-55.504
-56.052
-56.561
-57.045
-57.514
-57.97
-58.413
-58.84
-59.251
-59.64
-59.999
-60.32
-60.599
-60.832
-61.02
-61.159
-61.246
-61.273
-61.234
-61.123
-60.936
-60.671
-60.325
-59.897
-59.388
-58.799
-58.135
-57.397
-56.59
-55.713
-54.769
-53.758
-52.683
-51.544
-50.343
-49.081
-47.759
-46.379
-44.944
-43.455
-41.915
-40.324
-38.684
-36.998
-35.265
-33.489
-31.668
-29.806
-27.901
-25.956
-23.971
-21.947
-19.885
-17.785
-15.649
-13.478
-11.273
-9.035
-6.766
-4.468
-2.143
0.206
2.576
4.963
7.364
9.773
12.186
14.597
16.999
19.388
21.757
24.099
26.408
28.675
30.895
33.061
35.165
37.201
39.161
41.038
42.827
44.52
46.113
47.6
48.976
50.237
51.379
52.401
53.3
54.075
54.726
55.254
55.66
55.947
56.117
56.174
56.123
55.97
55.721
55.384
54.968
54.48
53.93
53.329
52.687
52.013
51.32
50.616
49.913
49.22
48.547
47.905
47.301
46.746
46.246
45.808
45.439
45.144
44.926
44.788
44.731
44.754
44.855
45.031
45.28
45.596
45.976
46.412
46.899
47.428
47.992
48.58
49.18
49.78
50.363
50.915
51.42
51.863
52.228
52.501
52.669
52.718
52.639
52.418
52.046
51.508
50.791
49.88
48.769
47.455
45.937
44.224
42.321
40.235
37.981
35.571
33.011
30.306
27.449
24.434
21.263
17.944
14.493
10.931
7.263
3.493
-0.371
-4.332
-8.386
-12.53
-16.78
-21.146
-25.618
-30.18
-34.787
-39.383
-43.935
-48.423
-52.821
-57.109
-61.248
-65.19
-68.914
-72.393
-75.595
-78.49
-81.005
-83.072
-84.669
-85.784
-86.415
-86.612
-86.405
-85.819
-84.963
-83.938
-82.783
-81.559
-80.274
-78.82
-77.095
-74.968
-72.218
-68.699
-64.405
-59.344
-53.635
-47.623
-41.683
-36.263
-31.888
-28.917
-27.495
-27.725
-29.54
-32.559
-36.328
-40.295
-43.864
-46.642
-48.382
-48.828
-47.86
-45.65
-42.499
-38.84
-35.091
-31.48
-28.191
-25.464
-23.492
-22.313
-21.812
-21.727
-21.842
-22.08
-22.392
-22.712
-22.949
-23.032
-22.986
-22.926
-22.938
-23.043
-23.224
-23.433
-23.657
-23.908
-24.173
-24.424
-24.631
-24.774
-24.855
-24.893
-24.901
-24.879
-24.824
-24.725
-24.578
-24.387
-24.152
-23.875
-23.556
-23.194
-22.79
-22.348
-21.872
-21.362
-20.82
-20.242
-19.629
-18.981
-18.302
-17.594
-16.863
-16.112
-15.344
-14.566
-13.783
-12.998
-12.218
-11.446
-10.685
-9.942
-9.22
-8.522
-7.855
-7.222
-6.627
-6.074
-5.567
-5.109
-4.702
-4.351
-4.058
-3.824
-3.652
-3.543
-3.499
-3.521
-3.609
-3.765
-3.988
-4.279
-4.637
-5.062
-5.552
-6.108
-6.726
-7.405
-8.144
-8.939
-9.789
-10.69
-11.641
-12.638
-13.678
-14.759
-15.876
-17.026
-18.206
-19.412
-20.639
-21.884
-23.142
-24.409
-25.68
-26.951
-28.218
-29.476
-30.719
-31.943
-33.142
-34.313
-35.449
-36.545
-37.596
-38.596
-39.541
-40.425
-41.242
-41.989
-42.658
-43.246
-43.748
-44.159
-44.474
-44.689
-44.801
-44.806
-44.7
-44.48
-44.145
-43.693
-43.121
-42.43
-41.618
-40.687
-39.636
-38.466
-37.181
-35.782
-34.272
-32.655
-30.936
-29.118
-27.208
-25.211
-23.134
-20.983
-18.766
-16.491
-14.164
-11.795
-9.393
-6.965
-4.521
-2.069
0.381
2.821
5.243
7.638
9.998
12.316
14.584
16.795
18.943
21.023
23.028
24.955
26.8
28.559
30.229
31.808
33.295
34.69
35.991
37.2
38.318
39.346
40.286
41.142
41.917
42.614
43.238
43.792
44.282
44.712
45.089
45.416
45.699
45.944
46.155
46.338
46.498
46.638
46.765
46.881
46.99
47.097
47.203
47.313
47.428
47.55
47.68
47.821
47.972
48.135
48.31
48.496
48.692
48.9
49.116
49.341
49.573
49.81
50.051
50.294
50.537
50.778
51.015
51.246
51.469
51.683
51.885
52.074
52.249
52.407
52.548
52.671
52.775
52.858
52.92
52.961
52.981
52.978
52.954
52.908
52.839
52.749
52.635
52.5
52.342
52.161
51.957
51.73
51.48
51.206
50.907
50.584
50.236
49.862
49.461
49.033
48.578
48.093
47.579
47.034
46.458
45.85
45.21
44.536
43.828
43.084
42.305
41.489
40.635
39.742
38.81
37.838
36.827
35.776
34.685
33.557
32.392
31.191
29.956
28.69
27.394
26.069
24.72
23.349
21.959
20.553
19.135
17.709
16.278
14.848
13.42
12
10.592
9.199
7.825
6.476
5.156
3.87
2.624
1.424
0.276
-0.813
-1.837
-2.791
-3.67
-4.468
-5.181
-5.804
-6.335
-6.772
-7.113
-7.356
-7.497
-7.532
-7.458
-7.271
-6.969
-6.545
-5.994
-5.314
-4.502
-3.559
-2.483
-1.273
0.08
1.58
3.228
5.025
6.968
9.049
11.263
13.593
16.014
18.501
21.03
23.583
26.156
28.741
31.336
33.937
36.532
39.115
41.684
44.235
46.766
49.289
51.819
54.394
57.056
59.843
62.806
65.95
69.239
72.619
75.983
79.22
82.306
85.209
87.884
90.412
92.9
95.465
98.36
101.752
105.578
109.771
114.2
118.494
122.314
125.297
126.875
126.649
124.51
120.364
114.263
106.618
97.839
88.422
79.121
70.499
62.891
56.684
52.145
49.187
47.654
47.234
47.357
47.635
47.843
47.662
46.81
45.212
42.851
39.871
36.61
33.253
29.867
26.57
23.453
20.571
17.976
15.631
13.403
11.238
9.142
7.127
5.238
3.496
1.894
0.449
-0.807
-1.857
-2.693
-3.324
-3.778
-4.071
-4.211
-4.203
-4.05
-3.758
-3.343
-2.816
-2.189
-1.472
-0.673
0.198
1.132
2.117
3.147
4.215
5.316
6.442
7.583
8.729
9.867
10.986
12.075
13.124
14.122
15.06
15.927
16.717
17.423
18.037
18.555
18.972
19.283
19.485
19.576
19.555
19.421
19.177
18.824
18.365
17.804
17.146
16.397
15.563
14.653
13.675
12.638
11.553
10.429
9.28
8.116
6.951
5.798
4.671
3.582
2.546
1.577
0.688
-0.107
-0.797
-1.369
-1.812
-2.115
-2.268
-2.264
-2.093
-1.749
-1.227
-0.522
0.368
1.445
2.71
4.161
5.796
7.61
9.599
11.756
14.072
16.538
19.144
21.879
24.728
27.678
30.715
33.823
36.985
40.184
43.402
46.623
49.827
52.996
56.113
59.159
62.116
64.967
67.695
70.284
72.718
74.982
77.063
78.949
80.626
82.086
83.319
84.318
85.076
85.588
85.851
85.863
85.623
85.133
84.393
83.409
82.184
80.726
79.041
77.139
75.028
72.721
70.227
67.561
64.734
61.762
58.658
55.438
52.117
48.71
45.233
41.703
38.134
34.542
30.943
27.352
23.784
20.251
16.769
13.349
10.004
6.745
3.583
0.527
-2.415
-5.233
-7.922
-10.475
-12.888
-15.156
-17.275
-19.245
-21.062
-22.728
-24.241
-25.602
-26.815
-27.88
-28.802
-29.584
-30.23
-30.745
-31.135
-31.406
-31.563
-31.613
-31.563
-31.419
-31.189
-30.881
-30.5
-30.054
-29.551
-28.997
-28.399
-27.765
-27.1
-26.411
-25.704
-24.985
-24.26
-23.534
-22.812
-22.1
-21.402
-20.722
-20.066
-19.436
-18.837
-18.271
-17.744
-17.257
-16.813
-16.415
-16.066
-15.768
-15.523
-15.333
-15.2
-15.125
-15.109
-15.155
-15.262
-15.432
-15.666
-15.965
-16.328
-16.756
-17.248
-17.806
-18.428
-19.114
-19.863
-20.674
-21.546
-22.476
-23.464
-24.507
-25.601
-26.745
-27.935
-29.168
-30.438
-31.743
-33.078
-34.437
-35.815
-37.206
-38.606
-40.007
-41.403
-42.788
-44.155
-45.498
-46.809
-48.082
-49.31
-50.487
-51.606
-52.66
-53.644
-54.551
-55.376
-56.113
-56.757
-57.305
-57.752
-58.094
-58.329
-58.453
-58.466
-58.366
-58.153
-57.826
-57.386
-56.837
-56.178
-55.415
-54.549
-53.586
-52.53
-51.386
-50.162
-48.863
-47.497
-46.071
-44.593
-43.073
-41.517
-39.936
-38.337
-36.729
-35.121
-33.522
-31.941
-30.389
-28.874
-27.405
-25.991
-24.64
-23.359
-22.157
-21.037
-20.006
-19.066
-18.223
-17.484
-16.853
-16.333
-15.924
-15.625
-15.436
-15.353
-15.376
-15.502
-15.727
-16.049
-16.465
-16.977
-17.587
-18.295
-19.098
-19.989
-20.962
-22.014
-23.15
-24.382
-25.72
-27.165
-28.712
-30.352
-32.075
-33.887
-35.779
-37.72
-39.695
-41.715
-43.814
-46.089
-48.622
-51.39
-54.363
-57.506
-60.687
-63.776
-66.616
-68.899
-70.363
-70.989
-70.786
-69.832
-68.503
-67.142
-66.008
-65.613
-66.194
-67.424
-69.437
-72.469
-76.614
-82.674
-90.303
-97.852
-103.783
-106.241
-104.955
-101.618
-97.958
-95.672
-95.184
-95.506
-95.993
-96.171
-96.025
-96.1
-96.401
-96.756
-97.114
-97.31
-97.344
-97.309
-97.157
-96.837
-96.411
-95.919
-95.383
-94.832
-94.228
-93.536
-92.767
-91.938
-91.052
-90.111
-89.11
-88.042
-86.917
-85.746
-84.533
-83.284
-82.002
-80.686
-79.34
-77.97
-76.579
-75.17
-73.744
-72.301
-70.839
-69.358
-67.858
-66.339
-64.8
-63.241
-61.66
-60.056
-58.43
-56.781
-55.11
-53.415
-51.697
-49.954
-48.186
-46.394
-44.578
-42.739
-40.877
-38.993
-37.088
-35.164
-33.223
-31.267
-29.298
-27.321
-25.337
-23.351
-21.367
-19.389
-17.423
-15.473
-13.546
-11.647
-9.782
-7.957
-6.179
-4.454
-2.788
-1.188
0.339
1.788
3.152
4.425
5.601
6.675
7.641
8.494
9.23
9.844
10.333
10.693
10.922
11.017
10.976
10.799
10.484
10.033
9.445
8.723
7.869
6.884
5.774
4.541
3.19
1.727
0.158
-1.512
-3.275
-5.124
-7.052
-9.051
-11.112
-13.226
-15.385
-17.579
-19.8
-22.037
-24.281
-26.523
-28.752
-30.96
-33.136
-35.27
-37.354
-39.378
-41.333
-43.21
-45.001
-46.698
-48.293
-49.779
-51.149
-52.397
-53.517
-54.502
-55.35
-56.055
-56.614
-57.023
-57.281
-57.385
-57.334
-57.128
-56.767
-56.252
-55.584
-54.764
-53.797
-52.685
-51.433
-50.045
-48.528
-46.886
-45.127
-43.259
-41.29
-39.228
-37.081
-34.861
-32.577
-30.239
-27.859
-25.446
-23.013
-20.571
-18.132
-15.708
-13.309
-10.949
-8.638
-6.388
-4.211
-2.117
-0.118
1.777
3.557
5.214
6.737
8.119
9.353
10.43
11.346
12.095
12.672
13.073
13.297
13.34
13.203
12.884
12.385
11.707
10.853
9.824
8.627
7.264
5.742
4.066
2.242
0.279
-1.818
-4.04
-6.378
-8.824
-11.37
-14.006
-16.723
-19.511
-22.362
-25.265
-28.212
-31.193
-34.2
-37.223
-40.254
-43.286
-46.309
-49.317
-52.303
-55.26
-58.181
-61.06
-63.893
-66.673
-69.396
-72.056
-74.65
-77.173
-79.621
-81.99
-84.276
-86.475
-88.584
-90.598
-92.514
-94.328
-96.037
-97.637
-99.125
-100.496
-101.747
-102.874
-103.874
-104.742
-105.474
-106.066
-106.514
-106.815
-106.964
-106.957
-106.79
-106.46
-105.963
-105.295
-104.454
-103.437
-102.241
-100.864
-99.306
-97.566
-95.644
-93.542
-91.263
-88.808
-86.182
-83.389
-80.436
-77.328
-74.073
-70.679
-67.154
-63.508
-59.752
-55.897
-51.956
-47.942
-43.868
-39.748
-35.596
-31.428
-27.258
-23.103
-18.976
-14.896
-10.876
-6.934
-3.085
0.657
4.276
7.759
11.092
14.263
17.261
20.077
22.702
25.129
27.353
29.369
31.175
32.767
34.145
35.307
36.253
36.985
37.505
37.816
37.926
37.843
37.579
37.145
36.556
35.825
34.968
33.998
32.93
31.779
30.558
29.287
27.985
26.676
25.385
24.138
22.948
21.829
20.79
19.832
18.956
18.163
17.444
16.8
16.239
15.77
15.414
15.182
15.068
15.06
15.147
15.321
15.594
15.988
16.505
17.166
18.009
19.051
20.31
21.771
23.342
24.923
26.484
27.996
29.452
30.955
32.618
34.58
37.096
40.382
44.459
49.278
54.743
60.538
66.256
71.514
75.78
78.504
79.673
79.352
77.244
73.55
68.138
60.8
52.795
45.187
39.006
35.488
34.171
34.393
35.599
36.882
38.334
39.967
41.532
42.996
43.823
43.66
42.538
40.468
37.708
34.618
31.371
28.128
25.074
22.274
19.747
17.506
15.48
13.574
11.769
10.065
8.467
7.009
5.723
4.623
3.747
3.126
2.772
2.684
2.857
3.281
3.955
4.886
6.077
7.53
9.247
11.224
13.459
15.95
18.688
21.668
24.883
28.323
31.982
35.854
39.93
44.199
48.649
53.268
58.038
62.945
67.968
73.09
78.293
83.557
88.864
94.192
99.519
104.824
110.087
115.289
120.412
125.435
130.341
135.113
139.737
144.198
148.482
152.569
156.44
160.079
163.479
166.636
169.554
172.234
174.674
176.882
178.868
180.638
182.193
183.528
184.624
185.473
186.077
186.445
186.597
186.543
186.283
185.814
185.132
184.231
183.112
181.762
180.152
178.278
176.15
173.804
171.302
168.689
165.994
163.239
160.434
157.599
154.767
151.965
149.214
146.543
143.977
141.56
139.359
137.408
135.712
134.249
132.959
131.802
130.756
129.797
128.91
128.074
127.259
126.448
125.634
124.801
123.927
122.972
121.874
120.602
119.143
117.509
115.733
113.84
111.837
109.738
107.556
105.302
102.988
100.616
98.171
95.653
93.068
90.43
87.768
85.096
82.418
79.732
77.028
74.299
71.546
68.766
65.954
63.111
60.24
57.35
54.458
51.577
48.716
45.882
43.078
40.311
37.588
34.92
32.313
29.776
27.317
24.943
22.663
20.484
18.41
16.444
14.585
12.834
11.19
9.654
8.224
6.899
5.676
4.553
3.528
2.598
1.757
1.002
0.327
-0.275
-0.811
-1.286
-1.709
-2.087
-2.429
-2.741
-3.032
-3.311
-3.584
-3.86
-4.147
-4.452
-4.783
-5.147
-5.55
-6
-6.502
-7.061
-7.684
-8.374
-9.135
-9.972
-10.887
-11.882
-12.96
-14.123
-15.371
-16.707
-18.131
-19.643
-21.241
-22.926
-24.696
-26.549
-28.482
-30.493
-32.579
-34.735
-36.96
-39.247
-41.594
-43.996
-46.448
-48.945
-51.482
-54.052
-56.651
-59.272
-61.909
-64.555
-67.204
-69.85
-72.487
-75.107
-77.704
-80.271
-82.801
-85.286
-87.719
-90.091
-92.395
-94.622
-96.764
-98.813
-100.761
-102.601
-104.324
-105.923
-107.39
-108.718
-109.9
-110.926
-111.791
-112.486
-113.005
-113.341
-113.49
-113.446
-113.205
-112.762
-112.115
-111.261
-110.196
-108.921
-107.431
-105.728
-103.811
-101.682
-99.343
-96.798
-94.052
-91.112
-87.986
-84.683
-81.212
-77.583
-73.805
-69.891
-65.85
-61.694
-57.435
-53.085
-48.659
-44.172
-39.643
-35.089
-30.528
-25.978
-21.459
-16.989
-12.586
-8.265
-4.038
0.081
4.074
7.925
11.614
15.123
18.44
21.552
24.447
27.119
29.569
31.805
33.848
35.71
37.396
38.911
40.249
41.405
42.376
43.156
43.734
44.106
44.265
44.215
43.969
43.524
42.863
41.958
40.757
39.227
37.35
35.109
32.498
29.533
26.237
22.663
18.889
14.976
10.978
6.932
2.853
-1.211
-5.196
-9.02
-12.575
-15.785
-18.581
-20.853
-22.533
-23.598
-24.068
-24.088
-23.84
-23.389
-22.803
-22.132
-21.277
-20.204
-18.864
-16.941
-14.16
-10.496
-5.913
-0.719
4.27
8.732
12.492
15.267
17.628
19.564
20.062
18.149
12.007
0.608
-14.668
-31.142
-44.76
-52.16
-52.675
-47.596
-40.016
-32.711
-26.822
-22.503
-18.833
-15.159
-11.623
-8.537
-6.333
-5.153
-4.685
-4.49
-4.231
-3.686
-2.744
-1.398
0.335
2.406
4.703
7.085
9.487
11.882
14.267
16.683
19.145
21.654
24.226
26.872
29.582
32.339
35.114
37.869
40.578
43.226
45.8
48.292
50.688
52.972
55.131
57.148
59.01
60.705
62.223
63.554
64.69
65.628
66.365
66.9
67.233
67.362
67.283
66.995
66.497
65.789
64.874
63.755
62.436
60.922
59.222
57.344
55.298
53.096
50.749
48.269
45.669
42.965
40.169
37.298
34.366
31.388
28.382
25.362
22.345
19.348
16.385
13.474
10.629
7.866
5.199
2.643
0.21
-2.086
-4.235
-6.224
-8.042
-9.682
-11.133
-12.388
-13.441
-14.287
-14.921
-15.342
-15.547
-15.537
-15.312
-14.875
-14.229
-13.379
-12.33
-11.088
-9.661
-8.057
-6.285
-4.355
-2.279
-0.068
2.266
4.71
7.251
9.874
12.565
15.311
18.095
20.903
23.719
26.529
29.316
32.067
34.766
37.397
39.948
42.405
44.753
46.98
49.075
51.025
52.82
54.451
55.908
57.183
58.268
59.158
59.847
60.331
60.605
60.667
60.517
60.152
59.574
58.785
57.786
56.582
55.177
53.576
51.786
49.814
47.669
45.36
42.897
40.29
37.551
34.692
31.727
28.667
25.527
22.321
19.063
15.768
12.45
9.125
5.807
2.512
-0.747
-3.953
-7.093
-10.152
-13.117
-15.973
-18.709
-21.311
-23.768
-26.068
-28.202
-30.16
-31.932
-33.512
-34.892
-36.068
-37.034
-37.786
-38.323
-38.643
-38.745
-38.632
-38.306
-37.769
-37.027
-36.085
-34.95
-33.63
-32.133
-30.471
-28.654
-26.694
-24.604
-22.397
-20.089
-17.695
-15.23
-12.711
-10.156
-7.582
-5.007
-2.448
0.075
2.544
4.941
7.248
9.447
11.52
13.451
15.222
16.819
18.227
19.43
20.416
21.174
21.691
21.957
21.965
21.707
21.176
20.368
19.279
17.907
16.251
14.313
12.094
9.599
6.832
3.8
0.511
-3.025
-6.799
-10.798
-15.009
-19.419
-24.011
-28.77
-33.679
-38.721
-43.876
-49.128
-54.455
-59.84
-65.263
-70.703
-76.143
-81.563
-86.943
-92.266
-97.514
-102.669
-107.714
-112.634
-117.414
-122.039
-126.495
-130.772
-134.857
-138.741
-142.415
-145.87
-149.102
-152.104
-154.873
-157.406
-159.701
-161.759
-163.58
-165.167
-166.522
-167.65
-168.556
-169.246
-169.727
-170.005
-170.09
-169.989
-169.711
-169.266
-168.662
-167.91
-167.02
-166.001
-164.862
-163.614
-162.265
-160.824
-159.301
-157.702
-156.037
-154.311
-152.532
-150.706
-148.84
-146.936
-145.001
-143.038
-141.048
-139.034
-136.998
-134.94
-132.861
-130.76
-128.637
-126.492
-124.324
-122.13
-119.907
-117.653
-115.362
-113.029
-110.651
-108.221
-105.735
-103.188
-100.575
-97.888
-95.122
-92.269
-89.32
-86.267
-83.103
-79.824
-76.425
-72.905
-69.265
-65.505
-61.63
-57.643
-53.548
-49.351
-45.06
-40.69
-36.261
-31.798
-27.319
-22.845
-18.387
-13.955
-9.557
-5.194
-0.849
3.467
7.727
11.877
15.827
19.512
22.903
25.956
28.663
31.095
33.407
35.87
38.817
42.495
47.076
52.705
59.407
67.076
75.41
83.779
91.504
98.028
102.785
105.547
106.231
104.515
100.583
94.608
86.755
78.383
70.654
64.799
62.173
62.325
64.58
68.114
71.718
75.349
78.882
81.935
84.397
85.737
85.624
84.2
81.607
78.163
74.305
70.27
66.264
62.476
58.967
55.754
52.836
50.137
47.549
45.019
42.521
40.041
37.607
35.233
32.923
30.698
28.577
26.569
24.672
22.878
21.167
19.531
17.966
16.467
15.037
13.672
12.37
11.128
9.944
8.818
7.748
6.734
5.774
4.867
4.011
3.207
2.454
1.75
1.092
0.477
-0.098
-0.636
-1.14
-1.609
-2.046
-2.451
-2.823
-3.163
-3.47
-3.743
-3.979
-4.179
-4.339
-4.458
-4.533
-4.561
-4.538
-4.462
-4.329
-4.138
-3.884
-3.564
-3.177
-2.721
-2.192
-1.59
-0.912
-0.158
0.672
1.579
2.563
3.623
4.756
5.963
7.239
8.581
9.987
11.452
12.971
14.54
16.152
17.801
19.481
21.186
22.909
24.642
26.378
28.11
29.83
31.532
33.208
34.852
36.456
38.015
39.522
40.971
42.359
43.681
44.932
46.109
47.21
48.232
49.175
50.037
50.819
51.521
52.144
52.692
53.165
53.568
53.905
54.18
54.398
54.565
54.685
54.766
54.813
54.834
54.835
54.823
54.805
54.788
54.78
54.786
54.814
54.869
54.958
55.087
55.261
55.484
55.761
56.096
56.493
56.953
57.48
58.074
58.738
59.471
60.274
61.145
62.084
63.088
64.156
65.284
66.469
67.708
68.996
70.329
71.701
73.107
74.543
76.001
77.477
78.963
80.454
81.942
83.422
84.886
86.328
87.742
89.12
90.457
91.746
92.98
94.153
95.261
96.295
97.252
98.125
98.91
99.602
100.195
100.685
101.069
101.343
101.503
101.545
101.468
101.268
100.943
100.492
99.913
99.205
98.367
97.4
96.304
95.078
93.725
92.246
90.642
88.917
87.072
85.11
83.037
80.854
78.568
76.182
73.702
71.134
68.484
65.758
62.963
60.106
57.194
54.236
51.239
48.211
45.16
42.095
39.023
35.955
32.897
29.858
26.847
23.871
20.938
18.055
15.23
12.469
9.779
7.165
4.634
2.19
-0.162
-2.419
-4.577
-6.632
-8.584
-10.43
-12.17
-13.802
-15.328
-16.748
-18.064
-19.278
-20.392
-21.41
-22.336
-23.173
-23.926
-24.6
-25.2
-25.731
-26.2
-26.612
-26.973
-27.289
-27.566
-27.809
-28.024
-28.217
-28.393
-28.557
-28.713
-28.867
-29.021
-29.18
-29.347
-29.525
-29.716
-29.923
-30.146
-30.387
-30.646
-30.924
-31.221
-31.536
-31.868
-32.216
-32.578
-32.952
-33.336
-33.728
-34.125
-34.524
-34.922
-35.317
-35.706
-36.085
-36.453
-36.807
-37.144
-37.462
-37.758
-38.032
-38.282
-38.506
-38.704
-38.874
-39.017
-39.132
-39.22
-39.281
-39.315
-39.325
-39.31
-39.272
-39.213
-39.135
-39.04
-38.93
-38.807
-38.673
-38.531
-38.384
-38.233
-38.081
-37.931
-37.784
-37.642
-37.508
-37.383
-37.268
-37.165
-37.075
-36.999
-36.937
-36.889
-36.856
-36.837
-36.831
-36.838
-36.857
-36.886
-36.923
-36.968
-37.019
-37.073
-37.128
-37.182
-37.233
-37.278
-37.315
-37.341
-37.353
-37.349
-37.327
-37.284
-37.218
-37.126
-37.007
-36.857
-36.675
-36.46
-36.209
-35.921
-35.595
-35.23
-34.824
-34.378
-33.89
-33.36
-32.788
-32.175
-31.519
-30.821
-30.083
-29.304
-28.487
-27.63
-26.735
-25.804
-24.838
-23.837
-22.8
-21.728
-20.62
-19.478
-18.309
-17.109
-15.879
-14.625
-13.355
-12.074
-10.789
-9.498
-8.191
-6.877
-5.567
-4.237
-2.857
-1.449
-0.013
1.455
2.884
4.454
6.335
8.275
10.194
11.627
12.02
11.978
11.903
12.398
14.289
16.834
19.405
21.569
22.611
23.032
23.337
23.633
24.226
24.927
25.496
25.972
26.317
26.54
26.682
26.705
26.578
26.303
25.876
25.289
24.536
23.617
22.527
21.267
19.84
18.243
16.47
14.524
12.403
10.109
7.644
5.01
2.21
-0.751
-3.867
-7.131
-10.537
-14.077
-17.74
-21.519
-25.402
-29.378
-33.436
-37.563
-41.747
-45.974
-50.232
-54.506
-58.782
-63.046
-67.285
-71.484
-75.629
-79.707
-83.705
-87.61
-91.409
-95.091
-98.644
-102.059
-105.325
-108.433
-111.376
-114.147
-116.739
-119.147
-121.368
-123.398
-125.236
-126.88
-128.332
-129.591
-130.66
-131.542
-132.242
-132.762
-133.111
-133.292
-133.315
-133.185
-132.912
-132.504
-131.969
-131.318
-130.559
-129.703
-128.758
-127.735
-126.643
-125.492
-124.292
-123.052
-121.781
-120.487
-119.179
-117.865
-116.551
-115.246
-113.955
-112.683
-111.437
-110.221
-109.04
-107.896
-106.793
-105.733
-104.719
-103.752
-102.833
-101.963
-101.141
-100.368
-99.643
-98.965
-98.333
-97.745
-97.199
-96.694
-96.228
-95.797
-95.4
-95.034
-94.696
-94.383
-94.092
-93.82
-93.563
-93.32
-93.086
-92.859
-92.635
-92.41
-92.182
-91.947
-91.702
-91.443
-91.167
-90.87
-90.549
-90.199
-89.819
-89.403
-88.949
-88.452
-87.91
-87.318
-86.673
-85.971
-85.209
-84.383
-83.49
-82.528
-81.492
-80.381
-79.191
-77.921
-76.568
-75.13
-73.607
-71.996
-70.298
-68.512
-66.638
-64.676
-62.629
-60.496
-58.281
-55.987
-53.615
-51.171
-48.657
-46.08
-43.444
-40.755
-38.019
-35.243
-32.434
-29.6
-26.748
-23.887
-21.025
-18.172
-15.335
-12.523
-9.746
-7.012
-4.331
-1.71
0.84
3.313
5.701
7.994
10.187
12.272
14.244
16.096
17.825
19.424
20.892
22.225
23.421
24.48
25.401
26.185
26.833
27.348
27.734
27.994
28.134
28.159
28.076
27.893
27.618
27.259
26.825
26.327
25.775
25.18
24.552
23.904
23.246
22.59
21.948
21.332
20.754
20.226
19.757
19.36
19.045
18.821
18.699
18.685
18.789
19.017
19.375
19.869
20.501
21.276
22.195
23.259
24.469
25.822
27.316
28.948
30.713
32.607
34.621
36.749
38.982
41.312
43.727
46.219
48.774
51.381
54.027
56.7
59.385
62.07
64.74
67.381
69.981
72.525
75.001
77.395
79.695
81.89
83.967
85.917
87.732
89.401
90.918
92.275
93.466
94.486
95.33
95.995
96.481
96.787
96.915
96.868
96.65
96.267
95.727
95.036
94.202
93.233
92.138
90.927
89.617
88.224
86.761
85.246
83.688
82.098
80.489
78.872
77.25
75.631
74.014
72.4
70.806
69.242
67.715
66.229
64.766
63.312
61.866
60.43
59.019
57.652
56.318
55.017
53.788
52.642
51.584
50.594
49.549
48.346
46.99
45.499
43.916
42.375
40.975
39.885
39.455
39.98
41.563
44.196
47.699
51.72
55.924
59.825
62.74
64.038
63.469
61.212
57.339
51.997
45.043
36
25.844
16.37
9.261
6.485
8.08
12.282
17.65
22.457
25.829
28.311
30.062
31.167
31.677
31.243
29.811
27.671
25.186
22.682
20.41
18.492
16.941
15.771
14.954
14.397
13.997
13.702
13.481
13.33
13.273
13.308
13.437
13.675
14.031
14.502
15.078
15.737
16.456
17.22
18.019
18.843
19.684
20.529
21.367
22.187
22.98
23.739
24.453
25.114
25.715
26.25
26.712
27.097
27.4
27.612
27.729
27.744
27.65
27.442
27.115
26.666
26.094
25.397
24.575
23.628
22.559
21.368
20.061
18.64
17.111
15.479
13.751
11.933
10.034
8.062
6.025
3.932
1.793
-0.383
-2.587
-4.81
-7.04
-9.27
-11.489
-13.689
-15.859
-17.993
-20.08
-22.115
-24.087
-25.992
-27.823
-29.573
-31.238
-32.813
-34.296
-35.683
-36.971
-38.161
-39.251
-40.241
-41.133
-41.926
-42.625
-43.229
-43.744
-44.172
-44.516
-44.78
-44.969
-45.088
-45.139
-45.128
-45.06
-44.937
-44.766
-44.549
-44.29
-43.993
-43.661
-43.297
-42.903
-42.481
-42.033
-41.559
-41.06
-40.537
-39.988
-39.412
-38.809
-38.175
-37.509
-36.807
-36.067
-35.283
-34.454
-33.574
-32.638
-31.643
-30.584
-29.456
-28.254
-26.975
-25.613
-24.164
-22.625
-20.993
-19.263
-17.433
-15.502
-13.466
-11.326
-9.079
-6.727
-4.269
-1.707
0.958
3.723
6.586
9.542
12.587
15.717
18.925
22.206
25.553
28.959
32.417
35.917
39.452
43.014
46.592
50.177
53.761
57.334
60.885
64.405
67.884
71.313
74.683
77.984
81.206
84.342
87.383
90.322
93.149
95.859
98.445
100.901
103.222
105.402
107.438
109.325
111.062
112.646
114.076
115.35
116.469
117.433
118.244
118.904
119.414
119.78
120.003
120.089
120.043
119.871
119.577
119.17
118.655
118.04
117.333
116.541
115.673
114.736
113.74
112.693
111.603
110.478
109.327
108.158
106.978
105.796
104.618
103.452
102.304
101.181
100.087
99.029
98.012
97.038
96.111
95.235
94.41
93.64
92.925
92.266
91.661
91.111
90.613
90.167
89.769
89.417
89.107
88.834
88.594
88.383
88.196
88.027
87.872
87.725
87.58
87.434
87.279
87.113
86.928
86.721
86.487
86.22
85.917
85.574
85.187
84.754
84.271
83.738
83.153
82.515
81.823
81.078
80.28
79.428
78.525
77.573
76.572
75.526
74.438
73.311
72.149
70.954
69.731
68.482
67.21
65.919
64.611
63.286
61.948
60.598
59.237
57.867
56.492
55.111
53.729
52.346
50.965
49.586
48.21
46.835
45.459
44.079
42.69
41.291
39.876
38.444
36.992
35.516
34.017
32.492
30.938
29.351
27.723
26.047
24.32
22.544
20.721
18.861
16.977
15.081
13.193
11.322
9.478
7.663
5.87
4.091
2.316
0.544
-1.218
-2.963
-4.684
-6.378
-8.047
-9.702
-11.361
-13.049
-14.795
-16.619
-18.528
-20.513
-22.549
-24.594
-26.598
-28.52
-30.336
-32.031
-33.601
-35.042
-36.333
-37.442
-38.322
-38.917
-39.174
-39.054
-38.506
-37.524
-36.144
-34.437
-32.555
-30.641
-28.723
-26.808
-24.89
-22.859
-20.617
-18.061
-14.905
-10.918
-6.087
-0.426
5.933
12.641
19.392
25.831
31.368
35.489
38.079
39.26
39.004
37.395
34.205
28.759
21.881
15.292
10.578
9.919
13.59
19.75
26.936
33.393
38.189
42.088
45.468
48.365
50.781
52.29
52.728
52.381
51.607
50.669
49.753
48.994
48.438
48.126
48.085
48.227
48.442
48.695
48.972
49.274
49.63
50.041
50.501
51.032
51.655
52.378
53.203
54.117
55.102
56.151
57.26
58.429
59.656
60.939
62.274
63.654
65.078
66.543
68.046
69.581
71.146
72.735
74.344
75.97
77.61
79.257
80.906
82.55
84.182
85.796
87.386
88.946
90.471
91.958
93.402
94.8
96.149
97.447
98.692
99.883
101.018
102.098
103.122
104.092
105.008
105.872
106.686
107.453
108.174
108.853
109.492
110.096
110.667
111.209
111.727
112.223
112.703
113.169
113.626
114.077
114.526
114.975
115.427
115.884
116.346
116.815
117.29
117.771
118.257
118.745
119.233
119.719
120.197
120.664
121.115
121.543
121.944
122.31
122.635
122.912
123.135
123.295
123.386
123.4
123.33
123.169
122.908
122.54
122.056
121.451
120.716
119.845
118.833
117.675
116.366
114.904
113.288
111.517
109.592
107.515
105.289
102.918
100.408
97.764
94.994
92.106
89.108
86.008
82.819
79.552
76.219
72.836
69.414
65.968
62.513
59.066
55.641
52.255
48.923
45.661
42.488
39.423
36.49
33.71
31.095
28.657
26.404
24.337
22.456
20.753
19.212
17.818
16.557
15.419
14.402
13.501
12.704
11.996
11.353
10.755
10.196
9.678
9.2
8.774
8.421
8.173
8.091
8.227
8.613
9.264
10.172
11.314
12.678
14.25
16.014
17.947
20.003
22.129
24.272
26.372
28.34
30.062
31.38
32.131
32.188
31.459
29.883
27.425
24.048
19.711
14.394
8.089
0.799
-7.46
-16.689
-26.889
-38.023
-50.007
-62.7
-75.934
-89.566
-103.484
-117.594
-131.815
-146.062
-160.238
-174.258
-188.051
-201.535
-214.614
-227.165
-239.038
-250.106
-260.295
-269.578
-277.966
-285.464
-292.057
-297.736
-302.495
-306.337
-309.279
-311.336
-312.514
-312.839
-312.368
-311.189
-309.431
-307.222
-304.652
-301.785
-298.659
-295.307
-291.77
-288.087
-284.277
-280.355
-276.336
-272.236
-268.083
-263.896
-259.671
-255.385
-250.994
-246.446
-241.714
-236.789
-231.673
-226.376
-220.914
-215.305
-209.585
-203.798
-197.979
-192.157
-186.358
-180.604
-174.931
-169.384
-164.01
-158.852
-153.946
-149.316
-144.982
-140.959
-137.248
-133.84
-130.719
-127.862
-125.262
-122.923
-120.846
-119.033
-117.484
-116.191
-115.157
-114.397
-113.92
-113.73
-113.834
-114.235
-114.956
-116.037
-117.509
-119.392
-121.684
-124.356
-127.378
-130.719
-134.335
-138.171
-142.156
-146.191
-150.197
-154.109
-157.857
-161.378
-164.584
-167.363
-169.621
-171.29
-172.32
-172.694
-172.397
-171.418
-169.772
-167.496
-164.646
-161.306
-157.538
-153.379
-148.872
-144.057
-138.992
-133.759
-128.418
-123.007
-117.553
-112.068
-106.571
-101.079
-95.574
-90.025
-84.39
-78.62
-72.704
-66.645
-60.424
-54.064
-47.628
-41.129
-34.569
-27.988
-21.349
-14.775
-8.64
-2.876
2.854
9.076
16.838
26.116
35.822
44.879
51.731
56.125
59.432
62.685
66.973
72.639
78.797
85.038
91.313
97.724
104.806
112.907
122.12
132.344
143.202
154.141
164.457
173.485
180.699
185.556
187.453
186.272
182.226
175.488
166.7
156.151
144.121
132.234
122.059
115.304
113.561
116.488
123.711
134.764
148.345
164.327
182.402
201.938
223.207
244.98
264.871
280.763
290.328
293.38
291.939
287.457
281.177
273.191
262.225
248.968
235.25
222.841
214.221
209.774
207.96
207.618
207.008
205.209
202.827
200.198
197.661
195.349
192.69
189.276
185.111
180.414
175.569
170.797
166.067
161.29
156.442
151.595
146.81
142.055
137.226
132.228
127.035
121.67
116.165
110.522
104.724
98.77
92.689
86.524
80.322
74.118
67.927
61.753
55.605
49.488
43.413
37.384
31.402
25.461
19.561
13.709
7.912
2.181
-3.478
-9.064
-14.576
-20.017
-25.385
-30.678
-35.895
-41.036
-46.101
-51.091
-56.002
-60.831
-65.576
-70.237
-74.816
-79.314
-83.734
-88.078
-92.349
-96.551
-100.689
-104.766
-108.785
-112.75
-116.665
-120.533
-124.359
-128.147
-131.901
-135.628
-139.33
-143.014
-146.685
-150.346
-154.003
-157.659
-161.317
-164.98
-168.652
-172.334
-176.028
-179.735
-183.457
-187.193
-190.945
-194.711
-198.489
-202.28
-206.079
-209.885
-213.693
-217.5
-221.302
-225.093
-228.869
-232.625
-236.356
-240.055
-243.716
-247.335
-250.904
-254.419
-257.872
-261.259
-264.573
-267.81
-270.965
-274.035
-277.015
-279.904
-282.698
-285.397
-288
-290.507
-292.918
-295.235
-297.462
-299.599
-301.653
-303.626
-305.525
-307.355
-309.123
-310.837
-312.504
-314.133
-315.731
-317.308
-318.874
-320.437
-322.007
-323.594
-325.207
-326.854
-328.545
-330.289
-332.091
-333.961
-335.903
-337.923
-340.025
-342.214
-344.489
-346.854
-349.307
-351.847
-354.471
-357.176
-359.956
-362.804
-365.713
-368.674
-371.678
-374.711
-377.764
-380.822
-383.871
-386.897
-389.883
-392.814
-395.673
-398.442
-401.105
-403.642
-406.038
-408.273
-410.33
-412.193
-413.844
-415.267
-416.448
-417.372
-418.024
-418.394
-418.47
-418.241
-417.7
-416.839
-415.652
-414.135
-412.286
-410.102
-407.585
-404.736
-401.559
-398.057
-394.239
-390.111
-385.682
-380.963
-375.966
-370.703
-365.188
-359.436
-353.464
-347.287
-340.924
-334.392
-327.711
-320.9
-313.977
-306.965
-299.881
-292.746
-285.579
-278.401
-271.23
-264.085
-256.985
-249.947
-242.99
-236.129
-229.381
-222.761
-216.284
-209.962
-203.809
-197.836
-192.054
-186.473
-181.101
-175.947
-171.018
-166.32
-161.858
-157.636
-153.658
-149.925
-146.439
-143.199
-140.205
-137.455
-134.948
-132.679
-130.644
-128.84
-127.261
-125.901
-124.755
-123.816
-123.073
-122.519
-122.144
-121.938
-121.89
-121.991
-122.228
-122.592
-123.075
-123.667
-124.361
-125.144
-125.999
-126.907
-127.857
-128.824
-129.778
-130.699
-131.564
-132.356
-133.079
-133.739
-134.323
-134.854
-135.397
-135.942
-136.444
-136.906
-137.233
-137.483
-138.024
-138.75
-139.263
-138.978
-136.536
-131.599
-125.235
-118.904
-115.286
-115.907
-119.717
-124.748
-127.625
-125.776
-119.414
-110.09
-100.562
-93.164
-88.301
-85.265
-82.631
-79.256
-74.857
-69.616
-63.954
-58.097
-52.026
-45.695
-39.064
-32.179
-25.143
-18.02
-10.842
-3.627
3.609
10.829
18.009
25.171
32.378
39.695
47.132
54.62
62.06
69.437
76.767
83.984
90.923
97.366
103.157
108.377
113.267
117.916
122.35
126.775
131.597
137.394
144.748
153.658
163.583
174.46
186.405
199.554
214.276
229.528
243.328
254.182
260.544
262.207
260.545
256.926
253.03
249.854
247.276
244.771
241.542
237.881
234.739
233.392
235.314
240.41
247.46
254.821
260.635
263.93
265.313
266.263
268.156
272.226
278.508
286.01
294.12
302.333
310.523
319.092
328.131
337.47
346.961
356.375
365.55
374.446
382.999
391.12
398.761
405.905
412.538
418.639
424.175
429.09
433.331
436.892
439.796
442.062
443.736
444.874
445.543
445.836
445.831
445.576
445.108
444.447
443.607
442.617
441.509
440.315
439.082
437.84
436.603
435.393
434.215
433.059
431.903
430.707
429.434
428.07
426.608
425.048
423.394
421.643
419.795
417.86
415.834
413.712
411.489
409.145
406.675
404.089
401.41
398.675
395.923
393.165
390.414
387.71
385.067
382.484
379.945
377.358
374.642
371.822
368.941
366.045
363.277
360.746
358.572
357.072
356.527
357.029
358.624
361.195
364.403
367.976
371.583
374.632
376.53
376.968
375.875
373.164
368.891
362.759
354.097
343.612
332.902
323.745
318.443
317.378
319.116
322.55
326.27
329.801
333.978
338.834
344.049
349.256
353.632
356.732
358.545
358.931
357.747
355.159
351.414
346.829
341.88
336.863
331.877
327.149
322.959
319.411
316.539
314.247
312.234
310.343
308.568
306.872
305.247
303.75
302.408
301.312
300.657
300.549
301.016
302.064
303.614
305.567
307.858
310.408
313.124
315.935
318.735
321.404
323.845
325.943
327.591
328.702
329.155
328.849
327.737
325.801
323.077
319.639
315.535
310.794
305.475
299.652
293.401
286.776
279.842
272.696
265.41
258.114
250.809
243.224
235.464
227.901
221.059
215.939
212.549
209.851
206.812
201.972
195.095
187.504
180.241
174.417
170.287
166.812
163.309
159.338
154.727
149.894
145.052
140.191
135.332
130.421
125.456
120.514
115.638
110.844
106.15
101.566
97.1
92.757
88.537
84.44
80.462
76.603
72.862
69.24
65.736
62.354
59.096
55.958
52.934
50.027
47.242
44.579
42.046
39.636
37.343
35.172
33.135
31.21
29.371
27.636
26.004
24.47
23.097
21.712
20.149
18.644
17.266
16.454
16.729
17.505
18.399
18.83
17.997
16.604
15.255
14.359
14.598
15.488
16.512
17.546
18.296
18.905
19.536
20.139
20.745
21.313
21.881
22.377
22.44
22.152
21.828
21.95
23.719
27.191
31.083
34.275
34.816
32.105
28.134
24.368
22.587
23.799
26.203
28.531
29.892
29.433
28.099
26.596
25.031
23.74
22.465
20.948
19.291
17.477
15.513
13.45
11.261
8.919
6.431
3.797
1.007
-1.938
-5.028
-8.255
-11.611
-15.084
-18.671
-22.364
-26.154
-30.034
-33.994
-38.027
-42.127
-46.285
-50.493
-54.745
-59.033
-63.35
-67.69
-72.045
-76.404
-80.761
-85.106
-89.43
-93.725
-97.98
-102.186
-106.337
-110.427
-114.449
-118.396
-122.256
-126.021
-129.682
-133.236
-136.676
-140
-143.207
-146.304
-149.306
-152.23
-155.093
-157.911
-160.691
-163.438
-166.159
-168.856
-171.537
-174.2
-176.839
-179.453
-182.044
-184.613
-187.147
-189.614
-191.956
-194.124
-196.075
-197.753
-199.141
-200.243
-201.087
-201.756
-202.345
-202.928
-203.567
-204.314
-205.093
-205.774
-206.215
-206.18
-205.488
-204.039
-201.787
-198.845
-195.563
-192.396
-189.846
-188.584
-189.218
-192.279
-198.032
-206.222
-216.388
-228.137
-241.525
-256.742
-273.322
-289.824
-303.789
-312.918
-316.311
-314.662
-310.062
-304.689
-299.835
-295.943
-292.631
-289.482
-286.485
-283.812
-281.784
-280.527
-279.826
-279.307
-278.637
-277.65
-276.335
-274.778
-273.083
-271.323
-269.595
-268.018
-266.662
-265.55
-264.665
-263.942
-263.311
-262.709
-262.079
-261.387
-260.616
-259.761
-258.812
-257.759
-256.593
-255.311
-253.912
-252.395
-250.758
-249
-247.126
-245.155
-243.105
-241.001
-238.853
-236.664
-234.435
-232.163
-229.847
-227.487
-225.08
-222.619
-220.101
-217.527
-214.897
-212.214
-209.479
-206.688
-203.836
-200.923
-197.947
-194.911
-191.817
-188.668
-185.47
-182.229
-178.955
-175.658
-172.346
-169.027
-165.711
-162.407
-159.123
-155.87
-152.657
-149.493
-146.389
-143.356
-140.404
-137.544
-134.786
-132.14
-129.615
-127.22
-124.963
-122.852
-120.894
-119.095
-117.46
-115.994
-114.701
-113.583
-112.644
-111.883
-111.301
-110.897
-110.669
-110.612
-110.723
-110.995
-111.423
-111.999
-112.714
-113.561
-114.528
-115.606
-116.783
-118.047
-119.386
-120.786
-122.235
-123.719
-125.222
-126.73
-128.23
-129.707
-131.145
-132.531
-133.85
-135.089
-136.234
-137.273
-138.191
-138.978
-139.622
-140.113
-140.44
-140.595
-140.569
-140.355
-139.948
-139.342
-138.532
-137.516
-136.29
-134.855
-133.209
-131.352
-129.288
-127.017
-124.543
-121.871
-119.006
-115.953
-112.719
-109.312
-105.74
-102.012
-98.137
-94.124
-89.985
-85.73
-81.37
-76.916
-72.381
-67.776
-63.113
-58.405
-53.663
-48.899
-44.126
-39.354
-34.595
-29.862
-25.163
-20.511
-15.914
-11.385
-6.93
-2.561
1.715
5.889
9.953
13.901
17.725
21.42
24.979
28.397
31.67
34.792
37.762
40.575
43.228
45.72
48.049
50.214
52.213
54.047
55.716
57.221
58.562
59.741
60.759
61.62
62.325
62.878
63.282
63.54
63.657
63.638
63.486
63.208
62.81
62.296
61.675
60.952
60.135
59.231
58.249
57.196
56.082
54.915
53.704
52.459
51.19
49.906
48.617
47.334
46.067
44.827
43.624
42.47
41.374
40.348
39.402
38.547
37.793
37.149
36.626
36.233
35.979
35.873
35.923
36.136
36.52
37.08
37.822
38.751
39.869
41.18
42.685
44.385
46.281
48.372
50.656
53.13
55.792
58.636
61.658
64.85
68.206
71.716
75.371
79.162
83.078
87.107
91.239
95.46
99.757
104.118
108.528
112.972
117.436
121.904
126.361
130.79
135.178
139.51
143.771
147.948
152.027
155.996
159.843
163.557
167.125
170.537
173.783
176.854
179.74
182.435
184.93
187.221
189.303
191.174
192.831
194.274
195.502
196.516
197.316
197.905
198.285
198.458
198.427
198.197
197.774
197.169
196.39
195.447
194.349
193.106
191.732
190.236
188.625
186.901
185.066
183.126
181.094
178.992
176.838
174.646
172.435
170.226
168.044
165.909
163.827
161.792
159.798
157.845
155.951
154.145
152.453
150.886
149.441
148.109
146.883
145.755
144.699
143.666
142.596
141.453
140.239
138.991
137.743
136.507
135.27
134.012
132.734
131.463
130.23
129.065
127.981
127.018
126.268
125.837
125.808
126.201
126.927
127.881
129.004
130.233
131.526
132.946
134.601
136.696
139.547
143.38
148.335
154.542
161.949
170.229
178.845
187.023
193.946
199.006
201.67
201.405
197.899
191.197
181.725
170.309
157.903
145.297
133.257
122.69
114.184
108.058
104.654
103.767
105.382
109.564
115.202
121.239
126.428
129.492
130.845
131.009
130.491
130.121
129.648
128.945
128.199
127.276
126.449
125.929
125.607
125.444
125.297
124.949
124.343
123.484
122.398
121.179
119.892
118.567
117.241
115.945
114.686
113.467
112.27
111.063
109.835
108.589
107.344
106.121
104.924
103.743
102.564
101.364
100.129
98.846
97.501
96.084
94.592
93.024
91.391
89.702
87.962
86.172
84.328
82.424
80.458
78.43
76.339
74.186
71.974
69.704
67.382
65.012
62.595
60.135
57.631
55.084
52.494
49.864
47.195
44.49
41.753
38.989
36.202
33.399
30.586
27.769
24.955
22.151
19.362
16.597
13.864
11.17
8.523
5.934
3.41
0.963
-1.399
-3.665
-5.824
-7.867
-9.783
-11.564
-13.198
-14.678
-15.994
-17.139
-18.105
-18.883
-19.469
-19.855
-20.037
-20.011
-19.773
-19.323
-18.658
-17.781
-16.693
-15.396
-13.896
-12.198
-10.308
-8.234
-5.987
-3.576
-1.013
1.689
4.515
7.449
10.476
13.578
16.736
19.932
23.146
26.358
29.547
32.693
35.773
38.767
41.654
44.412
47.021
49.46
51.709
53.748
55.56
57.126
58.43
59.456
60.191
60.62
60.732
60.516
59.964
59.068
57.823
56.225
54.27
51.958
49.29
46.269
42.898
39.183
35.131
30.751
26.052
21.045
15.744
10.16
4.31
-1.792
-8.129
-14.683
-21.438
-28.374
-35.472
-42.714
-50.078
-57.547
-65.098
-72.714
-80.374
-88.059
-95.748
-103.424
-111.069
-118.664
-126.192
-133.638
-140.984
-148.217
-155.323
-162.288
-169.102
-175.752
-182.227
-188.518
-194.618
-200.517
-206.207
-211.679
-216.927
-221.947
-226.74
-231.298
-235.617
-239.7
-243.551
-247.174
-250.572
-253.743
-256.675
-259.377
-261.858
-264.096
-266.062
-267.776
-269.239
-270.448
-271.471
-272.136
-272.276
-272.138
-271.796
-271.702
-272.39
-273.275
-273.966
-273.881
-272.22
-269.698
-266.923
-264.313
-262.555
-261.165
-259.653
-257.915
-255.653
-253.049
-250.334
-247.471
-244.494
-241.395
-238.134
-234.749
-231.269
-227.695
-224.031
-220.287
-216.47
-212.586
-208.64
-204.638
-200.58
-196.477
-192.338
-188.171
-183.982
-179.78
-175.571
-171.364
-167.165
-162.981
-158.818
-154.683
-150.58
-146.517
-142.496
-138.524
-134.604
-130.74
-126.935
-123.193
-119.516
-115.906
-112.365
-108.894
-105.496
-102.17
-98.918
-95.74
-92.637
-89.607
-86.651
-83.767
-80.956
-78.215
-75.543
-72.939
-70.402
-67.93
-65.52
-63.172
-60.882
-58.65
-56.474
-54.35
-52.278
-50.254
-48.278
-46.348
-44.463
-42.621
-40.82
-39.058
-37.333
-35.643
-33.985
-32.358
-30.758
-29.183
-27.634
-26.109
-24.609
-23.133
-21.683
-20.255
-18.85
-17.469
-16.113
-14.785
-13.487
-12.223
-10.995
-9.805
-8.654
-7.544
-6.471
-5.429
-4.412
-3.412
-2.42
-1.435
-0.45
0.544
1.563
2.626
3.753
4.954
6.235
7.595
9.026
10.53
12.095
13.683
15.282
16.892
18.55
20.339
22.324
24.512
26.888
29.414
31.965
34.364
36.354
37.565
37.68
36.482
33.896
30.021
25.143
19.68
14.205
9.465
6.204
5.109
6.616
10.824
17.601
26.614
37.26
48.706
59.987
69.998
77.829
82.914
84.79
83.352
79.033
72.376
63.949
53.992
42.294
29.203
16.143
5.698
0.387
1.141
7.046
15.531
24.018
31.196
36.735
41.022
44.454
46.959
48.276
48.17
46.65
43.968
40.533
36.846
33.224
29.82
26.719
23.89
21.287
18.886
16.6
14.318
11.981
9.562
7.06
4.507
1.922
-0.693
-3.329
-5.977
-8.639
-11.32
-14.029
-16.781
-19.581
-22.428
-25.318
-28.245
-31.202
-34.181
-37.175
-40.175
-43.172
-46.154
-49.112
-52.035
-54.912
-57.734
-60.49
-63.173
-65.775
-68.291
-70.716
-73.046
-75.275
-77.4
-79.418
-81.322
-83.111
-84.781
-86.33
-87.755
-89.055
-90.228
-91.274
-92.191
-92.981
-93.642
-94.175
-94.582
-94.862
-95.018
-95.051
-94.964
-94.758
-94.437
-94.002
-93.457
-92.805
-92.049
-91.192
-90.238
-89.189
-88.05
-86.823
-85.513
-84.124
-82.659
-81.123
-79.52
-77.855
-76.131
-74.354
-72.529
-70.66
-68.754
-66.814
-64.847
-62.859
-60.854
-58.84
-56.821
-54.805
-52.797
-50.803
-48.831
-46.886
-44.977
-43.108
-41.288
-39.522
-37.819
-36.184
-34.625
-33.148
-31.76
-30.467
-29.277
-28.193
-27.224
-26.373
-25.646
-25.048
-24.582
-24.253
-24.064
-24.018
-24.116
-24.36
-24.752
-25.291
-25.977
-26.811
-27.789
-28.911
-30.173
-31.573
-33.106
-34.767
-36.553
-38.457
-40.472
-42.593
-44.813
-47.123
-49.516
-51.984
-54.518
-57.11
-59.751
-62.431
-65.143
-67.876
-70.623
-73.374
-76.121
-78.855
-81.57
-84.257
-86.908
-89.518
-92.08
-94.587
-97.035
-99.417
-101.731
-103.971
-106.134
-108.218
-110.219
-112.136
-113.967
-115.712
-117.37
-118.941
-120.425
-121.823
-123.136
-124.365
-125.512
-126.578
-127.566
-128.476
-129.312
-130.074
-130.764
-131.385
-131.936
-132.42
-132.837
-133.188
-133.473
-133.691
-133.842
-133.925
-133.939
-133.882
-133.753
-133.548
-133.267
-132.904
-132.458
-131.925
-131.301
-130.583
-129.765
-128.845
-127.818
-126.679
-125.426
-124.053
-122.557
-120.934
-119.181
-117.295
-115.274
-113.115
-110.818
-108.381
-105.804
-103.088
-100.234
-97.244
-94.12
-90.867
-87.488
-83.989
-80.374
-76.65
-72.825
-68.904
-64.898
-60.814
-56.661
-52.449
-48.188
-43.887
-39.559
-35.212
-30.858
-26.507
-22.17
-17.858
-13.581
-9.35
-5.173
-1.06
2.979
6.937
10.806
14.579
18.251
21.817
25.272
28.613
31.837
34.943
37.93
40.799
43.549
46.183
48.704
51.114
53.418
55.62
57.725
59.739
61.668
63.517
65.295
67.007
68.66
70.262
71.819
73.34
74.83
76.298
77.75
79.192
80.631
82.071
83.517
84.973
86.442
87.927
89.43
90.952
92.492
94.052
95.629
97.223
98.829
100.445
102.067
103.689
105.306
106.913
108.503
110.071
111.608
113.107
114.56
115.959
117.296
118.562
119.749
120.849
121.856
122.764
123.566
124.257
124.83
125.281
125.607
125.807
125.881
125.833
125.665
125.384
124.994
124.502
123.911
123.224
122.439
121.556
120.576
119.5
118.335
117.084
115.747
114.324
112.807
111.188
109.461
107.615
105.642
103.549
101.35
99.072
96.768
94.466
92.186
89.932
87.652
85.302
82.866
80.295
77.581
74.801
72.057
69.588
67.81
67.061
67.624
69.592
72.674
76.549
81.058
86.438
93.101
101.034
109.368
115.81
117.825
113.748
103.35
88.98
74.198
62.502
56.552
56.726
61.651
69.09
77.031
84.602
91.922
99.69
108.123
116.802
125.132
132.411
138.367
143.187
147.103
150.421
153.507
156.587
159.812
163.295
167.018
170.896
174.837
178.734
182.458
185.957
189.226
192.267
195.107
197.77
200.266
202.612
204.827
206.907
208.833
210.59
212.164
213.56
214.801
215.898
216.855
217.671
218.333
218.837
219.186
219.381
219.422
219.313
219.064
218.69
218.215
217.657
217.033
216.352
215.623
214.856
214.063
213.257
212.449
211.653
210.88
210.144
209.456
208.828
208.268
207.783
207.375
207.049
206.808
206.655
206.591
206.616
206.733
206.939
207.235
207.617
208.084
208.629
209.248
209.934
210.678
211.474
212.312
213.183
214.076
214.981
215.888
216.785
217.661
218.505
219.306
220.052
220.731
221.333
221.846
222.26
222.564
222.748
222.803
222.72
222.491
222.107
221.562
220.849
219.962
218.896
217.646
216.208
214.578
212.756
210.738
208.526
206.118
203.516
200.724
197.742
194.576
191.23
187.709
184.019
180.167
176.16
172.007
167.717
163.297
158.76
154.114
149.37
144.54
139.636
134.668
129.65
124.593
119.51
114.414
109.317
104.232
99.171
94.147
89.172
84.258
79.417
74.659
69.996
65.437
60.992
56.669
52.477
48.423
44.512
40.751
37.143
33.693
30.403
27.275
24.309
21.506
18.863
16.379
14.05
11.872
9.841
7.949
6.189
4.556
3.038
1.629
0.316
-0.908
-2.057
-3.141
-4.172
-5.163
-6.124
-7.069
-8.009
-8.957
-9.925
-10.924
-11.966
-13.061
-14.219
-15.451
-16.766
-18.171
-19.675
-21.284
-23.004
-24.841
-26.798
-28.879
-31.086
-33.42
-35.883
-38.473
-41.19
-44.03
-46.992
-50.071
-53.263
-56.561
-59.961
-63.455
-67.036
-70.697
-74.429
-78.225
-82.075
-85.971
-89.903
-93.864
-97.843
-101.832
-105.822
-109.805
-113.772
-117.715
-121.627
-125.5
-129.328
-133.103
-136.82
-140.474
-144.058
-147.569
-151.002
-154.355
-157.624
-160.807
-163.901
-166.904
-169.817
-172.637
-175.362
-177.991
-180.523
-182.959
-185.304
-187.556
-189.714
-191.785
-193.776
-195.692
-197.541
-199.319
-201.019
-202.648
-204.217
-205.703
-207.077
-208.359
-209.55
-210.644
-211.707
-212.568
-213.058
-213.42
-213.729
-214.429
-216.052
-218.013
-219.922
-221.198
-221.042
-220.163
-219.166
-218.462
-218.734
-219.499
-220.266
-220.928
-221.187
-221.222
-221.258
-221.257
-221.25
-221.226
-221.142
-221.032
-220.924
-220.813
-220.701
-220.594
-220.496
-220.408
-220.334
-220.272
-220.221
-220.186
-220.17
-220.175
-220.203
-220.253
-220.324
-220.416
-220.53
-220.663
-220.812
-220.975
-221.149
-221.333
-221.525
-221.722
-221.92
-222.114
-222.301
-222.475
-222.632
-222.762
-222.857
-222.906
-222.898
-222.827
-222.682
-222.455
-222.13
-221.691
-221.124
-220.417
-219.559
-218.541
-217.353
-215.99
-214.456
-212.766
-210.936
-208.981
-206.915
-204.747
-202.49
-200.161
-197.776
-195.351
-192.897
-190.424
-187.939
-185.445
-182.931
-180.372
-177.724
-174.93
-171.925
-168.634
-165.007
-161.033
-156.727
-152.161
-147.399
-142.476
-137.452
-132.411
-127.373
-122.274
-116.933
-111.045
-104.393
-96.901
-88.541
-79.319
-69.328
-58.849
-48.505
-39.192
-31.75
-26.902
-25.041
-26.278
-30.827
-38.671
-49.956
-65.204
-84.154
-105.798
-127.909
-146.805
-159.822
-166.096
-166.725
-164.636
-161.889
-159.212
-156.382
-152.462
-147.476
-142.033
-136.703
-132.142
-128.506
-125.624
-123.406
-121.617
-119.9
-118.078
-116.081
-113.887
-111.614
-109.368
-107.198
-105.207
-103.526
-102.207
-101.255
-100.634
-100.251
-100.029
-99.911
-99.818
-99.689
-99.483
-99.165
-98.727
-98.171
-97.49
-96.684
-95.756
-94.71
-93.558
-92.317
-90.999
-89.625
-88.215
-86.79
-85.379
-83.999
-82.661
-81.372
-80.134
-78.948
-77.817
-76.736
-75.7
-74.704
-73.744
-72.815
-71.914
-71.035
-70.169
-69.308
-68.443
-67.566
-66.67
-65.747
-64.793
-63.799
-62.761
-61.674
-60.533
-59.333
-58.068
-56.731
-55.317
-53.818
-52.229
-50.544
-48.758
-46.866
-44.864
-42.748
-40.517
-38.17
-35.704
-33.12
-30.418
-27.6
-24.668
-21.624
-18.472
-15.216
-11.861
-8.413
-4.878
-1.266
2.417
6.16
9.954
13.787
17.648
21.525
25.405
29.276
33.123
36.932
40.69
44.381
47.99
51.504
54.906
58.182
61.319
64.304
67.125
69.77
72.229
74.495
76.56
78.418
80.063
81.491
82.698
83.68
84.437
84.965
85.264
85.336
85.182
84.809
84.224
83.436
82.454
81.291
79.961
78.477
76.855
75.107
73.247
71.289
69.251
67.153
65.017
62.865
60.711
58.571
56.46
54.387
52.36
50.376
48.425
46.505
44.62
42.78
41.005
39.313
37.718
36.235
34.883
33.677
32.638
31.781
31.113
30.653
30.428
30.479
30.864
31.62
32.761
34.289
36.187
38.43
40.991
43.826
46.872
50.079
53.395
56.781
60.213
63.651
67.038
70.306
73.366
76.153
78.632
80.777
82.582
84.058
85.222
86.124
86.838
87.424
87.929
88.388
88.815
89.242
89.713
90.275
90.989
91.901
93.038
94.422
96.068
97.974
100.127
102.491
105.003
107.619
110.309
113.051
115.837
118.654
121.481
124.301
127.095
129.849
132.55
135.188
137.748
140.226
142.625
144.959
147.252
149.52
151.771
154.007
156.227
158.43
160.613
162.771
164.896
166.979
169.017
171.005
172.944
174.829
176.655
178.414
180.098
181.701
183.217
184.641
185.971
187.202
188.335
189.368
190.304
191.145
191.889
192.538
193.092
193.548
193.91
194.175
194.344
194.417
194.394
194.277
194.066
193.763
193.368
192.882
192.305
191.639
190.885
190.042
189.111
188.092
186.985
185.792
184.511
183.142
181.687
180.143
178.513
176.795
174.989
173.094
171.109
169.036
166.872
164.62
162.278
159.846
157.325
154.717
152.022
149.243
146.381
143.44
140.423
137.336
134.181
130.965
127.693
124.368
120.999
117.589
114.146
110.674
107.18
103.671
100.153
96.635
93.124
89.627
86.152
82.71
79.313
75.973
72.699
69.501
66.393
63.388
60.505
57.755
55.149
52.692
50.394
48.262
46.3
44.507
42.869
41.371
39.998
38.739
37.583
36.519
35.526
34.582
33.67
32.789
31.946
31.147
30.38
29.644
28.958
28.362
27.934
27.737
27.813
28.219
29.039
30.321
32.093
34.324
36.885
39.671
42.635
45.665
48.634
51.555
54.526
57.735
61.516
65.85
70.352
75.092
80.274
86.18
93.434
101.17
107.424
110.551
108.573
101.127
89.654
75.331
59.772
44.04
27.886
11.32
-5.498
-22.211
-37.78
-51.238
-62.126
-70.278
-75.767
-78.723
-79.132
-76.955
-72.476
-66.25
-58.799
-50.68
-42.262
-33.695
-25.331
-17.536
-10.418
-3.993
1.795
7.17
12.141
16.54
20.462
23.955
26.943
29.454
31.461
32.868
33.788
34.406
34.731
34.848
34.882
34.868
34.898
35.054
35.311
35.661
36.181
36.931
37.966
39.342
41.054
43.095
45.468
48.147
51.075
54.172
57.354
60.564
63.777
66.982
70.174
73.343
76.481
79.586
82.654
85.678
88.656
91.576
94.437
97.25
100.032
102.814
105.624
108.477
111.382
114.348
117.375
120.465
123.616
126.815
130.052
133.324
136.629
139.96
143.306
146.657
149.996
153.318
156.62
159.883
163.088
166.246
169.377
172.452
175.464
178.411
181.221
184.054
187.067
190.014
192.813
195.021
196.112
196.648
197.003
197.741
199.634
201.986
204.203
205.878
206.342
206.066
205.528
204.833
204.272
203.672
202.815
201.742
200.425
198.881
197.157
195.226
193.068
190.696
188.116
185.332
182.349
179.176
175.82
172.294
168.609
164.771
160.788
156.669
152.422
148.058
143.587
139.017
134.359
129.622
124.817
119.954
115.044
110.095
105.119
100.124
95.121
90.119
85.127
80.155
75.211
70.304
65.441
60.631
55.88
51.195
46.583
42.05
37.6
33.239
28.971
24.799
20.727
16.758
12.894
9.137
5.487
1.946
-1.488
-4.813
-8.033
-11.148
-14.16
-17.072
-19.887
-22.608
-25.24
-27.786
-30.25
-32.637
-34.951
-37.198
-39.382
-41.508
-43.581
-45.605
-47.585
-49.526
-51.431
-53.304
-55.149
-56.968
-58.765
-60.543
-62.301
-64.044
-65.77
-67.481
-69.177
-70.857
-72.521
-74.166
-75.791
-77.392
-78.968
-80.515
-82.029
-83.507
-84.943
-86.333
-87.673
-88.958
-90.182
-91.34
-92.428
-93.44
-94.37
-95.215
-95.969
-96.628
-97.188
-97.644
-97.992
-98.231
-98.356
-98.366
-98.258
-98.031
-97.684
-97.217
-96.629
-95.921
-95.095
-94.152
-93.095
-91.925
-90.647
-89.263
-87.778
-86.195
-84.519
-82.756
-80.91
-78.986
-76.991
-74.931
-72.811
-70.638
-68.418
-66.158
-63.863
-61.541
-59.198
-56.839
-54.472
-52.103
-49.738
-47.384
-45.046
-42.729
-40.44
-38.183
-35.964
-33.785
-31.652
-29.569
-27.539
-25.566
-23.654
-21.805
-20.023
-18.31
-16.67
-15.105
-13.615
-12.204
-10.873
-9.622
-8.453
-7.365
-6.361
-5.44
-4.602
-3.848
-3.176
-2.587
-2.079
-1.651
-1.299
-1.024
-0.822
-0.691
-0.628
-0.632
-0.7
-0.83
-1.019
-1.264
-1.563
-1.912
-2.308
-2.744
-3.216
-3.719
-4.25
-4.803
-5.374
-5.958
-6.555
-7.162
-7.781
-8.412
-9.052
-9.699
-10.35
-11.005
-11.662
-12.322
-12.98
-13.637
-14.291
-14.945
-15.607
-16.279
-16.959
-17.644
-18.324
-18.992
-19.65
-20.297
-20.937
-21.575
-22.215
-22.873
-23.574
-24.343
-25.209
-26.189
-27.284
-28.5
-29.834
-31.307
-32.975
-34.85
-36.901
-39.101
-41.401
-43.792
-46.354
-49.071
-51.809
-54.555
-57.374
-60.398
-63.912
-68.019
-72.532
-77.379
-82.618
-88.142
-93.739
-98.98
-103.108
-105.694
-106.98
-107.364
-107.093
-106.339
-104.669
-101.589
-97.701
-94.402
-94.026
-99.207
-111.264
-129.524
-151.52
-174.44
-196.145
-215.877
-234.158
-251.052
-266.013
-278.421
-287.493
-293.103
-295.88
-296.442
-295.474
-293.804
-292.078
-290.727
-290.035
-290.001
-290.415
-291.103
-291.838
-292.322
-292.352
-291.856
-290.853
-289.46
-287.844
-286.136
-284.47
-283.003
-281.839
-281.035
-280.639
-280.671
-281.12
-281.972
-283.189
-284.684
-286.39
-288.234
-290.113
-291.956
-293.707
-295.309
-296.735
-297.974
-298.996
-299.782
-300.305
-300.517
-300.395
-299.929
-299.111
-297.96
-296.502
-294.769
-292.818
-290.702
-288.45
-286.092
-283.638
-281.09
-278.46
-275.756
-272.983
-270.161
-267.3
-264.41
-261.503
-258.582
-255.64
-252.671
-249.656
-246.577
-243.426
-240.2
-236.901
-233.536
-230.11
-226.633
-223.115
-219.566
-215.994
-212.404
-208.802
-205.192
-201.585
-197.99
-194.419
-190.886
-187.399
-183.969
-180.606
-177.315
-174.105
-170.979
-167.942
-164.996
-162.146
-159.397
-156.752
-154.216
-151.793
-149.485
-147.296
-145.228
-143.281
-141.457
-139.754
-138.172
-136.709
-135.362
-134.13
-133.01
-131.996
-131.086
-130.275
-129.558
-128.93
-128.384
-127.914
-127.513
-127.175
-126.892
-126.657
-126.462
-126.299
-126.162
-126.041
-125.93
-125.821
-125.705
-125.577
-125.427
-125.25
-125.036
-124.781
-124.476
-124.116
-123.695
-123.208
-122.651
-122.019
-121.309
-120.518
-119.643
-118.683
-117.635
-116.499
-115.275
-113.963
-112.563
-111.076
-109.505
-107.851
-106.116
-104.303
-102.416
-100.458
-98.432
-96.342
-94.192
-91.986
-89.729
-87.425
-85.077
-82.69
-80.269
-77.816
-75.337
-72.834
-70.311
-67.771
-65.217
-62.651
-60.075
-57.492
-54.902
-52.307
-49.708
-47.104
-44.495
-41.882
-39.265
-36.641
-34.009
-31.37
-28.72
-26.059
-23.384
-20.694
-17.986
-15.26
-12.512
-9.742
-6.947
-4.127
-1.28
1.595
4.498
7.43
10.39
13.379
16.395
19.437
22.504
25.594
28.704
31.832
34.973
38.126
41.285
44.447
47.607
50.759
53.899
57.02
60.119
63.187
66.221
69.213
72.157
75.048
77.879
80.645
83.34
85.958
88.495
90.946
93.305
95.57
97.737
99.803
101.765
103.622
105.373
107.016
108.552
109.982
111.306
112.526
113.645
114.666
115.591
116.426
117.173
117.839
118.429
118.947
119.402
119.798
120.143
120.444
120.708
120.943
121.156
121.355
121.547
121.739
121.94
122.157
122.396
122.664
122.966
123.31
123.698
124.136
124.627
125.173
125.776
126.438
127.16
127.942
128.783
129.682
130.638
131.648
132.708
133.815
134.965
136.151
137.368
138.61
139.87
141.141
142.416
143.687
144.946
146.185
147.395
148.566
149.69
150.757
151.76
152.691
153.541
154.306
154.98
155.557
156.035
156.409
156.675
156.831
156.871
156.795
156.6
156.282
155.839
155.268
154.567
153.734
152.768
151.668
150.435
149.075
147.592
145.997
144.3
142.51
140.639
138.702
136.711
134.688
132.652
130.625
128.636
126.709
124.861
123.107
121.443
119.858
118.342
116.869
115.401
113.933
112.471
111.046
109.725
108.538
107.485
106.6
105.892
105.286
104.65
103.758
102.352
100.296
97.525
93.953
89.56
84.479
79.031
73.743
69.166
65.696
63.664
63.44
65.368
69.619
76.043
84.172
93.478
103.498
113.682
123.327
131.537
137.384
140.22
139.684
135.673
128.382
118.094
105.071
89.201
70.18
48.507
25.822
5.261
-9.777
-17.816
-19.565
-17.628
-14.914
-12.846
-11.457
-10.047
-8.146
-5.888
-3.769
-2.313
-1.589
-1.414
-1.514
-1.492
-1.106
-0.254
1.131
3.009
5.251
7.737
10.316
12.813
15.134
17.234
19.092
20.732
22.196
23.531
24.8
26.076
27.392
28.755
30.164
31.602
33.064
34.557
36.08
37.623
39.175
40.727
42.267
43.789
45.276
46.699
48.028
49.232
50.292
51.199
51.944
52.524
52.935
53.177
53.251
53.167
52.932
52.549
52.027
51.369
50.587
49.695
48.708
47.641
46.512
45.334
44.125
42.899
41.674
40.462
39.279
38.138
37.052
36.038
35.11
34.284
33.573
32.994
32.558
32.279
32.17
32.24
32.5
32.958
33.619
34.492
35.58
36.888
38.418
40.171
42.146
44.345
46.762
49.395
52.239
55.287
58.531
61.962
65.571
69.347
73.277
77.35
81.552
85.869
90.286
94.788
99.358
103.98
108.638
113.313
117.989
122.648
127.272
131.845
136.351
140.772
145.093
149.3
153.378
157.313
161.092
164.704
168.136
171.379
174.424
177.261
179.884
182.287
184.466
186.415
188.133
189.618
190.87
191.888
192.675
193.234
193.567
193.68
193.578
193.269
192.759
192.058
191.174
190.118
188.901
187.532
186.024
184.387
182.632
180.769
178.811
176.77
174.657
172.483
170.259
168
165.719
163.431
161.146
158.866
156.6
154.36
152.151
149.965
147.8
145.649
143.515
141.42
139.372
137.357
135.394
133.547
131.832
130.228
128.743
127.309
126.042
125.338
125.124
125.027
124.457
122.282
118.524
114.322
110.801
109.556
110.744
112.834
114.634
114.88
113.3
111.026
108.772
107.004
105.885
104.953
103.985
103.001
101.981
100.993
100.051
99.091
98.092
97.064
96.012
94.935
93.832
92.705
91.561
90.404
89.232
88.025
86.76
85.422
84.002
82.498
80.917
79.262
77.536
75.747
73.904
72.017
70.102
68.168
66.221
64.274
62.349
60.478
58.713
57.092
55.63
54.339
53.219
52.263
51.467
50.808
50.245
49.738
49.246
48.726
48.154
47.482
46.659
45.63
44.318
42.664
40.638
38.21
35.36
32.079
28.357
24.209
19.69
14.852
9.754
4.462
-0.964
-6.442
-11.887
-17.222
-22.36
-27.235
-31.794
-35.987
-39.763
-43.08
-45.896
-48.183
-49.952
-51.214
-51.994
-52.333
-52.278
-51.899
-51.266
-50.433
-49.449
-48.352
-47.176
-45.951
-44.716
-43.502
-42.344
-41.282
-40.336
-39.521
-38.847
-38.302
-37.868
-37.507
-37.19
-36.892
-36.602
-36.313
-36.024
-35.731
-35.433
-35.132
-34.828
-34.51
-34.176
-33.821
-33.446
-33.062
-32.684
-32.334
-32.033
-31.797
-31.638
-31.561
-31.565
-31.648
-31.805
-32.027
-32.307
-32.636
-33.004
-33.4
-33.81
-34.22
-34.614
-34.972
-35.266
-35.466
-35.555
-35.531
-35.408
-35.211
-34.955
-34.64
-34.278
-33.895
-33.498
-33.078
-32.595
-31.954
-31.088
-30.023
-28.8
-27.474
-26.166
-24.946
-23.927
-23.392
-23.575
-24.579
-26.437
-28.999
-31.929
-35.024
-38.002
-40.258
-41.203
-40.247
-36.816
-30.967
-23.245
-13.942
-3.566
7.646
20.15
33.415
46.293
56.9
62.095
59.964
50.464
35.378
18.059
1.17
-14.409
-29.534
-45.075
-60.818
-75.198
-84.798
-87.205
-81.796
-69.238
-53.165
-37.596
-25.244
-18.15
-15.681
-15.859
-17.573
-19.827
-22.765
-27.275
-33.333
-40.718
-48.869
-56.895
-64.375
-71.01
-76.581
-81.18
-84.956
-88.1
-90.926
-93.62
-96.265
-99.002
-101.909
-105.017
-108.351
-111.844
-115.364
-118.842
-122.247
-125.551
-128.772
-131.923
-134.999
-138.018
-141.007
-143.973
-146.92
-149.843
-152.718
-155.526
-158.254
-160.889
-163.43
-165.875
-168.224
-170.476
-172.631
-174.691
-176.659
-178.54
-180.335
-182.047
-183.676
-185.223
-186.692
-188.086
-189.406
-190.653
-191.825
-192.92
-193.938
-194.878
-195.737
-196.514
-197.205
-197.806
-198.314
-198.726
-199.038
-199.245
-199.343
-199.326
-199.191
-198.933
-198.547
-198.027
-197.37
-196.569
-195.619
-194.516
-193.254
-191.829
-190.236
-188.472
-186.535
-184.422
-182.132
-179.663
-177.018
-174.196
-171.2
-168.033
-164.698
-161.2
-157.546
-153.741
-149.794
-145.712
-141.507
-137.186
-132.762
-128.247
-123.652
-118.991
-114.277
-109.525
-104.748
-99.963
-95.184
-90.426
-85.706
-81.038
-76.439
-71.923
-67.506
-63.203
-59.027
-54.991
-51.11
-47.393
-43.854
-40.501
-37.344
-34.391
-31.65
-29.125
-26.822
-24.744
-22.893
-21.271
-19.878
-18.712
-17.77
-17.05
-16.546
-16.253
-16.163
-16.27
-16.564
-17.035
-17.674
-18.469
-19.409
-20.48
-21.672
-22.969
-24.36
-25.83
-27.366
-28.954
-30.58
-32.232
-33.896
-35.56
-37.21
-38.836
-40.426
-41.97
-43.458
-44.88
-46.229
-47.496
-48.674
-49.759
-50.745
-51.627
-52.403
-53.071
-53.628
-54.075
-54.411
-54.637
-54.756
-54.771
-54.684
-54.499
-54.221
-53.855
-53.408
-52.884
-52.29
-51.634
-50.921
-50.16
-49.358
-48.521
-47.658
-46.776
-45.882
-44.983
-44.086
-43.198
-42.325
-41.474
-40.648
-39.855
-39.099
-38.383
-37.711
-37.087
-36.513
-35.991
-35.521
-35.105
-34.743
-34.434
-34.176
-33.968
-33.808
-33.693
-33.618
-33.581
-33.576
-33.599
-33.644
-33.706
-33.778
-33.855
-33.928
-33.992
-34.038
-34.059
-34.048
-33.996
-33.895
-33.738
-33.515
-33.22
-32.844
-32.379
-31.818
-31.154
-30.381
-29.491
-28.478
-27.338
-26.065
-24.653
-23.101
-21.402
-19.556
-17.56
-15.411
-13.11
-10.655
-8.047
-5.287
-2.376
0.684
3.888
7.235
10.719
14.335
18.077
21.937
25.908
29.981
34.146
38.394
42.713
47.094
51.524
55.992
60.485
64.99
69.495
73.986
78.451
82.874
87.242
91.542
95.759
99.882
103.895
107.786
111.543
115.152
118.603
121.882
124.979
127.881
130.578
133.061
135.321
137.35
139.142
140.693
141.997
143.052
143.856
144.408
144.707
144.752
144.54
144.07
143.345
142.366
141.135
139.656
137.932
135.968
133.771
131.351
128.719
125.886
122.86
119.652
116.273
112.739
109.066
105.277
101.388
97.412
93.362
89.253
85.102
80.922
76.723
72.497
68.222
63.883
59.474
54.994
50.452
45.838
41.105
36.244
31.296
26.312
21.37
16.484
11.578
6.628
1.718
-3.113
-7.903
-12.745
-17.85
-23.298
-28.916
-34.571
-40.24
-45.856
-51.268
-56.193
-60.092
-62.563
-63.592
-63.181
-61.334
-58.145
-53.776
-48.911
-44.658
-41.816
-41.04
-42.267
-45.109
-50.391
-58.783
-71.427
-89.633
-112.079
-136.501
-159.706
-177.81
-189.436
-195.287
-197.365
-198.202
-199.078
-199.86
-199.759
-198.42
-196.144
-193.553
-191.39
-189.919
-188.941
-188.249
-187.555
-186.522
-184.999
-182.887
-180.106
-176.714
-172.808
-168.484
-163.914
-159.288
-154.717
-150.268
-145.968
-141.792
-137.729
-133.766
-129.869
-125.993
-122.094
-118.153
-114.179
-110.194
-106.216
-102.25
-98.285
-94.323
-90.379
-86.467
-82.605
-78.808
-75.086
-71.457
-67.95
-64.597
-61.426
-58.459
-55.705
-53.172
-50.865
-48.789
-46.949
-45.345
-43.968
-42.813
-41.875
-41.147
-40.624
-40.298
-40.154
-40.177
-40.351
-40.663
-41.1
-41.646
-42.289
-43.015
-43.811
-44.668
-45.574
-46.519
-47.493
-48.484
-49.482
-50.477
-51.459
-52.423
-53.358
-54.259
-55.122
-55.941
-56.715
-57.44
-58.116
-58.742
-59.318
-59.845
-60.325
-60.759
-61.151
-61.504
-61.821
-62.107
-62.366
-62.605
-62.827
-63.038
-63.243
-63.45
-63.664
-63.893
-64.138
-64.4
-64.686
-65.001
-65.341
-65.704
-66.088
-66.486
-66.905
-67.353
-67.826
-68.309
-68.828
-69.41
-70.035
-70.699
-71.404
-72.077
-72.896
-74.035
-75.232
-76.406
-77.082
-76.695
-75.859
-74.981
-74.672
-75.77
-77.523
-79.294
-80.644
-80.851
-80.426
-79.884
-79.34
-79.108
-79.003
-78.788
-78.507
-78.131
-77.676
-77.191
-76.647
-76.022
-75.325
-74.562
-73.733
-72.842
-71.895
-70.896
-69.854
-68.779
-67.671
-66.533
-65.369
-64.182
-62.976
-61.753
-60.515
-59.265
-58.004
-56.733
-55.454
-54.168
-52.873
-51.571
-50.259
-48.938
-47.604
-46.257
-44.894
-43.513
-42.11
-40.683
-39.228
-37.743
-36.225
-34.67
-33.076
-31.439
-29.758
-28.03
-26.254
-24.427
-22.549
-20.619
-18.637
-16.603
-14.519
-12.385
-10.205
-7.98
-5.713
-3.41
-1.073
1.293
3.682
6.089
8.508
10.932
13.355
15.77
18.171
20.55
22.9
25.215
27.488
29.713
31.884
33.995
36.042
38.02
39.926
41.755
43.505
45.174
46.762
48.268
49.691
51.034
52.298
53.486
54.6
55.647
56.629
57.553
58.425
59.251
60.038
60.795
61.529
62.249
62.963
63.68
64.409
65.159
65.937
66.752
67.613
68.526
69.5
70.539
71.651
72.839
74.11
75.466
76.911
78.446
80.073
81.793
83.604
85.505
87.496
89.571
91.729
93.965
96.273
98.649
101.084
103.572
106.107
108.678
111.279
113.899
116.53
119.163
121.789
124.397
126.98
129.529
132.033
134.486
136.879
139.205
141.456
143.626
145.71
147.703
149.6
151.399
153.097
154.693
156.184
157.57
158.852
160.031
161.108
162.087
162.972
163.769
164.482
165.118
165.683
166.183
166.625
167.015
167.357
167.658
167.922
168.159
168.374
168.573
168.759
168.935
169.103
169.264
169.42
169.573
169.724
169.877
170.036
170.208
170.4
170.623
170.884
171.184
171.53
171.927
172.391
172.94
173.593
174.362
175.25
176.252
177.361
178.573
179.876
181.238
182.643
184.088
185.6
187.251
189.098
191.152
193.389
195.765
198.142
200.336
202.123
203.165
203.188
202.011
199.49
195.661
190.827
185.315
179.754
174.995
171.426
169.607
169.54
170.588
173.291
178.065
185.741
197.647
212.26
226.953
239.041
245.336
245.958
243.009
237.818
232.016
225.264
215.724
203.262
188.9
175.113
165.305
161.407
163.145
168.53
175.232
181.585
187.234
192.861
198.646
204.243
209.141
212.592
214.334
214.644
213.789
212.149
210.19
208.185
206.329
204.776
203.531
202.554
201.83
201.274
200.766
200.26
199.718
199.141
198.622
198.171
197.73
197.281
196.802
196.25
195.826
195.656
195.402
195.005
194.115
192.161
189.754
187.442
185.722
185.856
187.664
189.813
191.355
190.666
187.107
182.139
176.698
171.349
165.962
158.959
149.774
139.287
129.502
123.036
121.204
124.006
130.228
137.821
145.027
150.11
151.839
150.078
145.698
140.608
136.535
134.357
133.965
134.233
134.373
134.164
133.587
133.018
132.622
132.179
131.492
130.432
128.837
126.636
123.872
120.4
116.141
111.234
105.897
100.394
95.08
90.284
86.229
83.287
81.767
81.491
82.094
83.408
85.103
87.27
90.353
93.629
96.267
97.58
96.397
93.126
89.203
85.538
83.51
83.587
84.562
85.697
86.208
85.392
83.913
82.251
80.545
79.126
77.767
76.236
74.604
72.851
70.993
69.075
67.05
64.87
62.532
60.037
57.378
54.562
51.594
48.472
45.202
41.791
38.238
34.548
30.729
26.789
22.74
18.593
14.364
10.065
5.711
1.315
-3.113
-7.562
-12.022
-16.482
-20.932
-25.36
-29.756
-34.109
-38.409
-42.644
-46.807
-50.888
-54.88
-58.776
-62.569
-66.256
-69.831
-73.292
-76.635
-79.858
-82.961
-85.944
-88.807
-91.551
-94.178
-96.691
-99.094
-101.391
-103.587
-105.687
-107.696
-109.621
-111.468
-113.242
-114.95
-116.597
-118.19
-119.735
-121.238
-122.704
-124.14
-125.55
-126.94
-128.315
-129.679
-131.036
-132.39
-133.743
-135.098
-136.457
-137.823
-139.195
-140.575
-141.964
-143.361
-144.766
-146.178
-147.597
-149.02
-150.447
-151.874
-153.3
-154.723
-156.138
-157.545
-158.939
-160.318
-161.68
-163.02
-164.336
-165.626
-166.886
-168.113
-169.305
-170.459
-171.572
-172.642
-173.667
-174.645
-175.573
-176.451
-177.276
-178.046
-178.76
-179.416
-180.013
-180.549
-181.022
-181.432
-181.776
-182.053
-182.262
-182.403
-182.473
-182.472
-182.4
-182.254
-182.035
-181.742
-181.373
-180.929
-180.41
-179.814
-179.142
-178.394
-177.571
-176.672
-175.698
-174.65
-173.527
-172.33
-171.06
-169.717
-168.304
-166.822
-165.273
-163.66
-161.985
-160.253
-158.466
-156.629
-154.746
-152.821
-150.859
-148.865
-146.843
-144.8
-142.74
-140.67
-138.594
-136.52
-134.453
-132.399
-130.363
-128.352
-126.369
-124.421
-122.511
-120.645
-118.828
-117.066
-115.362
-113.722
-112.149
-110.649
-109.224
-107.877
-106.609
-105.42
-104.309
-103.273
-102.313
-101.424
-100.606
-99.855
-99.169
-98.545
-97.985
-97.486
-97.048
-96.666
-96.331
-96.041
-95.791
-95.577
-95.394
-95.237
-95.095
-94.964
-94.841
-94.721
-94.597
-94.455
-94.272
-94.032
-93.72
-93.327
-92.849
-92.278
-91.606
-90.832
-89.961
-89.007
-87.99
-86.926
-85.82
-84.677
-83.494
-82.286
-81.092
-79.931
-78.81
-77.696
-76.509
-75.21
-73.811
-72.329
-70.773
-69.102
-67.246
-65.3
-63.576
-62.335
-61.736
-61.573
-61.304
-60.736
-59.978
-59.5
-59.845
-60.657
-60.683
-58.129
-51.488
-40.425
-26.188
-10.99
3.477
16.115
26.339
33.895
37.229
34.155
23.712
5.588
-19.122
-47.337
-76.204
-102.609
-122.681
-134.357
-137.492
-133.034
-123.93
-112.691
-99.447
-84.463
-67.973
-51.231
-37.968
-30.739
-30.356
-35.634
-42.806
-49.134
-53.482
-55.873
-57.823
-60.088
-62.338
-64.15
-64.977
-64.757
-63.99
-63.127
-62.364
-61.762
-61.366
-61.196
-61.278
-61.609
-62.057
-62.466
-62.787
-63.001
-63.105
-63.124
-63.047
-62.856
-62.578
-62.246
-61.888
-61.534
-61.192
-60.849
-60.502
-60.149
-59.783
-59.404
-59.005
-58.573
-58.1
-57.586
-57.032
-56.443
-55.824
-55.175
-54.495
-53.782
-53.035
-52.257
-51.447
-50.605
-49.73
-48.823
-47.886
-46.924
-45.941
-44.939
-43.921
-42.889
-41.843
-40.786
-39.719
-38.643
-37.561
-36.472
-35.381
-34.29
-33.203
-32.121
-31.048
-29.986
-28.938
-27.904
-26.887
-25.888
-24.906
-23.943
-22.999
-22.073
-21.165
-20.275
-19.401
-18.543
-17.7
-16.868
-16.046
-15.232
-14.422
-13.614
-12.803
-11.988
-11.165
-10.329
-9.478
-8.607
-7.714
-6.793
-5.841
-4.853
-3.826
-2.754
-1.633
-0.459
0.772
2.064
3.421
4.846
6.342
7.912
9.558
11.282
13.086
14.971
16.938
18.986
21.115
23.324
25.612
27.975
30.413
32.92
35.494
38.131
40.825
43.571
46.365
49.199
52.067
54.962
57.878
60.805
63.737
66.666
69.581
72.476
75.341
78.167
80.946
83.668
86.324
88.907
91.406
93.814
96.123
98.324
100.412
102.378
104.216
105.921
107.486
108.908
110.182
111.305
112.274
113.087
113.743
114.24
114.579
114.761
114.786
114.658
114.379
113.952
113.381
112.671
111.828
110.857
109.765
108.558
107.243
105.829
104.323
102.734
101.071
99.341
97.555
95.721
93.848
91.946
90.024
88.092
86.156
84.227
82.313
80.424
78.567
76.751
74.981
73.265
71.611
70.023
68.506
67.058
65.679
64.372
63.143
61.997
60.935
59.959
59.079
58.314
57.679
57.18
56.807
56.547
56.405
56.371
56.389
56.411
56.423
56.434
56.499
56.506
56.123
55.204
53.947
53.165
54.049
57.114
61.766
66.271
68.63
67.963
64.944
61.512
59.534
59.788
61.86
64.496
66.719
68.216
69.125
69.866
70.653
71.458
72.245
72.972
73.652
74.338
75.043
75.76
76.489
77.231
77.982
78.733
79.473
80.191
80.886
81.561
82.214
82.842
83.445
84.018
84.561
85.071
85.546
85.981
86.373
86.718
87.01
87.247
87.422
87.53
87.568
87.529
87.411
87.206
86.912
86.525
86.039
85.451
84.757
83.951
83.031
81.992
80.832
79.547
78.136
76.598
74.933
73.145
71.234
69.203
67.054
64.792
62.419
59.941
57.36
54.679
51.9
49.027
46.069
43.033
39.929
36.764
33.547
30.287
26.996
23.688
20.373
17.059
13.753
10.465
7.213
4.02
0.905
-2.117
-5.032
-7.831
-10.506
-13.049
-15.454
-17.733
-19.894
-21.956
-23.94
-25.849
-27.677
-29.43
-31.1
-32.71
-34.307
-35.874
-37.362
-38.733
-39.922
-40.924
-41.815
-42.566
-43.05
-43.27
-43.313
-43.334
-43.633
-44.305
-45.157
-46.14
-47.32
-48.566
-49.662
-50.199
-49.424
-46.955
-42.889
-37.228
-30.07
-21.838
-12.989
-4.334
2.788
7.414
8.913
6.78
1.167
-7.491
-18.789
-32.729
-49.698
-69.477
-90.988
-111.27
-126.112
-133.257
-132.391
-125.395
-116.304
-107.643
-100.353
-94.704
-89.734
-84.982
-80.763
-77.41
-75.368
-74.83
-75.597
-77.113
-78.767
-80.24
-81.41
-82.275
-82.892
-83.201
-83.085
-82.663
-82.169
-81.716
-81.357
-81.05
-80.705
-80.334
-80.023
-79.775
-79.514
-79.188
-78.745
-78.175
-77.515
-76.77
-75.916
-74.948
-73.881
-72.738
-71.558
-70.376
-69.204
-68.047
-66.909
-65.788
-64.688
-63.609
-62.549
-61.503
-60.469
-59.447
-58.443
-57.463
-56.512
-55.59
-54.696
-53.826
-52.978
-52.149
-51.341
-50.552
-49.78
-49.024
-48.283
-47.561
-46.857
-46.171
-45.502
-44.845
-44.2
-43.561
-42.928
-42.296
-41.662
-41.023
-40.375
-39.717
-39.047
-38.363
-37.661
-36.939
-36.195
-35.427
-34.632
-33.809
-32.954
-32.066
-31.143
-30.186
-29.192
-28.163
-27.098
-25.998
-24.865
-23.699
-22.504
-21.282
-20.034
-18.766
-17.481
-16.184
-14.879
-13.572
-12.268
-10.974
-9.696
-8.442
-7.216
-6.025
-4.876
-3.779
-2.739
-1.767
-0.865
-0.037
0.709
1.366
1.933
2.412
2.803
3.107
3.317
3.42
3.421
3.328
3.114
2.75
2.254
1.626
0.864
0.035
-1.034
-2.51
-4.142
-5.849
-7.173
-7.564
-7.615
-7.717
-8.458
-10.646
-13.549
-16.544
-19.204
-20.822
-21.888
-22.893
-23.942
-25.33
-26.872
-28.328
-29.735
-31.054
-32.293
-33.491
-34.609
-35.616
-36.515
-37.301
-37.966
-38.506
-38.918
-39.199
-39.352
-39.378
-39.274
-39.036
-38.665
-38.161
-37.523
-36.753
-35.853
-34.824
-33.668
-32.388
-30.989
-29.473
-27.845
-26.109
-24.27
-22.333
-20.303
-18.186
-15.988
-13.715
-11.374
-8.97
-6.512
-4.006
-1.459
1.121
3.728
6.353
8.989
11.628
14.264
16.888
19.492
22.071
24.615
27.118
29.574
31.974
34.314
36.585
38.783
40.902
42.935
44.878
46.725
48.474
50.118
51.655
53.081
54.395
55.592
56.673
57.635
58.478
59.202
59.807
60.294
60.664
60.919
61.061
61.093
61.018
60.838
60.558
60.182
59.713
59.156
58.515
57.794
56.998
56.131
55.198
54.203
53.15
52.043
50.887
49.685
48.44
47.156
45.835
44.48
43.093
41.675
40.229
38.754
37.252
35.722
34.164
32.579
30.965
29.321
27.645
25.937
24.195
22.417
20.602
18.748
16.854
14.918
12.941
10.92
8.857
6.752
4.604
2.415
0.186
-2.08
-4.381
-6.713
-9.073
-11.457
-13.858
-16.271
-18.691
-21.109
