Name,Criss Capps
Date of Birth,"Feb 5, 1952"
Recorded Date,2025-04-23 07:32:33 -0400
Classification,Inconclusive
Symptoms,
Software Version,1.90
Device,"Watch5,4"
Sample Rate,512.844 hertz


Lead,Lead I
Unit,µV

77.397
88.853
100.986
112.62
122.92
131.526
138.498
144.362
149.937
156.389
165.793
180.619
202.797
232.226
266.763
304.078
342.531
383.528
429.713
479.438
526.889
561.022
568.789
545.094
492.408
420.782
346.155
278.473
222.293
177.331
136.296
95.296
53.006
8.232
-35.752
-77.604
-118.023
-156.257
-193.211
-229.405
-263.953
-296.536
-326.592
-353.275
-376.191
-395.19
-410.223
-421.496
-429.335
-433.98
-435.666
-434.631
-431.069
-425.201
-417.266
-407.485
-396.083
-383.287
-369.341
-354.512
-339.061
-323.224
-307.187
-291.066
-274.957
-258.971
-243.221
-227.86
-213.078
-199.022
-185.829
-173.634
-162.516
-152.532
-143.704
-135.991
-129.328
-123.644
-118.879
-114.999
-111.976
-109.748
-108.237
-107.338
-106.894
-106.759
-106.774
-106.758
-106.578
-106.136
-105.364
-104.248
-102.799
-101.032
-98.969
-96.635
-94.046
-91.239
-88.252
-85.13
-81.948
-78.784
-75.73
-72.898
-70.366
-68.183
-66.381
-64.96
-63.902
-63.189
-62.787
-62.647
-62.731
-62.995
-63.393
-63.89
-64.434
-64.97
-65.436
-65.763
-65.896
-65.793
-65.42
-64.75
-63.766
-62.448
-60.784
-58.773
-56.407
-53.677
-50.573
-47.082
-43.192
-38.901
-34.21
-29.121
-23.637
-17.753
-11.463
-4.77
2.318
9.79
17.631
25.824
34.35
43.172
52.241
61.51
70.93
80.467
90.1
99.804
109.55
119.311
129.055
138.768
148.455
158.11
167.719
177.272
186.754
196.177
205.58
214.985
224.402
233.816
243.179
252.449
261.589
270.537
279.225
287.548
295.373
302.595
309.14
314.932
319.912
323.997
327.07
329.052
329.889
329.545
328.018
325.295
321.359
316.231
309.972
302.687
294.522
285.587
275.959
265.717
254.921
243.645
231.986
220.004
207.742
195.259
182.612
169.892
157.21
144.658
132.285
120.102
108.094
96.268
84.658
73.297
62.236
51.527
41.224
31.416
22.188
13.6
5.675
-1.602
-8.281
-14.423
-20.059
-25.204
-29.863
-34.036
-37.742
-40.994
-43.819
-46.247
-48.331
-50.15
-51.778
-53.274
-54.669
-55.963
-57.132
-58.138
-58.955
-59.562
-59.951
-60.126
-60.094
-59.87
-59.471
-58.915
-58.208
-57.343
-56.312
-55.112
-53.753
-52.258
-50.659
-48.999
-47.315
-45.644
-44.019
-42.46
-40.984
-39.602
-38.315
-37.125
-36.031
-35.039
-34.155
-33.384
-32.73
-32.192
-31.766
-31.449
-31.233
-31.111
-31.074
-31.116
-31.231
-31.413
-31.66
-31.968
-32.335
-32.755
-33.225
-33.738
-34.287
-34.864
-35.463
-36.075
-36.692
-37.307
-37.913
-38.504
-39.075
-39.62
-40.135
-40.614
-41.054
-41.452
-41.803
-42.105
-42.355
-42.551
-42.689
-42.769
-42.789
-42.747
-42.643
-42.477
-42.248
-41.957
-41.604
-41.19
-40.715
-40.181
-39.589
-38.941
-38.239
-37.487
-36.687
-35.844
-34.96
-34.04
-33.088
-32.107
-31.102
-30.078
-29.037
-27.984
-26.924
-25.859
-24.795
-23.736
-22.686
-21.648
-20.627
-19.628
-18.652
-17.706
-16.79
-15.909
-15.065
-14.262
-13.501
-12.784
-12.114
-11.491
-10.917
-10.393
-9.918
-9.493
-9.118
-8.791
-8.511
-8.277
-8.087
-7.939
-7.83
-7.758
-7.721
-7.716
-7.74
-7.789
-7.861
-7.952
-8.059
-8.178
-8.306
-8.439
-8.575
-8.71
-8.843
-8.969
-9.087
-9.195
-9.291
-9.373
-9.44
-9.491
-9.524
-9.54
-9.539
-9.52
-9.485
-9.434
-9.368
-9.29
-9.201
-9.103
-8.997
-8.886
-8.771
-8.655
-8.54
-8.428
-8.321
-8.221
-8.13
-8.05
-7.983
-7.928
-7.887
-7.859
-7.844
-7.842
-7.851
-7.869
-7.895
-7.924
-7.956
-7.986
-8.009
-8.023
-8.02
-7.997
-7.948
-7.866
-7.743
-7.575
-7.352
-7.069
-6.72
-6.296
-5.791
-5.199
-4.513
-3.727
-2.836
-1.834
-0.716
0.523
1.885
3.373
4.988
6.732
8.604
10.603
12.726
14.969
17.328
19.797
22.371
25.041
27.798
30.632
33.532
36.486
39.481
42.503
45.534
48.557
51.555
54.511
57.406
60.224
62.944
65.551
68.029
70.365
72.543
74.547
76.362
77.973
79.367
80.535
81.464
82.147
82.575
82.744
82.657
82.315
81.72
80.868
79.754
78.374
76.735
74.848
72.725
70.388
67.857
65.164
62.354
59.47
56.548
53.624
50.722
47.874
45.12
42.503
40.072
37.865
35.907
34.216
32.801
31.641
30.704
29.936
29.259
28.619
27.953
27.188
26.261
25.095
23.613
21.77
19.488
16.658
13.274
9.399
5.214
1.069
-2.754
-6.044
-8.493
-9.767
-9.656
-8.045
-5.204
-1.748
1.96
5.694
9.251
12.507
15.232
17.304
19.346
22.433
27.488
35.615
47.643
64.219
86.711
116.415
153.68
198.625
249.875
303.612
356.317
404.208
445.06
481.716
516.911
551.081
579.446
586.664
554.656
469.66
328.229
147.108
-43.454
-210.096
-324.788
-379.367
-383.115
-353.333
-310.01
-264.477
-220.911
-182.566
-150.009
-124.923
-107.763
-94.08
-80.84
-66.667
-51.771
-40.168
-34.311
-33.547
-36.512
-40.256
-42.058
-41.259
-37.835
-32.018
-24.424
-15.62
-6.033
3.623
12.381
19.757
25.57
29.759
32.591
34.383
35.361
35.842
36.172
36.466
36.695
36.819
36.721
36.326
35.633
34.579
33.083
31.104
28.6
25.51
21.79
17.384
12.224
6.339
-0.186
-7.238
-14.642
-22.237
-29.909
-37.539
-45.028
-52.307
-59.306
-65.959
-72.207
-77.947
-83.061
-87.47
-91.116
-94
-96.173
-97.696
-98.666
-99.209
-99.422
-99.388
-99.175
-98.805
-98.297
-97.684
-96.991
-96.268
-95.584
-94.979
-94.475
-94.08
-93.77
-93.513
-93.258
-92.922
-92.434
-91.748
-90.831
-89.679
-88.298
-86.68
-84.825
-82.734
-80.394
-77.801
-74.958
-71.863
-68.531
-64.984
-61.257
-57.397
-53.455
-49.464
-45.451
-41.437
-37.435
-33.462
-29.531
-25.648
-21.824
-18.072
-14.406
-10.845
-7.404
-4.09
-0.912
2.129
5.028
7.783
10.387
12.837
15.126
17.249
19.198
20.964
22.54
23.921
25.103
26.084
26.864
27.441
27.814
27.986
27.958
27.732
27.309
26.693
25.885
24.891
23.714
22.36
20.835
19.144
17.295
15.295
13.153
10.877
8.475
5.956
3.33
0.607
-2.204
-5.091
-8.046
-11.057
-14.113
-17.204
-20.318
-23.444
-26.571
-29.69
-32.789
-35.86
-38.892
-41.877
-44.807
-47.674
-50.47
-53.189
-55.824
-58.368
-60.817
-63.165
-65.408
-67.542
-69.563
-71.47
-73.259
-74.929
-76.479
-77.909
-79.217
-80.405
-81.474
-82.423
-83.256
-83.975
-84.581
-85.078
-85.469
-85.758
-85.949
-86.046
-86.052
-85.973
-85.811
-85.57
-85.254
-84.867
-84.412
-83.893
-83.312
-82.674
-81.981
-81.237
-80.445
-79.608
-78.728
-77.81
-76.854
-75.865
-74.844
-73.795
-72.721
-71.624
-70.508
-69.375
-68.228
-67.07
-65.904
-64.732
-63.557
-62.381
-61.209
-60.043
-58.886
-57.745
-56.622
-55.525
-54.46
-53.432
-52.449
-51.518
-50.644
-49.836
-49.098
-48.435
-47.852
-47.353
-46.944
-46.629
-46.414
-46.304
-46.302
-46.414
-46.645
-46.999
-47.479
-48.083
-48.807
-49.65
-50.615
-51.708
-52.931
-54.279
-55.744
-57.318
-58.989
-60.742
-62.548
-64.359
-66.128
-67.815
-69.383
-70.811
-72.076
-73.142
-73.972
-74.527
-74.776
-74.718
-74.353
-73.673
-72.685
-71.414
-69.928
-68.354
-66.806
-65.373
-64.125
-63.098
-62.342
-61.931
-61.928
-62.4
-63.397
-64.917
-66.975
-69.612
-72.796
-76.426
-80.222
-83.662
-86.259
-87.609
-87.324
-85.218
-81.199
-75.135
-67.555
-59.504
-51.766
-45.361
-40.283
-34.84
-28.885
-22.916
-17.848
-16.563
-16.586
-10.898
6.796
43.853
99.031
162.295
226.237
283.534
332.385
378.491
420.295
451.862
466.748
454.874
416.016
359.347
293.268
228.214
169.095
113.472
60.77
10.728
-35.862
-76.042
-109.108
-136.424
-159.567
-180.382
-200.346
-220.12
-240.34
-261.473
-283.343
-305.303
-326.476
-345.898
-362.682
-376.32
-386.473
-392.939
-395.813
-395.281
-391.618
-385.259
-376.69
-366.302
-354.43
-341.343
-327.231
-312.317
-296.836
-280.987
-264.942
-248.845
-232.828
-217.035
-201.64
-186.84
-172.849
-159.842
-147.93
-137.183
-127.626
-119.261
-112.073
-106.005
-100.963
-96.842
-93.542
-90.979
-89.089
-87.797
-86.992
-86.527
-86.216
-85.875
-85.373
-84.611
-83.52
-82.06
-80.2
-77.94
-75.319
-72.392
-69.208
-65.808
-62.221
-58.478
-54.637
-50.779
-47.005
-43.424
-40.111
-37.12
-34.487
-32.231
-30.358
-28.861
-27.705
-26.839
-26.222
-25.812
-25.575
-25.482
-25.488
-25.541
-25.584
-25.558
-25.416
-25.12
-24.638
-23.94
-23.006
-21.817
-20.365
-18.65
-16.663
-14.398
-11.842
-8.984
-5.819
-2.342
1.451
5.564
10.009
14.79
19.906
25.353
31.121
37.198
43.567
50.206
57.08
64.152
71.389
78.76
86.241
93.812
101.453
109.144
116.86
124.59
132.339
140.116
147.94
155.833
163.818
171.929
180.22
188.734
197.498
206.528
215.813
225.33
235.04
244.896
254.842
264.795
274.651
284.286
293.562
302.347
310.515
317.927
324.431
329.89
334.19
337.244
339.001
339.43
338.522
336.291
332.771
328.029
322.164
315.297
307.573
299.124
290.074
280.556
270.712
260.672
250.552
240.445
230.417
220.525
210.813
201.314
192.047
183.005
174.167
165.496
156.94
148.463
140.042
131.656
123.283
114.908
106.526
98.146
89.79
81.483
73.245
65.102
57.081
49.219
41.558
34.143
27.021
20.23
13.795
7.739
2.079
-3.175
-8.018
-12.452
-16.489
-20.14
-23.412
-26.317
-28.866
-31.072
-32.955
-34.533
-35.826
-36.854
-37.636
-38.19
-38.534
-38.686
-38.663
-38.481
-38.153
-37.696
-37.125
-36.457
-35.71
-34.899
-34.039
-33.147
-32.235
-31.319
-30.409
-29.515
-28.648
-27.814
-27.02
-26.273
-25.578
-24.937
-24.355
-23.833
-23.373
-22.975
-22.638
-22.361
-22.143
-21.981
-21.872
-21.812
-21.799
-21.828
-21.896
-21.998
-22.13
-22.288
-22.467
-22.664
-22.873
-23.09
-23.312
-23.534
-23.751
-23.962
-24.162
-24.35
-24.524
-24.681
-24.822
-24.945
-25.051
-25.139
-25.21
-25.266
-25.307
-25.335
-25.351
-25.359
-25.359
-25.356
-25.351
-25.347
-25.347
-25.354
-25.37
-25.398
-25.439
-25.496
-25.571
-25.665
-25.78
-25.918
-26.08
-26.267
-26.481
-26.721
-26.988
-27.283
-27.605
-27.954
-28.33
-28.731
-29.157
-29.605
-30.075
-30.565
-31.072
-31.595
-32.131
-32.677
-33.231
-33.789
-34.35
-34.909
-35.465
-36.014
-36.554
-37.082
-37.597
-38.096
-38.578
-39.041
-39.483
-39.903
-40.3
-40.672
-41.019
-41.34
-41.635
-41.902
-42.142
-42.354
-42.539
-42.696
-42.827
-42.932
-43.011
-43.067
-43.1
-43.112
-43.104
-43.08
-43.041
-42.989
-42.928
-42.859
-42.786
-42.711
-42.636
-42.563
-42.496
-42.436
-42.385
-42.345
-42.317
-42.304
-42.305
-42.322
-42.356
-42.408
-42.477
-42.566
-42.672
-42.797
-42.94
-43.1
-43.276
-43.466
-43.668
-43.88
-44.099
-44.321
-44.542
-44.76
-44.968
-45.163
-45.338
-45.489
-45.609
-45.693
-45.734
-45.726
-45.663
-45.538
-45.345
-45.079
-44.733
-44.303
-43.784
-43.17
-42.457
-41.642
-40.721
-39.69
-38.547
-37.29
-35.918
-34.43
-32.826
-31.109
-29.279
-27.34
-25.297
-23.154
-20.919
-18.598
-16.198
-13.73
-11.204
-8.631
-6.024
-3.394
-0.757
1.874
4.482
7.049
9.559
11.996
14.342
16.581
18.695
20.67
22.492
24.15
25.63
26.919
28.007
28.88
29.529
29.945
30.119
30.044
29.714
29.131
28.299
27.221
25.903
24.348
22.553
20.52
18.259
15.779
13.095
10.225
7.195
4.042
0.816
-2.437
-5.672
-8.855
-11.957
-14.944
-17.783
-20.434
-22.854
-25.012
-26.881
-28.438
-29.67
-30.586
-31.22
-31.641
-31.938
-32.189
-32.46
-32.809
-33.306
-34.02
-35.015
-36.363
-38.097
-40.26
-42.953
-46.174
-49.812
-53.654
-57.303
-60.352
-62.515
-63.397
-62.522
-59.742
-55.101
-48.974
-42.257
-35.616
-29.442
-24.38
-21.017
-19.379
-19.155
-19.241
-17.625
-12.76
-3.187
13.025
37.564
71.834
115.843
167.006
221.926
277.424
331.877
387.179
443.727
497.765
542.448
564.865
552.14
499.945
408.268
283.526
141.423
-4.489
-138.493
-242.141
-309.303
-340.319
-342.499
-331.072
-314.28
-293.179
-265.752
-229.902
-187.287
-144.822
-110.279
-85.161
-69.318
-60.379
-54.03
-51.087
-51.984
-55.56
-61.737
-67.872
-71.389
-71.918
-69.242
-63.799
-56.692
-48.661
-40.426
-33.07
-27.375
-23.588
-21.765
-21.676
-22.852
-24.925
-27.497
-30.062
-32.323
-34.158
-35.483
-36.33
-36.728
-36.631
-36.055
-35.049
-33.625
-31.819
-29.676
-27.241
-24.627
-21.956
-19.322
-16.802
-14.432
-12.226
-10.204
-8.379
-6.754
-5.343
-4.148
-3.168
-2.417
-1.889
-1.567
-1.421
-1.395
-1.436
-1.505
-1.57
-1.611
-1.615
-1.568
-1.457
-1.287
-1.062
-0.772
-0.395
0.097
0.726
1.498
2.392
3.405
4.562
5.842
7.188
8.555
9.895
11.206
12.565
13.992
15.413
16.917
18.787
21.065
23.672
26.641
29.645
33.311
39.373
47.323
55.607
61.47
59.921
51.601
41.421
34.392
37.617
51.066
68.105
83.637
92.01
92.606
90.396
88.308
88.479
91.382
94.964
98.374
101.65
104.725
107.905
111.231
114.423
117.397
120.188
122.779
125.149
127.302
129.24
130.984
132.574
134.017
135.286
136.368
137.262
137.964
138.472
138.783
138.887
138.784
138.475
137.963
137.25
136.34
135.234
133.937
132.454
130.79
128.953
126.948
124.783
122.468
120.011
117.421
114.709
111.885
108.96
105.946
102.852
99.691
96.475
93.213
89.919
86.602
83.275
79.95
76.636
73.344
70.085
66.869
63.705
60.601
57.566
54.606
51.729
48.94
46.246
43.65
41.159
38.774
36.5
34.339
32.293
30.363
28.551
26.856
25.277
23.816
22.47
21.238
20.119
19.11
18.21
17.416
16.725
16.134
15.64
15.239
14.928
14.704
14.564
14.503
14.518
14.608
14.768
14.997
15.292
15.649
16.068
16.545
17.077
17.663
18.3
18.985
19.717
20.494
21.312
22.171
23.067
23.998
24.961
25.954
26.973
28.015
29.078
30.157
31.249
32.351
33.459
34.568
35.675
36.774
37.86
38.928
39.97
40.98
41.95
42.872
43.737
44.537
45.262
45.903
46.452
46.898
47.233
47.452
47.545
47.507
47.33
47.007
46.531
45.895
45.093
44.119
42.968
41.637
40.123
38.43
36.561
34.518
32.303
29.909
27.338
24.593
21.682
18.614
15.403
12.07
8.645
5.172
1.694
-1.753
-5.136
-8.437
-11.629
-14.686
-17.574
-20.248
-22.672
-24.818
-26.664
-28.194
-29.402
-30.3
-30.946
-31.431
-31.839
-32.239
-32.668
-33.143
-33.717
-34.449
-35.411
-36.695
-38.347
-40.438
-43.097
-46.34
-50.074
-54.091
-57.927
-61.102
-63.308
-64.13
-63.15
-60.372
-55.99
-50.543
-45.176
-40.773
-37.841
-37.084
-38.95
-43.021
-48.443
-53.521
-55.538
-52.349
-42.197
-22.978
6.746
47.207
97.738
156.098
218.633
282.085
342.902
396.643
439.402
468.104
480.604
476.546
456.68
421.615
373.109
314.375
248.828
180.03
111.168
44.343
-18.409
-74.652
-123.121
-163.825
-197.371
-225.01
-247.938
-266.913
-283.181
-298.59
-314.277
-330.63
-347.562
-364.411
-380.56
-395.714
-409.33
-420.428
-428.326
-432.7
-433.4
-430.836
-425.624
-418.072
-408.427
-397.226
-385.048
-372.555
-360.654
-349.624
-338.999
-328.42
-317.658
-306.423
-294.395
-280.925
-264.812
-245.5
-223.652
-200.299
-176.576
-153.411
-131.429
-111.508
-95.116
-83.333
-76.1
-72.68
-71.907
-72.889
-75.255
-78.541
-81.876
-84.37
-85.645
-85.853
-85.607
-85.327
-84.994
-84.543
-84.015
-83.606
-83.49
-83.584
-83.561
-83.148
-82.261
-80.919
-79.227
-77.222
-74.894
-72.316
-69.622
-66.966
-64.502
-62.308
-60.394
-58.759
-57.396
-56.288
-55.427
-54.783
-54.305
-53.947
-53.663
-53.41
-53.157
-52.858
-52.46
-51.902
-51.119
-50.059
-48.693
-46.994
-44.947
-42.537
-39.753
-36.593
-33.063
-29.169
-24.913
-20.297
-15.319
-9.979
-4.285
1.754
8.13
14.831
21.848
29.17
36.783
44.672
52.82
61.212
69.829
78.654
87.664
96.838
106.15
115.575
125.089
134.667
144.28
153.9
163.494
173.029
182.473
191.792
200.95
209.911
218.639
227.099
235.259
243.09
250.56
257.636
264.284
270.462
276.14
281.293
285.9
289.939
293.399
296.274
298.572
300.316
301.517
302.176
302.29
301.842
300.821
299.221
297.034
294.255
290.879
286.892
282.296
277.102
271.304
264.886
257.815
250.032
241.507
232.25
222.285
211.663
200.448
188.705
176.525
164.025
151.306
138.469
125.598
112.753
100.02
87.503
75.326
63.644
52.57
42.178
32.523
23.636
15.521
8.172
1.536
-4.479
-9.945
-14.916
-19.432
-23.506
-27.175
-30.496
-33.536
-36.381
-39.096
-41.72
-44.289
-46.831
-49.349
-51.835
-54.25
-56.515
-58.582
-60.421
-62.017
-63.377
-64.5
-65.373
-65.99
-66.347
-66.44
-66.276
-65.859
-65.19
-64.285
-63.171
-61.885
-60.486
-59.015
-57.504
-55.978
-54.451
-52.94
-51.461
-50.022
-48.626
-47.277
-45.982
-44.748
-43.584
-42.495
-41.482
-40.542
-39.669
-38.857
-38.104
-37.408
-36.766
-36.175
-35.635
-35.145
-34.71
-34.331
-34.006
-33.734
-33.512
-33.34
-33.213
-33.131
-33.09
-33.086
-33.119
-33.185
-33.283
-33.412
-33.568
-33.752
-33.959
-34.189
-34.438
-34.707
-34.992
-35.292
-35.606
-35.932
-36.271
-36.62
-36.979
-37.348
-37.726
-38.113
-38.506
-38.906
-39.311
-39.719
-40.129
-40.539
-40.947
-41.351
-41.749
-42.139
-42.519
-42.887
-43.241
-43.579
-43.899
-44.199
-44.478
-44.735
-44.969
-45.179
-45.365
-45.528
-45.666
-45.781
-45.872
-45.939
-45.983
-46.004
-46.002
-45.976
-45.928
-45.858
-45.765
-45.65
-45.514
-45.358
-45.183
-44.991
-44.783
-44.561
-44.327
-44.084
-43.835
-43.581
-43.327
-43.073
-42.822
-42.577
-42.34
-42.111
-41.893
-41.686
-41.491
-41.308
-41.138
-40.98
-40.835
-40.703
-40.583
-40.476
-40.383
-40.303
-40.237
-40.185
-40.148
-40.127
-40.123
-40.135
-40.166
-40.214
-40.281
-40.366
-40.469
-40.59
-40.729
-40.884
-41.055
-41.242
-41.444
-41.659
-41.889
-42.132
-42.389
-42.66
-42.944
-43.241
-43.553
-43.879
-44.219
-44.573
-44.94
-45.32
-45.713
-46.115
-46.527
-46.944
-47.365
-47.786
-48.203
-48.613
-49.01
-49.391
-49.75
-50.083
-50.385
-50.651
-50.876
-51.054
-51.183
-51.255
-51.266
-51.211
-51.083
-50.879
-50.592
-50.217
-49.75
-49.186
-48.52
-47.748
-46.866
-45.871
-44.76
-43.531
-42.182
-40.713
-39.124
-37.416
-35.592
-33.655
-31.609
-29.459
-27.214
-24.88
-22.466
-19.979
-17.429
-14.828
-12.186
-9.514
-6.824
-4.13
-1.445
1.214
3.83
6.389
8.872
11.265
13.55
15.71
17.732
19.604
21.314
22.85
24.2
25.35
26.29
27.011
27.505
27.766
27.788
27.567
27.106
26.412
25.492
24.35
22.987
21.397
19.581
17.543
15.293
12.846
10.216
7.424
4.503
1.495
-1.556
-4.61
-7.637
-10.615
-13.514
-16.3
-18.926
-21.345
-23.523
-25.429
-27.043
-28.364
-29.4
-30.179
-30.756
-31.194
-31.565
-31.954
-32.432
-33.082
-33.987
-35.209
-36.852
-39.052
-41.861
-45.262
-49.116
-53.104
-56.909
-60.268
-62.815
-64.147
-64.021
-62.381
-59.567
-56.331
-53.421
-51.44
-50.933
-52.363
-55.883
-61.186
-67.235
-72.302
-74.453
-71.782
-62.451
-44.739
-17.51
19.773
66.848
122.408
184.578
249.826
313.033
369.517
415.756
451.46
478.619
496.088
499.676
481.948
434.632
356.939
252.846
129.661
-0.311
-127.35
-240.41
-326.603
-382.021
-406.18
-404.132
-387.786
-361.222
-328.479
-295.017
-261.618
-234.925
-217.202
-202.602
-188.087
-168.517
-142.588
-116.333
-93
-74.364
-61.363
-52.127
-45.732
-42.426
-41.59
-42.13
-43.329
-44.66
-45.663
-46.2
-46.16
-45.31
-43.982
-43.061
-42.968
-43.77
-45.442
-47.677
-50.269
-53.16
-56.018
-58.35
-59.865
-60.412
-59.983
-58.741
-56.781
-54.15
-50.976
-47.421
-43.655
-39.866
-36.167
-32.609
-29.245
-26.128
-23.317
-20.873
-18.82
-17.149
-15.843
-14.886
-14.262
-13.961
-13.943
-14.16
-14.556
-15.069
-15.653
-16.28
-16.919
-17.546
-18.138
-18.672
-19.14
-19.541
-19.87
-20.12
-20.28
-20.337
-20.284
-20.12
-19.84
-19.442
-18.922
-18.275
-17.496
-16.582
-15.529
-14.333
-12.987
-11.485
-9.826
-8.007
-6.031
-3.899
-1.616
0.816
3.39
6.1
8.938
11.898
14.974
18.156
21.438
24.81
28.263
31.788
35.375
39.012
42.688
46.391
50.109
53.831
57.542
61.23
64.882
68.486
72.029
75.497
78.88
82.164
85.337
88.389
91.307
94.083
96.705
99.164
101.452
103.561
105.484
107.214
108.745
110.073
111.192
112.099
112.791
113.264
113.517
113.549
113.361
112.952
112.324
111.481
110.425
109.163
107.698
106.038
104.189
102.159
99.957
97.592
95.073
92.412
89.617
86.702
83.676
80.552
77.342
74.057
70.71
67.313
63.876
60.412
56.931
53.445
49.965
46.5
43.062
39.659
36.302
32.998
29.757
26.587
23.493
20.484
17.565
14.74
12.015
9.393
6.878
4.471
2.176
-0.006
-2.075
-4.031
-5.873
-7.603
-9.222
-10.731
-12.133
-13.429
-14.621
-15.712
-16.704
-17.598
-18.398
-19.105
-19.721
-20.25
-20.693
-21.054
-21.335
-21.538
-21.666
-21.721
-21.707
-21.624
-21.475
-21.263
-20.988
-20.655
-20.263
-19.816
-19.314
-18.76
-18.155
-17.5
-16.797
-16.047
-15.252
-14.413
-13.533
-12.615
-11.662
-10.679
-9.671
-8.644
-7.603
-6.554
-5.504
-4.458
-3.422
-2.404
-1.407
-0.437
0.5
1.397
2.246
3.04
3.773
4.439
5.032
5.546
5.972
6.304
6.54
6.676
6.711
6.637
6.446
6.13
5.693
5.14
4.48
3.726
2.888
1.984
1.05
0.12
-0.772
-1.594
-2.334
-2.97
-3.48
-3.837
-4.003
-3.956
-3.691
-3.214
-2.534
-1.669
-0.631
0.534
1.746
2.92
3.966
4.819
5.443
5.808
5.888
5.649
5.046
4.042
2.627
0.804
-1.391
-3.924
-6.799
-9.917
-13.038
-15.81
-17.731
-18.329
-17.304
-14.478
-9.696
-3.017
5.247
14.528
23.792
31.911
38.128
42.234
44.498
45.621
46.615
48.903
54.701
66.518
86.41
114.265
147.768
184.771
223.819
266.259
314.793
367.362
416.897
451.977
460.885
439.912
394.588
336.986
279.731
229.939
188.25
150.616
113.457
75.963
39.083
4.727
-26.594
-56.06
-84.966
-114.094
-143.44
-172.419
-200.445
-227.107
-251.946
-274.408
-293.981
-310.305
-323.266
-333.06
-339.815
-343.405
-343.989
-341.862
-337.029
-330.056
-320.96
-308.076
-291.784
-274.247
-258.158
-249.955
-252.096
-258.713
-262.575
-252.887
-222.727
-180.006
-136.652
-104.853
-94.748
-101.547
-113.821
-123.215
-122.233
-111.884
-99.204
-87.677
-79.759
-75.807
-73.217
-71.121
-69.673
-68.671
-68.379
-68.779
-69.359
-69.822
-70.068
-69.939
-69.331
-68.254
-66.716
-64.753
-62.475
-59.943
-57.169
-54.188
-51.026
-47.702
-44.275
-40.812
-37.395
-34.134
-31.11
-28.376
-25.974
-23.92
-22.217
-20.859
-19.813
-19.036
-18.491
-18.143
-17.963
-17.926
-17.992
-18.112
-18.233
-18.292
-18.242
-18.042
-17.658
-17.062
-16.233
-15.151
-13.809
-12.207
-10.339
-8.194
-5.761
-3.025
0.025
3.392
7.081
11.095
15.434
20.102
25.092
30.405
36.038
41.993
48.277
54.894
61.833
69.08
76.61
84.39
92.39
100.575
108.903
117.336
125.845
134.41
143.027
151.693
160.389
169.089
177.752
186.339
194.828
203.201
211.444
219.558
227.539
235.39
243.139
250.79
258.32
265.683
272.797
279.564
285.915
291.794
297.16
301.982
306.212
309.8
312.709
314.888
316.285
316.839
316.46
315.083
312.695
309.315
305.009
299.877
293.989
287.407
280.193
272.394
264.069
255.28
246.067
236.482
226.593
216.476
206.244
195.995
185.784
175.648
165.59
155.587
145.638
135.75
125.921
116.167
106.504
96.95
87.543
78.321
69.304
60.506
51.92
43.54
35.379
27.456
19.8
12.45
5.436
-1.22
-7.489
-13.354
-18.805
-23.837
-28.459
-32.686
-36.527
-39.989
-43.078
-45.8
-48.166
-50.189
-51.885
-53.274
-54.375
-55.209
-55.799
-56.169
-56.34
-56.331
-56.16
-55.843
-55.396
-54.837
-54.181
-53.447
-52.651
-51.808
-50.935
-50.048
-49.161
-48.287
-47.439
-46.626
-45.857
-45.141
-44.486
-43.896
-43.378
-42.935
-42.571
-42.29
-42.092
-41.978
-41.949
-42.003
-42.139
-42.355
-42.648
-43.013
-43.447
-43.946
-44.506
-45.122
-45.789
-46.503
-47.258
-48.05
-48.874
-49.723
-50.593
-51.478
-52.373
-53.273
-54.172
-55.067
-55.954
-56.829
-57.688
-58.528
-59.347
-60.141
-60.909
-61.65
-62.36
-63.04
-63.689
-64.306
-64.893
-65.449
-65.975
-66.474
-66.945
-67.39
-67.811
-68.21
-68.588
-68.947
-69.289
-69.616
-69.93
-70.233
-70.527
-70.813
-71.094
-71.371
-71.647
-71.923
-72.2
-72.48
-72.764
-73.053
-73.348
-73.65
-73.959
-74.274
-74.596
-74.923
-75.254
-75.589
-75.925
-76.259
-76.59
-76.915
-77.23
-77.532
-77.818
-78.084
-78.327
-78.543
-78.728
-78.879
-78.993
-79.066
-79.095
-79.076
-79.008
-78.887
-78.709
-78.473
-78.174
-77.81
-77.379
-76.88
-76.309
-75.665
-74.947
-74.154
-73.286
-72.343
-71.324
-70.23
-69.063
-67.825
-66.519
-65.147
-63.714
-62.224
-60.683
-59.097
-57.471
-55.81
-54.121
-52.408
-50.678
-48.937
-47.189
-45.44
-43.695
-41.962
-40.246
-38.552
-36.888
-35.259
-33.671
-32.129
-30.64
-29.207
-27.837
-26.535
-25.305
-24.151
-23.08
-22.094
-21.196
-20.389
-19.674
-19.049
-18.515
-18.068
-17.703
-17.415
-17.199
-17.051
-16.965
-16.937
-16.961
-17.035
-17.154
-17.316
-17.516
-17.747
-18
-18.266
-18.536
-18.801
-19.05
-19.27
-19.449
-19.58
-19.656
-19.67
-19.613
-19.471
-19.226
-18.868
-18.39
-17.792
-17.071
-16.23
-15.277
-14.232
-13.127
-11.994
-10.851
-9.704
-8.546
-7.374
-6.186
-4.98
-3.755
-2.492
-1.17
0.227
1.707
3.281
4.974
6.834
8.935
11.333
14.055
17.097
20.43
24.023
27.836
31.813
35.88
39.938
43.89
47.667
51.212
54.468
57.36
59.784
61.608
62.728
63.08
62.634
61.39
59.357
56.563
53.068
48.961
44.361
39.368
34.058
28.486
22.71
16.81
10.891
5.088
-0.486
-5.738
-10.599
-15.019
-18.952
-22.371
-25.275
-27.683
-29.637
-31.163
-32.267
-32.95
-33.234
-33.155
-32.784
-32.21
-31.514
-30.783
-30.121
-29.63
-29.419
-29.585
-30.189
-31.314
-33.086
-35.546
-38.645
-42.208
-45.876
-49.289
-52.179
-54.202
-54.905
-54.043
-51.679
-48.246
-44.646
-41.762
-40.112
-40.161
-42.48
-47.226
-53.86
-61.121
-66.875
-68.772
-64.969
-53.709
-33.13
-1.795
40.905
94.478
157.033
225.005
293.955
359.148
416.201
463.506
500.972
527.856
541.32
532.918
493.796
418.551
306.74
169.933
23.923
-114.326
-226.555
-306.088
-352.831
-371.809
-375.263
-369.257
-355.536
-334.565
-303.326
-262.802
-217.611
-171.977
-130.661
-97.088
-72.465
-56.978
-49.8
-49.364
-53.874
-61.722
-71.334
-80.687
-87.909
-91.951
-92.496
-89.946
-85.143
-78.768
-71.454
-64.188
-58.028
-53.593
-51.112
-50.414
-51.024
-52.558
-54.742
-57.203
-59.525
-61.438
-62.762
-63.425
-63.495
-63.024
-62.035
-60.58
-58.715
-56.492
-53.993
-51.315
-48.558
-45.817
-43.16
-40.625
-38.249
-36.061
-34.093
-32.376
-30.913
-29.697
-28.727
-28.002
-27.527
-27.296
-27.278
-27.424
-27.677
-27.992
-28.337
-28.686
-29.015
-29.302
-29.53
-29.687
-29.773
-29.786
-29.717
-29.554
-29.284
-28.897
-28.392
-27.767
-27.023
-26.158
-25.173
-24.065
-22.837
-21.489
-20.018
-18.422
-16.696
-14.839
-12.852
-10.737
-8.497
-6.136
-3.659
-1.073
1.615
4.398
7.267
10.216
13.237
16.321
19.462
22.649
25.876
29.133
32.411
35.703
38.998
42.288
45.565
48.821
52.047
55.235
58.376
61.464
64.491
67.448
70.327
73.121
75.822
78.421
80.911
83.286
85.537
87.659
89.644
91.488
93.185
94.729
96.115
97.34
98.398
99.285
99.998
100.535
100.892
101.067
101.059
100.867
100.489
99.926
99.179
98.247
97.133
95.839
94.368
92.724
90.909
88.931
86.793
84.502
82.065
79.489
76.783
73.953
71.011
67.964
64.823
61.598
58.299
54.938
51.523
48.067
44.58
41.073
37.555
34.038
30.53
27.043
23.585
20.166
16.796
13.481
10.231
7.053
3.954
0.94
-1.982
-4.808
-7.532
-10.152
-12.662
-15.06
-17.344
-19.511
-21.56
-23.492
-25.305
-27.002
-28.582
-30.049
-31.405
-32.653
-33.795
-34.834
-35.773
-36.617
-37.367
-38.026
-38.599
-39.088
-39.497
-39.828
-40.086
-40.273
-40.392
-40.446
-40.437
-40.367
-40.239
-40.054
-39.815
-39.523
-39.181
-38.792
-38.357
-37.879
-37.358
-36.799
-36.201
-35.566
-34.896
-34.191
-33.453
-32.684
-31.885
-31.058
-30.207
-29.333
-28.444
-27.543
-26.637
-25.731
-24.832
-23.946
-23.079
-22.239
-21.428
-20.653
-19.919
-19.231
-18.595
-18.019
-17.508
-17.068
-16.706
-16.426
-16.233
-16.13
-16.114
-16.184
-16.341
-16.589
-16.938
-17.395
-17.961
-18.636
-19.42
-20.302
-21.269
-22.294
-23.337
-24.357
-25.317
-26.185
-26.936
-27.541
-27.964
-28.162
-28.092
-27.718
-27.024
-25.999
-24.624
-22.911
-20.906
-18.681
-16.347
-14.013
-11.75
-9.645
-7.798
-6.302
-5.278
-4.842
-5.06
-6.018
-7.803
-10.387
-13.69
-17.534
-21.547
-25.374
-28.672
-30.978
-31.929
-31.458
-29.637
-26.77
-23.417
-19.938
-16.688
-14.271
-12.938
-12.292
-11.405
-8.94
-3.477
6.291
21.928
45.172
77.307
117.665
163.304
212.266
263.43
316.513
372.919
428.225
473.784
502.171
505.248
482.535
441.225
387.746
330.073
272.722
214.428
155.232
95.31
35.746
-19.682
-68.904
-111.641
-148.123
-179.526
-206.521
-229.082
-247.607
-262.814
-275.124
-284.916
-292.406
-297.638
-301.186
-303.654
-305.223
-306.097
-306.508
-306.549
-306.481
-306.275
-305.274
-303.086
-299.617
-294.693
-288.306
-280.433
-270.824
-259.676
-247.648
-235.107
-222.253
-209.256
-196.1
-182.924
-170.061
-157.587
-145.371
-133.408
-121.767
-110.571
-100.029
-90.222
-81.095
-72.649
-64.948
-58.057
-52.056
-46.964
-42.729
-39.307
-36.674
-34.774
-33.527
-32.787
-32.34
-32.008
-31.673
-31.246
-30.688
-29.963
-29.022
-27.84
-26.417
-24.761
-22.891
-20.824
-18.562
-16.134
-13.595
-11.032
-8.566
-6.286
-4.247
-2.484
-1.012
0.167
1.048
1.655
2.031
2.22
2.263
2.196
2.045
1.849
1.661
1.54
1.554
1.755
2.183
2.87
3.845
5.131
6.748
8.702
10.992
13.619
16.59
19.912
23.596
27.646
32.063
36.846
41.997
47.517
53.414
59.684
66.318
73.302
80.619
88.248
96.166
104.338
112.716
121.261
129.935
138.702
147.541
156.413
165.284
174.123
182.892
191.567
200.139
208.6
216.952
225.217
233.416
241.588
249.792
258.056
266.395
274.814
283.284
291.792
300.315
308.807
317.226
325.52
333.612
341.434
348.904
355.889
362.261
367.877
372.559
376.179
378.627
379.802
379.654
378.141
375.231
370.942
365.301
358.328
350.072
340.575
329.885
318.135
305.462
292.014
277.992
263.564
248.896
234.177
219.544
205.109
190.981
177.22
163.874
151.023
138.728
127.059
116.097
105.848
96.307
87.471
79.283
71.689
64.624
57.975
51.664
45.652
39.897
34.39
29.133
24.09
19.235
14.539
9.948
5.444
1.018
-3.353
-7.653
-11.859
-15.935
-19.806
-23.417
-26.746
-29.774
-32.503
-34.943
-37.089
-38.943
-40.516
-41.801
-42.801
-43.52
-43.956
-44.123
-44.047
-43.759
-43.308
-42.74
-42.087
-41.373
-40.62
-39.842
-39.056
-38.271
-37.49
-36.723
-35.979
-35.268
-34.602
-33.99
-33.435
-32.936
-32.491
-32.097
-31.75
-31.447
-31.187
-30.967
-30.787
-30.647
-30.55
-30.496
-30.485
-30.517
-30.588
-30.695
-30.837
-31.009
-31.209
-31.433
-31.677
-31.941
-32.22
-32.513
-32.817
-33.13
-33.449
-33.772
-34.096
-34.42
-34.742
-35.061
-35.375
-35.683
-35.987
-36.285
-36.579
-36.869
-37.155
-37.44
-37.723
-38.005
-38.288
-38.571
-38.856
-39.143
-39.433
-39.728
-40.026
-40.331
-40.641
-40.958
-41.282
-41.614
-41.954
-42.302
-42.658
-43.023
-43.397
-43.779
-44.171
-44.571
-44.98
-45.398
-45.823
-46.254
-46.692
-47.134
-47.579
-48.025
-48.471
-48.914
-49.353
-49.786
-50.21
-50.624
-51.026
-51.415
-51.789
-52.146
-52.485
-52.805
-53.105
-53.383
-53.64
-53.874
-54.085
-54.272
-54.434
-54.571
-54.683
-54.77
-54.83
-54.864
-54.872
-54.854
-54.81
-54.741
-54.646
-54.528
-54.387
-54.225
-54.043
-53.843
-53.627
-53.398
-53.157
-52.907
-52.65
-52.388
-52.122
-51.855
-51.588
-51.324
-51.063
-50.807
-50.558
-50.317
-50.084
-49.862
-49.651
-49.451
-49.264
-49.089
-48.929
-48.783
-48.654
-48.541
-48.447
-48.373
-48.32
-48.288
-48.278
-48.291
-48.325
-48.38
-48.456
-48.55
-48.663
-48.792
-48.938
-49.098
-49.272
-49.459
-49.657
-49.866
-50.083
-50.308
-50.54
-50.778
-51.02
-51.266
-51.515
-51.768
-52.024
-52.281
-52.538
-52.792
-53.041
-53.281
-53.507
-53.713
-53.893
-54.043
-54.158
-54.234
-54.267
-54.253
-54.192
-54.081
-53.922
-53.71
-53.443
-53.116
-52.723
-52.26
-51.721
-51.1
-50.39
-49.585
-48.682
-47.68
-46.578
-45.374
-44.059
-42.623
-41.06
-39.372
-37.562
-35.638
-33.607
-31.486
-29.302
-27.095
-24.904
-22.756
-20.665
-18.63
-16.656
-14.743
-12.896
-11.117
-9.391
-7.703
-6.044
-4.41
-2.794
-1.178
0.485
2.268
4.231
6.41
8.807
11.4
14.167
17.07
20.058
23.058
25.97
28.701
31.183
33.368
35.211
36.65
37.594
37.924
37.54
36.379
34.405
31.61
28
23.608
18.501
12.792
6.633
0.159
-6.51
-13.281
-20.069
-26.771
-33.271
-39.436
-45.148
-50.31
-54.834
-58.645
-61.692
-63.971
-65.508
-66.381
-66.7
-66.55
-66.044
-65.304
-64.441
-63.583
-62.85
-62.325
-62.129
-62.427
-63.306
-64.782
-66.739
-68.847
-70.789
-72.338
-73.178
-72.944
-71.424
-68.557
-64.665
-60.546
-56.993
-54.584
-53.864
-55.297
-59.004
-64.734
-71.534
-77.626
-80.952
-79.551
-71.556
-55.065
-28.558
8.888
57.456
115.08
177.732
241.73
302.86
359.328
412.577
460.199
497.649
516.99
506.058
459.671
379.635
271.66
146.326
13.588
-118.499
-238.478
-332.968
-393.865
-418.732
-413.666
-392.821
-365.981
-337.772
-309.011
-276.094
-239.265
-201.978
-167.871
-141.244
-123.583
-114.003
-111.244
-113.183
-117.618
-122.865
-127.04
-128.597
-126.97
-122.025
-114.086
-104.075
-93
-81.88
-71.913
-63.942
-58.307
-55.146
-54.297
-55.384
-58.015
-61.672
-65.761
-69.88
-73.765
-77.247
-80.263
-82.726
-84.561
-85.764
-86.354
-86.346
-85.75
-84.567
-82.813
-80.553
-77.87
-74.874
-71.668
-68.338
-64.989
-61.707
-58.559
-55.617
-52.921
-50.489
-48.345
-46.498
-44.942
-43.675
-42.679
-41.921
-41.379
-41.016
-40.793
-40.672
-40.608
-40.562
-40.508
-40.424
-40.293
-40.106
-39.85
-39.518
-39.11
-38.623
-38.054
-37.399
-36.652
-35.807
-34.865
-33.824
-32.684
-31.444
-30.101
-28.65
-27.09
-25.417
-23.627
-21.717
-19.683
-17.52
-15.23
-12.814
-10.275
-7.615
-4.839
-1.952
1.04
4.13
7.312
10.579
13.924
17.34
20.819
24.352
27.931
31.545
35.186
38.843
42.506
46.162
49.801
53.411
56.981
60.498
63.95
67.325
70.609
73.791
76.858
79.799
82.602
85.256
87.751
90.077
92.226
94.19
95.962
97.537
98.908
100.071
101.023
101.76
102.28
102.582
102.664
102.527
102.172
101.601
100.816
99.822
98.623
97.226
95.636
93.862
91.911
89.793
87.517
85.095
82.536
79.854
77.06
74.167
71.186
68.131
65.014
61.846
58.64
55.408
52.16
48.908
45.661
42.43
39.225
36.055
32.927
29.852
26.836
23.887
21.01
18.213
15.499
12.875
10.342
7.906
5.568
3.33
1.194
-0.839
-2.77
-4.599
-6.326
-7.955
-9.485
-10.92
-12.261
-13.512
-14.675
-15.752
-16.746
-17.659
-18.494
-19.253
-19.938
-20.551
-21.094
-21.57
-21.98
-22.326
-22.611
-22.836
-23.002
-23.111
-23.165
-23.165
-23.112
-23.008
-22.854
-22.65
-22.398
-22.099
-21.754
-21.363
-20.928
-20.448
-19.925
-19.36
-18.755
-18.111
-17.43
-16.715
-15.969
-15.195
-14.396
-13.577
-12.742
-11.897
-11.049
-10.203
-9.366
-8.545
-7.746
-6.976
-6.241
-5.545
-4.893
-4.289
-3.737
-3.245
-2.816
-2.457
-2.173
-1.967
-1.845
-1.811
-1.868
-2.012
-2.242
-2.556
-2.958
-3.455
-4.052
-4.744
-5.527
-6.396
-7.338
-8.34
-9.374
-10.405
-11.397
-12.321
-13.151
-13.877
-14.476
-14.924
-15.187
-15.224
-15.011
-14.542
-13.809
-12.804
-11.54
-10.052
-8.406
-6.703
-5.019
-3.399
-1.888
-0.536
0.591
1.416
1.852
1.849
1.348
0.263
-1.402
-3.573
-6.086
-8.6
-10.756
-12.267
-12.774
-11.892
-9.579
-5.978
-1.434
3.273
7.531
10.982
13.015
13.117
11.535
9.005
6.697
6.432
9.927
18.729
34.625
59.25
92.217
131.192
174.938
222.15
272.539
327.828
383.474
430.887
462.399
469.124
450.265
412.851
363.216
309.323
255.294
199.698
142.716
84.895
28.154
-23.06
-66.394
-101.639
-129.442
-151.444
-168.941
-182.621
-193.705
-203.981
-214.621
-226.073
-238.271
-250.596
-262.507
-273.749
-283.778
-291.725
-297.082
-299.635
-299.403
-296.8
-292.245
-286.022
-278.544
-270.286
-261.553
-252.608
-243.654
-234.729
-225.867
-217.087
-208.33
-199.535
-190.676
-181.748
-172.772
-163.768
-154.729
-145.673
-136.656
-127.767
-119.11
-110.738
-102.649
-94.853
-87.385
-80.304
-73.685
-67.583
-62.025
-57.032
-52.624
-48.823
-45.633
-43.013
-40.878
-39.1
-37.556
-36.167
-34.89
-33.688
-32.522
-31.344
-30.114
-28.812
-27.438
-25.986
-24.443
-22.791
-21.034
-19.198
-17.342
-15.548
-13.886
-12.395
-11.098
-10.002
-9.113
-8.43
-7.94
-7.609
-7.4
-7.281
-7.225
-7.212
-7.212
-7.183
-7.075
-6.828
-6.391
-5.726
-4.797
-3.577
-2.04
-0.166
2.055
4.626
7.549
10.827
14.467
18.477
22.861
27.618
32.747
38.243
44.102
50.32
56.888
63.798
71.039
78.598
86.463
94.622
103.058
111.751
120.678
129.814
139.131
148.602
158.194
167.875
177.611
187.366
197.106
206.794
216.396
225.874
235.193
244.317
253.21
261.836
270.16
278.149
285.768
292.985
299.768
306.087
311.912
317.216
321.974
326.162
329.76
332.749
335.112
336.836
337.911
338.329
338.087
337.184
335.623
333.409
330.551
327.063
322.96
318.259
312.982
307.151
300.792
293.932
286.6
278.828
270.647
262.093
253.199
244.004
234.544
224.856
214.981
204.956
194.82
184.613
174.373
164.138
153.946
143.834
133.836
123.987
114.318
104.861
95.644
86.691
78.028
69.674
61.649
53.967
46.643
39.687
33.109
26.914
21.107
15.69
10.663
6.024
1.769
-2.108
-5.614
-8.757
-11.548
-13.998
-16.121
-17.93
-19.44
-20.668
-21.63
-22.344
-22.828
-23.102
-23.184
-23.093
-22.85
-22.472
-21.977
-21.383
-20.708
-19.965
-19.172
-18.341
-17.485
-16.618
-15.75
-14.892
-14.053
-13.241
-12.464
-11.729
-11.042
-10.407
-9.831
-9.316
-8.866
-8.483
-8.171
-7.93
-7.762
-7.666
-7.643
-7.69
-7.806
-7.988
-8.234
-8.54
-8.903
-9.32
-9.786
-10.298
-10.853
-11.447
-12.077
-12.739
-13.431
-14.15
-14.893
-15.657
-16.442
-17.244
-18.062
-18.894
-19.739
-20.594
-21.458
-22.328
-23.203
-24.08
-24.957
-25.831
-26.701
-27.564
-28.418
-29.263
-30.096
-30.917
-31.724
-32.516
-33.293
-34.054
-34.797
-35.522
-36.229
-36.916
-37.583
-38.229
-38.853
-39.454
-40.031
-40.583
-41.108
-41.604
-42.072
-42.508
-42.912
-43.283
-43.621
-43.925
-44.196
-44.434
-44.64
-44.815
-44.959
-45.074
-45.162
-45.223
-45.26
-45.273
-45.265
-45.237
-45.191
-45.129
-45.054
-44.966
-44.868
-44.761
-44.648
-44.53
-44.41
-44.29
-44.171
-44.057
-43.949
-43.851
-43.764
-43.692
-43.635
-43.596
-43.576
-43.576
-43.597
-43.64
-43.704
-43.789
-43.896
-44.023
-44.169
-44.334
-44.516
-44.714
-44.925
-45.148
-45.381
-45.622
-45.868
-46.118
-46.37
-46.622
-46.872
-47.119
-47.36
-47.594
-47.821
-48.037
-48.242
-48.435
-48.614
-48.779
-48.93
-49.065
-49.185
-49.291
-49.383
-49.463
-49.531
-49.589
-49.64
-49.683
-49.723
-49.761
-49.8
-49.842
-49.89
-49.947
-50.015
-50.097
-50.195
-50.312
-50.449
-50.607
-50.789
-50.993
-51.221
-51.472
-51.745
-52.039
-52.353
-52.684
-53.029
-53.385
-53.748
-54.113
-54.476
-54.832
-55.174
-55.496
-55.791
-56.054
-56.275
-56.449
-56.569
-56.627
-56.616
-56.528
-56.358
-56.098
-55.743
-55.286
-54.721
-54.044
-53.251
-52.338
-51.304
-50.146
-48.865
-47.46
-45.934
-44.289
-42.531
-40.664
-38.694
-36.63
-34.479
-32.254
-29.964
-27.621
-25.239
-22.832
-20.417
-18.01
-15.629
-13.29
-11.012
-8.811
-6.707
-4.715
-2.851
-1.129
0.438
1.834
3.046
4.06
4.863
5.446
5.797
5.908
5.772
5.386
4.751
3.871
2.749
1.385
-0.223
-2.072
-4.156
-6.464
-8.985
-11.7
-14.587
-17.61
-20.725
-23.888
-27.058
-30.201
-33.288
-36.285
-39.159
-41.872
-44.384
-46.669
-48.7
-50.456
-51.923
-53.109
-54.045
-54.792
-55.433
-56.037
-56.66
-57.36
-58.2
-59.251
-60.582
-62.254
-64.296
-66.742
-69.672
-73.102
-76.95
-81.017
-84.924
-88.269
-90.738
-91.981
-91.585
-89.32
-85.151
-79.355
-72.718
-66.035
-59.886
-54.877
-51.55
-50.119
-50.431
-51.699
-52.16
-49.859
-43.095
-30.027
-8.939
21.555
62.524
112.885
168.825
226.326
280.944
331.602
381.644
430.384
474.867
506.289
507.363
468.688
387.443
267.039
124.959
-22.276
-160.035
-271.809
-351.086
-397.256
-413.908
-410.174
-391.546
-360.536
-318.344
-268.822
-223.237
-190.521
-175.914
-177.407
-180.738
-176.682
-161.46
-134.791
-107.227
-85.382
-71.379
-67.277
-68.355
-70.767
-73.088
-73.348
-72.412
-71.299
-69.71
-67.738
-65.252
-62.351
-59.965
-58.683
-58.57
-59.519
-61.209
-63.413
-66.027
-68.812
-71.342
-73.26
-74.388
-74.68
-74.236
-73.15
-71.449
-69.184
-66.455
-63.389
-60.133
-56.832
-53.574
-50.41
-47.392
-44.561
-41.967
-39.666
-37.682
-36.01
-34.636
-33.546
-32.734
-32.196
-31.913
-31.838
-31.918
-32.096
-32.326
-32.584
-32.845
-33.085
-33.282
-33.417
-33.481
-33.474
-33.396
-33.238
-32.99
-32.64
-32.181
-31.612
-30.934
-30.145
-29.245
-28.231
-27.1
-25.853
-24.487
-23.001
-21.388
-19.646
-17.771
-15.765
-13.63
-11.367
-8.98
-6.475
-3.855
-1.128
1.7
4.624
7.637
10.733
13.904
17.144
20.444
23.797
27.193
30.625
34.081
37.553
41.031
44.506
47.967
51.405
54.81
58.172
61.481
64.728
67.902
70.994
73.994
76.892
79.679
82.346
84.885
87.287
89.545
91.651
93.598
95.38
96.99
98.423
99.672
100.733
101.602
102.273
102.745
103.015
103.08
102.94
102.594
102.044
101.29
100.333
99.178
97.827
96.283
94.554
92.643
90.557
88.304
85.892
83.328
80.622
77.783
74.821
71.747
68.57
65.303
61.956
58.541
55.069
51.554
48.006
44.438
40.861
37.287
33.727
30.193
26.694
23.241
19.845
16.513
13.256
10.082
6.999
4.014
1.133
-1.637
-4.291
-6.825
-9.233
-11.513
-13.662
-15.677
-17.557
-19.301
-20.909
-22.38
-23.716
-24.918
-25.988
-26.929
-27.744
-28.435
-29.007
-29.463
-29.807
-30.043
-30.175
-30.208
-30.146
-29.993
-29.754
-29.435
-29.039
-28.571
-28.037
-27.44
-26.787
-26.08
-25.325
-24.527
-23.69
-22.819
-21.917
-20.99
-20.041
-19.075
-18.095
-17.107
-16.114
-15.118
-14.125
-13.137
-12.158
-11.192
-10.242
-9.313
-8.411
-7.541
-6.709
-5.922
-5.184
-4.502
-3.881
-3.326
-2.84
-2.426
-2.087
-1.825
-1.645
-1.551
-1.548
-1.638
-1.823
-2.106
-2.489
-2.973
-3.554
-4.227
-4.99
-5.843
-6.795
-7.851
-9.01
-10.265
-11.61
-13.032
-14.514
-16.032
-17.547
-19.02
-20.417
-21.708
-22.873
-23.892
-24.733
-25.359
-25.719
-25.777
-25.518
-24.934
-24.024
-22.797
-21.288
-19.563
-17.723
-15.862
-14.045
-12.331
-10.786
-9.487
-8.532
-8.024
-8.035
-8.646
-9.953
-11.943
-14.524
-17.512
-20.577
-23.419
-25.831
-27.509
-28.089
-27.482
-25.786
-23.332
-20.727
-18.262
-15.865
-13.653
-11.921
-10.569
-9.113
-6.486
-1.178
7.657
20.451
38.028
61.561
92.092
128.953
169.245
210.026
249.16
288.376
332.851
384.129
440.07
490.693
518.286
509.945
460.02
375.613
277.873
187.86
120.345
78.703
53.149
31.109
4.229
-29.736
-66.64
-100.538
-128.933
-152.277
-172.588
-192.76
-214.014
-236.131
-258.624
-280.509
-300.711
-318.405
-333.015
-344.165
-351.784
-355.981
-356.874
-354.665
-349.704
-342.491
-333.454
-322.94
-311.225
-298.487
-284.936
-270.826
-256.37
-241.715
-227.005
-212.351
-197.851
-183.661
-169.931
-156.824
-144.539
-133.196
-122.862
-113.588
-105.368
-98.179
-91.989
-86.721
-82.267
-78.55
-75.492
-73.033
-71.141
-69.734
-68.703
-67.911
-67.168
-66.335
-65.32
-64.046
-62.475
-60.585
-58.36
-55.825
-53.041
-50.05
-46.897
-43.612
-40.208
-36.727
-33.235
-29.814
-26.574
-23.597
-20.935
-18.628
-16.696
-15.147
-13.982
-13.176
-12.677
-12.444
-12.434
-12.61
-12.946
-13.398
-13.913
-14.434
-14.895
-15.241
-15.43
-15.424
-15.191
-14.705
-13.943
-12.891
-11.544
-9.893
-7.925
-5.627
-2.982
0.023
3.393
7.135
11.249
15.735
20.595
25.832
31.447
37.448
43.835
50.604
57.75
65.261
73.115
81.282
89.719
98.377
107.221
116.218
125.344
134.586
143.93
153.359
162.864
172.421
182.007
191.604
201.185
210.727
220.225
229.68
239.12
248.581
258.068
267.569
277.055
286.464
295.73
304.776
313.497
321.81
329.641
336.918
343.592
349.617
354.918
359.421
363.029
365.625
367.138
367.522
366.745
364.825
361.797
357.722
352.708
346.848
340.218
332.89
324.912
316.331
307.219
297.653
287.719
277.528
267.17
256.716
246.241
235.785
225.37
214.999
204.64
194.268
183.882
173.488
163.11
152.781
142.519
132.346
122.29
112.358
102.565
92.927
83.453
74.166
65.097
56.286
47.786
39.645
31.898
24.571
17.684
11.243
5.258
-0.27
-5.35
-9.985
-14.181
-17.945
-21.279
-24.194
-26.703
-28.824
-30.58
-31.992
-33.085
-33.879
-34.398
-34.664
-34.697
-34.516
-34.14
-33.585
-32.87
-32.016
-31.042
-29.967
-28.811
-27.593
-26.33
-25.041
-23.741
-22.444
-21.164
-19.911
-18.697
-17.531
-16.421
-15.375
-14.399
-13.496
-12.673
-11.93
-11.271
-10.696
-10.205
-9.797
-9.47
-9.222
-9.051
-8.953
-8.924
-8.963
-9.064
-9.225
-9.442
-9.71
-10.027
-10.388
-10.788
-11.224
-11.691
-12.185
-12.701
-13.236
-13.788
-14.353
-14.928
-15.511
-16.099
-16.691
-17.286
-17.88
-18.474
-19.066
-19.656
-20.242
-20.826
-21.407
-21.985
-22.56
-23.133
-23.703
-24.27
-24.835
-25.396
-25.954
-26.508
-27.057
-27.601
-28.139
-28.67
-29.195
-29.712
-30.221
-30.721
-31.212
-31.692
-32.16
-32.617
-33.061
-33.491
-33.907
-34.308
-34.694
-35.064
-35.416
-35.751
-36.067
-36.364
-36.641
-36.897
-37.133
-37.348
-37.542
-37.717
-37.873
-38.011
-38.132
-38.239
-38.331
-38.411
-38.481
-38.541
-38.595
-38.644
-38.689
-38.733
-38.777
-38.824
-38.874
-38.929
-38.99
-39.059
-39.136
-39.223
-39.32
-39.428
-39.55
-39.685
-39.835
-40
-40.182
-40.38
-40.594
-40.824
-41.07
-41.329
-41.602
-41.886
-42.179
-42.481
-42.788
-43.098
-43.41
-43.721
-44.028
-44.328
-44.62
-44.9
-45.168
-45.421
-45.658
-45.879
-46.083
-46.271
-46.441
-46.595
-46.732
-46.852
-46.955
-47.04
-47.108
-47.159
-47.192
-47.21
-47.213
-47.203
-47.181
-47.15
-47.112
-47.07
-47.025
-46.98
-46.939
-46.904
-46.878
-46.865
-46.869
-46.893
-46.939
-47.01
-47.108
-47.234
-47.387
-47.566
-47.769
-47.994
-48.236
-48.492
-48.759
-49.033
-49.31
-49.59
-49.869
-50.145
-50.416
-50.678
-50.927
-51.156
-51.358
-51.524
-51.644
-51.71
-51.713
-51.645
-51.499
-51.268
-50.949
-50.535
-50.019
-49.39
-48.634
-47.741
-46.706
-45.529
-44.215
-42.778
-41.236
-39.61
-37.926
-36.203
-34.453
-32.676
-30.862
-29.001
-27.078
-25.091
-23.052
-20.967
-18.842
-16.677
-14.469
-12.201
-9.848
-7.376
-4.741
-1.92
1.091
4.269
7.563
10.908
14.227
17.455
20.547
23.458
26.151
28.585
30.723
32.511
33.889
34.779
35.093
34.77
33.774
32.104
29.794
26.898
23.498
19.673
15.485
10.992
6.244
1.289
-3.818
-9.002
-14.187
-19.279
-24.168
-28.771
-33.008
-36.823
-40.192
-43.097
-45.555
-47.599
-49.244
-50.509
-51.429
-52.036
-52.384
-52.563
-52.639
-52.701
-52.876
-53.265
-53.988
-55.162
-56.834
-59.072
-61.948
-65.429
-69.455
-73.883
-78.4
-82.725
-86.677
-89.989
-92.395
-93.709
-93.756
-92.657
-90.868
-88.821
-86.731
-84.565
-82.416
-80.631
-79.508
-78.883
-76.909
-70.374
-57.011
-36.575
-12.717
9.129
26.816
42.814
66.772
109.551
176.447
266.031
366.049
461.022
536.437
580.221
588.442
559.202
495.315
402.431
283.809
149.111
8.093
-127.637
-240.585
-322.658
-371.842
-392.099
-396.943
-394.133
-385.696
-371.394
-346.958
-312.127
-270.748
-227.285
-186.61
-151.749
-124.246
-104.598
-92.072
-85.747
-84.449
-86.615
-91.082
-96.447
-100.724
-102.814
-102.433
-99.593
-94.892
-89.07
-82.546
-76.045
-70.69
-67.082
-65.413
-65.658
-67.337
-69.958
-73.257
-76.839
-80.213
-83.088
-85.242
-86.551
-87.102
-86.958
-86.142
-84.728
-82.778
-80.342
-77.521
-74.41
-71.106
-67.743
-64.41
-61.173
-58.096
-55.226
-52.606
-50.279
-48.249
-46.503
-45.032
-43.828
-42.889
-42.212
-41.764
-41.502
-41.379
-41.342
-41.353
-41.384
-41.406
-41.394
-41.33
-41.201
-41.001
-40.734
-40.394
-39.974
-39.464
-38.852
-38.135
-37.312
-36.379
-35.334
-34.176
-32.902
-31.511
-30.002
-28.371
-26.615
-24.73
-22.711
-20.557
-18.267
-15.843
-13.286
-10.602
-7.794
-4.867
-1.827
1.319
4.566
7.906
11.333
14.84
18.419
22.062
25.761
29.506
33.287
37.096
40.921
44.752
48.578
52.389
56.173
59.919
63.616
67.253
70.818
74.301
77.69
80.975
84.143
87.186
90.093
92.855
95.462
97.906
100.179
102.273
104.182
105.898
107.416
108.729
109.832
110.722
111.394
111.845
112.073
112.076
111.855
111.41
110.741
109.852
108.745
107.424
105.895
104.163
102.233
100.115
97.815
95.342
92.706
89.916
86.984
83.918
80.732
77.435
74.04
70.559
67.004
63.387
59.722
56.02
52.294
48.557
44.821
41.097
37.397
33.732
30.113
26.55
23.052
19.627
16.285
13.033
9.877
6.824
3.879
1.045
-1.672
-4.269
-6.745
-9.097
-11.324
-13.424
-15.398
-17.245
-18.967
-20.564
-22.037
-23.391
-24.627
-25.748
-26.759
-27.663
-28.464
-29.167
-29.777
-30.297
-30.731
-31.083
-31.359
-31.561
-31.694
-31.763
-31.769
-31.718
-31.612
-31.453
-31.246
-30.991
-30.691
-30.347
-29.963
-29.539
-29.079
-28.584
-28.055
-27.495
-26.906
-26.29
-25.649
-24.984
-24.296
-23.586
-22.857
-22.11
-21.346
-20.567
-19.777
-18.98
-18.18
-17.382
-16.591
-15.813
-15.051
-14.312
-13.599
-12.915
-12.263
-11.647
-11.07
-10.539
-10.059
-9.634
-9.271
-8.974
-8.747
-8.597
-8.524
-8.525
-8.597
-8.741
-8.962
-9.27
-9.672
-10.166
-10.751
-11.424
-12.176
-12.992
-13.844
-14.691
-15.494
-16.218
-16.837
-17.334
-17.686
-17.86
-17.821
-17.526
-16.954
-16.101
-14.961
-13.527
-11.815
-9.877
-7.791
-5.679
-3.64
-1.735
-0.035
1.384
2.435
3.01
3.012
2.386
1.074
-0.981
-3.746
-7.144
-10.983
-14.902
-18.562
-21.633
-23.719
-24.516
-23.969
-22.161
-19.409
-16.247
-12.984
-9.91
-7.537
-6.081
-5.232
-4.205
-1.778
3.31
12.051
25.663
45.745
73.493
108.307
147.624
188.934
230.93
275.146
324.292
376.851
426.521
462.442
473.518
455.413
411.456
351.798
287.751
226.114
168.384
111.918
54.672
-2.267
-55.459
-101.217
-138.189
-167.095
-189.444
-206.757
-219.976
-230.256
-239.465
-248.891
-258.999
-269.758
-280.57
-290.91
-300.572
-309.003
-315.295
-318.907
-319.631
-317.547
-313.14
-306.831
-298.875
-289.676
-279.728
-269.414
-259.068
-248.877
-238.831
-228.921
-219.128
-209.41
-199.753
-190.147
-180.579
-171.064
-161.632
-152.338
-143.287
-134.575
-126.248
-118.319
-110.751
-103.527
-96.679
-90.25
-84.287
-78.82
-73.853
-69.396
-65.479
-62.106
-59.249
-56.831
-54.718
-52.784
-50.953
-49.18
-47.449
-45.741
-44.018
-42.251
-40.427
-38.546
-36.616
-34.631
-32.567
-30.423
-28.223
-26.021
-23.905
-21.945
-20.183
-18.639
-17.324
-16.237
-15.38
-14.74
-14.28
-13.964
-13.757
-13.632
-13.57
-13.545
-13.516
-13.432
-13.236
-12.879
-12.324
-11.54
-10.499
-9.181
-7.567
-5.649
-3.426
-0.896
1.948
5.114
8.614
12.455
16.64
21.17
26.041
31.252
36.796
42.668
48.861
55.373
62.202
69.345
76.792
84.528
92.53
100.766
109.197
117.781
126.471
135.229
144.02
152.82
161.617
170.4
179.16
187.878
196.521
205.061
213.473
221.736
229.835
237.769
245.547
253.188
260.72
268.152
275.474
282.65
289.618
296.305
302.62
308.494
313.872
318.708
322.959
326.585
329.547
331.791
333.257
333.872
333.55
332.232
329.884
326.511
322.157
316.893
310.82
304.025
296.586
288.572
280.041
271.05
261.656
251.923
241.919
231.732
221.469
211.221
201.068
191.059
181.217
171.542
162.011
152.609
143.325
134.159
125.123
116.234
107.513
98.982
90.665
82.571
74.695
67.035
59.588
52.361
45.374
38.653
32.232
26.142
20.409
15.054
10.087
5.51
1.321
-2.49
-5.937
-9.034
-11.79
-14.215
-16.318
-18.112
-19.614
-20.84
-21.813
-22.553
-23.083
-23.426
-23.601
-23.628
-23.524
-23.304
-22.981
-22.568
-22.079
-21.526
-20.924
-20.284
-19.619
-18.942
-18.263
-17.594
-16.943
-16.319
-15.729
-15.177
-14.67
-14.211
-13.803
-13.448
-13.149
-12.905
-12.718
-12.587
-12.51
-12.488
-12.517
-12.596
-12.723
-12.894
-13.108
-13.36
-13.649
-13.972
-14.327
-14.71
-15.121
-15.556
-16.015
-16.495
-16.993
-17.509
-18.038
-18.58
-19.131
-19.691
-20.256
-20.826
-21.399
-21.972
-22.546
-23.119
-23.69
-24.257
-24.821
-25.379
-25.931
-26.477
-27.015
-27.546
-28.068
-28.581
-29.084
-29.577
-30.059
-30.53
-30.989
-31.434
-31.866
-32.281
-32.681
-33.063
-33.426
-33.77
-34.095
-34.399
-34.683
-34.946
-35.188
-35.411
-35.614
-35.798
-35.963
-36.111
-36.243
-36.36
-36.463
-36.553
-36.633
-36.704
-36.767
-36.824
-36.878
-36.929
-36.979
-37.03
-37.083
-37.139
-37.2
-37.268
-37.344
-37.43
-37.528
-37.638
-37.763
-37.903
-38.059
-38.232
-38.423
-38.631
-38.857
-39.1
-39.361
-39.637
-39.928
-40.233
-40.551
-40.879
-41.215
-41.558
-41.905
-42.253
-42.601
-42.945
-43.283
-43.614
-43.935
-44.245
-44.541
-44.822
-45.088
-45.335
-45.564
-45.773
-45.961
-46.127
-46.272
-46.394
-46.494
-46.572
-46.629
-46.665
-46.682
-46.681
-46.664
-46.632
-46.587
-46.532
-46.469
-46.402
-46.333
-46.265
-46.203
-46.149
-46.107
-46.08
-46.072
-46.085
-46.121
-46.183
-46.272
-46.391
-46.539
-46.718
-46.929
-47.171
-47.443
-47.745
-48.074
-48.43
-48.808
-49.207
-49.622
-50.05
-50.485
-50.924
-51.36
-51.789
-52.205
-52.602
-52.972
-53.31
-53.608
-53.858
-54.053
-54.185
-54.245
-54.227
-54.123
-53.927
-53.63
-53.228
-52.714
-52.085
-51.334
-50.46
-49.457
-48.325
-47.062
-45.667
-44.142
-42.487
-40.706
-38.802
-36.781
-34.648
-32.411
-30.076
-27.653
-25.15
-22.578
-19.947
-17.27
-14.558
-11.825
-9.086
-6.357
-3.654
-0.996
1.601
4.118
6.539
8.846
11.021
13.052
14.924
16.627
18.149
19.475
20.594
21.496
22.173
22.619
22.827
22.794
22.518
22
21.249
20.272
19.071
17.647
15.995
14.116
12.018
9.711
7.211
4.535
1.704
-1.248
-4.276
-7.335
-10.384
-13.388
-16.321
-19.148
-21.829
-24.312
-26.547
-28.496
-30.129
-31.429
-32.395
-33.035
-33.376
-33.471
-33.388
-33.21
-33.032
-32.939
-33.015
-33.349
-34.016
-35.117
-36.793
-39.089
-41.951
-45.234
-48.657
-51.949
-54.935
-57.379
-58.905
-59.273
-58.482
-56.791
-54.802
-53.084
-51.84
-51.074
-50.959
-51.737
-53.123
-54.308
-54.125
-50.09
-40.32
-25.052
-3.387
23.423
53.318
89.435
132.715
184.281
245.49
308.663
366.477
413.465
445.776
467.273
480.452
483.186
468.056
423.768
343.52
228.723
92.471
-45.747
-166.528
-255.706
-311.184
-338.648
-348.054
-348.702
-343.057
-330.007
-307.409
-274.633
-234.818
-193.047
-154.024
-121.033
-96.174
-79.936
-71.535
-69.991
-73.85
-81.195
-90.582
-100.382
-108.452
-113.611
-115.48
-113.996
-109.78
-103.668
-96.194
-88.187
-80.805
-74.636
-69.919
-66.705
-64.616
-63.301
-62.55
-62.02
-61.315
-60.24
-58.698
-56.686
-54.349
-51.764
-48.971
-46.032
-42.99
-39.908
-36.845
-33.832
-30.898
-28.08
-25.419
-22.958
-20.73
-18.741
-16.989
-15.466
-14.157
-13.056
-12.155
-11.445
-10.93
-10.593
-10.416
-10.384
-10.477
-10.671
-10.949
-11.285
-11.652
-12.037
-12.429
-12.816
-13.193
-13.547
-13.865
-14.137
-14.351
-14.495
-14.562
-14.54
-14.421
-14.198
-13.863
-13.415
-12.849
-12.161
-11.347
-10.405
-9.332
-8.126
-6.787
-5.314
-3.707
-1.967
-0.096
1.902
4.025
6.267
8.626
11.094
13.665
16.334
19.093
21.933
24.848
27.829
30.866
33.952
37.077
40.231
43.405
46.589
49.774
52.949
56.105
59.232
62.321
65.362
68.345
71.262
74.103
76.858
79.518
82.074
84.516
86.835
89.022
91.069
92.967
94.71
96.289
97.698
98.931
99.982
100.847
101.521
102
102.281
102.362
102.242
101.92
101.395
100.669
99.743
98.619
97.3
95.79
94.093
92.215
90.161
87.937
85.552
83.012
80.326
77.504
74.555
71.489
68.318
65.053
61.705
58.285
54.807
51.281
47.72
44.135
40.539
36.941
33.355
29.79
26.257
22.767
19.328
15.951
12.643
9.413
6.268
3.214
0.258
-2.595
-5.34
-7.972
-10.487
-12.882
-15.154
-17.302
-19.324
-21.22
-22.988
-24.63
-26.147
-27.54
-28.811
-29.963
-30.998
-31.918
-32.728
-33.429
-34.025
-34.52
-34.916
-35.217
-35.427
-35.548
-35.585
-35.539
-35.415
-35.214
-34.939
-34.593
-34.178
-33.696
-33.151
-32.544
-31.878
-31.157
-30.383
-29.557
-28.684
-27.766
-26.805
-25.805
-24.769
-23.7
-22.6
-21.475
-20.328
-19.163
-17.987
-16.803
-15.618
-14.44
-13.275
-12.13
-11.014
-9.935
-8.901
-7.92
-6.998
-6.145
-5.367
-4.672
-4.069
-3.564
-3.167
-2.884
-2.723
-2.689
-2.79
-3.03
-3.407
-3.921
-4.572
-5.362
-6.298
-7.383
-8.612
-9.981
-11.484
-13.112
-14.852
-16.678
-18.553
-20.442
-22.314
-24.142
-25.911
-27.596
-29.168
-30.592
-31.825
-32.832
-33.599
-34.112
-34.354
-34.318
-34.017
-33.503
-32.864
-32.18
-31.506
-30.866
-30.281
-29.807
-29.522
-29.51
-29.86
-30.613
-31.806
-33.533
-35.798
-38.52
-41.5
-44.31
-46.494
-47.751
-47.749
-46.168
-43.041
-38.52
-33.003
-27.436
-22.592
-18.959
-17.179
-17.557
-19.588
-22.438
-24.71
-24.153
-18.888
-7.283
12.579
41.795
80.18
126.741
179.401
234.989
290.295
341.768
385.234
417.265
435.623
439.042
427.316
401.078
361.663
311.484
253.982
192.591
130.205
69.172
11.588
-40.436
-85.547
-123.49
-154.91
-180.939
-202.557
-220.478
-235.721
-249.812
-263.798
-278.066
-292.533
-306.624
-319.859
-332.031
-342.68
-351.006
-356.502
-358.978
-358.451
-355.285
-349.847
-342.352
-333.15
-322.717
-311.416
-299.555
-287.38
-274.99
-262.451
-249.833
-237.14
-224.375
-211.583
-198.799
-186.091
-173.561
-161.309
-149.478
-138.228
-127.666
-117.861
-108.839
-100.578
-93.06
-86.299
-80.308
-75.104
-70.686
-67.033
-64.127
-61.943
-60.421
-59.458
-58.886
-58.516
-58.204
-57.852
-57.393
-56.798
-56.036
-55.076
-53.909
-52.537
-50.965
-49.203
-47.253
-45.115
-42.817
-40.417
-38.011
-35.71
-33.593
-31.707
-30.082
-28.727
-27.647
-26.836
-26.265
-25.89
-25.673
-25.578
-25.576
-25.645
-25.746
-25.832
-25.846
-25.725
-25.422
-24.9
-24.127
-23.077
-21.727
-20.062
-18.077
-15.773
-13.147
-10.194
-6.904
-3.268
0.717
5.054
9.745
14.793
20.207
25.988
32.13
38.623
45.456
52.611
60.069
67.801
75.766
83.928
92.251
100.704
109.261
117.89
126.56
135.242
143.905
152.528
161.112
169.656
178.167
186.672
195.198
203.784
212.489
221.342
230.365
239.565
248.929
258.443
268.086
277.81
287.565
297.281
306.861
316.198
325.173
333.626
341.411
348.374
354.342
359.19
362.811
365.114
366.046
365.563
363.643
360.299
355.565
349.488
342.155
333.668
324.153
313.787
302.731
291.142
279.195
267.028
254.761
242.512
230.367
218.394
206.66
195.203
184.048
173.223
162.729
152.553
142.671
133.023
123.564
114.265
105.09
96.022
87.057
78.188
69.428
60.801
52.329
44.038
35.959
28.111
20.524
13.231
6.268
-0.322
-6.504
-12.259
-17.568
-22.423
-26.822
-30.766
-34.266
-37.34
-40.008
-42.287
-44.196
-45.751
-46.973
-47.883
-48.505
-48.863
-48.979
-48.874
-48.57
-48.085
-47.439
-46.65
-45.735
-44.707
-43.583
-42.379
-41.11
-39.794
-38.444
-37.075
-35.701
-34.334
-32.987
-31.668
-30.387
-29.15
-27.963
-26.832
-25.76
-24.75
-23.804
-22.923
-22.107
-21.356
-20.668
-20.043
-19.479
-18.973
-18.524
-18.129
-17.787
-17.496
-17.252
-17.055
-16.901
-16.788
-16.714
-16.676
-16.672
-16.7
-16.757
-16.841
-16.949
-17.081
-17.232
-17.402
-17.59
-17.794
-18.012
-18.245
-18.492
-18.753
-19.027
-19.315
-19.618
-19.935
-20.267
-20.615
-20.978
-21.357
-21.752
-22.163
-22.589
-23.03
-23.485
-23.952
-24.431
-24.921
-25.419
-25.924
-26.434
-26.947
-27.462
-27.976
-28.488
-28.997
-29.499
-29.995
-30.482
-30.96
-31.426
-31.88
-32.321
-32.748
-33.159
-33.553
-33.931
-34.29
-34.63
-34.951
-35.252
-35.533
-35.794
-36.033
-36.253
-36.452
-36.631
-36.793
-36.936
-37.063
-37.175
-37.273
-37.36
-37.437
-37.505
-37.566
-37.622
-37.675
-37.726
-37.776
-37.826
-37.877
-37.929
-37.984
-38.041
-38.101
-38.163
-38.228
-38.295
-38.364
-38.434
-38.506
-38.578
-38.65
-38.722
-38.794
-38.863
-38.931
-38.996
-39.057
-39.114
-39.165
-39.211
-39.249
-39.279
-39.3
-39.311
-39.311
-39.3
-39.277
-39.241
-39.193
-39.133
-39.06
-38.976
-38.88
-38.775
-38.662
-38.541
-38.415
-38.285
-38.153
-38.021
-37.89
-37.763
-37.642
-37.528
-37.424
-37.329
-37.247
-37.178
-37.123
-37.085
-37.062
-37.056
-37.068
-37.098
-37.146
-37.212
-37.294
-37.393
-37.507
-37.635
-37.775
-37.924
-38.079
-38.239
-38.398
-38.554
-38.701
-38.836
-38.954
-39.049
-39.116
-39.15
-39.144
-39.093
-38.991
-38.831
-38.609
-38.319
-37.955
-37.512
-36.985
-36.37
-35.664
-34.862
-33.962
-32.96
-31.855
-30.645
-29.33
-27.91
-26.385
-24.759
-23.032
-21.21
-19.297
-17.299
-15.223
-13.074
-10.863
-8.597
-6.288
-3.946
-1.582
0.791
3.159
5.507
7.819
10.078
12.269
14.375
16.379
18.265
20.018
21.624
23.072
24.35
25.445
26.345
27.038
27.513
27.762
27.779
27.557
27.092
26.385
25.441
24.267
22.868
21.245
19.397
17.323
15.029
12.522
9.812
6.919
3.862
0.671
-2.61
-5.943
-9.288
-12.614
-15.893
-19.098
-22.195
-25.142
-27.896
-30.417
-32.671
-34.626
-36.267
-37.606
-38.664
-39.493
-40.158
-40.707
-41.199
-41.707
-42.302
-43.063
-44.066
-45.361
-47.025
-49.195
-51.923
-55.156
-58.698
-62.146
-65.111
-67.31
-68.386
-67.9
-65.619
-61.593
-56.283
-50.722
-45.896
-42.443
-41.006
-42.182
-46.133
-52.421
-59.736
-65.729
-67.952
-64.162
-52.031
-29.414
5.56
52.79
109.397
171.802
236.029
300.345
367.039
435.595
500.783
553.739
579.521
565.51
509.315
413.593
287.3
146.551
3.754
-127.233
-229.783
-298.502
-333.031
-339.55
-333.754
-323.995
-312.719
-299.743
-279.896
-252.466
-221.052
-188.977
-160.214
-137.064
-119.701
-107.808
-100.546
-96.787
-95.341
-95.296
-95.858
-95.898
-94.531
-91.384
-86.358
-79.848
-72.566
-65.006
-57.708
-51.471
-46.833
-44.048
-43.207
-44.064
-46.208
-49.285
-52.873
-56.503
-59.87
-62.785
-65.107
-66.787
-67.801
-68.129
-67.805
-66.901
-65.455
-63.5
-61.088
-58.288
-55.217
-52.025
-48.835
-45.723
-42.749
-39.952
-37.372
-35.058
-33.032
-31.29
-29.82
-28.614
-27.669
-26.985
-26.546
-26.308
-26.222
-26.229
-26.285
-26.36
-26.43
-26.473
-26.472
-26.413
-26.289
-26.104
-25.859
-25.546
-25.159
-24.685
-24.12
-23.463
-22.715
-21.877
-20.948
-19.928
-18.815
-17.61
-16.312
-14.919
-13.426
-11.831
-10.13
-8.324
-6.416
-4.407
-2.3
-0.099
2.191
4.566
7.02
9.549
12.149
14.813
17.538
20.317
23.146
26.018
28.926
31.865
34.827
37.805
40.79
43.776
46.754
49.716
52.655
55.562
58.428
61.247
64.009
66.708
69.333
71.877
74.332
76.689
78.943
81.083
83.105
84.999
86.761
88.383
89.86
91.186
92.355
93.361
94.201
94.87
95.364
95.68
95.816
95.77
95.541
95.129
94.535
93.76
92.805
91.672
90.365
88.887
87.242
85.434
83.47
81.354
79.094
76.696
74.169
71.52
68.757
65.891
62.93
59.883
56.761
53.573
50.331
47.043
43.72
40.373
37.012
33.646
30.285
26.937
23.612
20.317
17.06
13.848
10.689
7.589
4.554
1.59
-1.297
-4.102
-6.82
-9.446
-11.976
-14.407
-16.736
-18.959
-21.074
-23.08
-24.975
-26.757
-28.426
-29.982
-31.423
-32.752
-33.969
-35.075
-36.071
-36.959
-37.741
-38.418
-38.992
-39.464
-39.836
-40.109
-40.283
-40.362
-40.346
-40.238
-40.038
-39.75
-39.375
-38.918
-38.38
-37.766
-37.078
-36.321
-35.499
-34.616
-33.676
-32.686
-31.653
-30.586
-29.493
-28.38
-27.253
-26.124
-25.004
-23.894
-22.793
-21.704
-20.624
-19.566
-18.553
-17.58
-16.645
-15.784
-15.027
-14.4
-13.934
-13.614
-13.4
-13.315
-13.404
-13.551
-13.62
-13.704
-13.801
-13.887
-14.259
-14.11
-12.646
-10.971
-9.401
-9.956
-15.061
-21.969
-28.84
-32.963
-30.611
-25.044
-19.015
-14.394
-14.294
-16.447
-18.556
-20.098
-19.691
-18.178
-16.654
-15.017
-13.48
-12.017
-10.467
-9.026
-7.869
-7.047
-6.638
-6.707
-7.339
-8.659
-10.704
-13.407
-16.554
-19.741
-22.584
-24.788
-26.001
-25.834
-24.14
-21.022
-16.956
-12.932
-9.801
-8.035
-8.114
-10.44
-14.92
-20.884
-26.857
-30.519
-29.789
-22.944
-8.053
16.597
52.064
97.335
149.094
203.872
259.186
315.417
374.048
432.447
484.401
519.928
528.419
505.859
453.404
377.751
290.136
200.825
119.697
53.458
3.296
-33.742
-64.525
-95.49
-130.205
-168.648
-207.21
-243.287
-276.002
-305.443
-333.284
-359.737
-383.034
-401.695
-414.309
-419.772
-418.142
-409.948
-395.683
-376.677
-354.912
-331.815
-308.618
-286.545
-266.34
-248.58
-233.667
-221.144
-209.995
-199.646
-189.743
-180.005
-170.33
-160.423
-150.086
-139.661
-129.794
-120.897
-113.149
-106.538
-100.96
-96.479
-93.13
-90.744
-89.011
-87.638
-86.449
-85.364
-84.323
-83.218
-81.916
-80.309
-78.372
-76.125
-73.581
-70.768
-67.702
-64.403
-60.926
-57.318
-53.61
-49.842
-46.039
-42.228
-38.464
-34.807
-31.321
-28.091
-25.176
-22.607
-20.41
-18.582
-17.107
-15.971
-15.144
-14.587
-14.265
-14.144
-14.19
-14.379
-14.674
-15.029
-15.399
-15.723
-15.952
-16.048
-15.976
-15.712
-15.235
-14.525
-13.567
-12.356
-10.883
-9.137
-7.106
-4.772
-2.12
0.859
4.175
7.83
11.831
16.186
20.905
26.002
31.482
37.343
43.583
50.196
57.169
64.484
72.109
80.002
88.125
96.445
104.933
113.567
122.319
131.153
140.039
148.944
157.849
166.749
175.644
184.534
193.441
202.398
211.453
220.674
230.102
239.753
249.633
259.724
270.009
280.474
291.081
301.775
312.484
323.116
333.567
343.728
353.453
362.567
370.889
378.226
384.419
389.359
392.952
395.129
395.841
395.048
392.748
388.976
383.781
377.229
369.409
360.425
350.426
339.601
328.136
316.22
304.016
291.646
279.226
266.858
254.622
242.587
230.798
219.272
208.029
197.089
186.45
176.104
166.015
156.116
146.357
136.697
127.108
117.583
108.119
98.717
89.393
80.175
71.095
62.189
53.49
45.02
36.808
28.888
21.297
14.082
7.276
0.901
-5.026
-10.498
-15.511
-20.066
-24.172
-27.849
-31.113
-33.984
-36.477
-38.607
-40.39
-41.848
-43.002
-43.874
-44.485
-44.856
-45.006
-44.955
-44.722
-44.327
-43.786
-43.115
-42.331
-41.449
-40.489
-39.467
-38.4
-37.301
-36.188
-35.072
-33.968
-32.886
-31.835
-30.825
-29.862
-28.952
-28.102
-27.316
-26.599
-25.952
-25.379
-24.882
-24.462
-24.12
-23.855
-23.668
-23.557
-23.521
-23.56
-23.67
-23.849
-24.094
-24.402
-24.769
-25.191
-25.664
-26.184
-26.745
-27.343
-27.973
-28.631
-29.311
-30.01
-30.723
-31.446
-32.176
-32.911
-33.645
-34.378
-35.105
-35.826
-36.536
-37.234
-37.917
-38.583
-39.231
-39.857
-40.461
-41.04
-41.592
-42.117
-42.612
-43.077
-43.51
-43.91
-44.277
-44.61
-44.911
-45.177
-45.411
-45.613
-45.783
-45.923
-46.033
-46.115
-46.169
-46.196
-46.199
-46.176
-46.131
-46.063
-45.973
-45.863
-45.734
-45.586
-45.422
-45.242
-45.048
-44.842
-44.624
-44.397
-44.162
-43.922
-43.678
-43.432
-43.185
-42.94
-42.698
-42.461
-42.228
-42.003
-41.785
-41.575
-41.374
-41.182
-41
-40.828
-40.667
-40.517
-40.377
-40.25
-40.134
-40.032
-39.942
-39.866
-39.805
-39.758
-39.727
-39.711
-39.712
-39.728
-39.76
-39.808
-39.871
-39.949
-40.041
-40.146
-40.263
-40.391
-40.53
-40.679
-40.835
-41
-41.171
-41.347
-41.529
-41.714
-41.903
-42.094
-42.287
-42.48
-42.673
-42.864
-43.052
-43.236
-43.414
-43.585
-43.746
-43.897
-44.035
-44.159
-44.268
-44.361
-44.436
-44.492
-44.53
-44.548
-44.546
-44.525
-44.485
-44.425
-44.347
-44.252
-44.14
-44.013
-43.872
-43.717
-43.551
-43.375
-43.188
-42.994
-42.793
-42.586
-42.375
-42.161
-41.945
-41.73
-41.516
-41.306
-41.099
-40.898
-40.704
-40.517
-40.337
-40.165
-40
-39.841
-39.689
-39.541
-39.395
-39.25
-39.102
-38.948
-38.786
-38.61
-38.416
-38.2
-37.956
-37.68
-37.367
-37.013
-36.612
-36.16
-35.652
-35.084
-34.452
-33.753
-32.981
-32.133
-31.208
-30.201
-29.111
-27.938
-26.679
-25.336
-23.909
-22.402
-20.815
-19.153
-17.421
-15.622
-13.765
-11.857
-9.907
-7.925
-5.921
-3.908
-1.9
0.089
2.045
3.952
5.795
7.559
9.229
10.79
12.23
13.537
14.698
15.699
16.528
17.174
17.625
17.872
17.902
17.709
17.285
16.626
15.737
14.618
13.272
11.699
9.897
7.868
5.621
3.166
0.515
-2.315
-5.301
-8.407
-11.584
-14.789
-17.982
-21.131
-24.214
-27.202
-30.062
-32.764
-35.274
-37.567
-39.63
-41.441
-42.988
-44.276
-45.328
-46.211
-47.015
-47.815
-48.676
-49.637
-50.729
-52.005
-53.52
-55.317
-57.439
-59.884
-62.663
-65.855
-69.432
-73.256
-77.087
-80.472
-82.963
-84.273
-84.033
-81.839
-77.628
-71.513
-63.902
-55.77
-47.911
-40.835
-35.272
-31.769
-30.229
-30.274
-30.807
-29.796
-25.65
-16.857
-1.354
22.439
55.551
97.485
145.298
195.536
245.098
293.635
343.089
391.52
434.121
460.402
456.26
417.337
345.343
249.137
142.822
30.988
-82.965
-194.635
-298.436
-379.677
-428.176
-442.36
-427.929
-399.58
-367.89
-337.237
-307.977
-275.972
-240.728
-204.901
-171.554
-144.988
-126.804
-115.975
-111.449
-111.63
-114.751
-119.744
-125.074
-128.596
-129.176
-126.488
-120.504
-111.844
-101.329
-89.523
-77.357
-66.109
-56.481
-48.802
-43.173
-39.293
-36.868
-35.719
-35.521
-35.863
-36.518
-37.349
-38.298
-39.402
-40.615
-41.836
-42.98
-43.993
-44.837
-45.485
-45.917
-46.11
-46.069
-45.821
-45.392
-44.795
-44.033
-43.106
-42.012
-40.777
-39.452
-38.093
-36.78
-35.576
-34.517
-33.628
-32.917
-32.378
-31.998
-31.755
-31.616
-31.557
-31.562
-31.619
-31.722
-31.854
-31.992
-32.101
-32.14
-32.075
-31.881
-31.537
-31.029
-30.346
-29.482
-28.439
-27.226
-25.847
-24.306
-22.601
-20.73
-18.693
-16.492
-14.133
-11.622
-8.964
-6.166
-3.235
-0.179
2.997
6.284
9.677
13.173
16.765
20.445
24.207
28.039
31.932
35.877
39.862
43.877
47.909
51.947
55.98
59.999
63.992
67.949
71.859
75.711
79.494
83.199
86.814
90.328
93.731
97.011
100.159
103.164
106.016
108.705
111.223
113.56
115.709
117.662
119.411
120.95
122.272
123.373
124.246
124.89
125.3
125.476
125.416
125.12
124.59
123.827
122.834
121.613
120.168
118.504
116.627
114.542
112.257
109.779
107.118
104.282
101.282
98.129
94.833
91.407
87.862
84.211
80.467
76.643
72.752
68.808
64.824
60.814
56.792
52.769
48.759
44.774
40.824
36.921
33.075
29.296
25.593
21.973
18.446
15.018
11.696
8.486
5.393
2.422
-0.423
-3.139
-5.722
-8.171
-10.485
-12.662
-14.702
-16.606
-18.374
-20.009
-21.512
-22.886
-24.135
-25.262
-26.272
-27.169
-27.958
-28.642
-29.227
-29.716
-30.114
-30.424
-30.652
-30.8
-30.873
-30.875
-30.809
-30.678
-30.487
-30.239
-29.937
-29.584
-29.184
-28.741
-28.257
-27.736
-27.181
-26.596
-25.984
-25.349
-24.693
-24.02
-23.332
-22.631
-21.92
-21.201
-20.477
-19.75
-19.023
-18.301
-17.588
-16.89
-16.212
-15.559
-14.936
-14.349
-13.801
-13.296
-12.836
-12.424
-12.063
-11.758
-11.513
-11.331
-11.217
-11.172
-11.202
-11.308
-11.492
-11.748
-12.072
-12.464
-12.925
-13.466
-14.09
-14.794
-15.577
-16.434
-17.355
-18.324
-19.314
-20.285
-21.198
-22.018
-22.717
-23.276
-23.67
-23.865
-23.821
-23.497
-22.868
-21.928
-20.673
-19.096
-17.214
-15.076
-12.761
-10.389
-8.059
-5.833
-3.786
-1.992
-0.545
0.433
0.845
0.634
-0.261
-1.895
-4.237
-7.228
-10.669
-14.183
-17.454
-20.179
-21.975
-22.572
-21.921
-20.064
-17.313
-14.272
-11.157
-8.109
-5.747
-4.252
-3.193
-2.085
1.08
8.532
20.331
37.296
58.67
82.934
112.077
146.234
187.454
237.687
292.99
349.836
399.787
434.438
451.343
448.106
428.448
396.893
355.288
307.678
255.106
198.433
139.982
80.81
23.513
-28.859
-74.641
-113.035
-144.584
-170.458
-191.336
-207.767
-220.558
-231.029
-240.695
-250.395
-260.245
-269.974
-279.314
-288.167
-296.37
-303.369
-308.382
-310.936
-310.929
-308.554
-304.128
-297.86
-289.936
-280.693
-270.609
-260.1
-249.454
-238.791
-228.098
-217.351
-206.567
-195.773
-184.971
-174.172
-163.416
-152.762
-142.336
-132.316
-122.829
-113.943
-105.691
-98.037
-90.946
-84.432
-78.515
-73.214
-68.543
-64.484
-61.025
-58.171
-55.895
-54.136
-52.778
-51.641
-50.581
-49.512
-48.377
-47.158
-45.844
-44.4
-42.812
-41.087
-39.23
-37.255
-35.168
-32.954
-30.624
-28.219
-25.809
-23.503
-21.382
-19.486
-17.846
-16.47
-15.361
-14.522
-13.932
-13.55
-13.336
-13.255
-13.281
-13.394
-13.567
-13.753
-13.903
-13.954
-13.86
-13.583
-13.091
-12.353
-11.346
-10.047
-8.447
-6.545
-4.337
-1.813
1.037
4.225
7.755
11.632
15.859
20.442
25.39
30.707
36.386
42.419
48.796
55.498
62.508
69.796
77.323
85.054
92.953
100.99
109.142
117.379
125.67
133.988
142.301
150.589
158.85
167.084
175.297
183.515
191.762
200.079
208.525
217.13
225.915
234.887
244.03
253.331
262.765
272.285
281.838
291.356
300.741
309.889
318.685
326.972
334.605
341.434
347.285
352.033
355.575
357.818
358.714
358.222
356.322
353.031
348.387
342.438
335.272
326.991
317.718
307.624
296.869
285.605
274.006
262.206
250.323
238.471
226.733
215.172
203.851
192.804
182.048
171.609
161.482
151.654
142.098
132.756
123.583
114.548
105.614
96.766
87.998
79.302
70.689
62.184
53.807
45.584
37.547
29.714
22.114
14.782
7.751
1.065
-5.243
-11.152
-16.643
-21.706
-26.337
-30.536
-34.31
-37.675
-40.648
-43.242
-45.474
-47.357
-48.907
-50.145
-51.091
-51.765
-52.188
-52.38
-52.359
-52.144
-51.752
-51.201
-50.506
-49.681
-48.74
-47.698
-46.572
-45.376
-44.125
-42.834
-41.515
-40.182
-38.848
-37.522
-36.214
-34.933
-33.685
-32.478
-31.318
-30.209
-29.155
-28.16
-27.226
-26.355
-25.549
-24.807
-24.13
-23.516
-22.964
-22.472
-22.039
-21.662
-21.339
-21.066
-20.84
-20.659
-20.52
-20.418
-20.352
-20.316
-20.309
-20.327
-20.366
-20.423
-20.496
-20.582
-20.678
-20.783
-20.893
-21.008
-21.126
-21.244
-21.363
-21.48
-21.595
-21.707
-21.816
-21.921
-22.022
-22.121
-22.216
-22.31
-22.402
-22.493
-22.585
-22.677
-22.772
-22.869
-22.969
-23.073
-23.181
-23.295
-23.414
-23.539
-23.67
-23.808
-23.953
-24.104
-24.262
-24.427
-24.598
-24.776
-24.96
-25.15
-25.347
-25.55
-25.759
-25.975
-26.195
-26.421
-26.652
-26.886
-27.123
-27.362
-27.603
-27.844
-28.085
-28.324
-28.56
-28.793
-29.022
-29.245
-29.462
-29.671
-29.872
-30.064
-30.247
-30.418
-30.578
-30.725
-30.858
-30.977
-31.08
-31.167
-31.236
-31.286
-31.317
-31.327
-31.315
-31.282
-31.225
-31.145
-31.042
-30.916
-30.766
-30.593
-30.398
-30.182
-29.945
-29.689
-29.415
-29.125
-28.821
-28.503
-28.174
-27.837
-27.492
-27.143
-26.792
-26.442
-26.097
-25.76
-25.435
-25.127
-24.839
-24.577
-24.345
-24.147
-23.988
-23.871
-23.801
-23.782
-23.817
-23.908
-24.06
-24.274
-24.553
-24.899
-25.313
-25.795
-26.346
-26.966
-27.654
-28.41
-29.233
-30.12
-31.072
-32.086
-33.16
-34.291
-35.475
-36.708
-37.984
-39.298
-40.641
-42.004
-43.379
-44.755
-46.124
-47.476
-48.804
-50.097
-51.348
-52.551
-53.7
-54.787
-55.805
-56.742
-57.591
-58.342
-58.986
-59.515
-59.919
-60.188
-60.315
-60.298
-60.133
-59.817
-59.34
-58.691
-57.862
-56.855
-55.674
-54.326
-52.822
-51.174
-49.408
-47.563
-45.675
-43.777
-41.889
-40.012
-38.153
-36.318
-34.512
-32.75
-31.024
-29.311
-27.595
-25.867
-24.111
-22.314
-20.433
-18.394
-16.141
-13.629
-10.842
-7.806
-4.545
-1.085
2.527
6.235
9.956
13.569
16.984
20.135
22.95
25.368
27.296
28.598
29.168
28.925
27.814
25.832
22.983
19.28
14.775
9.554
3.74
-2.503
-9.03
-15.735
-22.513
-29.265
-35.879
-42.201
-48.096
-53.461
-58.201
-62.247
-65.557
-68.103
-69.893
-70.982
-71.455
-71.416
-70.989
-70.288
-69.419
-68.501
-67.646
-66.949
-66.549
-66.61
-67.219
-68.392
-70
-71.715
-73.235
-74.341
-74.727
-74.048
-72.088
-68.796
-64.569
-60.299
-56.839
-54.818
-54.745
-57.017
-61.78
-68.838
-77.168
-84.842
-89.712
-89.776
-83.167
-68.061
-42.903
-6.376
41.138
96.738
156.992
218.363
279.359
342.024
406.726
469.811
522.424
549.713
539.894
489.761
404.303
296.113
176.653
52.704
-70.158
-186.556
-286.417
-358.413
-397.284
-402.844
-383.715
-350.996
-310.815
-269.909
-230.24
-192.62
-161.661
-136.825
-118.386
-106.971
-99.488
-96.757
-98.974
-104.106
-111.589
-118.809
-123.143
-124.085
-121.287
-115.041
-106.424
-96.347
-85.784
-76.04
-68.027
-62.102
-58.433
-56.916
-57.21
-58.97
-61.709
-64.755
-67.674
-70.271
-72.442
-74.216
-75.598
-76.512
-76.926
-76.868
-76.353
-75.395
-74
-72.143
-69.858
-67.236
-64.4
-61.501
-58.643
-55.878
-53.243
-50.763
-48.469
-46.399
-44.577
-43.003
-41.679
-40.604
-39.781
-39.212
-38.881
-38.751
-38.767
-38.867
-39.009
-39.164
-39.309
-39.429
-39.506
-39.524
-39.477
-39.366
-39.186
-38.93
-38.588
-38.146
-37.596
-36.938
-36.17
-35.295
-34.312
-33.217
-32.011
-30.69
-29.254
-27.698
-26.018
-24.209
-22.267
-20.193
-17.987
-15.653
-13.193
-10.612
-7.916
-5.111
-2.206
0.794
3.881
7.046
10.284
13.585
16.942
20.346
23.788
27.261
30.755
34.26
37.768
41.268
44.752
48.209
51.629
55.002
58.319
61.569
64.741
67.826
70.812
73.689
76.446
79.075
81.566
83.909
86.098
88.124
89.983
91.668
93.174
94.498
95.634
96.581
97.336
97.896
98.259
98.425
98.393
98.163
97.735
97.113
96.297
95.29
94.097
92.72
91.164
89.436
87.542
85.488
83.282
80.934
78.452
75.846
73.128
70.308
67.397
64.406
61.347
58.229
55.064
51.863
48.634
45.389
42.137
38.888
35.65
32.432
29.244
26.094
22.988
19.936
16.944
14.018
11.165
8.392
5.704
3.107
0.605
-1.796
-4.094
-6.284
-8.365
-10.336
-12.194
-13.94
-15.575
-17.099
-18.514
-19.821
-21.021
-22.116
-23.108
-23.997
-24.786
-25.476
-26.069
-26.566
-26.969
-27.28
-27.501
-27.633
-27.679
-27.639
-27.517
-27.313
-27.03
-26.671
-26.239
-25.736
-25.167
-24.535
-23.843
-23.095
-22.293
-21.441
-20.541
-19.597
-18.609
-17.582
-16.518
-15.422
-14.296
-13.146
-11.977
-10.795
-9.609
-8.424
-7.246
-6.084
-4.946
-3.838
-2.768
-1.743
-0.768
0.149
1.001
1.778
2.475
3.084
3.6
4.017
4.329
4.529
4.611
4.576
4.421
4.146
3.743
3.203
2.521
1.7
0.744
-0.336
-1.53
-2.823
-4.191
-5.597
-6.999
-8.356
-9.635
-10.81
-11.857
-12.746
-13.44
-13.899
-14.093
-14.011
-13.652
-13.025
-12.145
-11.032
-9.746
-8.383
-7.05
-5.862
-4.908
-4.252
-3.955
-4.07
-4.668
-5.812
-7.528
-9.832
-12.714
-16.141
-20.104
-24.587
-29.415
-34.336
-39.036
-43.036
-45.894
-47.257
-46.768
-44.16
-39.475
-32.831
-24.366
-14.864
-5.383
3.411
10.935
17.828
26.367
36.994
49.135
62.013
72.924
84.051
100.605
125.807
164.715
216.632
276.554
341.776
405.003
458.527
495.472
507.009
490.377
449.509
392.428
329.13
266.376
205.745
144.896
81.888
17.098
-46.918
-105.601
-156.013
-197.73
-231.201
-257.495
-277.313
-290.965
-299.394
-304.392
-307.817
-310.794
-313.763
-316.76
-319.789
-322.867
-325.781
-327.818
-327.987
-325.75
-321.052
-314.065
-305.129
-294.555
-282.616
-269.803
-256.749
-243.841
-231.255
-219.013
-206.988
-195.128
-183.463
-171.961
-160.597
-149.391
-138.382
-127.703
-117.523
-107.924
-98.944
-90.575
-82.763
-75.512
-68.863
-62.845
-57.499
-52.843
-48.868
-45.585
-42.99
-41.027
-39.602
-38.556
-37.707
-36.936
-36.162
-35.339
-34.45
-33.46
-32.328
-31.042
-29.594
-27.981
-26.209
-24.266
-22.142
-19.867
-17.5
-15.132
-12.872
-10.792
-8.929
-7.311
-5.943
-4.83
-3.968
-3.328
-2.869
-2.559
-2.364
-2.26
-2.226
-2.224
-2.206
-2.113
-1.883
-1.467
-0.827
0.067
1.241
2.714
4.503
6.611
9.037
11.785
14.86
18.271
22.029
26.141
30.61
35.433
40.61
46.139
52.021
58.258
64.847
71.779
79.04
86.617
94.491
102.639
111.028
119.615
128.357
137.213
146.15
155.135
164.135
173.122
182.062
190.924
199.689
208.353
216.919
225.397
233.801
242.147
250.465
258.799
267.176
275.608
284.093
292.619
301.171
309.723
318.233
326.659
334.931
342.957
350.641
357.855
364.46
370.331
375.322
379.291
382.13
383.751
384.092
383.111
380.765
377.04
371.958
365.541
357.846
348.95
338.938
327.96
316.199
303.818
290.991
277.883
264.619
251.318
238.085
225.005
212.167
199.638
187.453
175.661
164.302
153.401
142.988
133.021
123.415
114.113
105.057
96.207
87.554
79.084
70.78
62.65
54.703
46.953
39.432
32.147
25.093
18.269
11.668
5.322
-0.697
-6.345
-11.585
-16.394
-20.768
-24.698
-28.169
-31.19
-33.782
-35.968
-37.776
-39.219
-40.299
-41.023
-41.396
-41.442
-41.201
-40.708
-39.989
-39.073
-37.984
-36.749
-35.402
-33.964
-32.446
-30.862
-29.226
-27.557
-25.88
-24.214
-22.578
-20.988
-19.458
-17.998
-16.622
-15.34
-14.157
-13.08
-12.112
-11.257
-10.521
-9.909
-9.424
-9.065
-8.832
-8.725
-8.741
-8.879
-9.133
-9.498
-9.971
-10.544
-11.213
-11.972
-12.813
-13.73
-14.715
-15.762
-16.861
-18.006
-19.188
-20.4
-21.635
-22.883
-24.139
-25.395
-26.644
-27.881
-29.099
-30.293
-31.459
-32.593
-33.691
-34.751
-35.769
-36.744
-37.675
-38.56
-39.398
-40.189
-40.932
-41.628
-42.278
-42.882
-43.442
-43.957
-44.431
-44.863
-45.257
-45.613
-45.933
-46.219
-46.473
-46.697
-46.892
-47.062
-47.207
-47.33
-47.433
-47.518
-47.587
-47.642
-47.685
-47.716
-47.739
-47.753
-47.759
-47.759
-47.754
-47.744
-47.731
-47.714
-47.696
-47.677
-47.658
-47.639
-47.622
-47.608
-47.597
-47.59
-47.589
-47.594
-47.607
-47.629
-47.66
-47.703
-47.757
-47.823
-47.903
-47.996
-48.104
-48.225
-48.362
-48.513
-48.678
-48.858
-49.052
-49.261
-49.484
-49.721
-49.971
-50.234
-50.508
-50.794
-51.088
-51.391
-51.7
-52.014
-52.331
-52.648
-52.963
-53.275
-53.581
-53.878
-54.164
-54.436
-54.693
-54.932
-55.151
-55.348
-55.522
-55.672
-55.797
-55.896
-55.969
-56.017
-56.039
-56.035
-56.008
-55.957
-55.883
-55.788
-55.674
-55.543
-55.397
-55.239
-55.071
-54.896
-54.719
-54.542
-54.371
-54.207
-54.056
-53.922
-53.809
-53.72
-53.66
-53.633
-53.642
-53.69
-53.779
-53.913
-54.092
-54.318
-54.591
-54.909
-55.274
-55.682
-56.132
-56.62
-57.144
-57.7
-58.283
-58.888
-59.509
-60.141
-60.777
-61.409
-62.03
-62.632
-63.206
-63.742
-64.231
-64.664
-65.031
-65.323
-65.529
-65.64
-65.646
-65.539
-65.311
-64.952
-64.457
-63.818
-63.029
-62.088
-60.989
-59.732
-58.315
-56.739
-55.003
-53.112
-51.07
-48.881
-46.552
-44.09
-41.504
-38.805
-36.003
-33.112
-30.144
-27.115
-24.042
-20.943
-17.837
-14.744
-11.685
-8.679
-5.748
-2.914
-0.196
2.387
4.819
7.081
9.156
11.026
12.673
14.083
15.244
16.142
16.769
17.113
17.171
16.944
16.433
15.64
14.561
13.189
11.523
9.569
7.334
4.832
2.081
-0.899
-4.073
-7.398
-10.831
-14.332
-17.869
-21.414
-24.934
-28.391
-31.736
-34.92
-37.903
-40.656
-43.149
-45.369
-47.326
-49.044
-50.579
-51.999
-53.351
-54.693
-56.083
-57.58
-59.256
-61.178
-63.405
-66.012
-69.105
-72.715
-76.777
-81.11
-85.376
-89.239
-92.428
-94.623
-95.426
-94.611
-92.246
-88.677
-84.615
-80.757
-77.457
-75.054
-74.035
-74.539
-76.151
-77.963
-78.389
-75.67
-68.488
-55.532
-35.327
-6.721
30.772
76.864
130.449
188.531
246.829
301.466
348.119
385.735
417.329
442.299
458.578
460.231
434.302
375.405
282.845
159.641
21.978
-115.294
-236.64
-323.385
-370.941
-381.65
-364.157
-336.226
-307.61
-281.547
-258.346
-232.904
-204.437
-176.088
-150.666
-131.824
-120.746
-116.058
-116.017
-118.522
-121.5
-123.456
-123.427
-120.647
-114.888
-106.446
-95.887
-84.087
-72.202
-61.306
-52.074
-44.972
-40.162
-37.528
-36.912
-38.014
-40.354
-43.413
-46.779
-50.158
-53.37
-56.336
-58.967
-61.162
-62.853
-64.01
-64.621
-64.672
-64.155
-63.061
-61.401
-59.23
-56.629
-53.701
-50.555
-47.292
-44.011
-40.791
-37.697
-34.787
-32.112
-29.704
-27.581
-25.753
-24.214
-22.959
-21.981
-21.257
-20.761
-20.455
-20.298
-20.25
-20.265
-20.308
-20.351
-20.371
-20.349
-20.27
-20.124
-19.903
-19.605
-19.227
-18.761
-18.202
-17.544
-16.782
-15.915
-14.942
-13.863
-12.676
-11.381
-9.973
-8.452
-6.815
-5.058
-3.179
-1.175
0.957
3.214
5.595
8.095
10.711
13.437
16.267
19.195
22.212
25.31
28.484
31.724
35.022
38.371
41.76
45.181
48.623
52.076
55.531
58.976
62.4
65.793
69.144
72.442
75.675
78.833
81.904
84.877
87.742
90.486
93.101
95.574
97.898
100.062
102.059
103.88
105.52
106.971
108.228
109.286
110.142
110.792
111.232
111.461
111.477
111.279
110.868
110.244
109.409
108.365
107.115
105.664
104.017
102.179
100.156
97.956
95.587
93.056
90.375
87.552
84.598
81.524
78.343
75.064
71.701
68.265
64.768
61.222
57.637
54.027
50.401
46.77
43.145
39.537
35.954
32.407
28.904
25.455
22.065
18.744
15.498
12.334
9.257
6.271
3.383
0.596
-2.087
-4.663
-7.131
-9.488
-11.735
-13.871
-15.898
-17.816
-19.628
-21.335
-22.94
-24.446
-25.855
-27.17
-28.394
-29.529
-30.578
-31.542
-32.425
-33.229
-33.956
-34.608
-35.188
-35.697
-36.137
-36.511
-36.819
-37.064
-37.246
-37.369
-37.432
-37.439
-37.39
-37.287
-37.131
-36.924
-36.665
-36.356
-35.999
-35.592
-35.137
-34.634
-34.085
-33.49
-32.851
-32.17
-31.451
-30.698
-29.917
-29.113
-28.294
-27.465
-26.633
-25.806
-24.988
-24.186
-23.403
-22.645
-21.917
-21.226
-20.58
-19.984
-19.445
-18.968
-18.559
-18.224
-17.965
-17.782
-17.674
-17.642
-17.691
-17.836
-18.085
-18.441
-18.902
-19.467
-20.123
-20.856
-21.639
-22.432
-23.192
-23.883
-24.469
-24.931
-25.244
-25.374
-25.28
-24.916
-24.242
-23.245
-21.921
-20.263
-18.293
-16.06
-13.64
-11.159
-8.733
-6.443
-4.377
-2.625
-1.275
-0.447
-0.256
-0.758
-2.038
-4.18
-7.154
-10.883
-15.186
-19.68
-24.016
-27.97
-31.193
-33.297
-34.145
-33.687
-32.114
-30.003
-27.65
-24.857
-21.604
-18.284
-14.859
-10.948
-5.942
2.541
16.267
34.276
56.863
83.044
111.05
144.073
182.245
224.596
272.592
321.786
370.321
418.352
460.929
495.447
516.304
514.113
485.397
430.189
353.149
266.715
182.272
106.345
43.254
-9.93
-59.606
-108.103
-157.796
-207.711
-252.574
-289.946
-318.268
-336.945
-348.278
-354.259
-356.008
-354.831
-351.721
-347.247
-342.132
-337.03
-332.118
-327.268
-322.291
-316.72
-309.931
-301.769
-292.29
-281.611
-270.1
-258.064
-245.716
-233.386
-221.416
-209.947
-199.011
-188.548
-178.395
-168.473
-158.76
-149.222
-139.873
-130.725
-121.79
-113.108
-104.7
-96.591
-88.822
-81.427
-74.45
-67.95
-61.981
-56.61
-51.903
-47.881
-44.536
-41.832
-39.671
-37.966
-36.627
-35.541
-34.64
-33.863
-33.148
-32.461
-31.774
-31.048
-30.253
-29.362
-28.34
-27.179
-25.884
-24.466
-22.976
-21.466
-19.996
-18.642
-17.454
-16.457
-15.67
-15.087
-14.691
-14.471
-14.4
-14.447
-14.585
-14.786
-15.017
-15.251
-15.451
-15.57
-15.561
-15.369
-14.946
-14.259
-13.278
-11.983
-10.359
-8.39
-6.068
-3.39
-0.349
3.061
6.844
11.013
15.575
20.536
25.904
31.677
37.848
44.409
51.346
58.639
66.266
74.192
82.375
90.781
99.373
108.116
116.986
125.945
134.96
144.003
153.04
162.049
171.025
179.967
188.878
197.786
206.714
215.7
224.801
234.049
243.462
253.049
262.796
272.69
282.707
292.796
302.902
312.954
322.847
332.474
341.71
350.392
358.373
365.496
371.585
376.512
380.167
382.456
383.322
382.723
380.635
377.074
372.08
365.705
358.043
349.204
339.32
328.575
317.135
305.165
292.843
280.315
267.707
255.143
242.716
230.501
218.57
206.964
195.709
184.835
174.342
164.216
154.431
144.928
135.661
126.602
117.713
108.978
100.392
91.945
83.647
75.521
67.585
59.864
52.384
45.163
38.23
31.614
25.349
19.476
14.025
9.011
4.448
0.34
-3.318
-6.53
-9.314
-11.694
-13.693
-15.334
-16.643
-17.64
-18.349
-18.8
-19.02
-19.037
-18.879
-18.571
-18.137
-17.6
-16.981
-16.301
-15.578
-14.827
-14.065
-13.308
-12.571
-11.872
-11.223
-10.638
-10.128
-9.705
-9.377
-9.15
-9.031
-9.021
-9.124
-9.34
-9.667
-10.105
-10.649
-11.296
-12.04
-12.876
-13.797
-14.795
-15.863
-16.993
-18.177
-19.406
-20.673
-21.97
-23.288
-24.62
-25.959
-27.296
-28.626
-29.942
-31.236
-32.503
-33.736
-34.931
-36.082
-37.186
-38.237
-39.233
-40.171
-41.05
-41.868
-42.624
-43.318
-43.95
-44.522
-45.034
-45.488
-45.885
-46.228
-46.519
-46.761
-46.956
-47.108
-47.219
-47.293
-47.331
-47.337
-47.314
-47.263
-47.188
-47.09
-46.973
-46.837
-46.686
-46.521
-46.344
-46.156
-45.959
-45.755
-45.545
-45.329
-45.108
-44.884
-44.656
-44.426
-44.194
-43.96
-43.725
-43.49
-43.254
-43.019
-42.784
-42.55
-42.318
-42.088
-41.86
-41.636
-41.415
-41.197
-40.985
-40.777
-40.575
-40.38
-40.191
-40.01
-39.837
-39.672
-39.516
-39.371
-39.235
-39.11
-38.997
-38.896
-38.808
-38.732
-38.671
-38.624
-38.591
-38.572
-38.567
-38.576
-38.598
-38.632
-38.678
-38.735
-38.8
-38.874
-38.955
-39.041
-39.13
-39.222
-39.315
-39.407
-39.497
-39.583
-39.664
-39.739
-39.807
-39.866
-39.917
-39.956
-39.985
-40.002
-40.006
-39.996
-39.973
-39.934
-39.88
-39.811
-39.726
-39.627
-39.512
-39.384
-39.243
-39.091
-38.929
-38.76
-38.584
-38.404
-38.223
-38.043
-37.866
-37.694
-37.53
-37.377
-37.237
-37.112
-37.004
-36.914
-36.844
-36.795
-36.768
-36.764
-36.784
-36.827
-36.895
-36.987
-37.102
-37.241
-37.402
-37.585
-37.786
-38.005
-38.238
-38.482
-38.733
-38.988
-39.241
-39.488
-39.724
-39.943
-40.139
-40.306
-40.438
-40.528
-40.57
-40.556
-40.481
-40.337
-40.12
-39.822
-39.439
-38.966
-38.397
-37.729
-36.958
-36.08
-35.093
-33.993
-32.779
-31.449
-30.003
-28.441
-26.764
-24.976
-23.078
-21.075
-18.973
-16.778
-14.497
-12.139
-9.711
-7.224
-4.69
-2.119
0.476
3.081
5.681
8.26
10.8
13.285
15.699
18.024
20.243
22.341
24.304
26.118
27.77
29.249
30.539
31.626
32.499
33.15
33.569
33.75
33.688
33.379
32.826
32.033
31.005
29.745
28.25
26.512
24.531
22.316
19.877
17.228
14.383
11.359
8.184
4.898
1.538
-1.86
-5.272
-8.678
-12.046
-15.336
-18.495
-21.463
-24.199
-26.675
-28.874
-30.783
-32.399
-33.722
-34.776
-35.624
-36.337
-36.986
-37.643
-38.374
-39.243
-40.353
-41.876
-43.924
-46.509
-49.537
-52.743
-55.873
-58.779
-61.243
-62.949
-63.71
-63.444
-62.359
-61.208
-60.663
-61.077
-62.828
-66.076
-70.746
-76.8
-83.616
-89.614
-93.221
-93.034
-87.573
-75.839
-56.82
-29.253
7.236
52.105
104.444
162.573
224.423
287.114
345.884
396.69
436.527
463.808
479.637
482.201
467.397
430.971
367.888
277.974
165.511
38.263
-92.077
-212.043
-307.543
-370.446
-400.159
-403.701
-394.955
-383.347
-372.296
-361.294
-345.412
-323.22
-297.133
-269.42
-242.511
-217.102
-192.498
-168.541
-145.818
-124.987
-106.258
-89.926
-76.479
-66.366
-59.911
-56.88
-56.099
-56.274
-56.734
-57.005
-56.736
-55.733
-53.782
-50.965
-47.928
-45.454
-43.92
-43.419
-43.84
-44.934
-46.539
-48.47
-50.367
-51.823
-52.59
-52.582
-51.835
-50.472
-48.58
-46.222
-43.495
-40.52
-37.416
-34.293
-31.241
-28.344
-25.676
-23.311
-21.308
-19.703
-18.515
-17.744
-17.374
-17.38
-17.735
-18.405
-19.359
-20.571
-22.005
-23.619
-25.37
-27.202
-29.072
-30.944
-32.783
-34.563
-36.261
-37.857
-39.34
-40.705
-41.946
-43.053
-44.017
-44.824
-45.465
-45.934
-46.224
-46.332
-46.255
-45.987
-45.525
-44.867
-44.011
-42.956
-41.7
-40.242
-38.58
-36.718
-34.66
-32.412
-29.979
-27.369
-24.589
-21.65
-18.561
-15.333
-11.975
-8.499
-4.917
-1.24
2.519
6.347
10.231
14.157
18.112
22.08
26.048
30.002
33.926
37.807
41.63
45.383
49.051
52.623
56.084
59.425
62.633
65.698
68.61
71.36
73.938
76.336
78.546
80.562
82.377
83.986
85.384
86.566
87.53
88.271
88.789
89.082
89.149
88.991
88.609
88.006
87.185
86.151
84.908
83.462
81.822
79.994
77.986
75.808
73.469
70.978
68.345
65.581
62.696
59.7
56.605
53.421
50.159
46.831
43.448
40.019
36.558
33.073
29.577
26.079
22.589
19.119
15.677
12.273
8.916
5.615
2.378
-0.788
-3.877
-6.881
-9.797
-12.618
-15.342
-17.965
-20.483
-22.896
-25.2
-27.395
-29.478
-31.449
-33.308
-35.053
-36.685
-38.203
-39.607
-40.897
-42.073
-43.137
-44.088
-44.927
-45.655
-46.273
-46.782
-47.185
-47.482
-47.675
-47.767
-47.759
-47.654
-47.455
-47.163
-46.78
-46.309
-45.751
-45.11
-44.388
-43.587
-42.709
-41.757
-40.734
-39.644
-38.491
-37.278
-36.012
-34.698
-33.344
-31.956
-30.544
-29.115
-27.678
-26.243
-24.816
-23.405
-22.017
-20.659
-19.338
-18.063
-16.842
-15.683
-14.594
-13.582
-12.657
-11.824
-11.09
-10.454
-9.918
-9.483
-9.157
-8.95
-8.87
-8.918
-9.093
-9.393
-9.81
-10.332
-10.934
-11.572
-12.211
-12.815
-13.354
-13.81
-14.161
-14.374
-14.415
-14.245
-13.827
-13.155
-12.218
-11.007
-9.532
-7.826
-5.963
-4.059
-2.223
-0.538
0.938
2.146
3.014
3.451
3.362
2.663
1.311
-0.737
-3.539
-7.072
-11.226
-15.76
-20.254
-24.304
-27.559
-29.626
-30.2
-29.205
-26.73
-23.147
-19.066
-14.87
-10.91
-7.715
-5.463
-3.851
-2.13
1.08
7.217
17.184
32.213
53.982
83.4
120.742
164.378
210.473
257.058
303.176
348.377
393.899
435.651
465.879
478.035
464.433
424.957
367.573
299.837
230.904
165.65
102.452
41.037
-18.163
-73.537
-121.733
-161.503
-193.568
-219.333
-240.389
-257.94
-273.182
-287.281
-300.94
-314.43
-327.46
-339.311
-349.47
-357.448
-362.472
-364.011
-361.842
-355.911
-346.551
-334.329
-319.71
-303.245
-285.618
-267.341
-248.835
-230.478
-212.442
-194.833
-177.794
-161.404
-145.745
-130.969
-117.19
-104.514
-93.06
-82.88
-73.985
-66.368
-59.957
-54.653
-50.357
-46.946
-44.334
-42.478
-41.312
-40.762
-40.738
-41.109
-41.749
-42.545
-43.362
-44.057
-44.53
-44.706
-44.555
-44.093
-43.337
-42.305
-41.014
-39.471
-37.694
-35.713
-33.561
-31.279
-28.921
-26.542
-24.218
-22.046
-20.09
-18.388
-16.955
-15.777
-14.836
-14.114
-13.582
-13.199
-12.928
-12.731
-12.573
-12.429
-12.259
-12.022
-11.666
-11.135
-10.383
-9.379
-8.094
-6.509
-4.607
-2.373
0.199
3.108
6.358
9.955
13.904
18.211
22.88
27.908
33.297
39.051
45.171
51.647
58.469
65.621
73.085
80.844
88.867
97.116
105.549
114.125
122.815
131.608
140.484
149.424
158.405
167.402
176.402
185.418
194.45
203.493
212.547
221.607
230.694
239.861
249.139
258.549
268.081
277.69
287.332
296.966
306.531
315.957
325.144
333.958
342.289
350.056
357.17
363.551
369.088
373.634
377.074
379.325
380.332
380.088
378.584
375.814
371.815
366.653
360.429
353.285
345.333
336.65
327.325
317.44
307.103
296.456
285.609
274.645
263.636
252.631
241.683
230.85
220.152
209.581
199.112
188.695
178.306
167.952
157.636
147.365
137.139
126.944
116.788
106.697
96.693
86.801
77.042
67.43
57.995
48.786
39.85
31.242
23.002
15.154
7.718
0.714
-5.846
-11.95
-17.598
-22.8
-27.563
-31.894
-35.799
-39.284
-42.36
-45.048
-47.366
-49.335
-50.974
-52.303
-53.339
-54.105
-54.619
-54.899
-54.962
-54.823
-54.5
-54.012
-53.377
-52.614
-51.742
-50.778
-49.74
-48.645
-47.509
-46.347
-45.172
-43.998
-42.834
-41.692
-40.581
-39.509
-38.485
-37.513
-36.6
-35.75
-34.967
-34.254
-33.614
-33.046
-32.553
-32.134
-31.787
-31.513
-31.308
-31.171
-31.1
-31.091
-31.141
-31.246
-31.403
-31.608
-31.856
-32.144
-32.467
-32.82
-33.201
-33.604
-34.027
-34.465
-34.916
-35.376
-35.843
-36.313
-36.785
-37.256
-37.723
-38.185
-38.638
-39.082
-39.514
-39.934
-40.34
-40.731
-41.106
-41.465
-41.809
-42.136
-42.446
-42.741
-43.021
-43.286
-43.536
-43.773
-43.998
-44.21
-44.41
-44.6
-44.78
-44.949
-45.11
-45.261
-45.404
-45.539
-45.665
-45.785
-45.897
-46.003
-46.103
-46.199
-46.29
-46.379
-46.465
-46.549
-46.632
-46.715
-46.798
-46.882
-46.967
-47.052
-47.138
-47.225
-47.312
-47.398
-47.483
-47.566
-47.646
-47.723
-47.796
-47.866
-47.931
-47.991
-48.048
-48.1
-48.149
-48.194
-48.235
-48.273
-48.308
-48.34
-48.369
-48.396
-48.42
-48.442
-48.461
-48.478
-48.492
-48.503
-48.51
-48.515
-48.516
-48.514
-48.511
-48.506
-48.502
-48.499
-48.499
-48.504
-48.514
-48.531
-48.555
-48.586
-48.624
-48.669
-48.721
-48.779
-48.842
-48.91
-48.981
-49.055
-49.129
-49.201
-49.27
-49.332
-49.386
-49.428
-49.457
-49.47
-49.467
-49.445
-49.404
-49.341
-49.255
-49.142
-49.001
-48.826
-48.614
-48.362
-48.065
-47.719
-47.322
-46.87
-46.363
-45.799
-45.178
-44.499
-43.764
-42.971
-42.121
-41.213
-40.247
-39.223
-38.143
-37.007
-35.818
-34.58
-33.297
-31.977
-30.626
-29.249
-27.849
-26.43
-24.993
-23.54
-22.075
-20.596
-19.109
-17.618
-16.135
-14.678
-13.262
-11.891
-10.566
-9.279
-8.014
-6.76
-5.503
-4.22
-2.898
-1.529
-0.12
1.302
2.709
4.088
5.441
6.788
8.142
9.492
10.821
12.105
13.301
14.371
15.258
15.869
16.135
16.025
15.54
14.745
13.718
12.508
11.154
9.677
8.106
6.512
4.957
3.49
2.18
1.099
0.355
0.125
0.544
1.681
3.547
6.065
9.128
12.661
16.58
20.788
25.178
29.597
33.921
38.07
41.951
45.462
48.453
50.704
52.042
52.371
51.645
49.897
47.183
43.533
39.017
33.75
27.861
21.519
14.857
7.953
0.906
-6.165
-13.113
-19.741
-25.895
-31.487
-36.442
-40.72
-44.289
-47.098
-49.146
-50.493
-51.209
-51.394
-51.15
-50.544
-49.677
-48.691
-47.715
-46.905
-46.402
-46.296
-46.689
-47.677
-49.332
-51.756
-55.038
-59.151
-63.967
-69.253
-74.638
-79.788
-84.418
-88.181
-90.683
-91.66
-91.088
-89.238
-86.683
-83.939
-81.241
-78.648
-76.184
-73.948
-71.855
-69.186
-64.83
-56.743
-42.3
-21.015
6.7
39.117
72.087
105.697
142.623
185.514
239.44
303.794
373.198
441.984
500.653
540.908
555.935
539.281
489.703
410.292
307.013
187.089
57.888
-73.06
-195.156
-294.456
-362.023
-394.738
-397.828
-384.979
-365.139
-342.521
-318.077
-287.584
-250.584
-210.543
-170.731
-135.688
-108.56
-89.503
-77.718
-72.03
-70.944
-73.042
-77.265
-82.152
-85.717
-86.904
-85.483
-81.53
-75.7
-68.752
-61.126
-53.587
-47.287
-42.831
-40.443
-40.132
-41.447
-43.937
-47.327
-51.183
-54.991
-58.453
-61.342
-63.519
-65.032
-65.9
-66.112
-65.719
-64.769
-63.296
-61.362
-59.026
-56.354
-53.447
-50.409
-47.344
-44.34
-41.459
-38.755
-36.281
-34.067
-32.13
-30.475
-29.096
-27.99
-27.157
-26.58
-26.234
-26.088
-26.099
-26.225
-26.42
-26.643
-26.865
-27.062
-27.213
-27.308
-27.337
-27.294
-27.179
-26.988
-26.715
-26.354
-25.901
-25.351
-24.703
-23.957
-23.114
-22.174
-21.137
-20.002
-18.766
-17.426
-15.98
-14.425
-12.755
-10.97
-9.068
-7.052
-4.923
-2.687
-0.346
2.095
4.631
7.255
9.962
12.747
15.603
18.525
21.507
24.541
27.621
30.739
33.889
37.063
40.254
43.453
46.653
49.846
53.025
56.18
59.303
62.387
65.421
68.397
71.305
74.138
76.885
79.538
82.09
84.531
86.855
89.054
91.122
93.052
94.838
96.475
97.958
99.28
100.439
101.43
102.25
102.894
103.362
103.65
103.756
103.68
103.419
102.975
102.346
101.534
100.539
99.364
98.011
96.484
94.786
92.923
90.898
88.719
86.39
83.918
81.31
78.572
75.711
72.736
69.654
66.472
63.199
59.843
56.412
52.913
49.355
45.745
42.092
38.402
34.684
30.946
27.196
23.442
19.692
15.955
12.238
8.548
4.894
1.283
-2.279
-5.784
-9.227
-12.6
-15.899
-19.118
-22.249
-25.289
-28.232
-31.073
-33.807
-36.43
-38.938
-41.328
-43.596
-45.738
-47.752
-49.635
-51.382
-52.992
-54.461
-55.789
-56.972
-58.009
-58.9
-59.645
-60.245
-60.7
-61.011
-61.179
-61.207
-61.097
-60.85
-60.47
-59.961
-59.327
-58.572
-57.702
-56.724
-55.645
-54.473
-53.216
-51.882
-50.48
-49.02
-47.511
-45.962
-44.384
-42.784
-41.173
-39.56
-37.956
-36.373
-34.82
-33.307
-31.844
-30.441
-29.11
-27.859
-26.699
-25.633
-24.667
-23.807
-23.06
-22.438
-21.948
-21.591
-21.365
-21.264
-21.281
-21.407
-21.623
-21.896
-22.19
-22.466
-22.698
-22.865
-22.949
-22.927
-22.765
-22.423
-21.875
-21.106
-20.119
-18.924
-17.526
-15.936
-14.21
-12.45
-10.774
-9.294
-8.079
-7.159
-6.577
-6.396
-6.655
-7.406
-8.701
-10.557
-12.993
-16.063
-19.767
-24.029
-28.821
-33.922
-38.679
-42.555
-45.167
-45.872
-45.347
-44.302
-41.537
-37.384
-30.686
-19.698
-8.422
1.441
7.897
6.527
1.514
-4.416
-9.397
-5.243
9.627
37.096
80.458
133.927
193.613
255.46
312.248
362.393
403.551
431.962
446.825
446.394
429.883
399.227
356.712
305.388
249.343
192.174
136.344
83.596
34.618
-10.874
-53.421
-93.944
-133.794
-174.079
-215.118
-256.637
-297.547
-336.161
-370.875
-400.057
-422.255
-436.527
-442.543
-440.573
-431.663
-417.398
-399.306
-378.926
-357.528
-336.04
-315.207
-295.378
-276.403
-257.864
-239.398
-220.835
-202.389
-184.302
-166.636
-149.754
-134.241
-120.747
-109.976
-102.007
-96.187
-92.044
-89.368
-87.706
-86.554
-85.236
-82.751
-78.897
-74.333
-69.473
-64.539
-59.758
-55.162
-51.019
-47.989
-46.155
-44.996
-44.15
-43.315
-42.343
-41.382
-40.429
-39.258
-37.86
-36.426
-35.083
-33.968
-33.121
-32.438
-31.885
-31.488
-31.243
-31.132
-31.146
-31.251
-31.404
-31.564
-31.656
-31.607
-31.365
-30.904
-30.222
-29.34
-28.306
-27.161
-25.933
-24.65
-23.313
-21.915
-20.437
-18.864
-17.191
-15.442
-13.662
-11.882
-10.127
-8.397
-6.667
-4.899
-3.028
-0.991
1.268
3.797
6.631
9.788
13.28
17.118
21.309
25.876
30.854
36.27
42.14
48.467
55.238
62.424
69.981
77.856
85.984
94.309
102.788
111.385
120.076
128.835
137.629
146.431
155.206
163.929
172.59
181.184
189.711
198.192
206.665
215.175
223.793
232.562
241.499
250.612
259.886
269.305
278.856
288.502
298.187
307.844
317.386
326.711
335.716
344.261
352.174
359.283
365.404
370.386
374.125
376.529
377.532
377.085
375.15
371.725
366.846
360.559
352.932
344.055
334.032
323.015
311.196
298.759
285.892
272.757
259.477
246.169
232.94
219.874
207.043
194.496
182.257
170.352
158.803
147.613
136.775
126.254
115.984
105.916
96.01
86.239
76.595
67.076
57.679
48.419
39.323
30.418
21.739
13.316
5.166
-2.681
-10.196
-17.339
-24.066
-30.343
-36.149
-41.468
-46.29
-50.615
-54.44
-57.777
-60.645
-63.06
-65.041
-66.606
-67.769
-68.548
-68.965
-69.043
-68.806
-68.278
-67.48
-66.433
-65.16
-63.681
-62.017
-60.187
-58.207
-56.096
-53.874
-51.559
-49.172
-46.73
-44.252
-41.754
-39.255
-36.77
-34.314
-31.899
-29.54
-27.245
-25.027
-22.896
-20.859
-18.924
-17.098
-15.387
-13.795
-12.326
-10.982
-9.764
-8.674
-7.712
-6.876
-6.166
-5.579
-5.114
-4.766
-4.531
-4.407
-4.387
-4.467
-4.641
-4.903
-5.246
-5.665
-6.153
-6.703
-7.308
-7.961
-8.657
-9.387
-10.147
-10.929
-11.727
-12.535
-13.347
-14.158
-14.962
-15.755
-16.533
-17.291
-18.026
-18.736
-19.417
-20.067
-20.685
-21.269
-21.817
-22.33
-22.806
-23.246
-23.649
-24.018
-24.352
-24.653
-24.923
-25.164
-25.377
-25.566
-25.731
-25.875
-26.002
-26.114
-26.214
-26.304
-26.388
-26.468
-26.547
-26.628
-26.713
-26.804
-26.902
-27.01
-27.129
-27.26
-27.404
-27.561
-27.733
-27.919
-28.12
-28.335
-28.563
-28.804
-29.056
-29.318
-29.587
-29.863
-30.142
-30.421
-30.7
-30.973
-31.24
-31.495
-31.737
-31.962
-32.166
-32.347
-32.501
-32.626
-32.719
-32.777
-32.798
-32.781
-32.724
-32.625
-32.484
-32.3
-32.073
-31.802
-31.488
-31.131
-30.732
-30.293
-29.815
-29.3
-28.752
-28.172
-27.565
-26.934
-26.284
-25.618
-24.941
-24.259
-23.577
-22.9
-22.234
-21.585
-20.96
-20.364
-19.804
-19.285
-18.814
-18.394
-18.033
-17.735
-17.504
-17.345
-17.262
-17.259
-17.34
-17.507
-17.764
-18.112
-18.554
-19.089
-19.72
-20.446
-21.267
-22.181
-23.188
-24.284
-25.468
-26.735
-28.084
-29.508
-31.003
-32.563
-34.183
-35.854
-37.571
-39.325
-41.108
-42.912
-44.729
-46.549
-48.364
-50.165
-51.941
-53.683
-55.381
-57.025
-58.605
-60.111
-61.532
-62.859
-64.083
-65.194
-66.183
-67.042
-67.762
-68.336
-68.756
-69.015
-69.106
-69.023
-68.759
-68.311
-67.675
-66.846
-65.824
-64.606
-63.192
-61.583
-59.779
-57.784
-55.599
-53.229
-50.679
-47.956
-45.066
-42.018
-38.823
-35.49
-32.034
-28.466
-24.801
-21.053
-17.237
-13.37
-9.469
-5.552
-1.634
2.264
6.125
9.927
13.648
17.267
20.764
24.116
27.303
30.303
33.098
35.671
38.006
40.092
41.913
43.457
44.709
45.659
46.299
46.621
46.62
46.294
45.644
44.673
43.394
41.818
39.952
37.803
35.371
32.66
29.681
26.45
22.984
19.308
15.446
11.435
7.322
3.153
-1.035
-5.205
-9.332
-13.384
-17.32
-21.096
-24.661
-27.963
-30.968
-33.651
-36.004
-38.032
-39.759
-41.211
-42.438
-43.495
-44.436
-45.329
-46.234
-47.211
-48.315
-49.623
-51.277
-53.358
-55.832
-58.531
-61.099
-63.168
-64.485
-64.763
-63.603
-60.801
-56.443
-50.974
-45.452
-40.931
-38.049
-37.385
-39.433
-44.248
-51.397
-59.688
-66.731
-69.984
-67.49
-57.212
-37.327
-6.549
36.082
89.175
148.488
209.999
269.722
326.615
383.323
438.149
487.079
521.502
526.184
493.949
422.834
316.237
190.628
59.966
-62.766
-162.577
-236.297
-284.158
-309.363
-322.655
-329.114
-329.878
-324.872
-310.275
-285.921
-255.413
-222.583
-191.838
-165.887
-145.496
-131.195
-122.888
-119.887
-121.062
-124.928
-130.026
-134.983
-138.776
-140.549
-139.755
-136.425
-131.054
-124.445
-117.54
-111.276
-106.249
-102.861
-101.349
-101.636
-103.496
-106.53
-110.17
-113.863
-117.271
-120.213
-122.599
-124.415
-125.602
-126.099
-125.927
-125.139
-123.778
-121.866
-119.403
-116.405
-112.947
-109.163
-105.209
-101.203
-97.213
-93.277
-89.424
-85.69
-82.117
-78.738
-75.555
-72.571
-69.792
-67.23
-64.898
-62.793
-60.886
-59.133
-57.48
-55.891
-54.342
-52.821
-51.315
-49.815
-48.313
-46.806
-45.302
-43.802
-42.3
-40.788
-39.255
-37.692
-36.097
-34.472
-32.816
-31.128
-29.406
-27.646
-25.847
-24.004
-22.113
-20.166
-18.155
-16.073
-13.917
-11.684
-9.372
-6.98
-4.508
-1.954
0.678
3.389
6.178
9.042
11.981
14.993
18.074
21.22
24.427
27.69
31.002
34.356
37.743
41.155
44.583
48.018
51.45
54.868
58.264
61.626
64.945
68.209
71.41
74.535
77.574
80.517
83.354
86.074
88.669
91.129
93.445
95.611
97.617
99.457
101.124
102.61
103.911
105.019
105.932
106.645
107.154
107.46
107.56
107.455
107.147
106.638
105.931
105.029
103.937
102.66
101.205
99.576
97.782
95.83
93.728
91.484
89.107
86.608
83.994
81.276
78.464
75.567
72.596
69.561
66.472
63.339
60.174
56.986
53.787
50.586
47.393
44.218
41.069
37.955
34.884
31.864
28.9
26
23.169
20.413
17.736
15.143
12.639
10.228
7.911
5.693
3.575
1.561
-0.349
-2.153
-3.85
-5.439
-6.919
-8.289
-9.549
-10.7
-11.742
-12.675
-13.501
-14.22
-14.836
-15.349
-15.762
-16.077
-16.297
-16.423
-16.458
-16.403
-16.263
-16.038
-15.731
-15.346
-14.884
-14.35
-13.746
-13.074
-12.339
-11.544
-10.692
-9.788
-8.834
-7.836
-6.798
-5.726
-4.624
-3.501
-2.361
-1.214
-0.067
1.073
2.197
3.298
4.368
5.399
6.384
7.316
8.19
8.997
9.731
10.384
10.948
11.417
11.784
12.043
12.186
12.207
12.101
11.867
11.504
11.011
10.383
9.613
8.698
7.642
6.452
5.136
3.704
2.17
0.557
-1.098
-2.757
-4.384
-5.95
-7.434
-8.813
-10.06
-11.141
-12.018
-12.668
-13.074
-13.235
-13.149
-12.816
-12.251
-11.5
-10.645
-9.783
-9.002
-8.365
-7.921
-7.707
-7.779
-8.214
-9.077
-10.411
-12.249
-14.577
-17.416
-20.824
-24.736
-28.966
-33.19
-36.966
-39.91
-41.722
-42.021
-40.482
-37.032
-31.788
-25.269
-18.159
-10.955
-4.426
0.706
4.305
6.495
8.782
13.233
20.423
31.77
47.337
66.735
92.689
124.846
163.91
212.266
267.968
330.889
397.297
456.439
498.334
514.025
498.319
454.817
391.716
315.405
234.064
154.639
79.594
14.307
-40.286
-88.434
-131.594
-173.511
-215.148
-252.265
-283.035
-305.946
-320.944
-331.191
-338.739
-344.664
-349.632
-353.219
-355.176
-355.728
-354.783
-352.053
-347.178
-339.611
-329.2
-316.229
-301.039
-284.074
-265.805
-246.654
-227.146
-207.857
-189.142
-171.208
-154.191
-138.131
-123.13
-109.302
-96.683
-85.283
-75.103
-66.111
-58.281
-51.558
-45.833
-40.983
-36.88
-33.422
-30.556
-28.225
-26.361
-24.887
-23.705
-22.716
-21.843
-20.988
-20.043
-18.937
-17.621
-16.085
-14.366
-12.496
-10.506
-8.426
-6.27
-4.059
-1.823
0.413
2.615
4.743
6.756
8.593
10.178
11.459
12.409
13.021
13.316
13.316
13.042
12.526
11.806
10.92
9.908
8.803
7.635
6.442
5.269
4.166
3.194
2.401
1.822
1.489
1.419
1.631
2.141
2.958
4.085
5.527
7.291
9.387
11.829
14.626
17.784
21.305
25.185
29.422
34.015
38.965
44.277
49.95
55.975
62.344
69.045
76.061
83.376
90.956
98.758
106.739
114.857
123.081
131.397
139.784
148.22
156.685
165.15
173.607
182.065
190.524
198.978
207.425
215.859
224.301
232.798
241.381
250.068
258.852
267.686
276.532
285.349
294.08
302.656
310.983
318.928
326.386
333.276
339.512
345.016
349.68
353.358
355.941
357.346
357.521
356.454
354.139
350.566
345.77
339.814
332.796
324.852
316.091
306.588
296.428
285.692
274.484
262.941
251.171
239.252
227.254
215.225
203.215
191.279
179.437
167.681
155.983
144.295
132.592
120.881
109.164
97.447
85.733
74.007
62.278
50.574
38.919
27.337
15.853
4.482
-6.743
-17.771
-28.552
-39.029
-49.159
-58.914
-68.269
-77.2
-85.69
-93.724
-101.295
-108.407
-115.062
-121.258
-126.996
-132.274
-137.097
-141.475
-145.419
-148.941
-152.052
-154.762
-157.083
-159.026
-160.604
-161.825
-162.7
-163.238
-163.45
-163.348
-162.946
-162.258
-161.3
-160.084
-158.626
-156.941
-155.042
-152.944
-150.658
-148.196
-145.57
-142.79
-139.867
-136.809
-133.627
-130.328
-126.923
-123.418
-119.821
-116.142
-112.386
-108.563
-104.678
-100.741
-96.756
-92.732
-88.676
-84.593
-80.491
-76.375
-72.252
-68.126
-64.003
-59.888
-55.785
-51.698
-47.631
-43.588
-39.573
-35.589
-31.641
-27.733
-23.87
-20.054
-16.292
-12.588
-8.947
-5.374
-1.873
1.55
4.892
8.148
11.314
14.386
17.361
20.236
23.008
25.675
28.234
30.684
33.023
35.251
37.365
39.365
41.25
43.019
44.672
46.208
47.627
48.929
50.113
51.181
52.132
52.967
53.688
54.297
54.795
55.186
55.471
55.655
55.74
55.731
55.631
55.445
55.176
54.829
54.408
53.918
53.361
52.742
52.064
51.332
50.549
49.718
48.843
47.926
46.972
45.983
44.964
43.917
42.846
41.755
40.646
39.523
38.39
37.249
36.103
34.955
33.807
32.661
31.518
30.38
29.247
28.121
27
25.887
24.78
23.68
22.585
21.496
20.413
19.335
18.261
17.193
16.129
15.069
14.015
12.965
11.919
10.877
9.84
8.805
7.773
6.743
5.713
4.684
3.653
2.621
1.586
0.547
-0.496
-1.544
-2.597
-3.655
-4.719
-5.788
-6.863
-7.941
-9.024
-10.11
-11.198
-12.287
-13.376
-14.465
-15.552
-16.638
-17.723
-18.806
-19.887
-20.968
-22.047
-23.127
-24.205
-25.283
-26.36
-27.436
-28.511
-29.584
-30.655
-31.723
-32.787
-33.847
-34.902
-35.952
-36.994
-38.029
-39.053
-40.067
-41.07
-42.059
-43.032
-43.988
-44.927
-45.848
-46.75
-47.634
-48.496
-49.336
-50.153
-50.945
-51.707
-52.432
-53.115
-53.75
-54.333
-54.859
-55.324
-55.724
-56.053
-56.31
-56.497
-56.611
-56.648
-56.599
-56.452
-56.204
-55.863
-55.441
-54.944
-54.381
-53.758
-53.087
-52.387
-51.668
-50.928
-50.148
-49.311
-48.409
-47.449
-46.448
-45.427
-44.391
-43.33
-42.231
-41.094
-39.917
-38.695
-37.406
-36.017
-34.522
-32.953
-31.374
-29.85
-28.424
-27.115
-25.929
-24.877
-23.985
-23.29
-22.821
-22.595
-22.633
-22.97
-23.668
-24.798
-26.393
-28.428
-30.833
-33.54
-36.511
-39.723
-43.169
-46.824
-50.647
-54.606
-58.675
-62.836
-67.055
-71.268
-75.373
-79.269
-82.887
-86.207
-89.253
-92.03
-94.527
-96.72
-98.579
-100.095
-101.276
-102.109
-102.572
-102.668
-102.43
-101.933
-101.301
-100.636
-100.005
-99.47
-99.077
-98.889
-98.986
-99.43
-100.267
-101.539
-103.295
-105.549
-108.248
-111.197
-114.067
-116.512
-118.19
-118.796
-118.028
-115.659
-111.657
-106.289
-100.11
-93.7
-87.598
-82.169
-77.586
-74.152
-72.03
-70.528
-68.683
-64.552
-54.707
-37.88
-14.184
15.429
46.25
77.099
111.585
152.968
208.519
280.921
363.117
446.562
516.171
557.443
564.314
531.561
462.313
363.68
239.512
100.836
-41.888
-176.511
-284.273
-356.894
-393.225
-399.361
-391.795
-380.034
-366.9
-351.945
-329.609
-298.943
-263.555
-227.061
-193.867
-166.569
-145.55
-130.598
-120.837
-115.131
-112.25
-111.206
-111.158
-110.898
-109.485
-106.565
-102.05
-96.305
-90.037
-83.71
-77.839
-73.244
-70.445
-69.642
-70.882
-73.854
-78.104
-83.274
-88.906
-94.47
-99.606
-104.05
-107.626
-110.315
-112.109
-113.001
-113.041
-112.296
-110.832
-108.729
-106.062
-102.915
-99.408
-95.678
-91.869
-88.098
-84.45
-81.002
-77.812
-74.919
-72.352
-70.114
-68.196
-66.592
-65.292
-64.277
-63.527
-63.007
-62.673
-62.479
-62.376
-62.32
-62.283
-62.239
-62.172
-62.072
-61.928
-61.74
-61.51
-61.234
-60.906
-60.523
-60.074
-59.554
-58.96
-58.291
-57.546
-56.724
-55.824
-54.841
-53.774
-52.617
-51.365
-50.009
-48.54
-46.947
-45.226
-43.373
-41.385
-39.262
-37.003
-34.61
-32.087
-29.438
-26.662
-23.759
-20.72
-17.542
-14.23
-10.794
-7.251
-3.624
0.065
3.794
7.534
11.26
14.959
18.626
22.273
25.913
29.549
33.171
36.758
40.287
43.755
47.164
50.517
53.834
57.13
60.427
63.77
67.183
70.661
74.176
77.661
81.033
84.236
87.227
89.976
92.463
94.65
96.493
97.963
99.012
99.59
99.639
99.068
97.807
95.841
93.18
89.886
86.051
81.739
76.999
71.885
66.43
60.682
54.687
48.473
42.078
35.552
28.959
22.393
15.936
9.628
3.488
-2.501
-8.383
-14.179
-19.905
-25.58
-31.209
-36.793
-42.333
-47.808
-53.194
-58.482
-63.672
-68.779
-73.821
-78.797
-83.694
-88.49
-93.15
-97.649
-101.966
-106.075
-109.957
-113.596
-116.983
-120.124
-123.035
-125.729
-128.213
-130.481
-132.526
-134.34
-135.91
-137.22
-138.244
-138.94
-139.269
-139.2
-138.705
-137.77
-136.371
-134.478
-132.061
-129.083
-125.519
-121.358
-116.591
-111.208
-105.226
-98.686
-91.659
-84.255
-76.579
-68.715
-60.739
-52.7
-44.635
-36.577
-28.539
-20.515
-12.493
-4.446
3.651
11.807
20.079
28.565
37.409
46.821
57.008
68.155
80.438
94.006
108.97
125.42
143.404
162.913
183.94
206.465
230.478
256.008
283.04
311.498
341.25
372.066
403.697
435.93
468.546
501.343
534.144
566.732
598.939
630.697
661.849
692.159
721.303
748.729
773.935
796.707
816.864
834.293
849.191
861.747
872.288
881.556
890.009
897.545
903.956
908.74
910.892
909.552
903.658
891.668
872.729
846.738
813.795
774.482
729.892
681.079
629.637
577.804
527.088
478.411
432.556
389.931
350.839
315.559
283.678
254.156
226.374
200.031
174.924
151.031
128.116
105.914
84.607
64.724
46.636
30.513
16.379
4.117
-6.293
-14.888
-21.909
-27.757
-32.808
-37.347
-41.579
-45.641
-49.654
-53.712
-57.828
-61.95
-66.037
-70.067
-74.031
-77.925
-81.722
-85.368
-88.825
-92.061
-95.028
-97.67
-99.923
-101.712
-103.014
-103.84
-104.221
-104.202
-103.835
-103.167
-102.264
-101.204
-100.057
-98.89
-97.766
-96.736
-95.865
-95.221
-94.872
-94.887
-95.315
-96.189
-97.535
-99.368
-101.698
-104.53
-107.856
-111.659
-115.926
-120.645
-125.803
-131.386
-137.374
-143.74
-150.456
-157.492
-164.818
-172.404
-180.217
-188.224
-196.395
-204.699
-213.104
-221.582
-230.096
-238.608
-247.08
-255.472
-263.744
-271.856
-279.767
-287.434
-294.822
-301.898
-308.632
-314.993
-320.948
-326.46
-331.502
-336.056
-340.104
-343.634
-346.639
-349.113
-351.064
-352.517
-353.491
-354.007
-354.077
-353.698
-352.871
-351.604
-349.902
-347.776
-345.221
-342.215
-338.746
-334.81
-330.396
-325.496
-320.081
-314.098
-307.51
-300.3
-292.469
-284.045
-275.062
-265.553
-255.573
-245.188
-234.488
-223.594
-212.614
-201.645
-190.791
-180.153
-169.848
-160.02
-150.783
-142.22
-134.398
-127.36
-121.134
-115.734
-111.145
-107.33
-104.221
-101.729
-99.757
-98.203
-96.962
-95.937
-95.022
-94.106
-93.096
-91.924
-90.526
-88.85
-86.858
-84.525
-81.84
-78.808
-75.449
-71.787
-67.872
-63.782
-59.581
-55.328
-51.072
-46.852
-42.701
-38.647
-34.711
-30.907
-27.245
-23.725
-20.352
-17.136
-14.081
-11.196
-8.464
-5.837
-3.282
-0.775
1.703
4.15
6.573
8.981
11.37
13.73
16.049
18.311
20.512
22.657
24.749
26.795
28.786
30.698
32.515
34.225
35.817
37.289
38.633
39.838
40.903
41.835
42.64
43.324
43.889
44.333
44.653
44.85
44.928
44.892
44.749
44.504
44.162
43.732
43.223
42.645
42.006
41.309
40.562
39.769
38.939
38.078
37.194
36.292
35.379
34.463
33.551
32.648
31.761
30.894
30.051
29.237
28.454
27.706
26.997
26.327
25.7
25.116
24.578
24.087
23.643
23.246
22.897
22.593
22.336
22.122
21.952
21.821
21.729
21.673
21.651
21.659
21.696
21.757
21.842
21.945
22.066
22.199
22.343
22.494
22.649
22.806
22.962
23.115
23.263
23.403
23.534
23.655
23.763
23.858
23.938
24.003
24.051
24.082
24.096
24.091
24.069
24.027
23.967
23.888
23.79
23.673
23.537
23.382
23.208
23.016
22.804
22.574
22.326
22.058
21.772
21.468
21.145
20.804
20.445
20.068
19.673
19.26
18.831
18.384
17.921
17.44
16.944
16.432
15.904
15.361
14.804
14.233
13.649
13.054
12.447
11.831
11.207
10.576
9.939
9.298
8.656
8.014
7.374
6.739
6.11
5.49
4.881
4.285
3.705
3.141
2.596
2.072
1.569
1.089
0.634
0.203
-0.202
-0.58
-0.933
-1.26
-1.561
-1.836
-2.088
-2.316
-2.523
-2.71
-2.879
-3.032
-3.172
-3.303
-3.426
-3.545
-3.665
-3.789
-3.921
-4.065
-4.226
-4.408
-4.616
-4.855
-5.129
-5.442
-5.798
-6.202
-6.658
-7.168
-7.737
-8.367
-9.062
-9.824
-10.654
-11.556
-12.531
-13.581
-14.705
-15.905
-17.182
-18.534
-19.962
-21.465
-23.042
-24.691
-26.411
-28.2
-30.055
-31.974
-33.953
-35.99
-38.081
-40.221
-42.407
-44.634
-46.897
-49.193
-51.516
-53.862
-56.226
-58.603
-60.988
-63.378
-65.766
-68.149
-70.52
-72.875
-75.209
-77.518
-79.798
-82.043
-84.251
-86.416
-88.535
-90.605
-92.622
-94.582
-96.48
-98.313
-100.078
-101.77
-103.385
-104.92
-106.372
-107.737
-109.014
-110.199
-111.29
-112.284
-113.179
-113.971
-114.658
-115.239
-115.709
-116.068
-116.313
-116.443
-116.457
-116.353
-116.13
-115.785
-115.316
-114.721
-113.997
-113.14
-112.145
-111.009
-109.728
-108.301
-106.724
-104.996
-103.117
-101.085
-98.905
-96.575
-94.095
-91.463
-88.676
-85.73
-82.624
-79.353
-75.913
-72.302
-68.517
-64.559
-60.432
-56.139
-51.678
-47.048
-42.241
-37.256
-32.1
-26.779
-21.3
-15.678
-9.932
-4.092
1.797
7.704
13.607
19.493
25.363
31.215
37.043
42.845
48.622
54.374
60.109
65.825
71.509
77.168
82.818
88.498
94.274
100.181
106.223
112.391
118.656
124.976
131.308
137.583
143.71
149.612
155.215
160.464
165.327
169.748
173.651
176.951
179.534
181.323
182.282
182.386
181.626
180.024
177.62
174.49
170.756
166.523
161.881
156.916
151.697
146.314
140.872
135.477
130.242
125.266
120.622
116.379
112.604
109.327
106.556
104.274
102.421
100.936
99.754
98.789
97.94
97.124
96.263
95.272
94.066
92.536
90.585
88.149
85.18
81.634
77.419
72.494
66.952
61.067
55.273
49.979
45.526
42.262
40.642
40.989
43.287
47.059
51.345
55.36
58.429
59.711
58.607
54.723
49.02
44.408
42.999
45.859
52.537
60.504
72.118
93.571
130.611
188.756
263.956
345.098
422.521
488.306
542.186
586.427
618.922
633.248
618.379
567.791
482.024
367.238
235.929
99.202
-32.931
-148.524
-239.538
-301.69
-335.512
-349.221
-351.189
-346.013
-335.05
-316.17
-288.672
-255.107
-219.064
-184.252
-152.75
-125.192
-102.205
-83.981
-70.188
-60.183
-53.102
-48.426
-45.902
-45.032
-44.786
-44.052
-42.309
-39.594
-36.207
-32.354
-28.086
-23.549
-19.286
-16.055
-14.233
-13.779
-14.408
-15.768
-17.642
-19.895
-22.25
-24.279
-25.687
-26.349
-26.274
-25.595
-24.411
-22.758
-20.707
-18.384
-15.93
-13.502
-11.253
-9.27
-7.615
-6.352
-5.529
-5.206
-5.427
-6.198
-7.503
-9.315
-11.607
-14.36
-17.552
-21.137
-25.052
-29.23
-33.592
-38.081
-42.648
-47.244
-51.824
-56.344
-60.765
-65.059
-69.207
-73.186
-76.971
-80.532
-83.842
-86.879
-89.626
-92.068
-94.191
-95.981
-97.423
-98.509
-99.229
-99.576
-99.543
-99.123
-98.31
-97.105
-95.51
-93.53
-91.174
-88.451
-85.374
-81.957
-78.218
-74.174
-69.844
-65.249
-60.408
-55.343
-50.079
-44.638
-39.045
-33.323
-27.499
-21.596
-15.639
-9.653
-3.661
2.312
8.244
14.112
19.896
25.576
31.133
36.548
41.804
46.886
51.779
56.469
60.943
65.192
69.204
72.971
76.485
79.739
82.729
85.449
87.897
90.07
91.966
93.585
94.927
95.994
96.788
97.311
97.568
97.563
97.301
96.788
96.032
95.038
93.815
92.37
90.712
88.849
86.791
84.545
82.122
79.531
76.782
73.885
70.851
67.69
64.414
61.035
57.564
54.013
50.395
46.723
43.008
39.264
35.502
31.737
27.979
24.242
20.537
16.876
13.271
9.732
6.271
2.897
-0.38
-3.551
-6.607
-9.54
-12.343
-15.008
-17.528
-19.896
-22.107
-24.156
-26.037
-27.748
-29.283
-30.642
-31.823
-32.826
-33.651
-34.3
-34.776
-35.083
-35.226
-35.21
-35.041
-34.727
-34.276
-33.696
-32.997
-32.188
-31.28
-30.285
-29.213
-28.075
-26.883
-25.648
-24.384
-23.102
-21.814
-20.532
-19.27
-18.042
-16.86
-15.739
-14.692
-13.733
-12.878
-12.141
-11.535
-11.073
-10.77
-10.636
-10.682
-10.918
-11.35
-11.985
-12.828
-13.885
-15.16
-16.657
-18.378
-20.324
-22.499
-24.902
-27.535
-30.394
-33.471
-36.76
-40.253
-43.946
-47.839
-51.928
-56.201
-60.644
-65.241
-69.971
-74.809
-79.715
-84.634
-89.508
-94.289
-98.928
-103.392
-107.643
-111.641
-115.34
-118.688
-121.648
-124.196
-126.319
-128.006
-129.26
-130.099
-130.586
-130.838
-130.968
-131.08
-131.256
-131.537
-131.994
-132.713
-133.776
-135.272
-137.264
-139.756
-142.787
-146.417
-150.588
-155.155
-159.806
-164.014
-167.337
-169.403
-169.777
-168.142
-164.394
-158.61
-151.282
-143.184
-134.884
-126.94
-119.93
-113.982
-108.775
-103.441
-96.402
-86.045
-70.857
-49.009
-18.869
20.522
68.238
121.154
176.138
231.204
287.099
345.704
404.813
457.877
493.899
501.88
478.636
428.618
363.017
294.407
229.568
169.653
112.046
54.3
-2.741
-55.778
-101.686
-139.599
-170.286
-195.128
-215.392
-231.601
-244.593
-256.01
-266.843
-277.321
-287.341
-296.316
-303.823
-309.795
-313.761
-314.833
-312.522
-306.674
-297.445
-285.431
-271.15
-254.975
-237.444
-219.176
-200.675
-182.373
-164.546
-147.273
-130.659
-114.819
-99.872
-85.976
-73.27
-61.874
-51.872
-43.277
-36.074
-30.215
-25.616
-22.174
-19.767
-18.246
-17.493
-17.422
-17.942
-18.969
-20.375
-21.98
-23.612
-25.102
-26.323
-27.202
-27.681
-27.727
-27.335
-26.524
-25.333
-23.821
-22.032
-19.996
-17.746
-15.315
-12.768
-10.195
-7.692
-5.361
-3.278
-1.491
-0.036
1.068
1.82
2.236
2.346
2.192
1.812
1.239
0.506
-0.357
-1.306
-2.291
-3.253
-4.133
-4.879
-5.454
-5.822
-5.957
-5.838
-5.446
-4.772
-3.809
-2.551
-0.986
0.9
3.12
5.688
8.613
11.901
15.559
19.595
24.023
28.862
34.128
39.826
45.959
52.524
59.514
66.915
74.699
82.824
91.245
99.925
108.828
117.935
127.221
136.654
146.2
155.815
165.467
175.144
184.84
194.55
204.286
214.072
223.954
234.018
244.337
254.955
265.894
277.144
288.684
300.496
312.55
324.803
337.193
349.625
361.993
374.19
386.081
397.502
408.254
418.094
426.79
434.165
440.071
444.393
447.039
447.922
446.985
444.205
439.584
433.143
424.924
414.979
403.399
390.317
375.903
360.36
343.881
326.626
308.743
290.381
271.675
252.761
233.762
214.776
195.905
177.271
158.982
141.127
123.771
106.944
90.667
74.962
59.861
45.405
31.622
18.525
6.127
-5.556
-16.519
-26.759
-36.302
-45.215
-53.548
-61.332
-68.584
-75.304
-81.503
-87.213
-92.476
-97.318
-101.759
-105.811
-109.483
-112.798
-115.763
-118.37
-120.587
-122.356
-123.641
-124.428
-124.716
-124.512
-123.822
-122.64
-120.965
-118.817
-116.219
-113.194
-109.768
-105.961
-101.803
-97.339
-92.63
-87.741
-82.728
-77.635
-72.5
-67.36
-62.249
-57.198
-52.235
-47.374
-42.632
-38.027
-33.579
-29.306
-25.222
-21.333
-17.645
-14.159
-10.877
-7.803
-4.936
-2.275
0.177
2.421
4.453
6.27
7.877
9.28
10.488
11.507
12.349
13.022
13.539
13.914
14.158
14.28
14.289
14.191
13.999
13.727
13.389
13.002
12.564
12.078
11.54
10.944
10.308
9.649
8.967
8.27
7.559
6.815
6.085
5.422
4.751
4.024
3.182
2.129
0.974
-0.131
-1.239
-2.382
-3.387
-4.167
-4.509
-4.134
-3.322
-2.39
-1.342
-0.261
0.651
1.32
1.396
0.473
-1.104
-2.974
-5.075
-7.217
-9.296
-11.314
-12.956
-13.89
-14.373
-14.644
-14.79
-14.997
-15.262
-15.529
-15.959
-16.703
-17.658
-18.745
-19.912
-21.06
-22.227
-23.463
-24.73
-26.008
-27.305
-28.619
-29.96
-31.35
-32.767
-34.193
-35.62
-37.036
-38.445
-39.851
-41.253
-42.647
-44.027
-45.387
-46.72
-48.021
-49.283
-50.497
-51.655
-52.749
-53.775
-54.733
-55.618
-56.424
-57.14
-57.749
-58.24
-58.611
-58.858
-58.979
-58.979
-58.868
-58.667
-58.409
-58.118
-57.806
-57.476
-57.117
-56.723
-56.289
-55.808
-55.27
-54.666
-53.979
-53.204
-52.342
-51.38
-50.291
-49.031
-47.525
-45.73
-43.636
-41.247
-38.594
-35.717
-32.661
-29.495
-26.316
-23.204
-20.237
-17.476
-14.957
-12.744
-10.916
-9.572
-8.841
-8.816
-9.548
-11.072
-13.403
-16.527
-20.417
-25.001
-30.164
-35.815
-41.879
-48.294
-55.029
-62.027
-69.21
-76.496
-83.786
-90.998
-98.077
-104.971
-111.633
-118.044
-124.196
-130.115
-135.859
-141.463
-146.939
-152.287
-157.49
-162.537
-167.427
-172.153
-176.708
-181.089
-185.279
-189.266
-193.036
-196.553
-199.783
-202.685
-205.208
-207.319
-209
-210.231
-211.011
-211.347
-211.236
-210.677
-209.663
-208.167
-206.177
-203.692
-200.719
-197.29
-193.422
-189.122
-184.397
-179.252
-173.688
-167.714
-161.32
-154.473
-147.177
-139.457
-131.373
-123.027
-114.499
-105.846
-97.118
-88.349
-79.588
-70.902
-62.348
-53.976
-45.846
-38.016
-30.578
-23.648
-17.294
-11.538
-6.359
-1.681
2.55
6.367
9.821
12.953
15.812
18.455
20.911
23.199
25.354
27.424
29.489
31.65
33.956
36.426
39.041
41.738
44.466
47.163
49.723
52.034
53.99
55.494
56.501
56.985
56.903
56.192
54.776
52.583
49.57
45.741
41.091
35.593
29.344
22.565
15.629
9.075
3.406
-1.031
-3.821
-4.491
-2.947
0.698
6.021
12.041
18.026
23.563
27.99
30.824
32.29
32.908
33.849
37.202
44.548
57.28
77.227
105.484
142.423
188.055
241.134
299.428
359.807
417.371
467.216
506.297
535.126
556.551
570.396
571.619
549.773
495.418
408.633
297.836
177.731
60.667
-49.149
-150.151
-241.623
-318.697
-371.535
-393.804
-384.354
-347.815
-296.257
-242.026
-193.111
-155.224
-127.257
-103.975
-83.288
-63.198
-44.44
-31.139
-24.728
-25.384
-32.145
-41.818
-51.667
-59.825
-65.224
-67.832
-67.919
-65.811
-61.886
-56.648
-51.033
-46.095
-42.427
-40.222
-39.332
-39.393
-40.14
-41.347
-42.626
-43.521
-43.703
-42.989
-41.359
-38.923
-35.757
-31.898
-27.402
-22.341
-16.79
-10.848
-4.599
1.888
8.542
15.296
22.065
28.743
35.214
41.359
47.08
52.306
56.982
61.044
64.421
67.029
68.78
69.622
69.53
68.502
66.552
63.697
59.982
55.484
50.313
44.601
38.464
31.988
25.246
18.31
11.27
4.232
-2.685
-9.39
-15.81
-21.888
-27.58
-32.843
-37.661
-42.047
-46.046
-49.725
-53.129
-56.281
-59.192
-61.867
-64.322
-66.581
-68.67
-70.598
-72.371
-73.998
-75.486
-76.848
-78.084
-79.178
-80.1
-80.813
-81.296
-81.54
-81.542
-81.305
-80.831
-80.125
-79.199
-78.071
-76.759
-75.274
-73.627
-71.825
-69.88
-67.807
-65.624
-63.349
-60.996
-58.578
-56.104
-53.585
-51.029
-48.442
-45.827
-43.183
-40.512
-37.813
-35.09
-32.344
-29.574
-26.778
-23.958
-21.11
-18.236
-15.335
-12.405
-9.447
-6.458
-3.437
-0.386
2.693
5.806
8.952
12.138
15.367
18.633
21.929
25.251
28.59
31.938
35.289
38.627
41.935
45.213
48.456
51.663
54.837
57.96
61.013
63.976
66.822
69.546
72.151
74.627
76.968
79.191
81.309
83.361
85.396
87.416
89.424
91.425
93.407
95.396
97.419
99.493
101.64
103.871
106.179
108.572
111.053
113.569
116.058
118.419
120.526
122.317
123.737
124.72
125.215
125.148
124.455
123.101
121.061
118.324
114.894
110.765
105.939
100.487
94.522
88.213
81.765
75.3
68.996
63.134
