Name,Criss Capps
Date of Birth,"Feb 5, 1952"
Recorded Date,2021-02-10 09:54:39 -0400
Classification,Sinus Rhythm
Symptoms,
Software Version,1.90
Device,"Watch5,4"
Sample Rate,512.844 hertz


Lead,Lead I
Unit,µV

-114.255
-122.436
-136.912
-155.51
-172.195
-174.663
-159.096
-126.701
-85.289
-52.883
-41.094
-52.564
-81.043
-109.715
-125.778
-125.178
-111.935
-97.695
-88.907
-85.303
-82.234
-69.912
-47.601
-21.129
3.522
14.496
10.698
-1.516
-18.795
-29.133
-28.283
-18.908
0.583
21.99
39.873
53.932
60.411
62.791
64.786
66.749
70.755
75.876
80.559
85.039
89.092
92.824
96.534
99.971
102.911
105.335
107.228
108.592
109.436
109.768
109.594
108.948
107.874
106.374
104.446
102.105
99.364
96.24
92.757
88.934
84.791
80.354
75.653
70.715
65.568
60.242
54.763
49.161
43.465
37.703
31.902
26.091
20.297
14.545
8.862
3.27
-2.206
-7.544
-12.723
-17.726
-22.533
-27.128
-31.498
-35.628
-39.508
-43.128
-46.48
-49.559
-52.361
-54.884
-57.128
-59.096
-60.791
-62.217
-63.383
-64.294
-64.959
-65.388
-65.59
-65.576
-65.357
-64.944
-64.349
-63.583
-62.66
-61.592
-60.392
-59.074
-57.649
-56.127
-54.524
-52.856
-51.139
-49.388
-47.617
-45.831
-44.046
-42.285
-40.554
-38.84
-37.138
-35.435
-33.738
-32.091
-30.504
-28.947
-27.451
-26.098
-24.954
-24.09
-23.517
-23.135
-22.915
-22.966
-23.179
-23.16
-22.823
-22.282
-21.484
-20.843
-19.587
-15.27
-8.384
-1.176
2.692
-3.718
-20.045
-39.293
-54.513
-55.836
-42.525
-23.911
-7.21
-0.184
-4.263
-12.457
-20.444
-25.303
-26.106
-25.688
-25.349
-24.98
-24.677
-24.005
-22.846
-21.578
-20.315
-18.986
-17.6
-16.173
-14.689
-13.134
-11.476
-9.652
-7.645
-5.493
-3.213
-0.809
1.707
4.326
7.034
9.809
12.632
15.487
18.357
21.221
24.058
26.847
29.564
32.189
34.7
37.08
39.315
41.387
43.281
44.982
46.472
47.739
48.764
49.534
50.034
50.255
50.193
49.848
49.225
48.327
47.159
45.721
44.011
42.028
39.776
37.257
34.482
31.475
28.277
24.938
21.519
18.069
14.638
11.269
7.996
4.859
1.887
-0.896
-3.455
-5.749
-7.737
-9.387
-10.683
-11.662
-12.38
-12.913
-13.366
-13.81
-14.309
-14.94
-15.772
-16.886
-18.349
-20.21
-22.474
-25.196
-28.488
-32.303
-36.446
-40.501
-43.84
-45.867
-46.169
-44.429
-40.342
-34.074
-26.131
-17.361
-9.229
-3.086
0.143
-0.014
-3.406
-8.886
-14.771
-19.067
-18.909
-11.293
6.553
36.853
80.637
135.898
198.567
265.249
331.039
394.548
458.49
519.796
574.752
614.481
620.048
581.284
494.115
362.148
206.736
49.671
-88.648
-191.054
-255.136
-286.542
-296.767
-297.511
-293.565
-285.499
-269.644
-244.985
-214.682
-180.965
-149.385
-125.047
-111.54
-114.948
-132.833
-155.59
-173.149
-173.179
-155.033
-128.945
-103.549
-88.298
-84.645
-85.566
-87.335
-87.06
-84.115
-81.593
-80.403
-80.173
-80.828
-81.627
-82.258
-82.94
-83.552
-83.906
-84
-83.827
-83.367
-82.593
-81.434
-79.843
-77.871
-75.621
-73.174
-70.581
-67.873
-65.098
-62.311
-59.586
-56.998
-54.588
-52.375
-50.371
-48.58
-47.003
-45.643
-44.478
-43.467
-42.576
-41.775
-41.037
-40.346
-39.674
-38.987
-38.255
-37.448
-36.538
-35.505
-34.324
-32.974
-31.434
-29.688
-27.723
-25.533
-23.106
-20.432
-17.503
-14.31
-10.85
-7.121
-3.121
1.15
5.686
10.482
15.528
20.812
26.32
32.038
37.951
44.038
50.28
56.657
63.144
69.719
76.356
83.027
89.704
96.36
102.963
109.485
115.895
122.162
128.255
134.143
139.798
145.189
150.289
155.071
159.507
163.576
167.255
170.524
173.365
175.763
177.706
179.184
180.189
180.716
180.765
180.333
179.424
178.043
176.197
173.894
171.146
167.966
164.37
160.374
155.999
151.265
146.195
140.812
135.144
129.215
123.056
116.694
110.161
103.486
96.701
89.837
82.926
75.999
69.086
62.216
55.418
48.719
42.144
35.718
29.462
23.397
17.543
11.917
6.534
1.409
-3.447
-8.024
-12.312
-16.306
-20
-23.39
-26.475
-29.254
-31.729
-33.902
-35.778
-37.363
-38.665
-39.692
-40.455
-40.965
-41.236
-41.283
-41.118
-40.755
-40.209
-39.498
-38.648
-37.677
-36.607
-35.449
-34.215
-32.93
-31.612
-30.254
-28.833
-27.33
-25.736
-24.083
-22.423
-20.761
-19.11
-17.572
-16.278
-15.337
-14.834
-14.723
-14.866
-15.276
-15.891
-16.268
-16.049
-15.213
-13.819
-12.214
-9.882
-4.533
5.424
18.422
28.185
25.931
5.45
-30.119
-65.402
-84.33
-75.645
-40.339
1.819
33.337
43.061
28.021
3.496
-18.467
-32.171
-33.603
-29.763
-25.917
-22.648
-21.847
-21.888
-21.255
-20.697
-20.123
-19.572
-19.373
-19.317
-19.201
-19.022
-18.7
-18.138
-17.331
-16.325
-15.139
-13.798
-12.341
-10.757
-9.043
-7.22
-5.291
-3.259
-1.131
1.088
3.393
5.769
8.204
10.682
13.187
15.701
18.204
20.679
23.106
25.467
27.741
29.91
31.958
33.87
35.633
37.228
38.639
39.851
40.848
41.617
42.143
42.412
42.411
42.13
41.563
40.709
39.561
38.117
36.369
34.304
31.922
29.231
26.238
22.96
19.423
15.661
11.73
7.7
3.633
-0.403
-4.344
-8.135
-11.71
-15.016
-18.015
-20.661
-22.928
-24.808
-26.296
-27.414
-28.226
-28.791
-29.21
-29.622
-30.15
-30.951
-32.184
-33.976
-36.453
-39.692
-43.714
-48.53
-54.104
-60.356
-67.179
-74.416
-81.859
-89.302
-96.473
-103.012
-108.532
-112.562
-114.66
-114.377
-111.193
-104.845
-95.314
-82.802
-67.854
-50.991
-32.466
-12.741
7.513
28.265
49.897
73.277
100.052
131.18
166.603
206.312
250.106
296.52
343.276
386.919
422.481
446.01
454.98
446.979
420.459
375.73
314.316
239.651
157.457
73.035
-8.944
-83.347
-146.02
-194.547
-227.518
-245.315
-250.377
-245.213
-232.693
-216.7
-200.395
-185.791
-174.352
-166.484
-161.653
-159.396
-158.768
-158.072
-156.155
-152.526
-147.052
-140.135
-132.331
-123.995
-115.666
-108.14
-101.91
-97.206
-94.062
-92.218
-91.414
-91.48
-92.195
-93.305
-94.614
-95.912
-96.997
-97.782
-98.205
-98.21
-97.783
-96.895
-95.525
-93.706
-91.503
-88.982
-86.213
-83.252
-80.141
-76.936
-73.701
-70.503
-67.415
-64.483
-61.728
-59.165
-56.8
-54.635
-52.667
-50.873
-49.215
-47.66
-46.179
-44.749
-43.352
-41.96
-40.544
-39.073
-37.521
-35.863
-34.08
-32.152
-30.058
-27.781
-25.309
-22.632
-19.742
-16.631
-13.292
-9.715
-5.896
-1.832
2.479
7.037
11.838
16.878
22.148
27.636
33.33
39.213
45.27
51.481
57.827
64.286
70.834
77.448
84.102
90.769
97.423
104.034
110.575
117.017
123.333
129.493
135.47
141.235
146.763
152.027
157.001
161.663
165.99
169.959
173.553
176.753
179.545
181.915
183.852
185.348
186.395
186.991
187.134
186.825
186.066
184.864
183.225
181.16
178.679
175.797
172.527
168.886
164.893
160.567
155.929
151.002
145.808
140.371
134.716
128.868
122.854
116.698
110.429
104.07
97.65
91.193
84.725
78.271
71.855
65.499
59.227
53.058
47.014
41.113
35.373
29.809
24.436
19.267
14.315
9.59
5.101
0.856
-3.138
-6.877
-10.357
-13.575
-16.529
-19.221
-21.651
-23.823
-25.739
-27.406
-28.829
-30.015
-30.972
-31.709
-32.235
-32.562
-32.699
-32.658
-32.451
-32.091
-31.589
-30.96
-30.215
-29.368
-28.431
-27.418
-26.34
-25.209
-24.039
-22.84
-21.625
-20.405
-19.19
-17.993
-16.823
-15.691
-14.606
-13.578
-12.614
-11.723
-10.91
-10.182
-9.544
-9.001
-8.556
-8.211
-7.969
-7.831
-7.796
-7.864
-8.032
-8.297
-8.656
-9.103
-9.633
-10.24
-10.916
-11.656
-12.451
-13.294
-14.174
-15.085
-16.015
-16.956
-17.895
-18.822
-19.724
-20.59
-21.407
-22.163
-22.848
-23.448
-23.954
-24.354
-24.639
-24.799
-24.826
-24.71
-24.445
-24.025
-23.444
-22.698
-21.785
-20.705
-19.457
-18.045
-16.473
-14.747
-12.873
-10.858
-8.711
-6.441
-4.06
-1.579
0.988
3.626
6.319
9.046
11.784
14.51
17.203
19.839
22.395
24.847
27.175
29.36
31.385
33.234
34.887
36.323
37.523
38.47
39.15
39.548
39.653
39.458
38.957
38.154
37.05
35.645
33.938
31.92
29.579
26.912
23.922
20.621
17.028
13.164
9.063
4.767
0.328
-4.205
-8.787
-13.371
-17.91
-22.345
-26.624
-30.692
-34.484
-37.942
-41.03
-43.741
-46.082
-48.093
-49.789
-51.183
-52.345
-53.351
-54.31
-55.374
-56.67
-58.311
-60.452
-63.272
-66.809
-70.974
-75.483
-79.816
-83.561
-86.418
-88.005
-88.022
-86.546
-84.039
-81.436
-79.946
-80.259
-82.633
-87.441
-94.75
-103.857
-113.22
-120.256
-122.185
-117.219
-104.148
-81.426
-47.707
-2.532
53.334
117.286
186.234
257.914
329.912
398.567
459.395
507.906
540.299
554.653
549.694
523.52
475.256
406.409
320.499
222.541
118.227
12.319
-90.3
-183.226
-260.734
-319.402
-357.653
-376.051
-376.496
-360.459
-330.454
-291.52
-248.996
-207.219
-169.887
-138.878
-115.163
-100.468
-95.317
-97.966
-106.218
-117.701
-129.503
-140.248
-149.158
-154.183
-155.897
-155.957
-153.218
-148.574
-140.278
-124.918
-107.523
-91.816
-82.613
-86.216
-96.877
-109.146
-118.893
-120.325
-117.103
-113.014
-109.007
-107.443
-106.861
-105.604
-104.176
-102.455
-100.651
-99.103
-97.481
-95.573
-93.449
-91.191
-88.915
-86.678
-84.487
-82.338
-80.185
-78.116
-76.332
-74.767
-73.192
-71.362
-68.893
-65.796
-62.58
-59.396
-56.096
-52.886
-50.043
-48.219
-48.648
-51.517
-55.95
-61.339
-67.034
-72.321
-76.876
-79.54
-78.243
-72.312
-62.214
-48.602
-32.934
-16.545
0.205
16.168
29.037
39.114
47.123
51.79
54.493
53.088
43.968
32.303
21.818
17.571
26.47
43.052
61.506
77.965
86.939
91.707
95.947
100.221
106.158
112.376
117.614
122.44
126.854
131.021
135.052
138.669
141.801
144.508
146.756
148.474
149.569
150.033
149.934
149.34
148.318
146.867
144.956
142.593
139.795
136.582
132.983
129.016
124.687
120.014
115.016
109.715
104.138
98.309
92.246
85.972
79.506
72.875
66.112
59.25
52.317
45.342
38.348
31.363
24.413
17.525
10.722
4.027
-2.538
-8.954
-15.199
-21.257
-27.11
-32.743
-38.145
-43.305
-48.214
-52.866
-57.252
-61.371
-65.219
-68.795
-72.101
-75.136
-77.904
-80.409
-82.656
-84.65
-86.398
-87.908
-89.188
-90.246
-91.094
-91.741
-92.199
-92.478
-92.59
-92.547
-92.361
-92.044
-91.607
-91.063
-90.422
-89.696
-88.897
-88.034
-87.117
-86.157
-85.162
-84.14
-83.098
-82.044
-80.983
-79.922
-78.865
-77.818
-76.786
-75.773
-74.784
-73.824
-72.895
-72.002
-71.148
-70.335
-69.566
-68.841
-68.162
-67.53
-66.945
-66.406
-65.913
-65.465
-65.061
-64.698
-64.374
-64.087
-63.832
-63.607
-63.406
-63.227
-63.066
-62.917
-62.778
-62.643
-62.508
-62.368
-62.218
-62.051
-61.86
-61.638
-61.377
-61.071
-60.711
-60.289
-59.797
-59.228
-58.575
-57.831
-56.99
-56.045
-54.99
-53.82
-52.53
-51.118
-49.579
-47.912
-46.114
-44.188
-42.133
-39.954
-37.653
-35.233
-32.7
-30.059
-27.319
-24.487
-21.571
-18.584
-15.537
-12.447
-9.331
-6.205
-3.087
0.005
3.049
6.026
8.919
11.711
14.387
16.929
19.318
21.535
23.565
25.393
27.004
28.378
29.497
30.344
30.911
31.196
31.198
30.907
30.314
29.405
28.18
26.649
24.822
22.705
20.31
17.655
14.779
11.75
8.629
5.463
2.294
-0.853
-3.934
-6.888
-9.664
-12.22
-14.534
-16.61
-18.44
-20.005
-21.313
-22.411
-23.371
-24.323
-25.393
-26.648
-28.174
-30.022
-32.221
-34.848
-37.945
-41.54
-45.67
-50.306
-55.362
-60.792
-66.544
-72.478
-78.44
-83.915
-88.068
-90.34
-90.399
-88.165
-83.732
-76.847
-67.087
-55.211
-43.185
-32.465
-24.019
-16.502
-6.364
6.138
19.173
30.798
37
42.066
54.517
79.191
124.711
191.756
273.375
366.096
457.872
535.123
587.574
602.419
576.082
514.225
428.305
333.132
238.628
148.69
62.021
-22.743
-102.731
-172.505
-226.538
-262.176
-280.348
-284.026
-276.325
-259.58
-236.321
-209.909
-183.27
-158.622
-137.582
-120.596
-107.713
-99.533
-96.404
-97.448
-101.62
-107.682
-113.927
-119.53
-124.145
-126.765
-126.357
-122.747
-116.002
-106.873
-96.952
-87.007
-77.28
-68.5
-61.281
-55.615
-51.671
-49.22
-46.799
-45.179
-45.743
-46.617
-47.39
-45.149
-34.5
-18.898
-3.247
7.361
3.576
-12.759
-32.613
-49.902
-55.159
-46.47
-32.773
-19.197
-10.972
-11.51
-15.479
-19.605
-22.808
-23.018
-21.822
-20.622
-19.005
-17.306
-15.491
-13.258
-10.839
-8.4
-5.868
-3.232
-0.518
2.268
5.092
7.941
10.832
13.761
16.715
19.666
22.611
25.671
28.99
32.592
36.458
40.737
45.57
50.855
56.653
62.799
68.597
75.412
84.43
93.863
103.638
109.267
105.666
98.795
91.968
92.605
110.335
135.707
161.494
180.413
181.647
173.891
165.09
159.044
162.905
171.805
180.471
188.376
193.073
195.937
198.932
201.514
203.71
205.456
206.419
206.792
206.754
206.256
205.295
203.926
202.187
200.058
197.53
194.588
191.21
187.426
183.275
178.766
173.918
168.755
163.3
157.581
151.63
145.468
139.12
132.611
125.969
119.222
112.396
105.52
98.622
91.728
84.866
78.06
71.335
64.716
58.225
51.883
45.709
39.722
33.94
28.377
23.048
17.964
13.137
8.573
4.281
0.265
-3.471
-6.927
-10.101
-12.995
-15.611
-17.952
-20.022
-21.828
-23.375
-24.671
-25.725
-26.547
-27.145
-27.533
-27.722
-27.725
-27.554
-27.225
-26.751
-26.147
-25.427
-24.607
-23.701
-22.724
-21.691
-20.615
-19.51
-18.389
-17.265
-16.148
-15.05
-13.979
-12.947
-11.961
-11.029
-10.159
-9.357
-8.63
-7.984
-7.423
-6.952
-6.574
-6.292
-6.108
-6.024
-6.04
-6.155
-6.37
-6.68
-7.085
-7.579
-8.157
-8.814
-9.542
-10.335
-11.184
-12.081
-13.018
-13.985
-14.974
-15.975
-16.981
-17.98
-18.965
-19.924
-20.849
-21.73
-22.556
-23.319
-24.008
-24.614
-25.129
-25.545
-25.854
-26.047
-26.118
-26.061
-25.869
-25.538
-25.063
-24.441
-23.671
-22.753
-21.688
-20.479
-19.132
-17.651
-16.044
-14.318
-12.481
-10.545
-8.518
-6.413
-4.242
-2.019
0.241
2.522
4.806
7.073
9.303
11.476
13.571
15.568
17.45
19.196
20.791
22.22
23.469
24.525
25.375
26.004
26.395
26.533
26.406
26.006
25.329
24.371
23.133
21.62
19.838
17.798
15.504
12.951
10.134
7.056
3.728
0.17
-3.583
-7.487
-11.496
-15.547
-19.581
-23.538
-27.357
-31.012
-34.478
-37.732
-40.743
-43.459
-45.827
-47.828
-49.466
-50.736
-51.674
-52.336
-52.789
-53.181
-53.629
-54.179
-54.918
-55.9
-57.174
-58.85
-60.991
-63.531
-66.464
-69.886
-73.729
-77.862
-81.88
-84.941
-86.465
-86.28
-84.33
-80.383
-74.194
-65.998
-56.687
-47.999
-41.603
-36.461
-30.83
-25.472
-20.263
-17.867
-20.265
-19.718
-10.37
13.829
58.695
117.204
183.611
253.226
317.432
374.939
423.566
458.26
477.6
478.161
456.992
415.818
357.221
283.635
195.555
91.908
-25.457
-147.527
-255.801
-332.017
-367.465
-365.385
-341.8
-313.943
-291.02
-274.975
-261.779
-247.621
-232.316
-217.909
-207.244
-201.011
-198.162
-196.837
-194.516
-190.115
-183.621
-175.141
-165.3
-154.752
-143.918
-133.5
-124.32
-116.756
-110.922
-106.737
-103.865
-102.037
-101.073
-100.75
-100.837
-101.122
-101.385
-101.445
-101.226
-100.679
-99.768
-98.467
-96.743
-94.596
-92.08
-89.271
-86.246
-83.07
-79.791
-76.453
-73.111
-69.829
-66.676
-63.716
-60.987
-58.505
-56.278
-54.307
-52.592
-51.116
-49.847
-48.74
-47.756
-46.863
-46.033
-45.24
-44.451
-43.631
-42.747
-41.768
-40.667
-39.422
-38.007
-36.402
-34.589
-32.553
-30.281
-27.767
-24.999
-21.969
-18.67
-15.094
-11.241
-7.109
-2.701
1.979
6.923
12.121
17.554
23.208
29.07
35.123
41.348
47.726
54.22
60.804
67.462
74.158
80.837
87.455
93.952
100.285
106.477
112.513
118.331
123.942
129.387
134.672
139.862
144.962
149.781
154.218
158.334
161.94
164.638
166.404
167.303
167.185
166.708
165.301
160.193
151.947
143.015
136.774
142.173
160.281
181.545
197.921
195.019
167.506
130.505
95.171
74.928
78.281
91.625
105.161
112.214
105.923
93.598
80.954
68.872
60.109
52.72
44.662
36.75
28.887
21.161
14.006
7.207
0.563
-5.851
-12.038
-18.074
-23.96
-29.631
-35.059
-40.198
-44.995
-49.464
-53.619
-57.44
-60.925
-64.081
-66.909
-69.42
-71.627
-73.533
-75.145
-76.476
-77.536
-78.339
-78.899
-79.232
-79.352
-79.275
-79.016
-78.593
-78.021
-77.315
-76.493
-75.571
-74.563
-73.486
-72.354
-71.182
-69.984
-68.772
-67.56
-66.357
-65.173
-64.018
-62.898
-61.82
-60.791
-59.813
-58.892
-58.03
-57.23
-56.491
-55.815
-55.201
-54.648
-54.154
-53.715
-53.331
-52.997
-52.71
-52.466
-52.261
-52.092
-51.953
-51.839
-51.746
-51.668
-51.598
-51.529
-51.456
-51.372
-51.271
-51.145
-50.99
-50.799
-50.566
-50.287
-49.954
-49.563
-49.107
-48.581
-47.978
-47.294
-46.524
-45.662
-44.705
-43.647
-42.487
-41.22
-39.843
-38.354
-36.749
-35.025
-33.182
-31.217
-29.13
-26.919
-24.587
-22.136
-19.568
-16.889
-14.104
-11.218
-8.239
-5.175
-2.033
1.178
4.445
7.759
11.109
14.479
17.856
21.221
24.556
27.841
31.058
34.188
37.211
40.111
42.869
45.471
47.904
50.154
52.206
54.047
55.659
57.024
58.127
58.957
59.503
59.761
59.726
59.394
58.768
57.85
56.644
55.148
53.354
51.251
48.846
46.152
43.191
40.004
36.63
33.111
29.501
25.85
22.211
18.643
15.186
11.868
8.722
5.782
3.107
0.758
-1.239
-2.885
-4.207
-5.265
-6.102
-6.768
-7.337
-7.864
-8.437
-9.181
-10.199
-11.59
-13.41
-15.632
-18.298
-21.521
-25.228
-29.235
-33.135
-36.212
-38.075
-38.699
-38.006
-35.953
-32.634
-27.994
-22.491
-17.451
-13.51
-10.618
-8.531
-6.28
-2.911
1.778
8.562
19.553
36.236
59.636
90.541
127.956
170.6
218.209
269.904
323.02
374.681
421.424
458.892
484.438
496.321
491.54
468.707
429.923
375.878
307.846
227.437
132.119
26.692
-76.421
-164.424
-222.728
-248.285
-250.67
-239.439
-224.828
-210.563
-192.992
-172.148
-149.298
-126.594
-108.203
-95.343
-87.746
-85.105
-86.11
-89.176
-92.58
-95.015
-96.044
-95.781
-94.447
-92.249
-89.188
-85.437
-81.891
-79.159
-77.358
-76.469
-76.196
-76.295
-76.859
-77.94
-79.147
-80.15
-80.771
-80.857
-80.505
-79.831
-78.788
-77.331
-75.524
-73.47
-71.285
-69.114
-67.018
-64.977
-63.004
-61.123
-59.377
-57.828
-56.495
-55.363
-54.408
-53.615
-52.969
-52.47
-52.099
-51.778
-51.464
-51.122
-50.71
-50.261
-49.779
-49.21
-48.535
-47.768
-46.857
-45.718
-44.289
-42.474
-40.246
-37.694
-34.835
-31.564
-27.995
-24.547
-21.327
-18.192
-15.178
-11.856
-8.99
-9.152
-11.89
-14.806
-14.098
-2.491
19.8
45.368
66.914
74.08
65.846
52.038
40.27
38.656
48.862
63.518
78
89.243
96.178
101.759
107.376
112.887
118.381
123.392
127.766
131.886
135.859
139.596
143.088
146.336
149.31
151.976
154.285
156.158
157.565
158.532
159.066
159.161
158.821
158.046
156.842
155.225
153.208
150.797
148.002
144.838
141.32
137.468
133.3
128.837
124.1
119.112
113.896
108.476
102.876
97.119
91.231
85.236
79.159
73.024
66.858
60.684
54.527
48.412
42.361
36.397
30.541
24.814
19.234
13.82
8.586
3.549
-1.279
-5.884
-10.256
-14.385
-18.264
-21.886
-25.246
-28.342
-31.171
-33.734
-36.032
-38.068
-39.845
-41.367
-42.641
-43.673
-44.47
-45.041
-45.395
-45.542
-45.494
-45.263
-44.861
-44.302
-43.6
-42.768
-41.821
-40.773
-39.638
-38.43
-37.164
-35.852
-34.51
-33.149
-31.784
-30.428
-29.092
-27.788
-26.526
-25.317
-24.17
-23.092
-22.092
-21.175
-20.349
-19.618
-18.986
-18.459
-18.038
-17.727
-17.525
-17.434
-17.451
-17.575
-17.801
-18.126
-18.544
-19.049
-19.632
-20.288
-21.007
-21.782
-22.602
-23.457
-24.337
-25.23
-26.125
-27.008
-27.868
-28.69
-29.464
-30.176
-30.814
-31.368
-31.826
-32.178
-32.414
-32.524
-32.499
-32.33
-32.009
-31.529
-30.885
-30.072
-29.087
-27.93
-26.601
-25.103
-23.441
-21.619
-19.646
-17.528
-15.274
-12.895
-10.403
-7.811
-5.134
-2.389
0.405
3.226
6.05
8.854
11.615
14.311
16.917
19.411
21.77
23.978
26.015
27.863
29.501
30.907
32.063
32.955
33.57
33.89
33.905
33.6
32.968
32.007
30.715
29.087
27.119
24.801
22.126
19.099
15.731
12.043
8.054
3.785
-0.734
-5.449
-10.297
-15.208
-20.109
-24.95
-29.676
-34.215
-38.51
-42.489
-46.075
-49.252
-52.029
-54.366
-56.231
-57.616
-58.496
-58.941
-59.142
-59.223
-59.287
-59.675
-60.744
-62.453
-64.947
-68.481
-72.551
-78.153
-86.232
-94.673
-102.862
-107.905
-105.963
-100.829
-95.23
-93.472
-101.453
-114.518
-127.785
-136.731
-135.673
-128.035
-117.211
-103.866
-89.615
-72.122
-50.261
-26.033
0.232
28.867
60.615
97.028
138.284
183.268
231.968
284.556
339.481
393.803
442.85
481.06
504.521
510.49
496.004
459.552
401.903
325.543
235.56
138.783
41.206
-51.254
-132.247
-197.503
-244.878
-273.581
-285.193
-282.975
-270.06
-250.477
-229.219
-209.632
-193.667
-182.538
-175.997
-173.118
-173.168
-174.625
-175.266
-173.862
-169.923
-163.416
-155.08
-145.633
-135.529
-125.508
-116.463
-108.899
-103.071
-98.985
-96.318
-94.813
-94.291
-94.515
-95.275
-96.391
-97.665
-98.915
-100.004
-100.821
-101.287
-101.357
-100.987
-100.155
-98.866
-97.17
-95.142
-92.852
-90.358
-87.706
-84.928
-82.075
-79.21
-76.396
-73.698
-71.157
-68.791
-66.614
-64.633
-62.844
-61.232
-59.765
-58.398
-57.094
-55.827
-54.571
-53.305
-52.001
-50.629
-49.164
-47.581
-45.857
-43.972
-41.909
-39.648
-37.177
-34.486
-31.567
-28.417
-25.031
-21.404
-17.533
-13.417
-9.056
-4.452
0.39
5.464
10.76
16.268
21.972
27.855
33.901
40.089
46.396
52.801
59.279
65.804
72.351
78.893
85.402
91.85
98.209
104.451
110.546
116.468
122.186
127.673
132.901
137.845
142.478
146.777
150.718
154.281
157.446
160.196
162.516
164.393
165.815
166.775
167.266
167.285
166.83
165.904
164.51
162.656
160.351
157.605
154.431
150.846
146.865
142.506
137.79
132.738
127.372
121.718
115.799
109.644
103.28
96.735
90.04
83.222
76.313
69.341
62.336
55.327
48.342
41.408
34.553
27.803
21.182
14.714
8.422
2.325
-3.557
-9.208
-14.611
-19.755
-24.627
-29.218
-33.518
-37.523
-41.225
-44.622
-47.711
-50.492
-52.966
-55.136
-57.008
-58.587
-59.881
-60.9
-61.654
-62.153
-62.412
-62.441
-62.256
-61.87
-61.299
-60.56
-59.667
-58.638
-57.49
-56.239
-54.902
-53.494
-52.03
-50.524
-48.992
-47.446
-45.899
-44.363
-42.851
-41.375
-39.946
-38.574
-37.269
-36.037
-34.884
-33.818
-32.842
-31.963
-31.183
-30.505
-29.934
-29.472
-29.123
-28.887
-28.763
-28.743
-28.825
-29.007
-29.286
-29.662
-30.134
-30.697
-31.347
-32.085
-32.906
-33.807
-34.777
-35.799
-36.862
-37.956
-39.078
-40.233
-41.415
-42.608
-43.793
-44.945
-46.044
-47.072
-48.01
-48.834
-49.529
-50.082
-50.493
-50.769
-50.906
-50.898
-50.727
-50.351
-49.756
-48.952
-48.006
-47.06
-46.223
-45.534
-44.98
-44.483
-43.993
-43.542
-43
-42.056
-40.543
-38.441
-36.085
-34.282
-33.432
-33.474
-34.562
-36.752
-39.734
-43.069
-45.247
-44.997
-43.655
-43.14
-44.431
-43.055
-28.683
6.411
63.292
126.516
169.133
172.041
126.994
49.667
-26.584
-77.323
-88.821
-67.656
-35.274
-7.122
10.714
24.393
39.578
56.454
68.587
61.692
37.715
8.037
-15.504
-15.598
6.024
34.935
61.638
74.776
73.56
67.533
61.058
57.191
56.885
56.541
54.823
52.155
48.258
43.421
37.782
30.881
22.613
13.242
2.854
-8.524
-20.732
-33.666
-47.177
-60.99
-74.894
-88.698
-102.168
-115.115
-127.334
-138.582
-148.625
-157.144
-163.982
-169.304
-173.142
-175.418
-175.779
-173.368
-167.714
-159
-147.248
-132.151
-113.846
-92.842
-70.264
-48.806
-29.193
-8.977
11.676
31.006
45.348
46.959
37.944
30.302
35.597
67.238
125.601
196.841
270.051
333.633
382.487
420.504
447.3
462.597
466.711
456.42
430.474
389.45
333.56
265.979
192.123
115.603
38.754
-36.061
-106.965
-171.185
-224.578
-265.224
-293.824
-310.884
-317.09
-313.644
-301.458
-282.92
-262.066
-241.426
-222.072
-204.881
-190.008
-177.438
-167.421
-159.198
-151.147
-142.488
-132.972
-122.565
-111.749
-100.862
-90.061
-79.882
-71.065
-64.03
-58.981
-55.933
-54.632
-54.884
-56.502
-59.164
-62.469
-66.006
-69.485
-72.737
-75.682
-78.271
-80.434
-82.114
-83.286
-83.95
-84.082
-83.634
-82.572
-80.878
-78.601
-75.845
-72.746
-69.48
-66.18
-62.939
-59.829
-56.88
-54.111
-51.523
-49.1
-46.806
-44.631
-42.586
-40.682
-38.927
-37.305
-35.77
-34.268
-32.726
-31.078
-29.268
-27.247
-24.982
-22.451
-19.642
-16.556
-13.203
-9.585
-5.697
-1.533
2.916
7.651
12.668
17.958
23.509
29.304
35.322
41.54
47.936
54.486
61.171
67.967
74.856
81.814
88.815
95.832
102.835
109.791
116.669
123.434
130.053
136.492
142.718
148.702
154.415
159.828
164.917
169.657
174.026
178.003
181.57
184.711
187.41
189.654
191.433
192.739
193.565
193.908
193.767
193.144
192.043
190.472
188.439
185.956
183.037
179.698
175.958
171.836
167.354
162.536
157.409
151.998
146.334
140.443
134.356
128.101
121.708
115.204
108.619
101.979
95.311
88.641
81.994
75.394
68.865
62.429
56.106
49.917
43.882
38.016
32.337
26.86
21.597
16.56
11.76
7.206
2.903
-1.142
-4.926
-8.446
-11.703
-14.697
-17.432
-19.911
-22.138
-24.121
-25.867
-27.382
-28.675
-29.754
-30.63
-31.311
-31.807
-32.127
-32.282
-32.281
-32.134
-31.852
-31.445
-30.922
-30.295
-29.575
-28.771
-27.894
-26.955
-25.965
-24.933
-23.87
-22.785
-21.689
-20.589
-19.495
-18.415
-17.357
-16.328
-15.335
-14.384
-13.481
-12.631
-11.839
-11.109
-10.446
-9.852
-9.333
-8.889
-8.526
-8.244
-8.046
-7.935
-7.91
-7.973
-8.124
-8.361
-8.684
-9.09
-9.578
-10.142
-10.778
-11.482
-12.248
-13.07
-13.939
-14.849
-15.789
-16.752
-17.727
-18.704
-19.672
-20.621
-21.539
-22.418
-23.245
-24.012
-24.707
-25.319
-25.84
-26.262
-26.572
-26.758
-26.811
-26.719
-26.477
-26.083
-25.523
-24.784
-23.876
-22.804
-21.574
-20.199
-18.665
-16.948
-15.072
-13.06
-10.87
-8.473
-5.851
-2.971
0.117
3.322
6.669
10.216
13.749
17.019
20.146
23.097
25.811
28.767
30.61
30.02
28.83
27.584
29.676
39.174
51.537
63.735
71.257
67.921
59.175
49.624
42.395
42.689
46.729
50.698
53.779
53.669
51.676
49.572
47.135
44.671
42.176
39.371
36.433
33.562
30.843
28.139
25.072
21.631
17.99
14.139
10.551
6.282
-1.208
-11.115
-21.114
-27.146
-21.915
-6.527
11.662
24.907
22.329
4.129
-19.857
-42.157
-53.944
-55.658
-55.969
-57.445
-62.721
-69.264
-70.089
-68.064
-65.836
-67.17
-78.04
-93.207
-107.775
-118.535
-120.425
-116.645
-110.446
-102.369
-94.42
-85.211
-72.966
-57.932
-39.949
-19.406
2.617
25.514
48.808
71.75
93.91
115.333
135.938
156.153
177.334
200.473
226.521
255.394
284.554
311.515
335.256
357.856
383.091
410.778
433.931
437.675
407.397
338.75
238.913
125.588
17.247
-76.115
-151.637
-211.237
-257.322
-289.802
-307.444
-309.681
-298.28
-276.523
-248.84
-220.485
-194.846
-173.759
-158.267
-148.011
-142.161
-139.914
-139.671
-139.418
-138.061
-135.085
-130.374
-124.436
-117.717
-110.569
-103.666
-97.74
-93.157
-90.017
-88.192
-87.338
-87.207
-87.619
-88.33
-89.08
-89.621
-89.791
-89.535
-88.871
-87.821
-86.381
-84.537
-82.308
-79.754
-76.95
-73.964
-70.849
-67.642
-64.395
-61.172
-58.037
-55.061
-52.288
-49.732
-47.406
-45.309
-43.435
-41.78
-40.324
-39.027
-37.856
-36.78
-35.771
-34.808
-33.863
-32.902
-31.891
-30.8
-29.602
-28.275
-26.797
-25.148
-23.309
-21.266
-19.008
-16.528
-13.818
-10.871
-7.678
-4.236
-0.542
3.406
7.606
12.055
16.747
21.673
26.823
32.183
37.737
43.469
49.361
55.391
61.537
67.776
74.081
80.428
86.787
93.13
99.428
105.65
111.768
117.753
123.574
129.205
134.616
139.782
144.677
149.277
153.558
157.499
161.081
164.286
167.096
169.499
171.482
173.035
174.148
174.817
175.038
174.81
174.132
173.008
171.443
169.445
167.024
164.191
160.961
157.35
153.376
149.059
144.421
139.484
134.273
128.811
123.124
117.239
111.181
104.977
98.653
92.236
85.751
79.224
72.679
66.142
59.635
53.182
46.805
40.525
34.363
28.338
22.468
16.771
11.262
5.958
0.87
-3.989
-8.609
-12.983
-17.102
-20.963
-24.562
-27.898
-30.971
-33.782
-36.334
-38.632
-40.68
-42.486
-44.056
-45.398
-46.52
-47.431
-48.142
-48.66
-48.997
-49.163
-49.167
-49.021
-48.736
-48.323
-47.793
-47.157
-46.429
-45.62
-44.741
-43.806
-42.826
-41.813
-40.778
-39.734
-38.691
-37.658
-36.645
-35.66
-34.712
-33.807
-32.953
-32.155
-31.419
-30.75
-30.155
-29.638
-29.197
-28.831
-28.54
-28.326
-28.193
-28.143
-28.166
-28.271
-28.489
-28.839
-29.337
-29.987
-30.759
-31.634
-32.626
-33.682
-34.676
-35.531
-36.198
-36.662
-36.992
-37.256
-37.408
-37.629
-38.458
-40.012
-42.013
-44.484
-47.064
-50.448
-57.098
-66.448
-75.872
-81.022
-74.112
-54.24
-27.001
-1.382
8.368
-3.452
-33.671
-72.711
-103.361
-115.463
-105.9
-79.727
-51.104
-29.531
-20.701
-24.149
-31.964
-39.201
-42.93
-42.453
-40.616
-38.679
-36.646
-34.619
-32.084
-28.975
-25.772
-22.656
-19.651
-16.813
-14.144
-11.634
-9.285
-7.07
-4.93
-2.857
-0.891
0.944
2.629
4.147
5.485
6.624
7.541
8.219
8.652
8.832
8.758
8.423
7.821
6.942
5.773
4.309
2.558
0.53
-1.757
-4.278
-7
-9.877
-12.844
-15.85
-18.84
-21.769
-24.599
-27.281
-29.775
-32.045
-34.043
-35.74
-37.125
-38.202
-38.994
-39.558
-39.951
-40.257
-40.596
-41.069
-41.794
-42.884
-44.428
-46.518
-49.2
-52.503
-56.452
-61.05
-66.222
-71.832
-77.696
-83.571
-89.291
-94.716
-99.594
-103.69
-106.76
-108.514
-108.693
-107.083
-103.29
-96.813
-87.455
-74.983
-59.191
-40.534
-19.676
2.82
25.747
49.03
74.841
104.114
135.961
166.535
187.138
191.997
185.314
179.443
192.402
238.903
315.481
402.978
475.201
505.508
482.615
411.743
307.091
187.627
69.657
-35.144
-120.661
-183.171
-223.08
-247.173
-260.55
-268.444
-273.604
-272.637
-264.538
-250.57
-233.195
-216.957
-204.325
-195.45
-189.601
-185.552
-182.213
-178.442
-173.337
-166.512
-157.947
-148.102
-137.652
-127.062
-116.872
-107.762
-100.14
-94.211
-90.009
-87.293
-85.808
-85.376
-85.758
-86.698
-87.978
-89.356
-90.619
-91.662
-92.402
-92.779
-92.765
-92.326
-91.45
-90.177
-88.563
-86.663
-84.533
-82.215
-79.753
-77.206
-74.639
-72.122
-69.726
-67.492
-65.445
-63.598
-61.95
-60.496
-59.222
-58.093
-57.067
-56.106
-55.177
-54.254
-53.312
-52.32
-51.247
-50.061
-48.735
-47.244
-45.568
-43.687
-41.584
-39.245
-36.66
-33.822
-30.728
-27.374
-23.754
-19.865
-15.705
-11.273
-6.572
-1.605
3.624
9.108
14.836
20.794
26.969
33.341
39.894
46.605
53.45
60.406
67.447
74.544
81.671
88.799
95.897
102.939
109.893
116.73
123.423
129.941
136.257
142.342
148.171
153.718
158.959
163.87
168.43
172.62
176.42
179.816
182.791
185.334
187.432
189.077
190.263
190.984
191.241
191.032
190.362
189.236
187.662
185.651
183.216
180.369
177.128
173.51
169.534
165.22
160.589
155.666
150.473
145.035
139.378
133.527
127.51
121.351
115.079
108.719
102.297
95.84
89.372
82.918
76.503
70.15
63.883
57.723
51.69
45.805
40.084
34.545
29.201
24.067
19.153
14.469
10.024
5.824
1.875
-1.818
-5.253
-8.428
-11.343
-13.999
-16.399
-18.546
-20.445
-22.102
-23.523
-24.717
-25.691
-26.454
-27.018
-27.391
-27.587
-27.615
-27.489
-27.221
-26.824
-26.311
-25.695
-24.988
-24.204
-23.354
-22.45
-21.503
-20.525
-19.526
-18.517
-17.506
-16.505
-15.521
-14.564
-13.643
-12.764
-11.936
-11.166
-10.459
-9.823
-9.263
-8.784
-8.39
-8.084
-7.871
-7.751
-7.727
-7.799
-7.966
-8.229
-8.584
-9.032
-9.567
-10.187
-10.888
-11.665
-12.515
-13.431
-14.408
-15.439
-16.519
-17.64
-18.794
-19.976
-21.175
-22.385
-23.596
-24.799
-25.986
-27.145
-28.267
-29.34
-30.355
-31.299
-32.163
-32.938
-33.612
-34.176
-34.623
-34.946
-35.136
-35.188
-35.095
-34.854
-34.46
-33.91
-33.204
-32.339
-31.315
-30.136
-28.802
-27.321
-25.696
-23.934
-22.041
-20.027
-17.9
-15.672
-13.354
-10.958
-8.498
-5.991
-3.455
-0.913
1.615
4.108
6.544
8.901
11.155
13.288
15.282
17.123
18.795
20.283
21.571
22.64
23.476
24.068
24.401
24.467
24.257
23.769
23.004
21.969
20.665
19.094
17.254
15.131
12.721
10.026
7.052
3.818
0.348
-3.327
-7.164
-11.11
-15.12
-19.141
-23.132
-27.056
-30.859
-34.501
-37.943
-41.117
-43.973
-46.465
-48.564
-50.295
-51.702
-52.816
-53.686
-54.353
-54.877
-55.378
-55.974
-56.787
-57.956
-59.527
-61.593
-64.357
-67.83
-71.889
-76.247
-80.259
-83.402
-85.44
-85.984
-84.724
-81.835
-77.645
-72.993
-69.353
-67.625
-68.31
-72.027
-78.675
-87.26
-96.302
-103.354
-105.375
-100.106
-85.685
-59.976
-21.57
29.624
92.59
163.63
236.572
306.103
369.039
426.472
482.632
538.085
585.216
607.095
585.931
515.628
406.664
282.302
164.438
60.919
-35.265
-135.315
-239.445
-333.076
-391.527
-393.116
-338.902
-250.507
-160.76
-104.53
-94.717
-122.244
-167.66
-205.419
-222.442
-220.473
-206.523
-190.971
-179.207
-170.493
-162.89
-154.069
-143.586
-132.615
-122.295
-113.623
-106.849
-101.771
-98.212
-95.874
-94.536
-94.066
-94.295
-95.096
-96.357
-97.932
-99.643
-101.308
-102.784
-103.964
-104.775
-105.172
-105.123
-104.621
-103.702
-102.426
-100.846
-99.016
-96.975
-94.752
-92.398
-89.975
-87.549
-85.195
-82.96
-80.867
-78.933
-77.163
-75.549
-74.078
-72.716
-71.418
-70.147
-68.875
-67.576
-66.229
-64.806
-63.277
-61.613
-59.788
-57.779
-55.567
-53.133
-50.46
-47.537
-44.357
-40.915
-37.211
-33.243
-29.007
-24.505
-19.737
-14.706
-9.418
-3.88
1.9
7.91
14.135
20.558
27.159
33.917
40.81
47.814
54.901
62.047
69.221
76.397
83.544
90.633
97.634
104.516
111.252
117.81
124.163
130.283
136.14
141.71
146.967
151.887
156.449
160.63
164.413
167.78
170.717
173.209
175.247
176.822
177.926
178.556
178.712
178.393
177.605
176.354
174.649
172.501
169.924
166.932
163.544
159.778
155.654
151.193
146.419
141.355
136.025
130.455
124.672
118.701
112.569
106.303
99.929
93.474
86.963
80.422
73.876
67.349
60.865
54.448
48.119
41.901
35.812
29.871
24.096
18.502
13.103
7.91
2.934
-1.817
-6.336
-10.617
-14.657
-18.452
-22.001
-25.303
-28.361
-31.175
-33.75
-36.089
-38.197
-40.08
-41.744
-43.195
-44.441
-45.488
-46.345
-47.019
-47.52
-47.857
-48.039
-48.077
-47.982
-47.765
-47.437
-47.008
-46.489
-45.889
-45.219
-44.488
-43.705
-42.878
-42.015
-41.125
-40.22
-39.307
-38.389
-37.467
-36.54
-35.613
-34.694
-33.788
-32.895
-32.021
-31.199
-30.473
-29.882
-29.449
-29.161
-28.992
-28.942
-28.979
-28.99
-28.833
-28.414
-27.691
-26.708
-25.589
-24.371
-23.239
-22.767
-23.342
-24.905
-27.305
-30.131
-34.23
-41.999
-54.262
-69.189
-79.6
-75.585
-52.397
-12.844
27.524
48.683
39.329
-1.684
-57.059
-102.83
-125.666
-120.85
-99.694
-79.176
-63.91
-53.18
-39.93
-17.75
4.007
13.863
3.264
-29.712
-68.283
-96.415
-104.797
-90.139
-66.082
-44.178
-29.683
-26.527
-28.384
-30.239
-31.424
-29.999
-27.483
-25.333
-22.869
-20.245
-17.416
-14.059
-10.414
-6.699
-2.936
0.772
4.317
7.677
10.867
13.876
16.705
19.363
21.812
24.03
26.016
27.757
29.233
30.421
31.3
31.867
32.11
32.007
31.545
30.697
29.455
27.874
25.982
23.763
21.264
18.552
15.655
12.666
9.633
6.437
3.043
-0.44
-4.141
-8.37
-13.069
-18.085
-23.463
-28.554
-33.916
-42.065
-52.382
-62.537
-69.205
-64.215
-46.887
-25.842
-8.508
-7.802
-27.956
-55.618
-81.016
-92.45
-83.17
-65.239
-47.161
-34.845
-34.125
-38.778
-43.982
-48.782
-50.392
-49.991
-49.053
-46.745
-43.012
-38.09
-32.089
-25.778
-20.569
-17.555
-17.432
-20.762
-27.412
-35.879
-44.225
-50.645
-52.311
-46.413
-30.684
-2.773
38.514
91.739
154.401
224.467
296.597
364.897
426.04
474.205
507.97
529.197
532.02
512.437
467.055
392.272
297.726
194.608
92.072
-0.056
-80.541
-148.157
-200.569
-238.52
-261.038
-269.064
-265.736
-253.33
-235.4
-216.339
-198.841
-184.482
-174.007
-166.818
-162.174
-159.572
-157.874
-155.425
-151.288
-145.204
-137.268
-128.15
-118.471
-108.572
-99.05
-90.67
-83.85
-78.766
-75.394
-73.417
-72.575
-72.708
-73.544
-74.808
-76.25
-77.586
-78.647
-79.377
-79.714
-79.623
-79.089
-78.078
-76.601
-74.723
-72.497
-69.983
-67.244
-64.321
-61.281
-58.203
-55.166
-52.26
-49.546
-47.051
-44.793
-42.776
-40.995
-39.443
-38.094
-36.903
-35.834
-34.852
-33.929
-33.043
-32.162
-31.249
-30.269
-29.188
-27.976
-26.609
-25.063
-23.316
-21.349
-19.146
-16.697
-13.996
-11.033
-7.799
-4.284
-0.483
3.61
7.996
12.673
17.641
22.893
28.418
34.203
40.232
46.486
52.944
59.585
66.383
73.311
80.34
87.441
94.584
101.737
108.868
115.944
122.933
129.802
136.518
143.05
149.366
155.434
161.224
166.707
171.855
176.64
181.038
185.023
188.575
191.674
194.301
196.442
198.083
199.216
199.832
199.929
199.506
198.564
197.109
195.15
192.696
189.762
186.364
182.52
178.25
173.576
168.523
163.115
157.378
151.341
145.03
138.476
131.707
124.754
117.647
110.417
103.094
95.71
88.294
80.877
73.488
66.156
58.909
51.774
44.777
37.943
31.294
24.851
18.635
12.663
6.95
1.51
-3.646
-8.509
-13.071
-17.329
-21.278
-24.919
-28.251
-31.277
-34
-36.425
-38.558
-40.407
-41.978
-43.281
-44.326
-45.124
-45.686
-46.025
-46.152
-46.082
-45.829
-45.406
-44.828
-44.111
-43.268
-42.315
-41.268
-40.14
-38.948
-37.704
-36.424
-35.12
-33.804
-32.488
-31.183
-29.897
-28.641
-27.42
-26.243
-25.116
-24.044
-23.032
-22.086
-21.209
-20.405
-19.678
-19.031
-18.466
-17.986
-17.592
-17.287
-17.071
-16.946
-16.911
-16.967
-17.114
-17.349
-17.673
-18.083
-18.576
-19.149
-19.799
-20.521
-21.312
-22.166
-23.078
-24.045
-25.06
-26.12
-27.219
-28.353
-29.515
-30.7
-31.903
-33.116
-34.335
-35.55
-36.756
-37.944
-39.107
-40.236
-41.323
-42.357
-43.33
-44.233
-45.056
-45.79
-46.426
-46.954
-47.365
-47.653
-47.81
-47.83
-47.705
-47.432
-47.005
-46.426
-45.69
-44.79
-43.723
-42.485
-41.077
-39.508
-37.777
-35.875
-33.814
-31.621
-29.321
-26.944
-24.501
-21.968
-19.351
-16.702
-14.012
-11.22
-8.285
-5.156
-1.848
1.517
4.888
8.354
11.782
14.762
17.196
19.18
20.643
21.993
22.412
19.442
13.619
7.158
3.765
10.388
26.518
45.183
59.405
59.28
44.271
23.696
4.76
-4.713
-3.429
1.643
6.265
7.528
4.628
0.485
-3.565
-7.561
-11.356
-15.339
-19.556
-23.554
-27.162
-30.388
-33.18
-35.502
-37.359
-38.768
-39.803
-40.595
-41.257
-41.896
-42.622
-43.546
-44.785
-46.442
-48.628
-51.451
-54.984
-59.276
-64.341
-70.13
-76.562
-83.531
-90.856
-98.333
-105.723
-112.689
-118.898
-123.999
-127.566
-129.202
-128.467
-124.792
-117.796
-107.313
-93.358
-76.361
-56.923
-35.507
-12.741
10.58
34.027
57.382
81.049
106.608
135.789
170.112
209.373
251.205
293.455
333.629
373.374
419.059
471.431
527.071
573.292
583.897
541.899
442.534
293.509
125.836
-31.109
-159.511
-248.381
-306.033
-344.52
-369.718
-385.475
-387.796
-375.052
-349.909
-318.233
-289.075
-263.007
-238.827
-214.692
-186.525
-158.128
-133.137
-112.148
-97.39
-88.123
-82.911
-82.048
-84.619
-89.093
-94.72
-100.854
-106.558
-110.867
-113.102
-112.771
-110.202
-106.678
-102.962
-99.307
-96.036
-93.336
-91.353
-90.275
-89.868
-89.462
-88.658
-87.32
-85.402
-83.047
-80.339
-77.276
-73.959
-70.566
-67.235
-64.064
-61.103
-58.33
-55.734
-53.328
-51.116
-49.107
-47.294
-45.652
-44.146
-42.733
-41.381
-40.06
-38.746
-37.414
-36.036
-34.583
-33.032
-31.367
-29.572
-27.628
-25.513
-23.202
-20.677
-17.924
-14.935
-11.704
-8.224
-4.485
-0.482
3.79
8.331
13.141
18.218
23.559
29.158
35.001
41.076
47.365
53.848
60.507
67.319
74.261
81.308
88.433
95.609
102.809
110.005
117.166
124.263
131.268
138.15
144.879
151.427
157.765
163.864
169.697
175.236
180.455
185.33
189.838
193.957
197.668
200.953
203.797
206.189
208.116
209.571
210.55
211.05
211.07
210.614
209.686
208.295
206.451
204.166
201.456
198.335
194.823
190.939
186.704
182.139
177.268
172.114
166.702
161.056
155.204
149.171
142.985
136.672
130.26
123.776
117.248
110.7
104.159
97.65
91.197
84.823
78.55
72.398
66.387
60.535
54.858
49.37
44.085
39.012
34.16
29.538
25.149
20.998
17.088
13.419
9.991
6.805
3.857
1.144
-1.337
-3.592
-5.625
-7.445
-9.057
-10.472
-11.696
-12.741
-13.614
-14.327
-14.889
-15.311
-15.604
-15.78
-15.848
-15.82
-15.706
-15.518
-15.265
-14.956
-14.601
-14.208
-13.784
-13.336
-12.871
-12.396
-11.914
-11.433
-10.957
-10.491
-10.04
-9.609
-9.2
-8.819
-8.47
-8.156
-7.88
-7.647
-7.459
-7.319
-7.231
-7.196
-7.218
-7.297
-7.435
-7.633
-7.891
-8.21
-8.59
-9.031
-9.531
-10.092
-10.711
-11.387
-12.12
-12.907
-13.746
-14.634
-15.567
-16.541
-17.553
-18.596
-19.666
-20.756
-21.86
-22.971
-24.079
-25.178
-26.257
-27.308
-28.319
-29.281
-30.183
-31.015
-31.767
-32.43
-32.994
-33.451
-33.792
-34.01
-34.096
-34.043
-33.847
-33.499
-32.996
-32.334
-31.509
-30.52
-29.369
-28.056
-26.586
-24.962
-23.189
-21.276
-19.232
-17.065
-14.789
-12.414
-9.957
-7.431
-4.857
-2.253
0.36
2.958
5.518
8.017
10.432
12.739
14.92
16.953
18.822
20.51
22.003
23.285
24.34
25.149
25.698
25.974
25.969
25.678
25.099
24.233
23.084
21.661
19.974
18.032
15.833
13.366
10.626
7.624
4.376
0.909
-2.746
-6.561
-10.502
-14.512
-18.54
-22.537
-26.459
-30.289
-34.012
-37.592
-40.977
-44.089
-46.861
-49.274
-51.336
-53.04
-54.39
-55.379
-55.994
-56.325
-56.475
-56.528
-56.599
-56.75
-56.996
-57.449
-58.3
-59.585
-61.233
-62.956
-64.142
-64.357
-63.314
-60.574
-55.855
-49.27
-41.241
-32.828
-25.707
-21.165
-20.24
-24.11
-33.048
-46.159
-61.723
-76.842
-87.827
-91.572
-85.229
-65.346
-29.753
21.291
86.151
160.341
236.911
311.405
379.939
439.471
490.8
530.244
551.068
545.031
500.65
416.372
299.389
164.334
33.448
-78.896
-164.636
-222.923
-262.447
-289.4
-308.842
-322.649
-327.004
-320.668
-304.338
-281.321
-257.96
-237.842
-222.125
-210.914
-202.986
-197.567
-194.264
-191.691
-188.18
-182.888
-175.567
-166.485
-156.277
-145.374
-134.09
-123.062
-113.067
-104.536
-97.606
-92.16
-87.882
-84.569
-82.109
-80.363
-79.176
-78.404
-77.945
-77.769
-77.907
-78.344
-79.027
-79.846
-80.638
-81.332
-81.932
-82.45
-82.921
-83.351
-83.695
-83.949
-84.157
-84.28
-84.188
-83.765
-82.888
-81.527
-79.812
-77.835
-75.564
-73.16
-71.079
-69.458
-68.159
-67.235
-66.247
-65.927
-68.932
-74.867
-81.203
-84.062
-75.856
-56.528
-33.81
-15.217
-11.448
-23.843
-42.052
-58.025
-63.302
-55.836
-43.295
-30.574
-20.817
-15.23
-10.713
-5.733
-0.434
5.299
10.988
16.459
22.109
28.052
34.179
40.471
46.916
53.472
60.092
66.713
73.239
79.621
85.865
91.956
97.86
103.549
108.991
114.157
119.029
123.582
127.788
131.622
135.063
138.092
140.697
142.863
144.581
145.842
146.642
146.976
146.845
146.251
145.198
143.693
141.743
139.359
136.554
133.341
129.736
125.755
121.417
116.742
111.751
106.464
100.906
95.1
89.071
82.846
76.452
69.916
63.268
56.534
49.745
42.927
36.109
29.316
22.573
15.905
9.335
2.882
-3.432
-9.589
-15.572
-21.365
-26.953
-32.324
-37.465
-42.367
-47.019
-51.414
-55.545
-59.408
-62.997
-66.31
-69.345
-72.102
-74.581
-76.784
-78.715
-80.378
-81.78
-82.928
-83.83
-84.497
-84.939
-85.168
-85.195
-85.034
-84.696
-84.196
-83.545
-82.757
-81.845
-80.821
-79.698
-78.49
-77.208
-75.866
-74.474
-73.045
-71.592
-70.124
-68.653
-67.187
-65.74
-64.325
-62.952
-61.632
-60.373
-59.18
-58.067
-57.048
-56.115
-55.266
-54.496
-53.797
-53.183
-52.681
-52.274
-51.943
-51.737
-51.689
-51.827
-52.192
-52.747
-53.42
-54.248
-55.3
-56.386
-57.286
-58.126
-58.89
-59.535
-60.525
-60.583
-58.466
-55.925
-53.483
-54.376
-62.467
-73.449
-84.464
-91.275
-88.043
-79.957
-71.398
-65.302
-66.605
-71.783
-77.186
-81.935
-83.791
-83.92
-83.917
-83.633
-83.341
-82.842
-81.983
-81.357
-81.118
-81.139
-81.551
-81.67
-82.151
-85.722
-91.647
-97.509
-99.71
-89.451
-66.225
-39.432
-17.383
-13.857
-32.948
-60.449
-85.367
-96.284
-87.524
-69.996
-52.019
-36.613
-25.722
-16.978
-8.337
-3.266
-5.237
-10.956
-17.875
-22.372
-19.719
-13.35
-6.447
-0.001
3.65
5.765
7.893
9.619
11.116
12.311
12.886
13.074
13.078
12.819
12.268
11.459
10.376
8.999
7.326
5.326
2.97
0.309
-2.604
-5.717
-8.962
-12.291
-15.647
-18.963
-22.181
-25.238
-28.091
-30.707
-33.042
-35.052
-36.711
-37.99
-38.905
-39.517
-39.889
-40.127
-40.349
-40.633
-41.093
-41.838
-42.989
-44.716
-47.105
-50.175
-53.934
-58.323
-63.328
-69.055
-75.325
-81.667
-87.644
-92.689
-96.478
-99.163
-100.515
-99.852
-96.91
-91.815
-84.994
-77.52
-69.771
-60.911
-50.534
-38.837
-25.82
-11.307
5.693
27.526
55.819
90.389
130.786
176.496
226.866
281.225
337.424
391.092
437.555
473.317
495.598
502.439
491.994
462.204
412.981
346.974
268.43
182.142
92.79
4.468
-78.169
-149.573
-205.947
-245.761
-269.203
-278.017
-274.39
-260.455
-239.526
-216.186
-193.843
-174.532
-159.362
-148.195
-140.675
-136.538
-134.581
-132.783
-129.891
-125.404
-119.226
-111.904
-103.9
-95.43
-87.1
-79.752
-73.86
-69.605
-66.918
-65.418
-64.816
-64.947
-65.561
-66.393
-67.207
-67.75
-67.893
-67.621
-66.913
-65.758
-64.141
-62.034
-59.466
-56.513
-53.254
-49.765
-46.111
-42.344
-38.535
-34.742
-31.025
-27.452
-24.053
-20.86
-17.906
-15.175
-12.648
-10.367
-8.347
-6.574
-5.056
-3.73
-2.501
-1.386
-0.426
0.592
1.91
3.431
5.194
7.259
9.196
12.248
17.622
23.636
29.787
32.964
29.444
23.37
17.504
15.954
24.36
37.736
51.859
63.829
68.857
70.352
71.767
73.859
78.723
85.114
91.435
97.964
104.474
111.046
117.974
125.019
131.984
138.892
145.726
152.431
158.981
165.354
171.525
177.489
183.253
188.769
193.994
198.905
203.472
207.671
211.481
214.877
217.836
220.344
222.389
223.961
225.052
225.657
225.774
225.402
224.544
223.204
221.391
219.113
216.382
213.213
209.62
205.623
201.241
196.496
191.411
186.012
180.326
174.378
168.199
161.818
155.265
148.57
141.765
134.88
127.946
120.993
114.048
107.142
100.298
93.544
86.902
80.394
74.04
67.861
61.872
56.09
50.529
45.202
40.119
35.289
30.721
26.421
22.392
18.638
15.159
11.956
9.027
6.369
3.976
1.843
-0.037
-1.674
-3.076
-4.255
-5.222
-5.989
-6.568
-6.972
-7.215
-7.308
-7.264
-7.096
-6.814
-6.432
-5.96
-5.409
-4.789
-4.112
-3.386
-2.622
-1.829
-1.015
-0.189
0.641
1.467
2.282
3.079
3.851
4.592
5.296
5.959
6.575
7.142
7.654
8.11
8.507
8.844
9.118
9.328
9.474
9.555
9.57
9.52
9.405
9.224
8.978
8.669
8.297
7.862
7.368
6.816
6.208
5.548
4.84
4.087
3.294
2.469
1.615
0.741
-0.147
-1.042
-1.935
-2.818
-3.682
-4.518
-5.316
-6.068
-6.763
-7.391
-7.942
-8.406
-8.775
-9.038
-9.188
-9.216
-9.114
-8.875
-8.491
-7.957
-7.266
-6.414
-5.396
-4.21
-2.854
-1.326
0.371
2.235
4.261
6.445
8.779
11.255
13.865
16.596
19.437
22.373
25.391
28.472
31.601
34.755
37.911
41.045
44.135
47.156
50.083
52.892
55.56
58.067
60.394
62.525
64.441
66.124
67.554
68.714
69.586
70.156
70.408
70.334
69.926
69.183
68.111
66.713
64.991
62.945
60.568
57.855
54.809
51.438
47.755
43.793
39.586
35.186
30.658
26.061
21.446
16.867
12.363
7.978
3.765
-0.235
-3.973
-7.393
-10.456
-13.128
-15.396
-17.305
-18.915
-20.3
-21.559
-22.754
-23.965
-25.313
-26.896
-28.834
-31.247
-34.174
-37.694
-41.965
-46.97
-52.558
-58.41
-63.867
-68.349
-71.475
-72.72
-71.689
-68.457
-63.328
-57.096
-51.179
-46.616
-44.169
-44.759
-48.486
-54.38
-60.889
-65.569
-65.406
-57.942
-40.717
-10.981
32.522
89.12
156.677
231.69
310.219
388.296
460.997
522.22
566.645
591.094
594.419
576.366
536.605
475.798
396.232
303.82
206.959
110.146
15.481
-76.65
-168.485
-254.801
-325.976
-374.789
-392.603
-381.109
-352.259
-316.447
-285.987
-266.397
-253.265
-243.448
-233.941
-223.569
-214.831
-208.168
-201.825
-193.934
-182.998
-168.774
-152.146
-134.02
-114.99
-95.713
-77.139
-60.347
-46.07
-34.623
-25.962
-19.841
-16.12
-14.706
-15.442
-18.092
-22.365
-27.957
-34.601
-42.11
-50.281
-58.861
-67.555
-76.006
-83.908
-91.062
-97.336
-102.65
-106.937
-110.132
-112.2
-113.169
-113.121
-112.155
-110.378
-107.866
-104.705
-101.015
-96.953
-92.708
-88.435
-84.225
-80.138
-76.21
-72.472
-68.953
-65.655
-62.543
-59.573
-56.703
-53.898
-51.139
-48.391
-45.605
-42.72
-39.666
-36.394
-32.875
-29.092
-25.035
-20.696
-16.075
-11.183
-6.047
-0.691
4.867
10.613
16.536
22.618
28.836
35.164
41.577
48.051
54.564
61.091
67.608
74.091
80.516
86.861
93.106
99.228
105.201
110.999
116.594
121.96
127.071
131.903
136.431
140.632
144.486
147.977
151.088
153.805
156.117
158.011
159.479
160.515
161.112
161.266
160.977
160.244
159.069
157.458
155.416
152.952
150.076
146.8
143.138
139.107
134.724
130.01
124.985
119.673
114.098
108.286
102.264
96.059
89.699
83.211
76.623
69.963
63.258
56.532
49.813
43.123
36.487
29.927
23.466
17.123
10.919
4.872
-1
-6.682
-12.158
-17.416
-22.444
-27.232
-31.771
-36.054
-40.076
-43.834
-47.325
-50.55
-53.509
-56.205
-58.644
-60.831
-62.773
-64.479
-65.957
-67.219
-68.273
-69.131
-69.804
-70.304
-70.64
-70.826
-70.873
-70.792
-70.595
-70.294
-69.9
-69.424
-68.878
-68.273
-67.62
-66.928
-66.203
-65.456
-64.701
-63.95
-63.212
-62.494
-61.798
-61.13
-60.511
-59.939
-59.391
-58.852
-58.3
-57.736
-57.204
-56.711
-56.217
-55.752
-55.409
-55.262
-55.39
-55.804
-56.388
-57.11
-58.095
-59.218
-60.026
-60.424
-60.547
-60.334
-60.269
-59.456
-55.083
-47.747
-40.028
-36.167
-44.157
-63.53
-86.251
-104.322
-106.384
-91.68
-70.951
-52.498
-45.277
-50.873
-61.25
-71.464
-78.148
-80.264
-81.078
-82.075
-83.133
-84.356
-85.24
-85.649
-86.013
-86.456
-86.89
-87.316
-87.744
-88.147
-88.496
-88.743
-88.803
-88.644
-88.296
-87.764
-87.039
-86.118
-84.997
-83.676
-82.168
-80.475
-78.599
-76.541
-74.307
-71.902
-69.338
-66.622
-63.766
-60.783
-57.687
-54.494
-51.222
-47.894
-44.534
-41.167
-37.821
-34.522
-31.297
-28.175
-25.179
-22.335
-19.665
-17.186
-14.922
-12.892
-11.111
-9.596
-8.36
-7.415
-6.778
-6.454
-6.431
-6.717
-7.336
-8.298
-9.624
-11.312
-13.328
-15.682
-18.42
-21.505
-24.834
-28.314
-31.836
-35.361
-38.954
-42.589
-46.093
-49.516
-53.225
-57.274
-61.485
-65.859
-69.887
-74.295
-81.662
-91.462
-101.234
-107.042
-101.369
-84.491
-64.057
-47.693
-46.246
-60.832
-81.44
-100.325
-109.139
-106.3
-99.599
-93.824
-92.035
-94.987
-98.999
-102.046
-103.897
-104.203
-103.215
-101.324
-98.642
-95.702
-93.808
-93.997
-96.832
-102.665
-111.218
-120.981
-129.846
-135.653
-135.677
-127.621
-109.455
-79.156
-36.003
18.913
83.151
153.855
227.851
301.866
371.635
431.977
478.61
508.304
519.078
509.78
479.265
427.133
356.965
274.058
181.678
85.088
-14.038
-114.609
-206.353
-282.193
-335.935
-361.316
-365.121
-354.725
-335.908
-317.285
-300.146
-284.272
-270.818
-258.725
-249.005
-242.397
-237.893
-234.322
-229.474
-221.881
-211.407
-198.28
-183.209
-166.986
-150.215
-133.732
-118.537
-105.227
-94.069
-85.159
-78.379
-73.634
-70.872
-69.905
-70.447
-72.246
-75.038
-78.542
-82.556
-86.835
-91.08
-95.111
-98.814
-102.085
-104.9
-107.191
-108.8
-109.66
-109.787
-109.124
-107.614
-105.232
-101.947
-97.874
-93.269
-88.29
-82.975
-77.599
-72.72
-68.512
-64.857
-61.794
-58.843
-57.032
-59.296
-64.879
-70.964
-72.931
-62.282
-39.665
-13.551
7.773
12.212
-1.341
-21.588
-39.571
-45.816
-38.211
-26.143
-17.736
-16.012
-19.326
-19.85
-7.723
16.628
44.938
68.385
75.053
64.383
47.678
33.502
31.122
42.364
58.842
75.328
88.295
96.502
103.301
110.293
117.335
124.519
131.31
137.533
143.622
149.7
155.66
161.481
167.157
172.642
177.893
182.846
187.399
191.507
195.188
198.437
201.235
203.57
205.428
206.805
207.705
208.13
208.075
207.539
206.527
205.047
203.108
200.722
197.903
194.666
191.029
187.011
182.634
177.921
172.897
167.586
162.016
156.213
150.206
144.023
137.691
131.24
124.696
118.089
111.444
104.789
98.149
91.549
85.012
78.562
72.22
66.005
59.936
54.03
48.302
42.766
37.434
32.316
27.42
22.754
18.322
14.13
10.177
6.467
2.997
-0.233
-3.226
-5.985
-8.516
-10.823
-12.913
-14.791
-16.464
-17.94
-19.227
-20.333
-21.266
-22.035
-22.649
-23.117
-23.449
-23.653
-23.739
-23.713
-23.586
-23.363
-23.053
-22.665
-22.204
-21.677
-21.091
-20.452
-19.767
-19.042
-18.281
-17.487
-16.661
-15.808
-14.934
-14.046
-13.152
-12.258
-11.37
-10.494
-9.638
-8.809
-8.012
-7.245
-6.508
-5.801
-5.131
-4.509
-3.945
-3.444
-3.002
-2.607
-2.254
-1.936
-1.652
-1.393
-1.148
-0.913
-0.687
-0.485
-0.325
-0.216
-0.155
-0.123
-0.092
-0.056
-0.035
-0.082
-0.259
-0.587
-1.043
-1.584
-2.188
-2.86
-3.642
-4.489
-5.24
-5.856
-6.497
-7.54
-9.405
-12.185
-15.518
-18.971
-22.411
-25.638
-28.151
-28.962
-26.846
-21.345
-13.138
-3.428
7.003
17.574
27.559
35.692
40.256
40.429
36.898
31.247
24.715
18.051
11.843
6.947
4.714
5.93
10.202
16.322
23.229
30.346
37.412
44.197
50.14
54.796
58.233
60.917
63.305
65.616
67.84
69.851
71.648
73.294
74.781
76.03
76.939
77.451
77.582
77.4
76.964
76.3
75.404
74.261
72.859
71.185
69.236
67.014
64.526
61.787
58.822
55.656
52.331
48.901
45.409
41.9
38.412
34.971
31.619
28.404
25.368
22.585
20.117
17.995
16.232
14.801
13.653
12.745
12.019
11.401
10.79
10.053
9.067
7.706
5.853
3.455
0.405
-3.495
-8.256
-13.734
-19.598
-25.189
-29.985
-33.708
-35.898
-36.152
-34.539
-31.328
-27.34
-24.068
-22.448
-23.022
-26.575
-33.173
-41.908
-51.434
-59.389
-62.518
-58.389
-44.992
-19.555
19.753
72.755
138.514
213.303
290.138
365.07
435.464
499.049
557.984
607.595
636.299
633.241
585.793
494.679
374.868
242.974
117.305
4.6
-97.599
-190.433
-274.99
-344.228
-390.297
-408.68
-396.473
-361.104
-311.37
-256.569
-207.604
-166.129
-132.113
-105.983
-86.214
-75.351
-74.785
-81.903
-93.592
-106.177
-117.037
-125.677
-131.574
-133.433
-130.775
-124.125
-114.953
-105.426
-96.807
-89.333
-83.193
-78.708
-76.048
-75.226
-75.726
-76.514
-76.98
-76.939
-76.338
-75.277
-73.773
-71.734
-69.215
-66.416
-63.476
-60.489
-57.489
-54.42
-51.291
-48.164
-45.109
-42.224
-39.565
-37.145
-34.974
-33.05
-31.369
-29.93
-28.719
-27.7
-26.843
-26.123
-25.52
-25.023
-24.613
-24.257
-23.916
-23.549
-23.12
-22.602
-21.971
-21.202
-20.273
-19.164
-17.858
-16.345
-14.612
-12.643
-10.424
-7.943
-5.188
-2.153
1.168
4.775
8.669
12.847
17.302
22.025
27.005
32.229
37.683
43.347
49.203
55.228
61.397
67.686
74.066
80.507
86.978
93.449
99.885
106.255
112.524
118.66
124.63
130.4
135.939
141.216
146.203
150.869
155.189
159.137
162.691
165.829
168.533
170.784
172.568
173.875
174.693
175.017
174.843
174.168
172.993
171.323
169.164
166.524
163.415
159.852
155.85
151.429
146.609
141.414
135.867
129.994
123.824
117.383
110.701
103.808
96.733
89.507
82.161
74.724
67.226
59.697
52.166
44.659
37.206
29.831
22.561
15.419
8.429
1.613
-5.009
-11.418
-17.596
-23.527
-29.198
-34.595
-39.711
-44.535
-49.062
-53.288
-57.211
-60.828
-64.142
-67.153
-69.866
-72.285
-74.417
-76.269
-77.848
-79.163
-80.225
-81.046
-81.634
-81.998
-82.148
-82.094
-81.85
-81.434
-80.85
-80.106
-79.227
-78.239
-77.162
-76.025
-74.827
-73.558
-72.248
-70.931
-69.57
-68.138
-66.618
-64.974
-63.252
-61.535
-59.789
-57.946
-56.209
-54.812
-53.623
-52.661
-51.973
-51.072
-51.291
-53.93
-57.142
-60.371
-60.22
-52.624
-42.088
-31.612
-25.667
-30.388
-40.345
-50.934
-58.997
-59.319
-55.622
-51.676
-48.317
-47.839
-48.899
-49.773
-50.78
-51.693
-52.617
-53.892
-55.282
-56.595
-57.882
-59.147
-60.358
-61.51
-62.605
-63.64
-64.636
-65.621
-66.566
-67.445
-68.252
-68.974
-69.602
-70.128
-70.539
-70.82
-70.969
-70.978
-70.842
-70.557
-70.117
-69.519
-68.761
-67.84
-66.757
-65.512
-64.107
-62.545
-60.83
-58.969
-56.964
-54.823
-52.553
-50.163
-47.663
-45.063
-42.375
-39.614
-36.796
-33.941
-31.067
-28.192
-25.336
-22.518
-19.757
-17.073
-14.482
-11.997
-9.632
-7.403
-5.327
-3.418
-1.691
-0.157
1.17
2.278
3.153
3.785
4.166
4.296
4.175
3.8
3.164
2.257
1.077
-0.362
-2.051
-3.973
-6.108
-8.431
-10.899
-13.45
-16.027
-18.574
-21.036
-23.374
-25.541
-27.49
-29.192
-30.607
-31.711
-32.515
-33.022
-33.242
-33.222
-33.007
-32.657
-32.291
-32.009
-31.921
-32.181
-32.89
-34.129
-35.97
-38.4
-41.436
-45.123
-49.397
-54.172
-59.34
-64.65
-69.988
-75.384
-80.524
-84.927
-88.075
-89.209
-87.98
-84.501
-78.457
-69.426
-57.577
-43.471
-28.293
-13.725
-0.245
12.632
24.893
36.696
48.589
61.78
79.246
104.3
138.234
179.567
225.262
272.295
318.971
366.881
417.358
467.139
509.282
530.624
516.504
460.575
363.383
234.903
93.549
-43.213
-158.385
-239.624
-284.456
-298.212
-293.096
-281.134
-269.474
-259.186
-246.458
-230.059
-211.461
-193.22
-179.3
-170.983
-166.886
-165.74
-165.601
-164.29
-161.082
-155.745
-148.223
-139.208
-129.379
-119.153
-109.209
-100.34
-92.933
-87.17
-83.05
-80.26
-78.545
-77.741
-77.613
-77.934
-78.508
-79.109
-79.553
-79.761
-79.675
-79.253
-78.484
-77.342
-75.824
-73.975
-71.858
-69.536
-67.066
-64.488
-61.838
-59.165
-56.529
-53.997
-51.638
-49.492
-47.57
-45.88
-44.421
-43.186
-42.169
-41.334
-40.621
-40
-39.466
-39.012
-38.637
-38.31
-37.957
-37.543
-37.079
-36.504
-35.705
-34.59
-33.057
-31.084
-28.774
-26.145
-23.066
-19.669
-16.393
-13.308
-10.287
-7.39
-4.114
-1.438
-2.122
-5.424
-8.889
-8.223
4.44
28.174
55.159
77.454
83.809
74.071
58.709
45.774
44.136
54.859
70.034
84.94
96.175
102.89
108.286
113.691
118.994
124.263
128.974
133.01
136.778
140.375
143.708
146.771
149.567
152.064
154.232
156.019
157.344
158.181
158.563
158.499
157.987
157.033
155.64
153.817
151.584
148.956
145.941
142.551
138.803
134.714
130.307
125.603
120.624
115.395
109.942
104.29
98.467
92.5
86.416
80.243
74.008
67.739
61.462
55.203
48.986
42.836
36.773
30.821
24.997
19.32
13.806
8.472
3.33
-1.606
-6.325
-10.817
-15.072
-19.083
-22.843
-26.346
-29.59
-32.572
-35.291
-37.748
-39.946
-41.889
-43.581
-45.029
-46.241
-47.224
-47.989
-48.545
-48.904
-49.077
-49.075
-48.91
-48.595
-48.139
-47.555
-46.854
-46.045
-45.14
-44.149
-43.08
-41.944
-40.751
-39.509
-38.229
-36.919
-35.589
-34.247
-32.902
-31.562
-30.235
-28.928
-27.647
-26.4
-25.19
-24.024
-22.904
-21.835
-20.819
-19.859
-18.955
-18.11
-17.323
-16.596
-15.929
-15.322
-14.777
-14.294
-13.873
-13.515
-13.221
-12.99
-12.823
-12.719
-12.678
-12.698
-12.777
-12.912
-13.101
-13.341
-13.626
-13.953
-14.315
-14.707
-15.121
-15.552
-15.994
-16.439
-16.88
-17.311
-17.726
-18.118
-18.481
-18.807
-19.091
-19.325
-19.502
-19.614
-19.653
-19.612
-19.481
-19.252
-18.919
-18.475
-17.912
-17.224
-16.404
-15.449
-14.353
-13.114
-11.73
-10.198
-8.52
-6.697
-4.734
-2.635
-0.408
1.941
4.403
6.969
9.627
12.367
15.179
18.05
20.967
23.918
26.887
29.857
32.813
35.734
38.599
41.387
44.076
46.644
49.073
51.343
53.435
55.334
57.028
58.506
59.756
60.766
61.519
62.001
62.202
62.117
61.745
61.086
60.137
58.903
57.4
55.643
53.645
51.408
48.913
46.154
43.138
39.881
36.415
32.775
28.984
25.091
21.168
17.283
13.518
9.926
6.512
3.294
0.303
-2.422
-4.793
-6.753
-8.318
-9.497
-10.306
-10.783
-10.935
-10.805
-10.516
-10.198
-9.948
-9.859
-9.994
-10.386
-11.045
-12.104
-13.784
-16.068
-18.967
-22.364
-25.394
-27.444
-28.556
-27.993
-26.254
-24.589
-21.671
-17.613
-11.535
-0.443
13.584
27.192
34.748
28.193
6.628
-22.853
-46.412
-48.3
-19.268
38.304
112.976
193.011
269.022
337.609
399.861
453.675
495.703
521.903
527.065
508.707
466.847
403.48
323.095
231.754
136.213
42.558
-43.595
-116.803
-173.505
-212.169
-232.754
-237.352
-229.527
-212.665
-190.733
-168.377
-148.661
-133.283
-123.165
-117.849
-116.213
-117.345
-119.772
-121.477
-121.395
-119.175
-114.813
-108.955
-102.257
-95.113
-88.147
-82.115
-77.393
-74.127
-72.274
-71.511
-71.59
-72.361
-73.594
-75.074
-76.614
-78.004
-79.107
-79.878
-80.272
-80.263
-79.844
-78.994
-77.723
-76.081
-74.125
-71.918
-69.515
-66.959
-64.297
-61.588
-58.897
-56.299
-53.847
-51.569
-49.484
-47.599
-45.916
-44.439
-43.152
-42.024
-41.027
-40.132
-39.319
-38.57
-37.861
-37.162
-36.444
-35.674
-34.828
-33.884
-32.82
-31.614
-30.246
-28.7
-26.965
-25.03
-22.886
-20.521
-17.926
-15.09
-12.008
-8.676
-5.091
-1.253
2.838
7.177
11.755
16.564
21.593
26.828
32.255
37.857
43.615
49.508
55.514
61.609
67.767
73.963
80.167
86.35
92.484
98.539
104.484
110.288
115.922
121.356
126.56
131.506
136.167
140.517
144.531
148.188
151.466
154.346
156.812
158.849
160.444
161.587
162.271
162.49
162.243
161.529
160.351
158.713
156.625
154.095
151.135
147.761
143.988
139.835
135.322
130.471
125.305
119.85
114.132
108.178
102.016
95.675
89.184
82.573
75.87
69.105
62.305
55.5
48.716
41.98
35.318
28.754
22.313
16.016
9.886
3.94
-1.804
-7.329
-12.621
-17.669
-22.462
-26.991
-31.25
-35.233
-38.936
-42.358
-45.498
-48.357
-50.938
-53.245
-55.284
-57.061
-58.584
-59.862
-60.905
-61.722
-62.323
-62.719
-62.923
-62.945
-62.797
-62.492
-62.043
-61.463
-60.764
-59.96
-59.062
-58.082
-57.033
-55.924
-54.767
-53.571
-52.346
-51.101
-49.844
-48.584
-47.328
-46.083
-44.855
-43.652
-42.476
-41.334
-40.229
-39.165
-38.145
-37.173
-36.252
-35.385
-34.577
-33.828
-33.144
-32.525
-31.973
-31.491
-31.078
-30.737
-30.466
-30.266
-30.136
-30.078
-30.095
-30.183
-30.339
-30.557
-30.835
-31.169
-31.562
-32.009
-32.493
-33.016
-33.597
-34.249
-34.989
-35.812
-36.675
-37.57
-38.527
-39.512
-40.435
-41.226
-41.806
-42.16
-42.385
-42.497
-42.377
-42.134
-42.164
-42.532
-43.116
-43.959
-44.61
-45.904
-50.329
-57.26
-64.435
-68.002
-60.843
-43.604
-23.371
-7.28
-5.452
-18.236
-36.12
-51.774
-57.19
-51.211
-40.969
-30.771
-23.649
-20.423
-18.189
-15.69
-13.023
-10.109
-7.408
-5.034
-2.615
-0.056
2.559
5.221
7.93
10.648
13.342
15.96
18.416
20.676
22.752
24.634
26.304
27.746
28.946
29.889
30.569
30.975
31.094
30.922
30.451
29.672
28.574
27.14
25.365
23.257
20.826
18.083
15.05
11.756
8.249
4.597
0.864
-2.892
-6.62
-10.277
-13.801
-17.122
-20.179
-22.911
-25.288
-27.303
-28.941
-30.199
-31.114
-31.747
-32.21
-32.654
-33.205
-33.979
-35.105
-36.7
-38.902
-41.849
-45.622
-50.268
-55.784
-62.108
-69.182
-76.912
-85.119
-93.59
-102.033
-110.067
-117.327
-123.427
-127.915
-130.376
-130.33
-127.218
-120.714
-110.745
-97.483
-81.422
-62.988
-42.425
-20.195
3.01
26.785
51.153
76.834
105.198
137.101
172.643
211.707
254.163
299.549
346.344
391.386
430.463
459.807
476.227
477.473
461.602
426.22
372.626
304.684
224.978
138.207
45.93
-51.569
-144.646
-224.493
-282.71
-311.664
-317.659
-307.774
-288.012
-266.429
-242.857
-218.206
-195.153
-173.375
-155.274
-142.339
-133.695
-129.103
-127.156
-125.579
-123.38
-120.169
-115.761
-110.643
-105.297
-100.016
-95.348
-91.955
-90.129
-89.874
-91.042
-93.246
-96.118
-99.4
-102.774
-105.91
-108.603
-110.733
-112.249
-113.189
-113.577
-113.402
-112.686
-111.477
-109.827
-107.814
-105.506
-102.959
-100.25
-97.462
-94.68
-91.986
-89.431
-87.039
-84.819
-82.772
-80.888
-79.158
-77.561
-76.065
-74.639
-73.26
-71.902
-70.545
-69.162
-67.723
-66.195
-64.552
-62.768
-60.826
-58.707
-56.396
-53.879
-51.146
-48.189
-45.004
-41.584
-37.922
-34.01
-29.844
-25.42
-20.738
-15.798
-10.602
-5.156
0.531
6.448
12.579
18.91
25.424
32.1
38.917
45.852
52.882
59.979
67.118
74.271
81.41
88.505
95.526
102.444
109.231
115.856
122.291
128.507
134.476
140.172
145.569
150.641
155.365
159.718
163.68
167.232
170.356
173.038
175.264
177.023
178.308
179.114
179.437
179.278
178.638
177.524
175.941
173.901
171.414
168.494
165.159
161.424
157.311
152.839
148.031
142.91
137.501
131.83
125.921
119.802
113.499
107.041
100.454
93.766
87.004
80.196
73.368
66.546
59.756
53.023
46.369
39.819
33.393
27.11
20.99
15.05
9.303
3.765
-1.554
-6.644
-11.496
-16.104
-20.462
-24.567
-28.417
-32.012
-35.353
-38.44
-41.278
-43.871
-46.224
-48.344
-50.236
-51.909
-53.372
-54.633
-55.701
-56.586
-57.299
-57.85
-58.249
-58.508
-58.638
-58.649
-58.552
-58.357
-58.074
-57.712
-57.281
-56.789
-56.243
-55.653
-55.023
-54.362
-53.674
-52.965
-52.24
-51.503
-50.757
-50.007
-49.256
-48.507
-47.763
-47.027
-46.301
-45.588
-44.891
-44.213
-43.556
-42.923
-42.315
-41.735
-41.186
-40.67
-40.19
-39.748
-39.347
-38.989
-38.677
-38.413
-38.2
-38.04
-37.935
-37.888
-37.9
-37.974
-38.111
-38.312
-38.579
-38.914
-39.316
-39.785
-40.321
-40.922
-41.586
-42.31
-43.089
-43.921
-44.798
-45.716
-46.668
-47.646
-48.641
-49.646
-50.65
-51.643
-52.613
-53.549
-54.437
-55.267
-56.026
-56.701
-57.282
-57.755
-58.112
-58.34
-58.429
-58.37
-58.152
-57.767
-57.207
-56.465
-55.535
-54.412
-53.094
-51.58
-49.87
-47.968
-45.875
-43.598
-41.143
-38.518
-35.734
-32.803
-29.74
-26.559
-23.279
-19.921
-16.511
-13.073
-9.632
-6.213
-2.841
0.455
3.651
6.724
9.652
12.414
14.988
17.35
19.477
21.349
22.942
24.239
25.221
25.87
26.172
26.115
25.693
24.897
23.722
22.16
20.199
17.836
15.078
11.936
8.432
4.597
0.468
-3.905
-8.456
-13.127
-17.849
-22.555
-27.183
-31.662
-35.934
-39.951
-43.655
-47.005
-49.98
-52.571
-54.792
-56.704
-58.362
-59.824
-61.188
-62.528
-63.946
-65.608
-67.655
-70.209
-73.359
-77.129
-81.487
-86.494
-92.17
-98.267
-104.549
-110.699
-116.341
-121.443
-125.98
-129.522
-131.591
-132.108
-130.786
-127.496
-122.478
-115.158
-105.094
-92.778
-78.497
-62.024
-43.624
-23.266
-0.223
25.094
52.782
84.303
119.981
159.167
201.494
245.778
290.005
333.016
372.247
403.308
423.535
431.442
425.579
405.675
371.823
323.751
263.599
195.707
123.318
49.364
-23.037
-91.345
-152.19
-201.942
-239.373
-265.001
-279.242
-283.115
-277.94
-265.307
-248.342
-230.285
-212.903
-197.197
-183.791
-172.768
-164.255
-157.945
-152.499
-146.834
-140.515
-133.376
-125.678
-117.799
-109.914
-102.42
-96.01
-91.101
-87.844
-86.197
-85.84
-86.481
-87.896
-89.802
-91.874
-93.811
-95.399
-96.535
-97.204
-97.398
-97.104
-96.299
-94.982
-93.21
-91.045
-88.551
-85.792
-82.821
-79.709
-76.543
-73.405
-70.382
-67.526
-64.862
-62.4
-60.142
-58.079
-56.2
-54.484
-52.89
-51.381
-49.93
-48.506
-47.087
-45.644
-44.143
-42.549
-40.831
-38.964
-36.926
-34.697
-32.257
-29.59
-26.686
-23.534
-20.13
-16.467
-12.538
-8.336
-3.856
0.904
5.943
11.259
16.85
22.707
28.82
35.174
41.754
48.54
55.512
62.649
69.926
77.318
84.797
92.337
99.908
107.482
115.027
122.514
129.912
137.19
144.318
151.264
158
164.494
170.72
176.65
182.257
187.518
192.407
196.905
200.99
204.646
207.857
210.608
212.89
214.693
216.012
216.844
217.19
217.052
216.436
215.348
213.799
211.802
209.37
206.52
203.269
199.637
195.644
191.313
186.667
181.731
176.531
171.092
165.442
159.608
153.617
147.498
141.278
134.984
128.644
122.284
115.93
109.608
103.343
97.158
91.075
85.115
79.299
73.644
68.167
62.881
57.801
52.938
48.301
43.898
39.736
35.82
32.153
28.739
25.577
22.667
20.008
17.596
15.427
13.497
11.798
10.324
9.067
8.018
7.169
6.509
6.03
5.719
5.566
5.559
5.687
5.937
6.299
6.761
7.311
7.938
8.632
9.383
10.181
11.018
11.884
12.772
13.674
14.582
15.491
16.392
17.282
18.154
19.004
19.826
20.618
21.375
22.093
22.77
23.403
23.988
24.523
25.006
25.435
25.809
26.127
26.387
26.589
26.733
26.818
26.845
26.812
26.721
26.57
26.361
26.093
25.766
25.381
24.938
24.438
23.882
23.271
22.607
21.892
21.128
20.316
19.46
18.564
17.631
16.667
15.675
14.661
13.631
12.591
11.549
10.51
9.482
8.471
7.487
6.536
5.629
4.772
3.974
3.244
2.59
2.022
1.547
1.173
0.907
0.757
0.729
0.831
1.068
1.444
1.963
2.63
3.447
4.414
5.53
6.793
8.201
9.747
11.427
13.233
15.157
17.188
19.316
21.529
23.815
26.157
28.54
30.944
33.35
35.736
38.083
40.369
42.573
44.675
46.657
48.503
50.197
51.722
53.061
54.198
55.117
55.802
56.233
56.395
56.277
55.872
55.176
54.187
52.901
51.318
49.437
47.253
44.766
41.977
38.891
35.519
31.888
28.038
24.024
19.911
15.748
11.592
7.497
3.517
-0.283
-3.857
-7.175
-10.195
-12.879
-15.194
-17.106
-18.62
-19.785
-20.673
-21.391
-22.065
-22.787
-23.652
-24.764
-26.248
-28.258
-30.897
-34.199
-38.157
-42.73
-47.945
-53.899
-60.481
-67.346
-74.019
-79.925
-84.69
-88.289
-90.578
-91.072
-89.477
-85.742
-80.155
-73.792
-67.576
-61.196
-54.227
-45.572
-32.714
-15.639
4.75
26.797
45.655
62.946
85.25
119.463
174.666
247.346
324.836
396.965
453.116
493.886
523.24
535.392
523.539
477.497
394.763
288.025
171.947
62.069
-33.316
-115.63
-184.658
-240.363
-281.915
-306.239
-314.492
-310.416
-297.618
-280.889
-264.016
-248.802
-236.593
-227.951
-222.194
-218.222
-214.696
-210.09
-203.49
-194.466
-183.078
-169.866
-155.11
-140.902
-129.395
-119.631
-111.664
-102.25
-87.302
-71.438
-57.597
-50.255
-55.491
-67.214
-80.287
-91.141
-94.061
-92.708
-90.821
-89.093
-89.814
-91.549
-92.451
-92.824
-92.404
-91.246
-89.716
-87.636
-84.909
-81.748
-78.305
-74.67
-70.973
-67.35
-63.894
-60.701
-57.835
-55.257
-52.941
-50.89
-49.101
-47.587
-46.346
-45.342
-44.528
-43.846
-43.24
-42.662
-42.059
-41.374
-40.561
-39.587
-38.432
-37.097
-35.574
-33.85
-31.91
-29.734
-27.306
-24.616
-21.654
-18.415
-14.895
-11.09
-7.004
-2.645
1.978
6.858
11.984
17.351
22.947
28.755
34.759
40.936
47.266
53.723
60.28
66.907
73.573
80.249
86.902
93.505
100.024
106.43
112.691
118.776
124.654
130.295
135.667
140.74
145.485
149.874
153.879
157.476
160.64
163.351
165.589
167.339
168.587
169.323
169.539
169.23
168.396
167.036
165.157
162.765
159.871
156.487
152.629
148.318
143.571
138.413
132.867
126.958
120.712
114.158
107.324
100.239
92.936
85.445
77.799
70.031
62.175
54.265
46.333
38.412
30.536
22.734
15.038
7.476
0.075
-7.137
-14.138
-20.904
-27.415
-33.654
-39.606
-45.256
-50.596
-55.616
-60.31
-64.676
-68.712
-72.416
-75.793
-78.843
-81.573
-83.989
-86.097
-87.908
-89.431
-90.679
-91.663
-92.397
-92.897
-93.178
-93.256
-93.147
-92.868
-92.437
-91.871
-91.186
-90.401
-89.532
-88.597
-87.61
-86.588
-85.544
-84.493
-83.446
-82.415
-81.409
-80.437
-79.506
-78.624
-77.796
-77.027
-76.322
-75.685
-75.119
-74.626
-74.207
-73.866
-73.601
-73.413
-73.301
-73.265
-73.303
-73.413
-73.593
-73.84
-74.151
-74.523
-74.951
-75.431
-75.958
-76.527
-77.133
-77.77
-78.434
-79.118
-79.818
-80.529
-81.247
-81.967
-82.686
-83.4
-84.104
-84.794
-85.466
-86.116
-86.739
-87.331
-87.888
-88.404
-88.876
-89.297
-89.663
-89.968
-90.208
-90.376
-90.468
-90.477
-90.397
-90.224
-89.954
-89.581
-89.103
-88.515
-87.815
-87.002
-86.073
-85.026
-83.861
-82.576
-81.171
-79.647
-78.002
-76.238
-74.357
-72.361
-70.255
-68.042
-65.727
-63.317
-60.817
-58.237
-55.584
-52.869
-50.102
-47.293
-44.456
-41.606
-38.757
-35.927
-33.132
-30.389
-27.715
-25.127
-22.64
-20.269
-18.028
-15.928
-13.981
-12.197
-10.589
-9.167
-7.942
-6.924
-6.125
-5.553
-5.216
-5.123
-5.279
-5.685
-6.342
-7.251
-8.412
-9.832
-11.51
-13.437
-15.601
-17.982
-20.557
-23.293
-26.152
-29.079
-32.015
-34.899
-37.668
-40.27
-42.66
-44.798
-46.644
-48.152
-49.291
-50.054
-50.453
-50.517
-50.28
-49.778
-49.076
-48.28
-47.524
-46.951
-46.697
-46.876
-47.566
-48.827
-50.699
-53.205
-56.337
-60.027
-64.158
-68.622
-73.312
-78.111
-82.86
-87.251
-90.849
-93.265
-94.056
-92.675
-88.745
-82.005
-72.369
-60.242
-46.166
-30.453
-13.59
3.629
20.785
37.971
55.949
76.551
101.792
131.226
162.779
195.861
229.184
265.45
311.779
367.847
430.207
488.593
520.761
511.853
453.436
346.342
211.329
71.779
-48.661
-131.454
-175.961
-190.799
-192.244
-195.798
-206.76
-223.428
-238.033
-244.845
-243.845
-238.108
-232.593
-229.713
-228.75
-228.249
-226.531
-222.396
-215.623
-206.06
-193.62
-178.84
-162.499
-145.379
-128.332
-112.148
-97.264
-84.009
-72.663
-63.254
-55.814
-50.384
-46.838
-45.02
-44.792
-45.929
-48.188
-51.283
-54.817
-58.482
-62.065
-65.381
-68.336
-70.881
-72.934
-74.459
-75.432
-75.762
-75.395
-74.339
-72.598
-70.186
-67.167
-63.65
-59.793
-55.801
-51.852
-47.982
-44.144
-40.551
-37.464
-34.728
-32.33
-30.325
-28.192
-27.337
-29.14
-31.621
-34.143
-33.056
-23.974
-11.582
0.997
9.083
6.212
-1.855
-10.235
-15.585
-12.402
-4.624
3.761
11.873
17.289
21.432
26.114
30.988
36.273
41.835
47.291
52.868
58.742
64.836
71.119
77.599
84.258
91.065
97.993
104.985
111.973
118.948
125.897
132.787
139.587
146.268
152.797
159.15
165.304
171.229
176.897
182.282
187.358
192.102
196.493
200.508
204.13
207.339
210.121
212.461
214.347
215.772
216.727
217.208
217.215
216.747
215.809
214.406
212.546
210.239
207.498
204.338
200.776
196.829
192.52
187.871
182.906
177.651
172.131
166.375
160.41
154.265
147.969
141.55
135.038
128.463
121.852
115.234
108.638
102.089
95.615
89.241
82.991
76.886
70.95
65.2
59.654
54.329
49.239
44.396
39.81
35.49
31.443
27.673
24.184
20.977
18.052
15.408
13.041
10.946
9.118
7.548
6.229
5.151
4.303
3.675
3.254
3.027
2.981
3.103
3.378
3.792
4.329
4.976
5.718
6.54
7.429
8.37
9.352
10.361
11.387
12.417
13.441
14.451
15.436
16.388
17.299
18.162
18.971
19.719
20.402
21.013
21.549
22.007
22.382
22.672
22.874
22.987
23.008
22.938
22.775
22.519
22.172
21.734
21.206
20.591
19.89
19.107
18.244
17.304
16.29
15.206
14.055
12.842
11.57
10.243
8.865
7.443
5.98
4.482
2.955
1.404
-0.163
-1.742
-3.323
-4.901
-6.468
-8.017
-9.539
-11.026
-12.471
-13.865
-15.199
-16.466
-17.657
-18.763
-19.777
-20.691
-21.498
-22.192
-22.767
-23.216
-23.535
-23.72
-23.767
-23.672
-23.432
-23.046
-22.513
-21.833
-21.006
-20.035
-18.922
-17.672
-16.289
-14.78
-13.153
-11.414
-9.572
-7.637
-5.619
-3.531
-1.383
0.81
3.034
5.273
7.506
9.714
11.878
13.98
16.002
17.927
19.736
21.415
22.953
24.34
25.564
26.61
27.465
28.114
28.547
28.754
28.728
28.463
27.955
27.201
26.205
24.969
23.492
21.767
19.78
17.521
14.991
12.2
9.167
5.928
2.518
-1.016
-4.609
-8.208
-11.758
-15.2
-18.492
-21.584
-24.417
-26.945
-29.114
-30.869
-32.184
-33.05
-33.492
-33.597
-33.454
-33.167
-32.858
-32.605
-32.53
-32.808
-33.599
-35.089
-37.418
-40.593
-44.664
-49.756
-55.821
-62.71
-70.04
-77.022
-83.145
-88.284
-92.261
-94.978
-96.456
-96.489
-95.338
-94.133
-93.346
-92.862
-92.466
-91.177
-87.94
-82.441
-73.859
-60.156
-39.932
-12.016
24.728
69.648
121.549
179.941
243.58
309.461
374.21
433.421
481.728
515.713
532.884
530.275
505.975
460.317
395.128
314.517
224.869
131.61
39.715
-45.014
-117.698
-175.339
-216.341
-241.378
-253.429
-255.276
-249.888
-241.233
-232.532
-225.922
-222.841
-223.284
-226.049
-230.056
-233.93
-235.795
-234.475
-229.361
-220.243
-207.672
-192.522
-175.586
-157.82
-140.272
-123.648
-108.431
-94.907
-83.097
-73.004
-64.659
-58.056
-53.138
-49.848
-48.133
-47.88
-48.945
-51.134
-54.198
-57.892
-61.993
-66.272
-70.493
-74.497
-78.159
-81.38
-84.08
-86.141
-87.451
-87.955
-87.629
-86.492
-84.587
-81.979
-78.777
-75.112
-71.125
-66.947
-62.682
-58.41
-54.228
-50.152
-46.117
-42.101
-38.074
-34.038
-30.104
-26.292
-22.461
-18.719
-15.493
-12.836
-10.556
-8.652
-6.58
-5.168
-7.165
-11.976
-17.023
-18.113
-7.333
14.921
40.691
62.08
67.877
57.25
40.828
26.823
24.061
34.163
49.172
64.166
75.816
83.057
89.103
95.425
101.888
108.591
115.028
121.05
127.071
133.197
139.326
145.443
151.538
157.568
163.484
169.218
174.67
179.79
184.589
189.055
193.162
196.891
200.218
203.128
205.615
207.667
209.266
210.4
211.06
211.24
210.938
210.152
208.883
207.135
204.913
202.225
199.082
195.497
191.485
187.063
182.251
177.07
171.544
165.697
159.555
153.145
146.494
139.633
132.587
125.387
118.061
110.637
103.143
95.608
88.057
80.518
73.016
65.576
58.223
50.981
43.871
36.915
30.132
23.542
17.16
11.004
5.086
-0.581
-5.988
-11.126
-15.989
-20.573
-24.874
-28.893
-32.63
-36.087
-39.269
-42.181
-44.828
-47.219
-49.361
-51.264
-52.938
-54.391
-55.635
-56.68
-57.537
-58.217
-58.732
-59.093
-59.312
-59.4
-59.371
-59.235
-59.006
-58.695
-58.314
-57.875
-57.39
-56.868
-56.32
-55.756
-55.185
-54.614
-54.05
-53.501
-52.973
-52.47
-51.997
-51.558
-51.157
-50.796
-50.479
-50.207
-49.983
-49.809
-49.687
-49.619
-49.607
-49.654
-49.76
-49.928
-50.157
-50.449
-50.803
-51.22
-51.698
-52.236
-52.832
-53.485
-54.192
-54.951
-55.76
-56.615
-57.513
-58.452
-59.427
-60.436
-61.474
-62.537
-63.622
-64.724
-65.84
-66.963
-68.09
-69.213
-70.327
-71.425
-72.498
-73.539
-74.539
-75.487
-76.376
-77.195
-77.937
-78.593
-79.154
-79.612
-79.96
-80.19
-80.297
-80.272
-80.111
-79.807
-79.357
-78.755
-78
-77.089
-76.019
-74.79
-73.402
-71.857
-70.156
-68.303
-66.3
-64.154
-61.871
-59.46
-56.932
-54.299
-51.575
-48.777
-45.922
-43.032
-40.124
-37.221
-34.342
-31.508
-28.742
-26.061
-23.484
-21.028
-18.711
-16.554
-14.576
-12.794
-11.226
-9.889
-8.804
-7.988
-7.457
-7.22
-7.278
-7.635
-8.299
-9.281
-10.597
-12.25
-14.232
-16.536
-19.156
-22.075
-25.268
-28.687
-32.256
-35.911
-39.602
-43.296
-46.968
-50.584
-54.089
-57.43
-60.562
-63.461
-66.122
-68.524
-70.636
-72.464
-74.044
-75.477
-76.92
-78.487
-80.25
-82.257
-84.511
-87.048
-89.966
-93.339
-97.236
-101.691
-106.62
-112.011
-117.938
-124.268
-130.723
-136.811
-141.667
-144.579
-145.315
-143.659
-139.497
-133.105
-124.622
-114.61
-104.58
-95.834
-88.938
-84.021
-80.344
-76.44
-71.499
-64.3
-52.219
-32.683
-3.543
36.373
86.08
143.238
206.14
272.646
338.887
400.176
450.975
486.445
504.426
504.282
484.999
445.691
387.055
311.783
224.892
131.945
36.778
-57.569
-147.052
-226.669
-292.064
-340.548
-371.769
-387.112
-386.954
-372.686
-349.176
-320.099
-288.206
-253.78
-211.493
-163.068
-117.957
-86.133
-79.578
-97.566
-126.441
-154.619
-171.101
-173.66
-169.563
-162.492
-155.19
-148.874
-141.535
-133.694
-126.599
-120.404
-115.791
-113.102
-112.051
-112.536
-114.122
-115.826
-117.046
-117.595
-117.442
-116.734
-115.548
-113.823
-111.581
-108.992
-106.195
-103.284
-100.295
-97.184
-93.957
-90.674
-87.408
-84.25
-81.248
-78.411
-75.741
-73.23
-70.869
-68.655
-66.565
-64.568
-62.638
-60.751
-58.891
-57.053
-55.218
-53.36
-51.451
-49.457
-47.35
-45.111
-42.722
-40.168
-37.435
-34.512
-31.389
-28.063
-24.527
-20.774
-16.798
-12.593
-8.155
-3.484
1.419
6.55
11.904
17.471
23.242
29.204
35.343
41.644
48.089
54.661
61.339
68.103
74.931
81.799
88.684
95.56
102.399
109.175
115.861
122.427
128.844
135.083
141.117
146.916
152.454
157.705
162.643
167.244
171.486
175.347
178.809
181.854
184.467
186.634
188.343
189.587
190.358
190.653
190.471
189.81
188.675
187.07
185.003
182.482
179.52
176.128
172.324
168.124
163.548
158.619
153.359
147.794
141.951
135.857
129.541
123.033
116.362
109.559
102.655
95.68
88.664
81.637
74.628
67.665
60.775
53.986
47.322
40.806
34.462
28.31
22.369
16.658
11.192
5.985
1.051
-3.601
-7.961
-12.023
-15.782
-19.235
-22.382
-25.224
-27.765
-30.008
-31.962
-33.635
-35.035
-36.175
-37.067
-37.722
-38.157
-38.383
-38.418
-38.275
-37.969
-37.517
-36.933
-36.232
-35.429
-34.539
-33.576
-32.553
-31.484
-30.383
-29.26
-28.128
-26.997
-25.877
-24.778
-23.706
-22.67
-21.675
-20.726
-19.828
-18.984
-18.197
-17.467
-16.795
-16.182
-15.626
-15.127
-14.683
-14.291
-13.95
-13.658
-13.411
-13.209
-13.048
-12.926
-12.842
-12.793
-12.776
-12.791
-12.836
-12.908
-13.006
-13.128
-13.273
-13.44
-13.627
-13.834
-14.059
-14.303
-14.564
-14.841
-15.135
-15.445
-15.769
-16.108
-16.461
-16.825
-17.2
-17.585
-17.977
-18.374
-18.774
-19.172
-19.567
-19.953
-20.327
-20.684
-21.018
-21.324
-21.596
-21.827
-22.012
-22.142
-22.212
-22.214
-22.141
-21.986
-21.743
-21.404
-20.964
-20.416
-19.754
-18.974
-18.069
-17.038
-15.875
-14.579
-13.15
-11.586
-9.889
-8.062
-6.109
-4.034
-1.843
0.457
2.857
5.348
7.92
10.561
13.259
16.001
18.77
21.55
24.323
27.068
29.768
32.4
34.944
37.381
39.691
41.857
43.863
45.695
47.336
48.773
49.992
50.976
51.709
52.176
52.366
52.272
51.888
51.213
50.251
49.003
47.478
45.679
43.599
41.237
38.593
35.675
32.497
29.091
25.496
21.763
17.95
14.116
10.319
6.616
3.054
-0.332
-3.518
-6.472
-9.142
-11.479
-13.445
-15.027
-16.236
-17.102
-17.689
-18.075
-18.371
-18.703
-19.158
-19.83
-20.831
-22.24
-24.131
-26.581
-29.585
-33.166
-37.429
-42.281
-47.466
-52.608
-56.986
-59.933
-61.189
-60.455
-57.426
-52.238
-45.123
-36.759
-28.831
-22.817
-19.171
-17.916
-18.474
-19.619
-20.258
-18.453
-10.659
6.616
35.642
77.284
130.723
194.165
265.59
341.413
415.9
482.307
534.045
566.166
575.663
560.383
519.142
453.081
365.889
263.588
153.723
43.221
-61.762
-154.861
-230.615
-285.828
-319.525
-333.183
-330.294
-314.575
-289.997
-261.577
-234.026
-210.485
-192.714
-180.933
-174.135
-171.201
-170.787
-170.786
-169.169
-164.836
-157.415
-147.275
-135.232
-121.962
-108.144
-94.669
-82.398
-71.83
-63.157
-56.311
-51.098
-47.44
-45.28
-44.495
-44.886
-46.227
-48.321
-50.98
-54.062
-57.392
-60.746
-63.942
-66.853
-69.418
-71.614
-73.418
-74.76
-75.545
-75.715
-75.243
-74.143
-72.457
-70.221
-67.507
-64.407
-61.043
-57.566
-54.084
-50.656
-47.308
-44.045
-40.873
-37.819
-34.913
-32.157
-29.546
-27.068
-24.71
-22.464
-20.306
-18.189
-16.043
-13.792
-11.378
-8.766
-5.934
-2.864
0.458
4.048
7.912
12.043
16.437
21.095
26.019
31.214
36.677
42.394
48.347
54.513
60.874
67.409
74.1
80.925
87.862
94.889
101.987
109.137
116.317
123.5
130.655
137.752
144.759
151.645
158.375
164.918
171.239
177.308
183.095
188.572
193.713
198.489
202.876
206.852
210.395
213.486
216.106
218.241
219.878
221.007
221.62
221.714
221.285
220.333
218.862
216.876
214.384
211.395
207.922
203.981
199.588
194.766
189.537
183.927
177.962
171.671
165.085
158.235
151.155
143.877
136.435
128.862
121.194
113.462
105.702
97.945
90.223
82.568
75.01
67.576
60.293
53.188
46.284
39.602
33.164
26.988
21.091
15.488
10.191
5.21
0.555
-3.769
-7.759
-11.413
-14.732
-17.719
-20.38
-22.72
-24.749
-26.478
-27.917
-29.08
-29.982
-30.637
-31.062
-31.275
-31.292
-31.131
-30.811
-30.347
-29.759
-29.063
-28.276
-27.413
-26.492
-25.526
-24.532
-23.523
-22.512
-21.513
-20.536
-19.592
-18.692
-17.842
-17.051
-16.325
-15.668
-15.084
-14.577
-14.148
-13.798
-13.527
-13.335
-13.219
-13.178
-13.208
-13.307
-13.469
-13.692
-13.971
-14.302
-14.682
-15.106
-15.57
-16.071
-16.606
-17.171
-17.763
-18.378
-19.015
-19.669
-20.339
-21.022
-21.716
-22.419
-23.13
-23.848
-24.571
-25.3
-26.033
-26.77
-27.51
-28.253
-28.999
-29.747
-30.497
-31.249
-32
-32.75
-33.499
-34.243
-34.981
-35.709
-36.423
-37.12
-37.794
-38.442
-39.058
-39.637
-40.173
-40.662
-41.097
-41.475
-41.788
-42.03
-42.197
-42.281
-42.277
-42.18
-41.983
-41.682
-41.272
-40.75
-40.114
-39.362
-38.493
-37.504
-36.397
-35.173
-33.837
-32.39
-30.84
-29.191
-27.454
-25.641
-23.765
-21.837
-19.872
-17.881
-15.882
-13.888
-11.912
-9.965
-8.06
-6.211
-4.434
-2.745
-1.16
0.306
1.635
2.811
3.817
4.634
5.253
5.666
5.86
5.823
5.544
5.003
4.195
3.125
1.796
0.218
-1.593
-3.616
-5.812
-8.127
-10.519
-12.945
-15.363
-17.739
-20.018
-22.147
-24.093
-25.815
-27.294
-28.538
-29.541
-30.312
-30.905
-31.367
-31.766
-32.209
-32.761
-33.499
-34.533
-35.956
-37.88
-40.405
-43.559
-47.361
-51.813
-56.838
-62.369
-68.295
-74.418
-80.592
-86.653
-92.341
-97.427
-101.614
-104.487
-105.716
-104.896
-101.533
-95.443
-86.62
-75.275
-62.032
-47.392
-31.595
-15.15
1.4
18.126
35.446
54.508
77.18
104.386
136.141
172.392
212.758
256.007
300.002
341.011
374.1
395.659
403.396
395.494
370.683
328.478
269.919
198.42
119.152
36.791
-44.672
-121.344
-189.294
-244.867
-285.921
-312.417
-325.888
-328.254
-321.454
-307.845
-290.497
-272.453
-255.674
-241.07
-228.731
-218.349
-209.685
-202.141
-194.47
-185.685
-175.47
-163.853
-151.275
-138.289
-125.229
-112.617
-101.259
-91.719
-84.296
-79.115
-75.985
-74.682
-75.043
-76.771
-79.489
-82.803
-86.315
-89.764
-93.027
-96.009
-98.632
-100.825
-102.495
-103.595
-104.113
-103.997
-103.225
-101.785
-99.696
-97.049
-93.982
-90.671
-87.285
-83.95
-80.745
-77.72
-74.902
-72.303
-69.929
-67.758
-65.767
-63.961
-62.345
-60.927
-59.697
-58.617
-57.626
-56.649
-55.617
-54.467
-53.149
-51.627
-49.871
-47.864
-45.598
-43.078
-40.305
-37.271
-33.963
-30.369
-26.479
-22.293
-17.814
-13.047
-8.003
-2.694
2.863
8.652
14.656
20.859
27.246
33.801
40.506
47.34
54.279
61.297
68.366
75.456
82.536
89.573
96.536
103.391
110.109
116.66
123.011
129.135
135.002
140.585
145.859
150.797
155.375
159.571
163.364
166.733
169.663
172.136
174.139
175.661
176.694
177.232
177.271
176.812
175.855
174.405
172.469
170.055
167.175
163.843
160.074
155.886
151.3
146.338
141.024
135.383
129.441
123.224
116.762
110.081
103.212
96.183
89.023
81.761
74.428
67.052
59.663
52.29
44.959
37.699
30.536
23.495
16.6
9.874
3.338
-2.989
-9.088
-14.943
-20.539
-25.863
-30.905
-35.654
-40.103
-44.247
-48.081
-51.604
-54.814
-57.713
-60.304
-62.591
-64.58
-66.276
-67.688
-68.824
-69.695
-70.311
-70.685
-70.828
-70.753
-70.475
-70.008
-69.367
-68.566
-67.621
-66.546
-65.356
-64.065
-62.689
-61.24
-59.733
-58.18
-56.594
-54.988
-53.373
-51.76
-50.158
-48.578
-47.027
-45.514
-44.045
-42.628
-41.266
-39.967
-38.733
-37.569
-36.479
-35.464
-34.528
-33.671
-32.895
-32.2
-31.584
-31.048
-30.588
-30.202
-29.889
-29.645
-29.47
-29.359
-29.309
-29.319
-29.386
-29.506
-29.677
-29.895
-30.157
-30.46
-30.802
-31.179
-31.588
-32.028
-32.496
-32.988
-33.502
-34.035
-34.584
-35.143
-35.708
-36.275
-36.838
-37.392
-37.93
-38.447
-38.941
-39.409
-39.849
-40.258
-40.634
-40.973
-41.276
-41.54
-41.757
-41.919
-42.017
-42.043
-41.991
-41.857
-41.635
-41.319
-40.903
-40.383
-39.763
-39.038
-38.203
-37.241
-36.133
-34.876
-33.479
-31.963
-30.344
-28.633
-26.843
-24.999
-23.13
-21.257
-19.375
-17.46
-15.479
-13.423
-11.299
-9.137
-6.968
-4.8
-2.618
-0.402
1.85
4.142
6.484
8.917
11.501
14.251
17.127
20.034
22.874
25.583
28.132
30.515
32.718
34.701
36.414
37.813
38.879
39.587
39.884
39.68
38.862
37.375
35.246
32.566
29.428
25.898
22.018
17.811
13.334
8.651
3.831
-1.056
-5.956
-10.791
-15.451
-19.797
-23.678
-26.987
-29.694
-31.808
-33.347
-34.361
-34.889
-34.962
-34.637
-33.93
-32.876
-31.614
-30.305
-29.163
-28.444
-28.291
-28.879
-30.451
-33.011
-36.429
-40.44
-44.405
-47.788
-50.524
-52.509
-53.697
-54.523
-55.275
-56.414
-59.056
-63.708
-69.951
-77.254
-84.662
-90.609
-93.909
-93.075
-85.897
-71.289
-49.218
-19.742
16.57
58.858
106.536
158.242
211.69
265.49
318.767
369.981
417.114
457.308
487.179
504.206
506.822
493.04
460.738
409.447
340.653
257.942
166.367
70.979
-23.521
-111.682
-187.37
-246.217
-286.193
-307.38
-311.84
-302.292
-281.573
-253.738
-223.984
-196.212
-172.77
-154.844
-142.158
-134.058
-129.936
-128.265
-126.819
-124.247
-119.947
-113.798
-106.4
-98.295
-89.822
-81.686
-74.728
-69.381
-65.803
-63.89
-63.251
-63.592
-64.714
-66.335
-68.177
-69.988
-71.533
-72.704
-73.478
-73.834
-73.758
-73.233
-72.248
-70.843
-69.086
-67.04
-64.771
-62.33
-59.764
-57.131
-54.477
-51.871
-49.404
-47.129
-45.087
-43.29
-41.7
-40.307
-39.144
-38.158
-37.225
-36.246
-35.117
-33.798
-32.376
-30.861
-29.108
-27.189
-25.492
-24.106
-22.878
-21.841
-20.563
-19.736
-21.944
-26.837
-31.939
-33.516
-24.224
-3.923
19.875
39.888
45.739
35.966
20.54
7.218
4.127
13.314
27.356
41.483
52.673
59.716
65.592
71.79
78.15
84.777
91.207
97.259
103.32
109.502
115.702
121.902
128.093
134.231
140.268
146.14
151.749
157.045
162.033
166.702
171.023
174.978
178.545
181.706
184.458
186.788
188.68
190.125
191.114
191.643
191.71
191.315
190.461
189.152
187.395
185.197
182.57
179.526
176.08
172.248
168.048
163.501
158.628
153.452
147.998
142.292
136.361
130.231
123.932
117.49
110.933
104.29
97.587
90.852
84.111
77.39
70.714
64.107
57.592
51.192
44.927
38.815
32.876
27.125
21.576
16.244
11.139
6.272
1.651
-2.718
-6.828
-10.676
-14.26
-17.58
-20.637
-23.434
-25.973
-28.261
-30.304
-32.11
-33.685
-35.04
-36.184
-37.126
-37.878
-38.45
-38.855
-39.104
-39.209
-39.181
-39.034
-38.779
-38.428
-37.991
-37.481
-36.906
-36.278
-35.605
-34.897
-34.162
-33.408
-32.641
-31.868
-31.095
-30.328
-29.57
-28.827
-28.101
-27.395
-26.714
-26.059
-25.432
-24.837
-24.275
-23.748
-23.258
-22.805
-22.393
-22.021
-21.69
-21.401
-21.154
-20.95
-20.789
-20.672
-20.599
-20.57
-20.586
-20.648
-20.755
-20.909
-21.11
-21.358
-21.654
-21.998
-22.392
-22.835
-23.329
-23.873
-24.468
-25.113
-25.807
-26.548
-27.334
-28.162
-29.028
-29.928
-30.857
-31.811
-32.785
-33.771
-34.765
-35.759
-36.747
-37.72
-38.67
-39.589
-40.468
-41.297
-42.068
-42.772
-43.401
-43.946
-44.4
-44.754
-45.001
-45.131
-45.137
-45.01
-44.744
-44.333
-43.771
-43.054
-42.18
-41.146
-39.953
-38.603
-37.098
-35.438
-33.625
-31.663
-29.56
-27.33
-24.985
-22.537
-20
-17.39
-14.728
-12.035
-9.329
-6.624
-3.934
-1.277
1.325
3.844
6.254
8.538
10.688
12.696
14.556
16.255
17.783
19.134
20.303
21.278
22.041
22.566
22.825
22.808
22.512
21.952
21.149
20.095
18.765
17.113
15.081
12.649
9.853
6.751
3.406
-0.124
-3.827
-7.611
-11.277
-14.764
-18.205
-21.939
-26.362
-31.542
-37.104
-42.626
-47.987
-52.973
-57.107
-59.463
-58.918
-55.179
-49.074
-41.904
-34.513
-27.536
-21.759
-18.437
-19.282
-25.091
-35.121
-47.769
-61.808
-76.464
-90.972
-104.389
-115.097
-121.361
-122.742
-119.878
-112.993
-103.626
-93.271
-80.82
-67.225
-51.405
-31.386
-12.411
2.761
10.124
4.308
-7.823
-19.202
-22.78
-8.668
21.317
61.756
110.636
165.416
230.874
314.044
411.187
509.81
589.53
629.321
621.412
571.147
493.466
405.066
315.402
226.866
136.842
43.83
-49.233
-136.205
-209.024
-262.947
-297.546
-314.418
-316.525
-306.747
-287.429
-262.076
-235.447
-210.882
-190.165
-174.12
-162.348
-154.283
-149.559
-146.904
-144.261
-140.468
-135.117
-128.217
-120.443
-112.327
-104.116
-96.407
-89.972
-85.199
-82.219
-80.903
-80.829
-81.685
-83.271
-85.316
-87.555
-89.732
-91.601
-93.04
-94.023
-94.525
-94.533
-94.031
-92.999
-91.476
-89.536
-87.247
-84.682
-81.901
-78.953
-75.905
-72.825
-69.782
-66.849
-64.067
-61.453
-59.022
-56.772
-54.7
-52.801
-51.047
-49.402
-47.835
-46.317
-44.825
-43.34
-41.835
-40.281
-38.65
-36.917
-35.061
-33.062
-30.904
-28.57
-26.046
-23.324
-20.395
-17.256
-13.901
-10.323
-6.518
-2.482
1.789
6.293
11.03
15.996
21.185
26.587
32.192
37.985
43.952
50.076
56.34
62.724
69.207
75.767
82.382
89.027
95.676
102.302
108.878
115.378
121.773
128.035
134.138
140.053
145.755
151.217
156.413
161.32
165.913
170.169
174.066
177.585
180.708
183.417
185.699
187.542
188.937
189.876
190.355
190.371
189.925
189.019
187.656
185.841
183.583
180.898
177.802
174.312
170.445
166.214
161.64
156.759
151.587
146.122
140.373
134.342
128.055
121.573
114.927
108.106
101.165
94.211
87.332
80.626
74.124
67.747
61.491
55.488
49.645
43.582
37.237
30.745
24.07
17.66
10.716
0.766
-11.614
-24.151
-33.058
-31.26
-19.266
-4.15
7.007
4.155
-13.232
-35.677
-55.863
-65.855
-64.361
-58.484
-52.556
-49.566
-50.385
-52.121
-53.489
-54.598
-55.357
-56.199
-57.243
-58.135
-58.787
-59.298
-59.669
-59.85
-59.86
-59.765
-59.579
-59.288
-58.848
-58.159
-57.206
-56.114
-54.921
-53.513
-52.017
-50.871
-50.174
-49.8
-49.814
-49.744
-50.473
-54.76
-62.025
-69.736
-73.736
-66.181
-47.521
-25.643
-8.397
-6.926
-21.985
-43.031
-61.911
-69.835
-65.232
-55.985
-46.947
-41.416
-40.407
-40.711
-40.86
-40.968
-40.922
-41.208
-41.95
-42.715
-43.371
-43.995
-44.576
-45.093
-45.563
-46.006
-46.459
-46.997
-47.639
-48.35
-49.115
-49.933
-50.799
-51.71
-52.659
-53.628
-54.609
-55.599
-56.593
-57.584
-58.563
-59.522
-60.452
-61.342
-62.184
-62.968
-63.682
-64.318
-64.864
-65.311
-65.648
-65.866
-65.955
-65.904
-65.706
-65.35
-64.829
-64.134
-63.259
-62.197
-60.946
-59.504
-57.868
-56.036
-54.009
-51.785
-49.374
-46.791
-44.041
-41.127
-38.075
-34.902
-31.632
-28.308
-24.927
-21.459
-17.927
-14.352
-10.71
-7.027
-3.305
0.514
4.339
7.988
11.414
14.594
17.311
19.426
21.083
22.136
22.64
23.48
23.407
21.001
18.138
14.918
15.544
26.628
43.135
59.741
68.098
54.774
25.659
-7.324
-33.678
-37.772
-22.704
-2.044
15.794
20.32
11.545
-1.396
-14.265
-23.695
-28.855
-33.067
-37.419
-41.585
-45.655
-49.123
-51.817
-54.125
-56.198
-57.982
-59.526
-60.901
-62.097
-63.137
-64.072
-64.905
-65.69
-66.527
-67.44
-68.52
-69.962
-71.781
-73.846
-75.842
-77.179
-77.435
-76.384
-73.645
-68.892
-62.214
-54.03
-45.364
-37.738
-32.156
-29.343
-30.154
-34.736
-42.385
-51.607
-59.657
-63.523
-61.095
-49.852
-26.827
9.378
59.102
119.714
185.002
251.861
319.006
385.779
454.419
519.13
567.995
591.027
576.261
522.807
442.609
347.295
250.961
161.053
75.01
-7.707
-86.179
-156.472
-211.977
-250.045
-271.36
-278.16
-273.655
-260.367
-241.201
-220.388
-201.138
-185.218
-173.377
-165.124
-159.836
-157.109
-155.79
-154.019
-150.622
-145.181
-137.793
-129.165
-119.898
-110.326
-101.037
-92.811
-86.115
-81.139
-77.838
-75.877
-74.974
-74.967
-75.634
-76.736
-78.059
-79.366
-80.467
-81.279
-81.738
-81.79
-81.412
-80.572
-79.262
-77.535
-75.457
-73.095
-70.517
-67.773
-64.905
-61.97
-59.03
-56.152
-53.403
-50.825
-48.438
-46.252
-44.271
-42.491
-40.901
-39.47
-38.156
-36.921
-35.735
-34.57
-33.406
-32.212
-30.957
-29.612
-28.148
-26.541
-24.77
-22.813
-20.651
-18.267
-15.649
-12.79
-9.686
-6.334
-2.727
1.142
5.277
9.676
14.351
19.309
24.545
30.065
35.862
41.892
48.128
54.551
61.071
67.633
74.232
80.806
87.318
93.846
100.419
107.016
113.869
121.167
128.627
136.195
144.014
151.452
159.223
168.404
177.392
185.577
190.32
186.822
176.223
162.005
151
153.478
172.961
204.428
236.42
255.53
253.025
231.93
204.468
181.594
171.705
174.651
182.172
188.89
191.294
188.729
184.511
180.024
175.244
170.32
164.722
158.358
151.734
145.021
138.202
131.361
124.54
117.736
110.952
104.166
97.322
90.423
83.527
76.661
69.836
63.08
56.416
49.878
43.512
37.339
31.362
25.582
19.984
14.587
9.438
4.58
0.069
-4.082
-7.919
-11.455
-14.681
-17.6
-20.16
-22.41
-24.55
-26.531
-28.094
-29.02
-28.989
-28.034
-26.708
-25.225
-23.425
-21.62
-20.366
-20.31
-22.496
-26.95
-32.459
-38.379
-44.557
-50.421
-55.42
-58.691
-58.684
-55.287
-49.978
-43.651
-36.841
-30.17
-23.862
-18.573
-15.658
-15.281
-16.416
-18.39
-20.639
-22.785
-24.955
-26.935
-28.076
-28.284
-27.94
-27.32
-26.74
-26.323
-25.883
-25.389
-24.957
-24.597
-24.282
-23.976
-23.597
-23.137
-22.666
-22.227
-21.854
-21.56
-21.33
-21.159
-21.052
-21.015
-21.056
-21.179
-21.386
-21.676
-22.049
-22.504
-23.043
-23.662
-24.356
-25.117
-25.935
-26.805
-27.729
-28.707
-29.737
-30.815
-31.935
-33.088
-34.27
-35.471
-36.685
-37.899
-39.103
-40.285
-41.433
-42.535
-43.579
-44.552
-45.442
-46.235
-46.918
-47.481
-47.911
-48.2
-48.337
-48.314
-48.122
-47.757
-47.212
-46.484
-45.57
-44.469
-43.182
-41.708
-40.053
-38.219
-36.213
-34.04
-31.708
-29.225
-26.604
-23.855
-20.993
-18.032
-14.989
-11.882
-8.736
-5.571
-2.412
0.718
3.795
6.793
9.689
12.462
15.093
17.564
19.855
21.949
23.827
25.474
26.873
28.004
28.851
29.405
29.659
29.611
29.265
28.617
27.661
26.402
24.84
22.961
20.759
18.228
15.363
12.199
8.797
5.196
1.444
-2.35
-6.096
-9.714
-13.11
-16.261
-19.184
-21.796
-23.977
-25.891
-27.739
-29.346
-30.718
-31.931
-32.554
-34.058
-37.895
-42.306
-46.822
-48.068
-42.015
-33.371
-25.313
-22.491
-31.177
-45.808
-61.713
-75.761
-82.57
-85.683
-88.398
-90.684
-94.265
-97.559
-98.644
-97.699
-94.358
-88.631
-81.542
-74.486
-68.414
-63.674
-59.833
-55.773
-50.849
-44.669
-35.566
-20.465
3.54
38.283
83.596
137.461
198.463
265.388
334.921
401.899
460.111
503.315
529.273
537.883
526.12
492.087
433.045
348.144
247.001
138.844
33.029
-60.648
-142.785
-212.59
-268.731
-313.984
-345.511
-362.036
-364.956
-354.24
-333.77
-308.852
-283.132
-259.428
-238.714
-220.731
-205.512
-193.059
-182.9
-173.885
-164.52
-154.02
-142.291
-129.677
-116.734
-103.884
-91.554
-80.452
-71.408
-64.873
-60.937
-59.427
-59.92
-62.054
-65.493
-69.783
-74.454
-79.107
-83.457
-87.365
-90.78
-93.628
-95.81
-97.216
-97.734
-97.333
-96.015
-93.789
-90.743
-86.986
-82.672
-78.029
-73.246
-68.463
-63.816
-59.383
-55.145
-51.097
-47.232
-43.514
-40.002
-36.768
-33.765
-30.925
-28.422
-26.45
-24.813
-23.435
-22.272
-20.767
-20.202
-21.838
-23.8
-25.504
-23.534
-13.818
-0.86
12.345
21.332
19.975
13.723
7.189
3.535
7.973
16.764
26.123
35.2
41.683
46.899
52.561
58.331
64.425
70.718
76.846
83.022
89.407
95.92
102.523
109.213
115.957
122.712
129.444
136.092
142.589
148.923
155.083
161.033
166.749
172.203
177.366
182.215
186.732
190.889
194.662
198.031
200.976
203.48
205.529
207.11
208.213
208.832
208.96
208.594
207.733
206.379
204.537
202.213
199.416
196.161
192.46
188.332
183.797
178.876
173.592
167.97
162.034
155.813
149.334
142.624
135.715
128.634
121.413
114.082
106.672
99.212
91.734
84.266
76.837
69.475
62.207
55.058
48.053
41.217
34.57
28.135
21.93
15.972
10.277
4.858
-0.273
-5.108
-9.639
-13.862
-17.774
-21.375
-24.665
-27.647
-30.327
-32.711
-34.808
-36.626
-38.177
-39.472
-40.524
-41.348
-41.956
-42.363
-42.584
-42.633
-42.527
-42.28
-41.907
-41.425
-40.848
-40.192
-39.471
-38.7
-37.894
-37.064
-36.222
-35.381
-34.555
-33.754
-32.989
-32.266
-31.587
-30.965
-30.411
-29.915
-29.467
-29.062
-28.685
-28.348
-28.074
-27.844
-27.633
-27.487
-27.441
-27.521
-27.768
-28.142
-28.57
-29.088
-29.768
-30.414
-30.798
-31.052
-31.162
-31.082
-31.299
-30.494
-27.383
-23.796
-20.287
-20.222
-27.628
-38.046
-48.507
-54.585
-50.204
-40.744
-30.765
-23.394
-23.794
-28.28
-33.115
-37.47
-39.068
-39.234
-39.673
-40.061
-40.616
-41.225
-41.541
-41.791
-42.153
-42.566
-43.015
-43.517
-44.064
-44.638
-45.228
-45.795
-46.296
-46.74
-47.137
-47.474
-47.747
-47.947
-48.066
-48.098
-48.044
-47.891
-47.631
-47.256
-46.759
-46.135
-45.379
-44.488
-43.46
-42.293
-40.99
-39.551
-37.979
-36.28
-34.459
-32.525
-30.484
-28.348
-26.126
-23.833
-21.485
-19.099
-16.693
-14.285
-11.896
-9.545
-7.252
-5.035
-2.912
-0.899
0.988
2.733
4.32
5.729
6.941
7.937
8.699
9.215
9.474
9.468
9.191
8.644
7.828
6.744
5.392
3.761
1.841
-0.367
-2.858
-5.618
-8.615
-11.816
-15.183
-18.664
-22.209
-25.768
-29.289
-32.734
-36.074
-39.28
-42.316
-45.122
-47.633
-49.811
-51.636
-53.124
-54.316
-55.246
-55.966
-56.549
-57.064
-57.605
-58.282
-59.191
-60.41
-62.002
-63.99
-66.465
-69.582
-73.311
-77.449
-81.596
-85.162
-87.663
-88.797
-88.258
-85.695
-81.173
-75.092
-68.212
-61.819
-57.011
-54.505
-54.651
-57.323
-61.525
-65.675
-67.926
-65.792
-56.621
-37.618
-6.396
38.2
94.045
156.199
220.533
284.279
349.885
422.359
499.705
571.528
617.731
616.354
558.382
452.099
319.813
185.566
64.783
-39.242
-131.383
-213.114
-282.054
-334.586
-365.519
-374.186
-364.501
-340.007
-306.24
-270.557
-237.358
-209.218
-188.347
-174.909
-168.299
-168.726
-174.138
-180.249
-184.626
-186.043
-183.699
-178.188
-169.785
-157.855
-143.247
-128.091
-113.66
-100.799
-89.928
-80.642
-72.98
-67.53
-64.285
-62.762
-62.576
-63.267
-64.535
-66.397
-68.692
-71.081
-73.374
-75.459
-77.274
-78.872
-80.274
-81.409
-82.224
-82.653
-82.599
-82.028
-80.935
-79.322
-77.251
-74.813
-72.108
-69.281
-66.457
-63.717
-61.112
-58.653
-56.321
-54.108
-52.007
-50.013
-48.143
-46.399
-44.77
-43.255
-41.827
-40.447
-39.063
-37.596
-35.972
-34.14
-32.06
-29.707
-27.073
-24.145
-20.918
-17.399
-13.587
-9.48
-5.079
-0.378
4.631
9.941
15.544
21.419
27.538
33.881
40.438
47.181
54.063
61.044
68.082
75.154
82.274
89.42
96.527
103.588
110.651
117.744
124.901
132.097
139.196
146.136
152.996
159.635
165.638
170.892
175.49
179.358
182.891
185.302
184.146
179.912
174.822
172.522
179.911
196.611
215.672
230.189
230.355
215.484
194.873
175.714
165.756
166.417
170.774
174.565
174.911
170.932
165.479
159.875
154.048
148.128
141.719
134.739
127.603
120.456
113.263
106.064
98.906
91.803
84.768
77.792
70.839
63.914
57.072
50.347
43.759
37.33
31.077
25.02
19.184
13.587
8.237
3.145
-1.681
-6.232
-10.502
-14.484
-18.177
-21.58
-24.692
-27.516
-30.056
-32.316
-34.302
-36.022
-37.484
-38.696
-39.669
-40.412
-40.937
-41.255
-41.378
-41.319
-41.09
-40.703
-40.173
-39.513
-38.736
-37.855
-36.883
-35.833
-34.718
-33.549
-32.337
-31.094
-29.831
-28.557
-27.282
-26.016
-24.766
-23.54
-22.346
-21.19
-20.078
-19.015
-18.005
-17.053
-16.162
-15.336
-14.577
-13.888
-13.271
-12.727
-12.259
-11.866
-11.549
-11.309
-11.145
-11.056
-11.042
-11.101
-11.231
-11.432
-11.702
-12.039
-12.441
-12.906
-13.431
-14.014
-14.653
-15.344
-16.084
-16.871
-17.7
-18.568
-19.472
-20.408
-21.372
-22.36
-23.367
-24.388
-25.418
-26.452
-27.484
-28.507
-29.515
-30.503
-31.463
-32.391
-33.279
-34.123
-34.915
-35.65
-36.323
-36.926
-37.453
-37.897
-38.253
-38.512
-38.669
-38.718
-38.654
-38.472
-38.167
-37.736
-37.174
-36.483
-35.658
-34.693
-33.584
-32.327
-30.92
-29.372
-27.69
-25.865
-23.914
-21.869
-19.748
-17.585
-15.401
-13.161
-10.847
-8.493
-6.055
-3.459
-0.692
2.298
5.536
8.864
12.152
15.434
18.483
20.842
22.537
23.701
24.148
24.459
24.09
20.507
14.322
7.906
4.959
13.743
35.905
63.601
86.822
91.017
68.783
30.204
-9.523
-34.517
-33.343
-12.365
13.954
34.603
40.592
33.184
21.14
9.118
0.312
-4.601
-8.686
-12.933
-17.04
-21.14
-24.701
-27.51
-29.942
-32.081
-33.86
-35.345
-36.564
-37.462
-37.996
-38.133
-37.86
-37.28
-36.597
-36.012
-35.676
-35.81
-36.678
-38.341
-40.75
-43.683
-46.667
-49.395
-51.712
-53.282
-53.856
-53.635
-53.095
-53.244
-55.356
-59.838
-66.678
-75.958
-87.358
-100.15
-112.874
-122.675
-126.536
-122.893
-110.807
-89.479
-58.397
-16.824
34.755
93.545
156.345
220.984
285.698
348.514
406.55
455.409
491.496
513.512
520.481
510.764
482.75
435.464
371.432
297.411
217.785
134.498
47.567
-45.869
-139.598
-221.471
-281.526
-308.683
-304.115
-280.536
-248.383
-219.927
-201.301
-188.323
-178.471
-169.601
-160.554
-154.015
-150.979
-150.071
-149.369
-147.097
-142.592
-136.166
-128.519
-120.132
-111.34
-102.841
-95.508
-89.817
-85.939
-83.771
-82.94
-83.208
-84.412
-86.251
-88.422
-90.66
-92.69
-94.373
-95.676
-96.537
-96.92
-96.807
-96.162
-95.003
-93.4
-91.407
-89.09
-86.512
-83.717
-80.773
-77.754
-74.737
-71.809
-69.025
-66.411
-63.989
-61.766
-59.742
-57.919
-56.278
-54.78
-53.395
-52.096
-50.857
-49.661
-48.484
-47.294
-46.06
-44.752
-43.347
-41.823
-40.159
-38.335
-36.334
-34.14
-31.742
-29.134
-26.306
-23.247
-19.947
-16.398
-12.594
-8.53
-4.206
0.382
5.231
10.334
15.685
21.273
27.086
33.11
39.329
45.726
52.281
58.972
65.778
72.674
79.634
86.631
93.637
100.622
107.557
114.412
121.155
127.756
134.182
140.402
146.387
152.106
157.531
162.632
167.384
171.762
175.743
179.306
182.433
185.107
187.313
189.041
190.282
191.029
191.28
191.033
190.289
189.054
187.334
185.137
182.477
179.366
175.82
171.857
167.498
162.765
157.681
152.271
146.562
140.583
134.363
127.931
121.318
114.556
107.675
100.707
93.683
86.633
79.586
72.573
65.62
58.754
52
45.383
38.923
32.642
26.559
20.69
15.05
9.654
4.512
-0.367
-4.975
-9.305
-13.355
-17.121
-20.604
-23.805
-26.726
-29.373
-31.75
-33.865
-35.726
-37.344
-38.729
-39.891
-40.845
-41.602
-42.175
-42.579
-42.827
-42.933
-42.91
-42.773
-42.534
-42.206
-41.801
-41.332
-40.809
-40.244
-39.645
-39.022
-38.383
-37.736
-37.088
-36.445
-35.812
-35.194
-34.596
-34.02
-33.471
-32.95
-32.459
-32
-31.574
-31.182
-30.825
-30.502
-30.214
-29.959
-29.739
-29.551
-29.396
-29.274
-29.182
-29.122
-29.093
-29.094
-29.126
-29.189
-29.284
-29.41
-29.568
-29.761
-29.988
-30.252
-30.554
-30.894
-31.276
-31.699
-32.166
-32.678
-33.235
-33.837
-34.486
-35.18
-35.92
-36.703
-37.53
-38.397
-39.301
-40.241
-41.212
-42.21
-43.23
-44.268
-45.316
-46.37
-47.424
-48.469
-49.499
-50.505
-51.479
-52.414
-53.298
-54.125
-54.881
-55.559
-56.148
-56.638
-57.021
-57.286
-57.426
-57.43
-57.293
-57.007
-56.565
-55.962
-55.192
-54.252
-53.14
-51.853
-50.392
-48.758
-46.952
-44.978
-42.841
-40.548
-38.106
-35.523
-32.807
-29.97
-27.025
-23.985
-20.865
-17.681
-14.449
-11.19
-7.927
-4.68
-1.47
1.681
4.752
7.719
10.56
13.255
15.79
18.146
20.305
22.247
23.954
25.41
26.603
27.519
28.141
28.454
28.446
28.114
27.46
26.488
25.194
23.573
21.615
19.324
16.718
13.812
10.623
7.169
3.48
-0.394
-4.374
-8.392
-12.391
-16.324
-20.164
-23.866
-27.37
-30.628
-33.594
-36.246
-38.585
-40.603
-42.28
-43.635
-44.716
-45.599
-46.429
-47.339
-48.416
-49.767
-51.447
-53.48
-55.948
-58.905
-62.388
-66.442
-71.022
-76.007
-81.348
-87.001
-92.781
-98.434
-103.375
-106.744
-107.995
-106.845
-103.169
-96.939
-88.031
-76.485
-63.112
-49.535
-37.105
-26.42
-17.161
-8.491
-0.027
8.746
19.448
35.072
58.996
93.573
137.812
188.006
241.559
295.763
351.541
413.346
479.083
542.831
591.565
603.886
568.357
485.361
367.218
238.748
118.571
14.964
-71.015
-144.562
-206.844
-255.409
-287.962
-302.557
-301.221
-287.985
-266.627
-241.832
-217.687
-196.577
-179.986
-168.259
-160.628
-156.335
-154.522
-153.583
-151.841
-148.417
-143.049
-136.009
-127.962
-119.395
-110.682
-102.462
-95.446
-90.021
-86.305
-84.148
-83.196
-83.186
-83.933
-85.208
-86.752
-88.306
-89.626
-90.579
-91.133
-91.268
-90.973
-90.233
-89.027
-87.384
-85.371
-83.053
-80.496
-77.75
-74.855
-71.869
-68.86
-65.903
-63.074
-60.42
-57.963
-55.714
-53.671
-51.831
-50.186
-48.707
-47.352
-46.084
-44.872
-43.689
-42.515
-41.321
-40.072
-38.739
-37.29
-35.7
-33.948
-32.012
-29.872
-27.513
-24.921
-22.088
-19.008
-15.675
-12.081
-8.221
-4.089
0.316
4.994
9.943
15.16
20.638
26.366
32.33
38.516
44.904
51.477
58.212
65.085
72.072
79.146
86.28
93.447
100.617
107.761
114.848
121.848
128.731
135.466
142.023
148.372
154.485
160.333
165.888
171.125
176.018
180.543
184.678
188.403
191.697
194.545
196.932
198.845
200.275
201.216
201.664
201.617
201.078
200.052
198.545
196.566
194.129
191.245
187.932
184.207
180.088
175.598
170.757
165.59
160.121
154.375
148.378
142.157
135.74
129.154
122.427
115.587
108.663
101.683
94.676
87.669
80.69
73.766
66.923
60.185
53.575
47.116
40.826
34.724
28.826
23.147
17.698
12.491
7.533
2.833
-1.604
-5.776
-9.679
-13.314
-16.681
-19.781
-22.619
-25.197
-27.522
-29.598
-31.433
-33.034
-34.409
-35.569
-36.523
-37.282
-37.858
-38.263
-38.51
-38.612
-38.584
-38.436
-38.184
-37.839
-37.414
-36.92
-36.367
-35.767
-35.129
-34.461
-33.77
-33.065
-32.35
-31.633
-30.916
-30.205
-29.502
-28.812
-28.138
-27.481
-26.845
-26.232
-25.644
-25.084
-24.553
-24.052
-23.584
-23.148
-22.745
-22.375
-22.038
-21.734
-21.462
-21.222
-21.012
-20.832
-20.683
-20.563
-20.472
-20.413
-20.384
-20.388
-20.426
-20.501
-20.615
-20.77
-20.97
-21.216
-21.513
-21.861
-22.265
-22.725
-23.243
-23.82
-24.456
-25.151
-25.905
-26.716
-27.582
-28.5
-29.468
-30.483
-31.54
-32.635
-33.763
-34.919
-36.099
-37.295
-38.501
-39.71
-40.914
-42.105
-43.272
-44.408
-45.499
-46.535
-47.504
-48.395
-49.196
-49.896
-50.481
-50.943
-51.269
-51.449
-51.475
-51.337
-51.028
-50.539
-49.867
-49.007
-47.956
-46.712
-45.274
-43.645
-41.827
-39.825
-37.643
-35.287
-32.766
-30.087
-27.263
-24.304
-21.225
-18.041
-14.768
-11.426
-8.038
-4.627
-1.215
2.173
5.512
8.778
11.945
14.992
17.901
20.651
23.22
25.589
27.738
29.648
31.302
32.68
33.763
34.538
34.991
35.12
34.926
34.406
33.555
32.368
30.834
28.952
26.73
24.172
21.287
18.098
14.64
10.973
7.176
3.312
-0.564
-4.404
-8.169
-11.803
-15.247
-18.456
-21.384
-24
-26.285
-28.209
-29.762
-30.973
-31.912
-32.704
-33.508
-34.447
-35.626
-37.118
-38.993
-41.369
-44.357
-48.046
-52.506
-57.687
-63.565
-70.188
-77.426
-85.021
-92.556
-99.247
-104.326
-107.44
-108.233
-106.433
-102.238
-95.684
-87.132
-77.916
-69.245
-61.772
-55.927
-51.26
-46.488
-40.944
-33.476
-21.479
-2.429
26.008
65.602
115.945
175.188
241.925
313.827
386.578
454.755
512.008
552.303
571.66
569.312
544.312
494.359
421.078
325.266
209.538
85.974
-36.153
-146.538
-232.599
-294.561
-334.299
-354.467
-362.343
-357.855
-340.797
-314.35
-281.375
-247.945
-218.891
-195.61
-178.532
-166.8
-159.309
-155.163
-152.617
-149.722
-145.455
-139.502
-132.147
-124.001
-115.506
-107.081
-99.385
-93.13
-88.668
-86.006
-84.887
-84.907
-85.757
-87.207
-88.989
-90.786
-92.314
-93.399
-93.971
-94.043
-93.636
-92.735
-91.333
-89.455
-87.163
-84.535
-81.648
-78.562
-75.33
-72.019
-68.699
-65.452
-62.358
-59.466
-56.797
-54.36
-52.154
-50.179
-48.43
-46.883
-45.501
-44.241
-43.074
-41.986
-40.948
-39.905
-38.805
-37.592
-36.232
-34.737
-33.086
-31.219
-29.144
-26.928
-24.619
-22.281
-19.915
-17.403
-14.709
-11.94
-8.969
-5.379
-1.087
3.788
9.3
14.989
21.703
31.998
45.253
59.133
69.699
69.631
59.517
46.632
38.264
44.744
66.471
93.627
118.645
133.324
136.378
135.055
133.785
135.706
141.707
148.835
155.751
162.413
168.663
175.033
181.492
187.218
191.982
195.948
199.034
201.616
202.937
200.559
194.987
188.543
184.894
190.946
206.391
224.231
237.537
236.469
220.235
198.19
177.584
166.203
165.561
168.701
171.317
170.53
165.427
158.88
152.241
145.437
138.604
131.348
123.586
115.734
107.946
100.185
92.494
84.92
77.479
70.182
63.022
55.959
48.997
42.188
35.566
29.146
22.949
16.989
11.282
5.85
0.708
-4.14
-8.689
-12.934
-16.875
-20.509
-23.838
-26.866
-29.598
-32.04
-34.201
-36.09
-37.717
-39.094
-40.233
-41.147
-41.849
-42.354
-42.675
-42.826
-42.821
-42.674
-42.398
-42.006
-41.512
-40.928
-40.267
-39.541
-38.763
-37.943
-37.093
-36.222
-35.34
-34.456
-33.575
-32.706
-31.854
-31.024
-30.219
-29.443
-28.699
-27.989
-27.313
-26.672
-26.067
-25.495
-24.957
-24.452
-23.978
-23.533
-23.118
-22.731
-22.372
-22.04
-21.734
-21.456
-21.204
-20.98
-20.782
-20.612
-20.47
-20.357
-20.272
-20.219
-20.196
-20.206
-20.249
-20.326
-20.44
-20.589
-20.777
-21.003
-21.269
-21.576
-21.926
-22.318
-22.756
-23.238
-23.765
-24.337
-24.954
-25.612
-26.311
-27.046
-27.816
-28.615
-29.438
-30.281
-31.136
-31.999
-32.861
-33.715
-34.553
-35.364
-36.141
-36.873
-37.553
-38.17
-38.716
-39.182
-39.56
-39.843
-40.024
-40.095
-40.049
-39.88
-39.582
-39.15
-38.579
-37.864
-37.004
-35.997
-34.842
-33.541
-32.098
-30.516
-28.799
-26.953
-24.985
-22.906
-20.725
-18.453
-16.1
-13.681
-11.215
-8.725
-6.23
-3.752
-1.311
1.077
3.384
5.585
7.676
9.651
11.503
13.231
14.805
16.188
17.38
18.384
19.142
19.606
19.741
19.498
18.911
18.049
16.874
15.317
13.552
11.782
9.874
7.839
5.721
3.077
1.155
1.173
1.48
1.615
-1.497
-11.539
-24.342
-37.117
-45.718
-44.481
-38.353
-31.511
-26.804
-28.978
-34.587
-40.175
-45.03
-47.091
-47.654
-48.372
-48.981
-49.76
-50.705
-51.601
-52.79
-54.55
-56.86
-59.777
-63.449
-67.834
-72.762
-77.892
-82.567
-86.176
-88.348
-88.762
-87.143
-83.693
-78.899
-73.386
-68.365
-64.998
-64.09
-66.241
-71.438
-78.385
-85.196
-90.102
-90.456
-83.515
-66.788
-37.736
4.723
59.239
123.44
194.922
269.738
343.176
409.879
463.34
498.608
513.357
506.091
475.621
422.945
350.737
263.48
168.016
70.62
-23.863
-110.302
-183.415
-239.883
-278.235
-298.933
-304.79
-298.816
-283.656
-262.993
-241.238
-221.553
-205.795
-194.654
-187.43
-183.323
-181.769
-181.461
-180.511
-177.754
-172.751
-165.613
-157.074
-147.773
-138.072
-128.566
-120.037
-112.948
-107.503
-103.684
-101.174
-99.705
-99.121
-99.207
-99.733
-100.502
-101.291
-101.91
-102.281
-102.34
-102.034
-101.35
-100.257
-98.744
-96.854
-94.645
-92.176
-89.513
-86.7
-83.777
-80.796
-77.816
-74.907
-72.137
-69.552
-67.172
-65.01
-63.067
-61.343
-59.826
-58.485
-57.279
-56.169
-55.122
-54.112
-53.114
-52.098
-51.029
-49.875
-48.605
-47.193
-45.615
-43.848
-41.871
-39.666
-37.22
-34.522
-31.567
-28.347
-24.854
-21.084
-17.031
-12.694
-8.074
-3.172
2.009
7.461
13.174
19.136
25.331
31.742
38.35
45.133
52.067
59.125
66.28
73.504
80.766
88.035
95.279
102.466
109.562
116.536
123.355
129.987
136.399
142.56
148.441
154.013
159.248
164.122
168.608
172.686
176.336
179.539
182.279
184.542
186.318
187.596
188.37
188.637
188.395
187.648
186.398
184.656
182.43
179.734
176.584
172.997
168.992
164.591
159.818
154.696
149.251
143.511
137.504
131.258
124.804
118.17
111.388
104.487
97.498
90.449
83.37
76.289
69.233
62.23
55.304
48.482
41.786
35.238
28.861
22.673
16.691
10.932
5.408
0.131
-4.889
-9.645
-14.131
-18.344
-22.281
-25.942
-29.327
-32.438
-35.278
-37.853
-40.169
-42.232
-44.05
-45.633
-46.99
-48.131
-49.067
-49.808
-50.367
-50.753
-50.98
-51.058
-50.999
-50.816
-50.521
-50.125
-49.639
-49.076
-48.446
-47.758
-47.022
-46.246
-45.438
-44.603
-43.749
-42.881
-42.005
-41.124
-40.243
-39.366
-38.496
-37.637
-36.791
-35.96
-35.146
-34.351
-33.577
-32.825
-32.098
-31.395
-30.72
-30.073
-29.456
-28.871
-28.318
-27.798
-27.313
-26.862
-26.447
-26.068
-25.725
-25.42
-25.155
-24.931
-24.749
-24.612
-24.521
-24.48
-24.489
-24.55
-24.665
-24.835
-25.06
-25.342
-25.681
-26.076
-26.529
-27.037
-27.6
-28.216
-28.882
-29.595
-30.35
-31.145
-31.972
-32.827
-33.705
-34.598
-35.502
-36.41
-37.315
-38.211
-39.09
-39.944
-40.766
-41.548
-42.279
-42.951
-43.553
-44.078
-44.515
-44.855
-45.09
-45.211
-45.21
-45.081
-44.815
-44.406
-43.849
-43.139
-42.27
-41.242
-40.052
-38.7
-37.188
-35.518
-33.694
-31.724
-29.612
-27.367
-24.998
-22.513
-19.923
-17.239
-14.473
-11.641
-8.754
-5.83
-2.887
0.055
2.973
5.844
8.648
11.362
13.964
16.433
18.748
20.893
22.853
24.613
26.156
27.464
28.521
29.312
29.827
30.057
29.995
29.64
28.987
28.041
26.808
25.293
23.498
21.419
19.041
16.357
13.375
10.112
6.592
2.845
-1.098
-5.197
-9.389
-13.619
-17.824
-21.944
-25.941
-29.77
-33.384
-36.726
-39.718
-42.287
-44.411
-46.101
-47.378
-48.28
-48.823
-49.028
-48.994
-48.855
-48.775
-48.93
-49.458
-50.439
-51.971
-54.22
-57.228
-60.912
-64.993
-68.919
-72.155
-74.363
-75.315
-74.814
-73.059
-70.478
-67.606
-65.506
-65.127
-67.012
-71.477
-78.256
-85.909
-92.45
-95.968
-94.071
-84.717
-66.149
-36.481
5.015
57.122
117.463
183.333
251.684
319.829
384.366
440.567
484.299
512.855
524.731
519.272
495.82
453.318
392.609
317.137
231.225
139.578
46.666
-43.629
-126.599
-196.603
-250.036
-285.877
-304.643
-308.427
-299.807
-281.217
-256.385
-230.225
-206.227
-186.319
-171.4
-161.029
-154.512
-151.322
-150.05
-148.643
-145.915
-141.391
-135.063
-127.595
-119.546
-111.257
-103.381
-96.684
-91.556
-88.132
-86.304
-85.695
-86.026
-87.103
-88.658
-90.435
-92.188
-93.69
-94.821
-95.549
-95.841
-95.682
-95.053
-93.938
-92.375
-90.432
-88.176
-85.675
-82.98
-80.139
-77.212
-74.263
-71.362
-68.58
-65.96
-63.522
-61.282
-59.24
-57.393
-55.736
-54.24
-52.866
-51.58
-50.35
-49.152
-47.963
-46.756
-45.499
-44.162
-42.718
-41.142
-39.414
-37.513
-35.42
-33.12
-30.6
-27.849
-24.863
-21.634
-18.153
-14.414
-10.412
-6.145
-1.61
3.189
8.253
13.575
19.145
24.954
30.986
37.227
43.66
50.264
57.019
63.9
70.885
77.946
85.058
92.193
99.321
106.414
113.441
120.373
127.179
133.828
140.29
146.534
152.531
158.252
163.669
168.755
173.484
177.833
181.781
185.306
188.392
191.023
193.185
194.867
196.063
196.766
196.974
196.688
195.911
194.648
192.907
190.7
188.04
184.939
181.417
177.49
173.179
168.507
163.497
158.175
152.565
146.697
140.598
134.298
127.828
121.218
114.498
107.699
100.852
93.988
87.135
80.322
73.578
66.928
60.399
54.013
47.794
41.761
35.933
30.327
24.957
19.836
14.975
10.383
6.066
2.031
-1.718
-5.181
-8.356
-11.244
-13.848
-16.173
-18.224
-20.008
-21.534
-22.812
-23.851
-24.665
-25.264
-25.664
-25.877
-25.918
-25.802
-25.543
-25.156
-24.655
-24.056
-23.371
-22.615
-21.801
-20.939
-20.041
-19.118
-18.18
-17.234
-16.289
-15.352
-14.43
-13.528
-12.651
-11.803
-10.987
-10.207
-9.464
-8.759
-8.093
-7.467
-6.879
-6.329
-5.816
-5.338
-4.893
-4.478
-4.092
-3.73
-3.391
-3.071
-2.768
-2.479
-2.203
-1.936
-1.677
-1.425
-1.179
-0.938
-0.702
-0.471
-0.245
-0.026
0.186
0.388
0.58
0.759
0.922
1.068
1.193
1.296
1.375
1.426
1.449
1.44
1.399
1.323
1.213
1.067
0.885
0.667
0.415
0.129
-0.188
-0.534
-0.906
-1.299
-1.71
-2.134
-2.565
-2.997
-3.425
-3.842
-4.239
-4.608
-4.941
-5.229
-5.46
-5.627
-5.718
-5.724
-5.635
-5.441
-5.135
-4.707
-4.149
-3.453
-2.613
-1.623
-0.477
0.828
2.297
3.931
5.729
7.691
9.813
12.092
14.521
17.095
19.806
22.646
25.604
28.67
31.831
35.075
38.386
41.747
45.137
48.534
51.915
55.26
58.546
61.749
64.848
67.823
70.655
73.329
75.829
78.135
80.23
82.092
83.709
85.066
86.153
86.961
87.484
87.713
87.648
87.29
86.639
85.692
84.442
82.871
80.973
78.756
76.237
73.436
70.381
67.097
63.622
60.008
56.312
52.595
48.917
45.319
41.851
38.562
35.507
32.757
30.371
28.359
26.696
25.353
24.288
23.48
22.917
22.509
22.11
21.555
20.653
19.241
17.251
14.593
11.107
6.777
1.707
-3.856
-9.331
-14.177
-18.261
-21.499
-23.805
-25.485
-26.761
-27.866
-29.683
-32.927
-37.442
-42.98
-48.993
-53.949
-56.633
-56.058
-50.516
-38.601
-19.813
6.363
40.352
81.348
128.267
180.262
234.597
287.008
335.839
379.991
419.343
458.236
493.703
515.981
515.858
480.687
409.287
314.503
208.646
105.3
11.519
-75.495
-155.236
-224.722
-280.985
-319.622
-339.776
-343.925
-334.808
-315.615
-290.381
-263.796
-239.402
-219.319
-204.474
-194.367
-188.311
-185.828
-185.536
-185.383
-184.14
-181.183
-176.395
-170.394
-163.677
-156.547
-149.661
-143.796
-139.362
-136.52
-135.167
-134.927
-135.526
-136.74
-138.281
-139.864
-141.216
-142.153
-142.611
-142.589
-142.098
-141.138
-139.696
-137.786
-135.47
-132.813
-129.883
-126.746
-123.451
-120.068
-116.676
-113.352
-110.179
-107.212
-104.475
-101.984
-99.744
-97.75
-95.997
-94.466
-93.12
-91.925
-90.852
-89.872
-88.961
-88.091
-87.224
-86.325
-85.361
-84.3
-83.118
-81.791
-80.292
-78.602
-76.702
-74.576
-72.214
-69.604
-66.73
-63.582
-60.148
-56.42
-52.391
-48.059
-43.421
-38.476
-33.232
-27.694
-21.873
-15.782
-9.436
-2.852
3.951
10.95
18.123
25.442
32.881
40.412
48.004
55.626
63.245
70.829
78.346
85.761
93.041
100.153
107.064
113.741
120.153
126.27
132.062
137.502
142.563
147.222
151.456
155.245
158.572
161.421
163.779
165.637
166.986
167.822
168.143
167.95
167.247
166.04
164.337
162.151
159.494
156.383
152.836
148.873
144.514
139.785
134.708
129.311
123.62
117.665
111.473
105.075
98.501
91.78
84.945
78.023
71.046
64.042
57.04
50.066
43.149
36.314
29.586
22.988
16.542
10.268
4.186
-1.687
-7.337
-12.749
-17.913
-22.82
-27.46
-31.829
-35.921
-39.734
-43.266
-46.519
-49.493
-52.193
-54.622
-56.787
-58.695
-60.355
-61.776
-62.967
-63.941
-64.706
-65.276
-65.662
-65.876
-65.931
-65.839
-65.612
-65.264
-64.807
-64.252
-63.612
-62.898
-62.121
-61.29
-60.416
-59.506
-58.568
-57.611
-56.641
-55.664
-54.685
-53.711
-52.744
-51.789
-50.848
-49.924
-49.018
-48.132
-47.265
-46.419
-45.593
-44.786
-44
-43.232
-42.483
-41.752
-41.038
-40.341
-39.659
-38.992
-38.341
-37.704
-37.081
-36.474
-35.881
-35.306
-34.747
-34.208
-33.69
-33.194
-32.723
-32.279
-31.864
-31.482
-31.135
-30.826
-30.558
-30.334
-30.158
-30.032
-29.959
-29.944
-29.987
-30.092
-30.259
-30.492
-30.79
-31.154
-31.584
-32.077
-32.634
-33.251
-33.926
-34.655
-35.432
-36.254
-37.115
-38.007
-38.925
-39.859
-40.802
-41.744
-42.677
-43.589
-44.472
-45.313
-46.101
-46.826
-47.476
-48.039
-48.505
-48.862
-49.099
-49.206
-49.174
-48.992
-48.652
-48.147
-47.469
-46.615
-45.579
-44.359
-42.953
-41.36
-39.582
-37.622
-35.484
-33.174
-30.698
-28.065
-25.284
-22.368
-19.33
-16.184
-12.946
-9.632
-6.262
-2.858
0.557
3.959
7.327
10.635
13.86
16.978
19.967
22.809
25.485
27.976
30.263
32.327
34.149
35.71
36.995
37.987
38.676
39.054
39.117
38.864
38.293
37.402
36.186
34.638
32.754
30.536
27.99
25.13
21.987
18.603
15.032
11.337
7.571
3.777
0.004
-3.699
-7.275
-10.67
-13.835
-16.725
-19.296
-21.502
-23.317
-24.734
-25.805
-26.626
-27.296
-27.931
-28.606
-29.358
-30.281
-31.503
-33.168
-35.431
-38.374
-41.971
-46.254
-51.331
-57.131
-63.489
-69.959
-75.727
-80.292
-83.505
-85.245
-85.489
-84.291
-81.526
-77.546
-73.512
-69.971
-66.918
-64.098
-60.497
-55.171
-47.789
-37.604
-22.979
-2.709
24.219
58.551
99.499
145.993
197.329
252.427
309.563
366.303
418.975
463.427
496.621
515.735
518.321
502.215
464.857
407.24
333.109
245.34
148.763
45.608
-62.746
-166.289
-255.574
-321.796
-357.504
-368.355
-361.136
-341.906
-318.596
-291.915
-263.776
-237.396
-212.877
-192.525
-177.45
-166.536
-159.419
-154.532
-149.404
-143.018
-134.967
-125.11
-114.156
-102.751
-91.322
-80.664
-71.651
-64.736
-60.161
-57.903
-57.597
-58.926
-61.538
-64.969
-68.802
-72.663
-76.279
-79.532
-82.354
-84.687
-86.499
-87.736
-88.361
-88.371
-87.721
-86.379
-84.381
-81.776
-78.692
-75.314
-71.785
-68.244
-64.807
-61.531
-58.463
-55.633
-53.027
-50.629
-48.426
-46.401
-44.567
-42.942
-41.512
-40.252
-39.113
-38.018
-36.904
-35.718
-34.4
-32.905
-31.202
-29.262
-27.081
-24.663
-22.006
-19.104
-15.947
-12.516
-8.803
-4.804
-0.519
4.048
8.891
14.003
19.368
24.972
30.799
36.834
43.064
49.478
56.061
62.793
69.654
76.621
83.67
90.774
97.905
105.031
112.121
119.145
126.072
132.874
139.52
145.979
152.224
158.226
163.958
169.394
174.508
179.277
183.678
187.691
191.296
194.476
197.216
199.503
201.325
202.674
203.543
203.929
203.829
203.243
202.174
200.626
198.605
196.122
193.186
189.813
186.017
181.817
177.232
172.284
166.995
161.389
155.491
149.327
142.923
136.306
129.502
122.539
115.445
108.247
100.972
93.647
86.297
78.95
71.629
64.361
57.168
50.073
43.099
36.267
29.596
23.104
16.809
10.725
4.867
-0.753
-6.124
-11.238
-16.088
-20.668
-24.974
-29.005
-32.761
-36.242
-39.452
-42.394
-45.075
-47.499
-49.676
-51.612
-53.317
-54.799
-56.069
-57.136
-58.012
-58.707
-59.234
-59.604
-59.829
-59.922
-59.896
-59.763
-59.535
-59.224
-58.843
-58.402
-57.914
-57.388
-56.835
-56.265
-55.686
-55.108
-54.537
-53.98
-53.444
-52.932
-52.448
-51.997
-51.581
-51.202
-50.862
-50.562
-50.305
-50.091
-49.921
-49.796
-49.717
-49.684
-49.697
-49.757
-49.862
-50.013
-50.209
-50.449
-50.733
-51.06
-51.429
-51.839
-52.288
-52.776
-53.301
-53.86
-54.453
-55.078
-55.732
-56.415
-57.124
-57.86
-58.619
-59.402
-60.207
-61.032
-61.875
-62.734
-63.606
-64.487
-65.374
-66.262
-67.147
-68.023
-68.885
-69.726
-70.539
-71.316
-72.051
-72.736
-73.362
-73.92
-74.401
-74.797
-75.099
-75.298
-75.386
-75.353
-75.192
-74.893
-74.45
-73.854
-73.099
-72.177
-71.082
-69.809
-68.351
-66.706
-64.87
-62.838
-60.611
-58.187
-55.567
-52.753
-49.749
-46.557
-43.184
-39.638
-35.928
-32.063
-28.055
-23.916
-19.659
-15.301
-10.857
-6.346
-1.784
2.808
7.41
11.999
16.552
21.048
25.465
29.781
33.974
38.02
41.9
45.598
49.096
52.377
55.422
58.213
60.735
62.979
64.929
66.571
67.891
68.876
69.522
69.834
69.812
69.458
68.77
67.744
66.385
64.715
62.75
60.51
58.017
55.294
52.389
49.369
46.299
43.231
40.209
37.261
34.427
31.756
29.29
27.066
25.1
23.387
21.93
20.738
19.797
19.069
18.483
17.918
17.262
16.433
15.354
13.975
12.258
10.163
7.668
4.764
1.443
-2.301
-6.421
-10.878
-15.63
-20.523
-25.353
-29.732
-32.938
-34.253
-33.253
-29.67
-23.454
-14.803
-3.667
9.355
22.343
33.594
41.932
47.803
54.304
62.572
71.373
78.586
80.464
80.773
89.321
114.657
165.355
238.043
320.67
403.838
477.115
538.583
589.037
621.758
630.515
605.596
543.125
452.804
346.21
237.055
134.146
36.8
-54.526
-137.735
-209.146
-263.375
-298.561
-316.108
-318.68
-309.549
-291.801
-269.072
-245.313
-223.227
-204.218
-188.613
-175.948
-165.788
-157.556
-149.853
-141.012
-130.18
-117.266
-102.726
-87.332
-71.633
-56.065
-41.369
-28.479
-18.04
-10.342
-5.351
-2.763
-2.313
-3.816
-7.019
-11.557
-17.01
-22.936
-28.959
-34.873
-40.541
-45.82
-50.579
-54.649
-57.87
-60.174
-61.544
-61.984
-61.53
-60.21
-58.068
-55.224
-51.855
-48.166
-44.369
-40.598
-36.927
-33.422
-30.133
-27.119
-24.438
-22.097
-20.078
-18.369
-16.954
-15.825
-14.97
-14.339
-13.856
-13.436
-12.987
-12.444
-11.765
-10.909
-9.843
-8.54
-6.974
-5.14
-3.04
-0.67
1.981
4.922
8.168
11.722
15.573
19.715
24.135
28.822
33.764
38.947
44.354
49.972
55.785
61.779
67.939
74.247
80.678
87.207
93.805
100.441
107.083
113.699
120.253
126.711
133.039
139.203
145.172
150.913
156.395
161.586
166.456
170.977
175.121
178.861
182.172
185.033
187.423
189.326
190.726
191.611
191.973
191.806
191.112
189.887
188.13
185.841
183.026
179.696
175.87
171.561
166.773
161.534
155.893
149.893
143.585
136.994
130.11
122.959
115.614
108.071
100.273
92.185
83.761
75.032
66.148
57.164
47.987
38.796
30.061
21.871
14.137
6.944
-0.2
-6.247
-8.456
-7.664
-6.243
-8.538
-22.344
-46.448
-73.191
-94.692
-99.799
-88.794
-72.014
-57.382
-53.762
-61.918
-74.068
-85.693
-93.416
-96.567
-98.362
-100.079
-101.67
-103.229
-104.273
-104.745
-105.086
-105.419
-105.69
-105.93
-106.171
-106.41
-106.646
-106.849
-106.961
-106.976
-106.941
-106.876
-106.79
-106.693
-106.593
-106.5
-106.433
-106.401
-106.406
-106.451
-106.543
-106.684
-106.878
-107.131
-107.447
-107.831
-108.285
-108.814
-109.413
-110.084
-110.827
-111.622
-112.454
-113.317
-114.19
-115.071
-115.977
-116.903
-117.855
-118.909
-120.1
-121.42
-122.882
-124.46
-126.057
-127.618
-129.08
-130.118
-130.459
-130.299
