Name,Criss Capps
Date of Birth,"Feb 5, 1952"
Recorded Date,2025-04-20 08:36:04 -0400
Classification,Inconclusive
Symptoms,
Software Version,1.90
Device,"Watch5,4"
Sample Rate,512.844 hertz


Lead,Lead I
Unit,µV

-90.415
-104.088
-115.761
-124.561
-130.303
-133.598
-134.843
-134.299
-132.315
-129.083
-124.983
-120.765
-116.676
-112.438
-107.96
-103.165
-98.021
-92.77
-87.521
-82.109
-76.519
-70.809
-64.941
-59.026
-53.262
-47.718
-42.405
-37.404
-32.879
-29.202
-26.822
-25.844
-25.904
-26.425
-27.028
-27.437
-27.303
-26.032
-22.851
-17.397
-10.008
-1.464
7.625
16.866
25.936
34.386
41.54
46.978
50.84
53.657
55.898
57.81
59.499
61.053
62.722
64.706
66.968
69.288
71.449
73.347
74.988
76.436
77.698
78.749
79.595
80.277
80.848
81.34
81.755
82.07
82.269
82.354
82.341
82.253
82.112
81.931
81.724
81.507
81.295
81.106
80.957
80.861
80.835
80.89
81.043
81.308
81.701
82.233
82.912
83.743
84.729
85.873
87.179
88.648
90.28
92.075
94.029
96.14
98.401
100.807
103.35
106.019
108.804
111.691
114.667
117.717
120.825
123.973
127.143
130.315
133.468
136.581
139.633
142.603
145.466
148.203
150.791
153.208
155.434
157.448
159.23
160.761
162.024
163.002
163.678
164.038
164.07
163.761
163.101
162.082
160.696
158.939
156.806
154.297
151.411
148.15
144.519
140.523
136.171
131.472
126.439
121.084
115.422
109.471
103.25
96.776
90.072
83.16
76.062
68.801
61.403
53.89
46.29
38.625
30.922
23.206
15.501
7.832
0.223
-7.303
-14.724
-22.017
-29.162
-36.14
-42.932
-49.521
-55.891
-62.028
-67.919
-73.553
-78.918
-84.008
-88.814
-93.331
-97.555
-101.484
-105.115
-108.449
-111.487
-114.233
-116.688
-118.858
-120.748
-122.366
-123.717
-124.81
-125.653
-126.255
-126.626
-126.776
-126.715
-126.454
-126.002
-125.37
-124.57
-123.611
-122.502
-121.255
-119.878
-118.38
-116.772
-115.063
-113.26
-111.374
-109.413
-107.386
-105.305
-103.178
-101.014
-98.825
-96.618
-94.403
-92.19
-89.988
-87.804
-85.644
-83.518
-81.434
-79.4
-77.427
-75.521
-73.691
-71.948
-70.299
-68.757
-67.331
-66.024
-64.846
-63.804
-62.908
-62.174
-61.611
-61.226
-61.02
-60.995
-61.142
-61.455
-61.913
-62.485
-63.133
-63.82
-64.507
-65.17
-65.777
-66.297
-66.692
-66.922
-66.949
-66.757
-66.331
-65.667
-64.781
-63.699
-62.473
-61.19
-59.958
-58.891
-58.096
-57.665
-57.668
-58.167
-59.239
-60.966
-63.406
-66.609
-70.591
-75.323
-80.785
-86.947
-93.652
-100.64
-107.519
-113.743
-118.851
-122.46
-124.123
-123.5
-120.473
-115.059
-107.67
-99.054
-89.772
-80.398
-71.542
-63.322
-55.371
-47.127
-37.414
-24.578
-7.116
16.748
48.916
89.265
135.705
186.43
239.045
293.453
352.604
415.17
476.636
528.843
559.187
560.611
531.85
476.115
402.822
320.907
238.477
164.249
103.373
57.9
25.953
0.299
-25.766
-55.35
-88.069
-119.728
-147.047
-170.139
-190.765
-211.209
-232.498
-253.993
-274.506
-293.139
-309.361
-322.581
-332.302
-338.252
-340.338
-338.776
-333.967
-326.234
-315.961
-303.678
-289.812
-274.718
-258.722
-242.033
-224.886
-207.56
-190.245
-173.066
-156.16
-139.653
-123.71
-108.546
-94.323
-81.152
-69.122
-58.285
-48.694
-40.383
-33.329
-27.473
-22.724
-18.973
-16.154
-14.223
-13.126
-12.809
-13.183
-14.121
-15.514
-17.259
-19.252
-21.409
-23.641
-25.884
-28.104
-30.284
-32.418
-34.511
-36.54
-38.467
-40.254
-41.842
-43.199
-44.323
-45.21
-45.871
-46.313
-46.528
-46.501
-46.214
-45.647
-44.784
-43.613
-42.122
-40.321
-38.236
-35.916
-33.443
-30.882
-28.269
-25.633
-22.99
-20.362
-17.791
-15.325
-12.998
-10.836
-8.854
-7.063
-5.474
-4.081
-2.854
-1.739
-0.657
0.456
1.64
2.92
4.316
5.851
7.561
9.482
11.631
14.012
16.631
19.487
22.578
25.893
29.396
33.026
36.718
40.417
44.083
47.701
51.257
54.736
58.123
61.408
64.595
67.709
70.777
73.815
76.844
79.886
82.979
86.192
89.584
93.194
97.048
101.135
105.431
109.91
114.536
119.251
123.978
128.61
133.021
137.116
140.8
143.977
146.548
148.374
149.335
149.343
148.33
146.264
143.139
138.949
133.709
127.473
120.319
112.361
103.739
94.561
84.924
74.931
64.684
54.315
43.949
33.676
23.57
13.687
4.069
-5.238
-14.2
-22.822
-31.122
-39.138
-46.929
-54.523
-61.936
-69.184
-76.28
-83.246
-90.101
-96.842
-103.455
-109.926
-116.24
-122.387
-128.356
-134.118
-139.637
-144.876
-149.792
-154.359
-158.56
-162.38
-165.812
-168.85
-171.495
-173.756
-175.65
-177.194
-178.4
-179.285
-179.86
-180.147
-180.169
-179.95
-179.513
-178.881
-178.077
-177.123
-176.039
-174.845
-173.56
-172.201
-170.782
-169.321
-167.833
-166.336
-164.846
-163.379
-161.948
-160.568
-159.251
-158.008
-156.849
-155.782
-154.812
-153.945
-153.184
-152.531
-151.988
-151.555
-151.231
-151.013
-150.899
-150.885
-150.967
-151.139
-151.394
-151.728
-152.132
-152.601
-153.125
-153.698
-154.311
-154.958
-155.629
-156.318
-157.015
-157.715
-158.408
-159.088
-159.747
-160.379
-160.978
-161.537
-162.051
-162.516
-162.926
-163.28
-163.572
-163.801
-163.964
-164.059
-164.086
-164.042
-163.926
-163.74
-163.481
-163.15
-162.747
-162.274
-161.73
-161.118
-160.437
-159.691
-158.881
-158.008
-157.075
-156.083
-155.034
-153.93
-152.774
-151.567
-150.312
-149.01
-147.664
-146.275
-144.846
-143.379
-141.876
-140.339
-138.769
-137.169
-135.542
-133.889
-132.213
-130.517
-128.804
-127.075
-125.335
-123.586
-121.831
-120.072
-118.314
-116.557
-114.806
-113.062
-111.327
-109.605
-107.896
-106.203
-104.528
-102.872
-101.236
-99.621
-98.028
-96.459
-94.912
-93.39
-91.892
-90.418
-88.969
-87.544
-86.142
-84.764
-83.407
-82.071
-80.755
-79.456
-78.174
-76.907
-75.652
-74.41
-73.177
-71.954
-70.738
-69.529
-68.325
-67.125
-65.929
-64.736
-63.548
-62.364
-61.186
-60.016
-58.858
-57.713
-56.585
-55.479
-54.397
-53.344
-52.324
-51.343
-50.405
-49.515
-48.679
-47.904
-47.194
-46.556
-45.996
-45.519
-45.129
-44.831
-44.628
-44.523
-44.519
-44.616
-44.816
-45.121
-45.531
-46.048
-46.671
-47.401
-48.235
-49.174
-50.211
-51.342
-52.558
-53.847
-55.198
-56.599
-58.037
-59.5
-60.977
-62.453
-63.917
-65.358
-66.764
-68.12
-69.408
-70.604
-71.689
-72.652
-73.485
-74.187
-74.765
-75.223
-75.564
-75.805
-75.949
-75.993
-75.93
-75.731
-75.371
-74.835
-74.121
-73.24
-72.206
-71.014
-69.661
-68.14
-66.427
-64.507
-62.361
-59.946
-57.238
-54.246
-50.996
-47.558
-44.018
-40.438
-36.867
-33.342
-29.888
-26.55
-23.377
-20.406
-17.689
-15.273
-13.22
-11.624
-10.563
-10.076
-10.167
-10.786
-11.85
-13.302
-15.092
-17.17
-19.49
-21.982
-24.579
-27.232
-29.895
-32.519
-35.033
-37.33
-39.308
-40.888
-42.033
-42.746
-43.066
-43.027
-42.668
-42.047
-41.232
-40.311
-39.374
-38.501
-37.765
-37.241
-37.023
-37.198
-37.897
-39.272
-41.387
-44.202
-47.545
-51.087
-54.495
-57.504
-59.764
-60.844
-60.478
-58.596
-55.52
-51.999
-48.758
-46.329
-45.168
-45.666
-47.933
-51.698
-55.991
-59.088
-59.091
-54.194
-42.666
-22.925
6.102
45.042
93.756
150.981
214.795
281.904
347.572
407.082
456.878
496.317
526.524
547.633
556.982
546.465
507.976
436.953
333.069
207.077
73.342
-52.596
-152.984
-221.117
-257.22
-267.154
-264.698
-257.365
-247.248
-234.064
-213.276
-184.343
-150.492
-114.669
-80.486
-50.2
-24.596
-4.447
10.04
19.366
24.362
25.689
23.784
19.382
13.613
7.846
3.461
1.093
0.652
2.03
5.142
9.729
15.387
21.444
27.016
31.648
35.337
38.169
40.322
41.971
43.225
44.323
45.627
47.336
49.512
52.167
55.196
58.51
62.061
65.734
69.413
73.02
76.473
79.712
82.721
85.478
87.971
90.212
92.193
93.901
95.332
96.47
97.31
97.864
98.143
98.17
97.971
97.566
96.981
96.246
95.384
94.412
93.342
92.176
90.923
89.597
88.209
86.775
85.308
83.821
82.327
80.837
79.363
77.918
76.51
75.149
73.843
72.604
71.441
70.369
69.4
68.544
67.813
67.215
66.762
66.463
66.325
66.354
66.558
66.941
67.509
68.266
69.218
70.365
71.711
73.256
75
76.943
79.083
81.417
83.94
86.646
89.531
92.586
95.802
99.172
102.683
106.326
110.089
113.958
117.92
121.961
126.065
130.215
134.396
138.589
142.776
146.937
151.055
155.109
159.081
162.951
166.699
170.306
173.754
177.023
180.095
182.954
185.582
187.965
190.087
191.936
193.499
194.767
195.731
196.381
196.714
196.723
196.407
195.763
194.791
193.493
191.873
189.934
187.684
185.129
182.279
179.144
175.737
172.071
168.16
164.02
159.666
155.117
150.39
145.503
140.476
135.327
130.077
124.744
119.347
113.907
108.441
102.966
97.501
92.062
86.663
81.321
76.049
70.858
65.762
60.77
55.894
51.14
46.518
42.034
37.694
33.503
29.464
25.581
21.855
18.287
14.877
11.622
8.523
5.575
2.776
0.121
-2.394
-4.774
-7.025
-9.152
-11.161
-13.059
-14.852
-16.544
-18.141
-19.65
-21.074
-22.419
-23.69
-24.89
-26.024
-27.096
-28.11
-29.069
-29.978
-30.842
-31.665
-32.453
-33.21
-33.941
-34.652
-35.347
-36.029
-36.701
-37.366
-38.023
-38.676
-39.325
-39.972
-40.62
-41.27
-41.924
-42.585
-43.255
-43.938
-44.636
-45.347
-46.069
-46.802
-47.55
-48.323
-49.128
-49.962
-50.822
-51.703
-52.597
-53.492
-54.364
-55.171
-55.871
-56.43
-56.815
-57.007
-56.987
-56.723
-56.18
-55.32
-54.115
-52.565
-50.68
-48.463
-45.934
-43.124
-40.111
-37.031
-34.017
-31.174
-28.584
-26.293
-24.375
-22.943
-22.091
-21.901
-22.411
-23.585
-25.43
-28.007
-31.262
-35.027
-38.999
-42.706
-45.78
-47.963
-48.89
-48.219
-45.785
-41.596
-35.954
-29.285
-21.956
-14.508
-7.544
-1.455
4.718
13.163
25.405
41.995
60.505
76.932
91.427
107.122
130.248
168.678
223.076
289.52
362.372
432.338
493.661
540.524
562.847
553.745
509.112
432.967
341.622
253.036
180.961
129.936
92.242
56.857
16.748
-29.858
-78.615
-123.19
-160.567
-190.013
-212.352
-230.015
-244.552
-256.745
-267.554
-277.125
-285.228
-292.059
-297.808
-302.453
-305.92
-307.839
-307.495
-304.574
-299.215
-291.603
-282.072
-271.007
-258.69
-245.564
-232.228
-219.065
-206.274
-193.97
-182.106
-170.671
-159.731
-149.295
-139.389
-130.091
-121.448
-113.526
-106.39
-100.019
-94.366
-89.36
-84.891
-80.89
-77.328
-74.18
-71.441
-69.109
-67.157
-65.566
-64.283
-63.208
-62.232
-61.235
-60.121
-58.85
-57.404
-55.788
-54.024
-52.132
-50.121
-48.008
-45.798
-43.491
-41.093
-38.603
-36.041
-33.46
-30.924
-28.514
-26.29
-24.28
-22.498
-20.944
-19.606
-18.465
-17.496
-16.66
-15.929
-15.279
-14.689
-14.143
-13.616
-13.073
-12.469
-11.756
-10.892
-9.845
-8.59
-7.106
-5.376
-3.39
-1.145
1.356
4.111
7.123
10.395
13.933
17.738
21.809
26.143
30.734
35.577
40.666
45.994
51.551
57.33
63.321
69.515
75.905
82.48
89.227
96.131
103.178
110.348
117.625
124.988
132.416
139.886
147.376
154.863
162.322
169.73
177.061
184.289
191.389
198.335
205.1
211.657
217.98
224.042
229.817
235.278
240.401
245.161
249.535
253.5
257.036
260.121
262.739
264.871
266.502
267.619
268.209
268.264
267.775
266.738
265.149
263.008
260.317
257.08
253.305
249
244.177
238.85
233.034
226.749
220.014
212.853
205.289
197.351
189.066
180.464
171.577
162.436
153.076
143.53
133.833
124.019
114.125
104.186
94.236
84.31
74.443
64.667
55.015
45.518
36.206
27.106
18.245
9.648
1.337
-6.667
-14.344
-21.679
-28.656
-35.263
-41.49
-47.33
-52.777
-57.827
-62.481
-66.738
-70.604
-74.083
-77.182
-79.911
-82.281
-84.303
-85.993
-87.365
-88.435
-89.222
-89.742
-90.017
-90.064
-89.904
-89.557
-89.043
-88.382
-87.594
-86.698
-85.713
-84.657
-83.549
-82.406
-81.244
-80.079
-78.925
-77.797
-76.706
-75.664
-74.682
-73.767
-72.929
-72.172
-71.504
-70.929
-70.449
-70.066
-69.782
-69.597
-69.509
-69.516
-69.616
-69.803
-70.075
-70.425
-70.849
-71.339
-71.89
-72.495
-73.147
-73.839
-74.564
-75.315
-76.084
-76.863
-77.647
-78.427
-79.198
-79.951
-80.682
-81.384
-82.051
-82.68
-83.265
-83.802
-84.287
-84.716
-85.088
-85.399
-85.649
-85.834
-85.956
-86.012
-86.005
-85.933
-85.799
-85.604
-85.348
-85.034
-84.664
-84.239
-83.762
-83.236
-82.664
-82.047
-81.39
-80.694
-79.964
-79.202
-78.41
-77.593
-76.752
-75.89
-75.01
-74.114
-73.204
-72.284
-71.354
-70.418
-69.476
-68.532
-67.585
-66.639
-65.694
-64.752
-63.813
-62.879
-61.952
-61.033
-60.123
-59.224
-58.338
-57.466
-56.611
-55.775
-54.959
-54.165
-53.397
-52.657
-51.947
-51.27
-50.63
-50.029
-49.471
-48.959
-48.497
-48.088
-47.735
-47.443
-47.214
-47.053
-46.962
-46.945
-47.006
-47.147
-47.372
-47.682
-48.08
-48.568
-49.146
-49.816
-50.576
-51.426
-52.365
-53.39
-54.5
-55.69
-56.956
-58.294
-59.698
-61.161
-62.676
-64.235
-65.83
-67.45
-69.086
-70.728
-72.364
-73.984
-75.575
-77.125
-78.622
-80.052
-81.403
-82.661
-83.813
-84.845
-85.743
-86.494
-87.086
-87.507
-87.745
-87.79
-87.632
-87.261
-86.669
-85.851
-84.798
-83.506
-81.972
-80.193
-78.169
-75.901
-73.39
-70.64
-67.658
-64.449
-61.022
-57.387
-53.554
-49.536
-45.346
-40.999
-36.512
-31.902
-27.189
-22.393
-17.536
-12.641
-7.735
-2.841
2.016
6.809
11.514
16.106
20.559
24.852
28.963
32.871
36.554
39.989
43.154
46.032
48.606
50.861
52.783
54.361
55.587
56.462
56.985
57.154
56.967
56.414
55.492
54.206
52.564
50.58
48.275
45.671
42.802
39.716
36.457
33.068
29.585
26.031
22.438
18.848
15.302
11.856
8.557
5.427
2.496
-0.212
-2.712
-5.018
-7.176
-9.268
-11.342
-13.45
-15.664
-18.027
-20.61
-23.492
-26.708
-30.34
-34.494
-39.168
-44.319
-49.797
-55.263
-60.428
-65.058
-68.795
-71.301
-72.374
-71.913
-70.224
-67.935
-65.495
-63.253
-61.485
-60.389
-60.156
-60.699
-61.201
-60.383
-57.043
-49.948
-38.184
-20.928
3.014
34.463
73.356
119.178
170.076
222.574
273.801
320.672
362.071
400.159
434.34
461.309
473.302
458.453
411.038
332.229
228.995
112.637
-8.811
-129.36
-241.559
-336.544
-405.316
-442.305
-448.423
-431.196
-398.872
-359.63
-321.084
-286.552
-259.406
-239.931
-223.888
-209.213
-193.717
-177.2
-163.178
-153.165
-147.399
-145.276
-144.245
-142.282
-138.416
-132.235
-124.037
-114.388
-103.876
-93.015
-82.422
-72.942
-65.19
-59.48
-55.962
-54.458
-54.64
-56.225
-58.82
-61.977
-65.39
-68.826
-72.075
-74.998
-77.49
-79.465
-80.914
-81.859
-82.301
-82.233
-81.661
-80.613
-79.148
-77.351
-75.296
-73.032
-70.618
-68.121
-65.632
-63.268
-61.112
-59.211
-57.592
-56.27
-55.259
-54.572
-54.197
-54.097
-54.234
-54.572
-55.08
-55.739
-56.519
-57.382
-58.283
-59.173
-60.01
-60.769
-61.425
-61.957
-62.345
-62.574
-62.635
-62.531
-62.26
-61.817
-61.196
-60.386
-59.383
-58.184
-56.786
-55.19
-53.392
-51.39
-49.183
-46.772
-44.156
-41.336
-38.31
-35.078
-31.641
-28.003
-24.168
-20.143
-15.935
-11.551
-7.002
-2.297
2.552
7.533
12.635
17.847
23.154
28.543
34
39.511
45.061
50.634
56.215
61.787
67.334
72.84
78.287
83.659
88.939
94.11
99.154
104.055
108.798
113.365
117.741
121.911
125.86
129.575
133.043
136.251
139.189
141.845
144.213
146.282
148.049
149.506
150.651
151.479
151.991
152.185
152.062
151.626
150.88
149.827
148.476
146.834
144.908
142.71
140.249
137.539
134.592
131.423
128.046
124.477
120.732
116.829
112.784
108.615
104.34
99.977
95.543
91.058
86.538
82.001
77.463
72.94
68.448
64.001
59.612
55.295
51.06
46.921
42.885
38.964
35.164
31.493
27.958
24.563
21.315
18.215
15.267
12.473
9.832
7.346
5.014
2.835
0.806
-1.075
-2.811
-4.404
-5.86
-7.181
-8.372
-9.439
-10.385
-11.217
-11.937
-12.551
-13.064
-13.478
-13.799
-14.029
-14.172
-14.23
-14.208
-14.11
-13.937
-13.692
-13.379
-12.999
-12.556
-12.053
-11.493
-10.878
-10.211
-9.496
-8.737
-7.938
-7.104
-6.239
-5.35
-4.442
-3.521
-2.595
-1.674
-0.764
0.125
0.987
1.818
2.609
3.353
4.044
4.676
5.244
5.745
6.174
6.521
6.779
6.941
7.012
7
6.913
6.75
6.506
6.175
5.757
5.261
4.691
4.048
3.33
2.544
1.71
0.872
0.076
-0.651
-1.298
-1.879
-2.4
-2.836
-3.126
-3.205
-3.031
-2.603
-1.943
-1.02
0.235
1.829
3.651
5.435
6.895
7.923
8.621
9.143
9.494
9.638
9.644
9.903
10.999
13.294
16.716
20.828
25.343
30.172
35.24
40.157
44.146
46.404
46.527
44.78
41.45
36.687
30.634
23.521
16.101
9.799
6.072
5.799
10.06
20.021
36.622
61.262
94.062
132.841
176.261
223.615
274.455
330.176
387.664
439.074
476.968
493.601
487.819
465.55
432.379
394.569
355.127
312.981
268.748
222.963
176.533
131.915
90.072
50.973
14.472
-20.513
-55.069
-89.478
-123.719
-157.506
-190.227
-221.335
-250.365
-276.703
-299.727
-319.088
-334.642
-346.44
-354.746
-359.829
-361.939
-361.372
-358.399
-353.257
-346.181
-337.389
-327.084
-315.489
-302.824
-289.299
-275.139
-260.555
-245.737
-230.835
-215.942
-201.116
-186.391
-171.811
-157.448
-143.403
-129.789
-116.704
-104.242
-92.489
-81.541
-71.488
-62.381
-54.231
-47.02
-40.737
-35.391
-31.005
-27.604
-25.183
-23.705
-23.093
-23.247
-24.066
-25.429
-27.203
-29.239
-31.374
-33.488
-35.512
-37.404
-39.137
-40.674
-41.975
-43.005
-43.754
-44.225
-44.437
-44.416
-44.187
-43.797
-43.304
-42.783
-42.319
-41.966
-41.743
-41.65
-41.673
-41.798
-42.006
-42.273
-42.556
-42.815
-43.013
-43.112
-43.083
-42.887
-42.477
-41.801
-40.804
-39.446
-37.704
-35.563
-33.014
-30.052
-26.674
-22.884
-18.694
-14.114
-9.149
-3.802
1.925
8.025
14.483
21.28
28.397
35.816
43.525
51.512
59.76
68.244
76.939
85.821
94.859
104.019
113.25
122.492
131.694
140.818
149.837
158.734
167.49
176.082
184.493
192.705
200.705
208.486
216.035
223.331
230.375
237.178
243.778
250.241
256.599
262.85
268.976
274.938
280.69
286.192
291.379
296.178
300.53
304.387
307.72
310.518
312.737
314.305
315.123
315.059
314.017
311.953
308.853
304.723
299.596
293.514
286.554
278.824
270.396
261.319
251.615
241.298
230.421
219.087
207.428
195.611
183.797
172.105
160.63
149.456
138.634
128.201
118.164
108.502
99.232
90.403
82.093
74.377
67.299
60.853
55.006
49.695
44.834
40.356
36.204
32.325
28.697
25.305
22.152
19.249
16.592
14.145
11.848
9.646
7.495
5.379
3.303
1.286
-0.626
-2.393
-3.982
-5.364
-6.531
-7.482
-8.226
-8.776
-9.148
-9.343
-9.351
-9.163
-8.771
-8.18
-7.403
-6.46
-5.385
-4.211
-2.967
-1.681
-0.372
0.947
2.267
3.583
4.895
6.201
7.496
8.774
10.028
11.254
12.449
13.614
14.752
15.864
16.955
18.025
19.078
20.113
21.128
22.121
23.089
24.026
24.93
25.799
26.633
27.429
28.187
28.907
29.588
30.232
30.838
31.405
31.935
32.425
32.876
33.288
33.661
33.992
34.281
34.527
34.728
34.883
34.989
35.046
35.053
35.007
34.908
34.755
34.547
34.283
33.962
33.584
33.148
32.655
32.104
31.496
30.83
30.105
29.323
28.483
27.583
26.624
25.606
24.526
23.386
22.185
20.923
19.601
18.217
16.775
15.274
13.715
12.101
10.433
8.712
6.941
5.122
3.258
1.35
-0.597
-2.582
-4.6
-6.649
-8.726
-10.825
-12.944
-15.079
-17.226
-19.38
-21.538
-23.695
-25.848
-27.99
-30.119
-32.228
-34.315
-36.373
-38.4
-40.39
-42.341
-44.248
-46.108
-47.918
-49.675
-51.377
-53.022
-54.608
-56.134
-57.599
-59.002
-60.344
-61.625
-62.845
-64.007
-65.111
-66.16
-67.155
-68.1
-68.996
-69.848
-70.659
-71.432
-72.171
-72.879
-73.561
-74.22
-74.86
-75.485
-76.099
-76.704
-77.305
-77.905
-78.505
-79.109
-79.719
-80.336
-80.963
-81.599
-82.246
-82.904
-83.573
-84.252
-84.94
-85.634
-86.334
-87.036
-87.738
-88.436
-89.127
-89.806
-90.471
-91.116
-91.737
-92.33
-92.889
-93.412
-93.892
-94.326
-94.71
-95.04
-95.314
-95.527
-95.678
-95.765
-95.785
-95.738
-95.623
-95.439
-95.188
-94.868
-94.483
-94.033
-93.521
-92.951
-92.326
-91.649
-90.926
-90.162
-89.361
-88.531
-87.676
-86.803
-85.918
-85.029
-84.141
-83.262
-82.397
-81.554
-80.738
-79.954
-79.208
-78.504
-77.846
-77.237
-76.68
-76.176
-75.726
-75.331
-74.991
-74.703
-74.468
-74.282
-74.142
-74.044
-73.982
-73.951
-73.945
-73.956
-73.976
-73.997
-74.01
-74.007
-73.978
-73.914
-73.805
-73.641
-73.414
-73.113
-72.73
-72.256
-71.684
-71.005
-70.213
-69.302
-68.27
-67.111
-65.824
-64.406
-62.859
-61.183
-59.381
-57.457
-55.414
-53.26
-51.003
-48.652
-46.217
-43.711
-41.147
-38.539
-35.904
-33.261
-30.626
-28.019
-25.459
-22.965
-20.558
-18.257
-16.079
-14.042
-12.162
-10.456
-8.942
-7.636
-6.551
-5.703
-5.102
-4.76
-4.686
-4.884
-5.351
-6.087
-7.088
-8.353
-9.884
-11.678
-13.726
-16.02
-18.547
-21.29
-24.225
-27.318
-30.523
-33.802
-37.115
-40.435
-43.736
-46.985
-50.149
-53.195
-56.084
-58.789
-61.283
-63.533
-65.508
-67.208
-68.653
-69.891
-70.987
-71.98
-72.888
-73.743
-74.584
-75.471
-76.466
-77.618
-78.95
-80.504
-82.385
-84.644
-87.223
-89.909
-92.288
-93.92
-94.482
-93.66
-91.081
-86.598
-80.334
-72.752
-64.913
-57.9
-52.472
-49.35
-49.064
-51.577
-56.363
-62.225
-66.91
-68.005
-63.354
-50.762
-28.655
3.818
46.944
99.911
160.526
225.144
288.831
346.264
393.529
429.704
455.362
470.737
473.595
456.211
411.017
333.393
222.781
90.21
-49.391
-179.919
-283.744
-355.599
-397.661
-415.943
-421.582
-416.846
-398.411
-365.006
-316.515
-261.165
-211.58
-174.963
-152.969
-140.95
-131.849
-122.222
-112.679
-106.609
-106.202
-111.164
-119.162
-126.236
-130.163
-130.566
-127.515
-121.846
-114.451
-105.77
-96.67
-88.442
-81.762
-76.916
-73.99
-72.606
-72.341
-72.915
-73.894
-74.775
-75.314
-75.366
-74.859
-73.868
-72.408
-70.465
-68.098
-65.357
-62.27
-58.885
-55.244
-51.407
-47.496
-43.621
-39.855
-36.255
-32.841
-29.63
-26.649
-23.912
-21.426
-19.194
-17.21
-15.48
-14.014
-12.803
-11.828
-11.05
-10.412
-9.867
-9.384
-8.933
-8.493
-8.05
-7.585
-7.092
-6.568
-6.008
-5.407
-4.751
-4.025
-3.221
-2.329
-1.348
-0.276
0.888
2.148
3.505
4.961
6.521
8.186
9.962
11.858
13.877
16.023
18.297
20.701
23.232
25.892
28.677
31.584
34.609
37.75
41.002
44.36
47.821
51.379
55.028
58.762
62.573
66.455
70.401
74.401
78.447
82.531
86.643
90.775
94.917
99.058
103.189
107.299
111.378
115.415
119.397
123.313
127.152
130.9
134.547
138.08
141.487
144.757
147.878
150.84
153.632
156.243
158.663
160.884
162.895
164.688
166.255
167.589
168.684
169.533
170.132
170.477
170.564
170.39
169.955
169.258
168.298
167.077
165.597
163.86
161.873
159.638
157.163
154.454
151.521
148.371
145.016
141.465
137.731
133.825
129.761
125.551
121.21
116.752
112.192
107.544
102.824
98.048
93.23
88.387
83.534
78.686
73.859
69.066
64.322
59.642
55.038
50.524
46.112
41.814
37.643
33.607
29.718
25.984
22.413
19.013
15.789
12.747
9.89
7.222
4.745
2.46
0.367
-1.534
-3.246
-4.772
-6.117
-7.284
-8.282
-9.117
-9.799
-10.336
-10.742
-11.025
-11.2
-11.279
-11.275
-11.201
-11.072
-10.9
-10.698
-10.478
-10.256
-10.045
-9.858
-9.71
-9.614
-9.583
-9.629
-9.765
-9.999
-10.335
-10.782
-11.341
-12.02
-12.829
-13.774
-14.856
-16.075
-17.427
-18.903
-20.492
-22.168
-23.897
-25.643
-27.374
-29.059
-30.679
-32.206
-33.611
-34.862
-35.916
-36.738
-37.306
-37.595
-37.585
-37.278
-36.68
-35.837
-34.832
-33.741
-32.626
-31.539
-30.511
-29.598
-28.879
-28.43
-28.332
-28.646
-29.425
-30.782
-32.757
-35.267
-38.138
-41.011
-43.466
-45.196
-45.855
-45.01
-42.512
-38.465
-33.195
-27.498
-22.141
-17.616
-14.517
-13.363
-14.075
-15.977
-17.833
-17.694
-13.52
-3.445
14.554
42.267
79.717
124.961
175.757
229.91
287.242
348.781
412.177
470.914
515.118
536.068
529.838
498.876
451.092
392.841
330.679
270.677
214.924
167.385
128.442
93.471
59.572
22.443
-19.589
-63.493
-107.337
-149.196
-188.12
-225.228
-260.462
-293.068
-322.182
-346.552
-365.919
-380.615
-390.794
-396.796
-399.034
-397.839
-393.803
-387.508
-379
-368.35
-355.785
-341.481
-325.751
-308.917
-291.104
-272.441
-253.296
-234.008
-214.823
-195.951
-177.445
-159.33
-141.727
-124.782
-108.589
-93.206
-78.652
-64.92
-52.061
-40.16
-29.288
-19.498
-10.794
-3.148
3.44
8.938
13.31
16.541
18.658
19.731
19.819
18.956
17.155
14.442
10.901
6.662
1.88
-3.296
-8.751
-14.388
-20.089
-25.717
-31.146
-36.281
-41.073
-45.499
-49.515
-53.047
-55.998
-58.297
-59.931
-60.931
-61.358
-61.274
-60.739
-59.815
-58.595
-57.192
-55.693
-54.147
-52.567
-50.95
-49.315
-47.708
-46.19
-44.799
-43.542
-42.401
-41.349
-40.357
-39.386
-38.38
-37.254
-35.909
-34.269
-32.292
-29.955
-27.249
-24.154
-20.64
-16.68
-12.266
-7.398
-2.086
3.664
9.847
16.448
23.44
30.776
38.396
46.248
54.291
62.48
70.768
79.105
87.437
95.72
103.928
112.04
120.044
127.925
135.669
143.258
150.663
157.865
164.848
171.599
178.109
184.383
190.438
196.301
202.006
207.565
212.973
218.202
223.195
227.886
232.196
236.06
239.436
242.284
244.574
246.275
247.354
247.767
247.461
246.37
244.416
241.544
237.727
232.975
227.338
220.895
213.753
206.006
197.737
189.019
179.917
170.489
160.797
150.906
140.887
130.828
120.836
111.005
101.413
92.111
83.119
74.435
66.032
57.892
50
42.352
34.956
27.822
20.966
14.405
8.157
2.227
-3.397
-8.723
-13.762
-18.512
-22.961
-27.091
-30.873
-34.285
-37.307
-39.926
-42.141
-43.955
-45.379
-46.428
-47.125
-47.49
-47.539
-47.289
-46.756
-45.958
-44.918
-43.662
-42.215
-40.606
-38.863
-37.013
-35.082
-33.095
-31.073
-29.035
-27
-24.983
-23.002
-21.071
-19.209
-17.429
-15.746
-14.173
-12.722
-11.404
-10.229
-9.203
-8.333
-7.624
-7.078
-6.699
-6.487
-6.443
-6.565
-6.851
-7.296
-7.898
-8.649
-9.544
-10.575
-11.734
-13.012
-14.399
-15.885
-17.461
-19.116
-20.839
-22.621
-24.45
-26.317
-28.211
-30.123
-32.042
-33.96
-35.865
-37.749
-39.603
-41.418
-43.185
-44.898
-46.548
-48.128
-49.631
-51.052
-52.385
-53.624
-54.764
-55.803
-56.735
-57.56
-58.274
-58.877
-59.368
-59.746
-60.014
-60.171
-60.22
-60.163
-60.002
-59.741
-59.383
-58.932
-58.392
-57.766
-57.06
-56.277
-55.422
-54.501
-53.518
-52.477
-51.385
-50.246
-49.065
-47.847
-46.599
-45.324
-44.03
-42.719
-41.399
-40.073
-38.746
-37.423
-36.107
-34.802
-33.511
-32.238
-30.984
-29.751
-28.542
-27.357
-26.198
-25.065
-23.958
-22.876
-21.82
-20.79
-19.783
-18.799
-17.838
-16.898
-15.977
-15.076
-14.193
-13.326
-12.474
-11.636
-10.811
-9.998
-9.194
-8.4
-7.614
-6.835
-6.062
-5.295
-4.532
-3.774
-3.021
-2.273
-1.529
-0.792
-0.06
0.664
1.379
2.084
2.776
3.454
4.114
4.755
5.373
5.966
6.532
7.068
7.571
8.039
8.47
8.861
9.211
9.518
9.78
9.996
10.165
10.285
10.356
10.377
10.349
10.27
10.141
9.962
9.734
9.457
9.133
8.761
8.344
7.884
7.381
6.839
6.259
5.645
5
4.327
3.629
2.91
2.174
1.423
0.661
-0.107
-0.88
-1.652
-2.422
-3.187
-3.942
-4.687
-5.418
-6.133
-6.83
-7.508
-8.165
-8.8
-9.411
-9.998
-10.559
-11.094
-11.602
-12.082
-12.534
-12.959
-13.355
-13.723
-14.065
-14.38
-14.671
-14.938
-15.182
-15.405
-15.61
-15.796
-15.967
-16.124
-16.269
-16.403
-16.528
-16.645
-16.757
-16.864
-16.967
-17.067
-17.164
-17.258
-17.349
-17.438
-17.523
-17.604
-17.68
-17.75
-17.814
-17.87
-17.917
-17.953
-17.976
-17.983
-17.974
-17.944
-17.89
-17.81
-17.7
-17.556
-17.375
-17.153
-16.887
-16.573
-16.207
-15.786
-15.306
-14.764
-14.157
-13.482
-12.736
-11.919
-11.028
-10.063
-9.023
-7.909
-6.719
-5.457
-4.124
-2.721
-1.251
0.282
1.875
3.522
5.217
6.956
8.729
10.531
12.349
14.175
15.997
17.804
19.585
21.328
23.021
24.653
26.214
27.694
29.082
30.369
31.544
32.596
33.515
34.292
34.918
35.384
35.682
35.808
35.762
35.544
35.152
34.586
33.836
32.901
31.785
30.491
29.029
27.411
25.654
23.789
21.861
19.91
17.976
16.09
14.271
12.551
10.962
9.537
8.317
7.329
6.578
6.085
5.859
5.89
6.147
6.557
7.009
7.412
7.689
7.783
7.644
7.195
6.352
5.039
3.181
0.77
-2.203
-5.819
-10.063
-14.809
-19.816
-24.602
-28.666
-31.716
-33.409
-33.321
-31.29
-27.287
-21.568
-15.01
-8.427
-2.195
3.225
7.263
9.848
11.23
11.99
14.72
21.98
34.241
53
77.93
107.74
145.741
192.639
247.42
309.886
372.968
431.138
483.444
526.645
560.522
582.984
583.697
553.447
485.971
377.673
237.183
81.372
-72.08
-201.561
-292.229
-342.739
-357.928
-351.14
-337.459
-322.62
-308.043
-291.63
-269.233
-241.779
-212.639
-185.061
-162.606
-146.684
-136.666
-131.471
-129.373
-128.535
-127.655
-125.635
-121.68
-115.269
-106.221
-94.787
-81.66
-67.876
-54.47
-42.401
-32.3
-24.515
-19.235
-16.425
-15.902
-17.333
-20.248
-24.106
-28.513
-33.236
-38.092
-42.967
-47.698
-52.061
-55.928
-59.249
-61.984
-64.115
-65.613
-66.432
-66.586
-66.147
-65.204
-63.86
-62.201
-60.272
-58.138
-55.876
-53.587
-51.397
-49.392
-47.62
-46.112
-44.887
-43.959
-43.339
-43.013
-42.938
-43.071
-43.374
-43.817
-44.384
-45.051
-45.782
-46.537
-47.269
-47.943
-48.538
-49.033
-49.412
-49.662
-49.769
-49.73
-49.553
-49.242
-48.793
-48.204
-47.468
-46.581
-45.543
-44.354
-43.012
-41.519
-39.871
-38.069
-36.113
-34.004
-31.741
-29.322
-26.747
-24.013
-21.124
-18.079
-14.884
-11.54
-8.052
-4.424
-0.662
3.229
7.242
11.371
15.61
19.952
24.388
28.909
33.506
38.169
42.886
47.646
52.437
57.246
62.059
66.863
71.643
76.384
81.071
85.69
90.226
94.662
98.983
103.173
107.217
111.1
114.805
118.318
121.623
124.706
127.553
130.149
132.483
134.543
136.316
137.793
138.962
139.817
140.35
140.553
140.423
139.955
139.148
138.001
136.514
134.691
132.535
130.051
127.246
124.127
120.705
116.99
112.992
108.727
104.206
99.447
94.465
89.276
83.9
78.354
72.656
66.828
60.886
54.853
48.746
42.586
36.392
30.185
23.982
17.804
11.669
5.596
-0.399
-6.299
-12.088
-17.752
-23.276
-28.648
-33.857
-38.891
-43.742
-48.4
-52.858
-57.11
-61.152
-64.979
-68.59
-71.982
-75.156
-78.112
-80.853
-83.38
-85.697
-87.808
-89.716
-91.426
-92.944
-94.275
-95.426
-96.403
-97.215
-97.871
-98.383
-98.76
-99.012
-99.151
-99.185
-99.126
-98.982
-98.757
-98.459
-98.092
-97.663
-97.181
-96.651
-96.079
-95.469
-94.823
-94.147
-93.444
-92.713
-91.947
-91.145
-90.303
-89.426
-88.527
-87.613
-86.687
-85.748
-84.792
-83.812
-82.797
-81.725
-80.56
-79.266
-77.805
-76.149
-74.284
-72.186
-69.825
-67.17
-64.175
-60.813
-57.079
-52.967
-48.486
-43.672
-38.568
-33.245
-27.813
-22.372
-17.036
-11.935
-7.175
-2.867
0.888
3.977
6.234
7.567
7.994
7.645
6.798
5.731
4.637
3.809
3.682
4.523
6.393
9.026
11.671
13.769
15.071
15.06
13.307
9.827
4.856
0.33
-1.047
1.634
9.767
23.357
41.899
69.037
105.606
151.337
206.581
265.659
325.856
386.341
441.62
488.588
521.524
531.272
514.746
472.235
407.425
331.317
254.914
185.161
126.914
77.973
31.708
-15.31
-65.608
-118.142
-167.89
-212.355
-249.923
-280.026
-304.363
-324.035
-339.877
-352.932
-363.768
-372.712
-380.139
-386.393
-391.699
-396.083
-399.281
-400.743
-399.791
-396.162
-389.945
-381.312
-370.589
-358.11
-344.206
-329.369
-314.178
-298.997
-284.012
-269.313
-254.88
-240.751
-227.023
-213.768
-201.073
-189.024
-177.698
-167.162
-157.466
-148.605
-140.535
-133.191
-126.483
-120.357
-114.794
-109.776
-105.298
-101.338
-97.857
-94.786
-92.026
-89.46
-86.958
-84.422
-81.788
-79.026
-76.133
-73.125
-70.031
-66.879
-63.692
-60.486
-57.271
-54.061
-50.869
-47.731
-44.701
-41.85
-39.266
-37.013
-35.128
-33.629
-32.515
-31.769
-31.37
-31.278
-31.446
-31.831
-32.392
-33.093
-33.9
-34.773
-35.659
-36.501
-37.234
-37.804
-38.17
-38.292
-38.137
-37.678
-36.889
-35.756
-34.269
-32.419
-30.191
-27.574
-24.554
-21.125
-17.287
-13.04
-8.383
-3.316
2.167
8.064
14.365
21.061
28.136
35.567
43.329
51.379
59.669
68.163
76.828
85.642
94.593
103.664
112.841
122.112
131.452
140.838
150.256
159.677
169.081
178.465
187.833
197.215
206.652
216.151
225.704
235.285
244.837
254.297
263.592
272.622
281.31
289.588
297.387
304.664
311.375
317.452
322.823
327.393
331.047
333.716
335.354
335.933
335.471
334.004
331.593
328.343
324.349
319.68
314.406
308.572
302.219
295.416
288.229
280.74
273.052
265.246
257.384
249.53
241.711
233.936
226.197
218.449
210.652
202.795
194.868
186.883
178.858
170.801
162.722
154.634
146.534
138.426
130.317
122.208
114.113
106.059
98.078
90.218
82.524
75.028
67.754
60.719
53.932
47.401
41.13
35.116
29.358
23.857
18.613
13.631
8.911
4.448
0.235
-3.738
-7.483
-11.007
-14.321
-17.433
-20.349
-23.078
-25.623
-27.987
-30.176
-32.194
-34.049
-35.747
-37.298
-38.708
-39.986
-41.14
-42.179
-43.108
-43.936
-44.667
-45.307
-45.861
-46.335
-46.732
-47.057
-47.314
-47.507
-47.64
-47.716
-47.739
-47.711
-47.635
-47.515
-47.353
-47.152
-46.915
-46.643
-46.34
-46.009
-45.652
-45.272
-44.871
-44.451
-44.013
-43.56
-43.091
-42.609
-42.113
-41.605
-41.085
-40.553
-40.011
-39.459
-38.897
-38.328
-37.751
-37.167
-36.577
-35.982
-35.381
-34.776
-34.167
-33.553
-32.937
-32.317
-31.694
-31.068
-30.44
-29.808
-29.174
-28.536
-27.894
-27.249
-26.601
-25.949
-25.294
-24.637
-23.977
-23.316
-22.655
-21.994
-21.334
-20.678
-20.025
-19.376
-18.734
-18.1
-17.474
-16.859
-16.255
-15.665
-15.09
-14.531
-13.992
-13.473
-12.976
-12.505
-12.059
-11.643
-11.257
-10.904
-10.586
-10.306
-10.066
-9.867
-9.712
-9.603
-9.541
-9.527
-9.564
-9.651
-9.79
-9.982
-10.226
-10.523
-10.874
-11.279
-11.736
-12.247
-12.81
-13.424
-14.089
-14.802
-15.564
-16.371
-17.222
-18.114
-19.046
-20.013
-21.014
-22.044
-23.101
-24.181
-25.279
-26.391
-27.514
-28.641
-29.769
-30.893
-32.008
-33.11
-34.193
-35.254
-36.287
-37.289
-38.255
-39.18
-40.06
-40.891
-41.669
-42.389
-43.048
-43.642
-44.168
-44.622
-45.002
-45.304
-45.527
-45.668
-45.726
-45.698
-45.585
-45.384
-45.097
-44.723
-44.263
-43.719
-43.091
-42.383
-41.597
-40.736
-39.802
-38.799
-37.732
-36.603
-35.416
-34.178
-32.891
-31.562
-30.194
-28.795
-27.37
-25.924
-24.464
-22.995
-21.525
-20.059
-18.605
-17.168
-15.755
-14.374
-13.03
-11.731
-10.483
-9.291
-8.163
-7.102
-6.116
-5.207
-4.38
-3.639
-2.987
-2.428
-1.964
-1.598
-1.33
-1.162
-1.096
-1.131
-1.267
-1.504
-1.841
-2.275
-2.804
-3.426
-4.138
-4.935
-5.813
-6.766
-7.79
-8.877
-10.021
-11.214
-12.448
-13.714
-15.003
-16.306
-17.614
-18.916
-20.204
-21.467
-22.696
-23.881
-25.012
-26.079
-27.073
-27.985
-28.805
-29.525
-30.137
-30.632
-31.003
-31.244
-31.348
-31.31
-31.125
-30.788
-30.296
-29.645
-28.836
-27.866
-26.736
-25.449
-24.005
-22.411
-20.671
-18.792
-16.781
-14.647
-12.399
-10.048
-7.606
-5.085
-2.498
0.14
2.815
5.509
8.205
10.886
13.534
16.132
18.66
21.101
23.438
25.656
27.741
29.678
31.453
33.05
34.456
35.659
36.645
37.405
37.929
38.208
38.239
38.024
37.564
36.863
35.918
34.726
33.289
31.611
29.697
27.559
25.21
22.67
19.971
17.153
14.256
11.313
8.353
5.397
2.475
-0.385
-3.149
-5.781
-8.253
-10.542
-12.622
-14.479
-16.117
-17.567
-18.889
-20.157
-21.432
-22.76
-24.185
-25.759
-27.545
-29.603
-32.004
-34.781
-37.987
-41.735
-46.036
-50.796
-55.813
-60.684
-65.004
-68.497
-70.786
-71.428
-70.343
-67.641
-63.743
-59.633
-56.056
-53.445
-52.487
-53.713
-56.959
-61.735
-66.839
-70.062
-69.614
-63.984
-51.179
-29.623
1.377
41.92
90.803
145.294
202.584
259.442
311.482
354.281
383.788
396.376
389.727
363.123
316.621
251.511
171.039
79.561
-17.924
-115.867
-208.887
-292.336
-362.128
-415.095
-449.904
-466.565
-465.909
-450.089
-422.308
-385.981
-344.783
-302.506
-261.954
-225.465
-195.405
-172.874
-157.762
-149.527
-146.901
-148.099
-151.779
-156.337
-159.626
-160.402
-158.172
-152.757
-144.699
-134.825
-123.719
-112.301
-101.835
-93.029
-86.239
-81.608
-78.824
-77.512
-77.389
-77.985
-78.746
-79.339
-79.554
-79.265
-78.496
-77.243
-75.484
-73.261
-70.63
-67.628
-64.292
-60.653
-56.74
-52.621
-48.391
-44.143
-39.975
-35.961
-32.15
-28.594
-25.332
-22.392
-19.789
-17.525
-15.592
-13.983
-12.686
-11.684
-10.953
-10.458
-10.158
-10.01
-9.963
-9.978
-10.023
-10.072
-10.103
-10.098
-10.041
-9.921
-9.735
-9.474
-9.128
-8.689
-8.148
-7.496
-6.731
-5.85
-4.851
-3.733
-2.492
-1.127
0.366
1.99
3.747
5.641
7.675
9.852
12.17
14.629
17.225
19.954
22.812
25.795
28.895
32.107
35.424
38.839
42.346
45.938
49.606
53.342
57.138
60.984
64.873
68.794
72.739
76.697
80.66
84.618
88.561
92.48
96.365
100.207
103.994
107.718
111.367
114.933
118.406
121.775
125.032
128.168
131.174
134.041
136.763
139.33
141.736
143.974
146.037
147.918
149.613
151.114
152.418
153.519
154.414
155.099
155.572
155.831
155.872
155.697
155.302
154.69
153.861
152.816
151.557
150.089
148.415
146.54
144.469
142.21
139.769
137.153
134.372
131.434
128.349
125.126
121.776
118.311
114.743
111.082
107.343
103.539
99.682
95.787
91.867
87.938
84.012
80.105
76.231
72.404
68.64
64.951
61.353
57.859
54.483
51.238
48.135
45.186
42.401
39.79
37.361
35.122
33.08
31.24
29.607
28.184
26.975
25.98
25.198
24.628
24.268
24.111
24.153
24.384
24.795
25.374
26.111
26.99
27.998
29.119
30.336
31.632
32.99
34.392
35.819
37.252
38.67
40.052
41.379
42.631
43.787
44.827
45.73
46.48
47.062
47.462
47.667
47.662
47.428
46.951
46.225
45.246
44.015
42.538
40.824
38.893
36.78
34.523
32.163
29.736
27.267
24.785
22.326
19.929
17.642
15.507
13.547
11.782
10.224
8.869
7.711
6.715
5.797
4.865
3.833
2.619
1.18
-0.516
-2.527
-4.911
-7.735
-11.065
-14.935
-19.344
-24.303
-29.816
-35.799
-42.073
-48.319
-54.063
-58.874
-62.384
-64.212
-64.082
-61.941
-57.892
-52.279
-45.756
-38.878
-32.166
-26.267
-21.396
-17.153
-12.767
-7.033
1.564
14.308
32.559
57.955
91.31
132.189
179.147
229.8
281.37
331.175
376.178
412.707
437.62
449.144
446.904
431.671
404.655
367.117
320.672
267.89
211.705
154.345
97.139
40.804
-14.066
-66.583
-115.563
-160.41
-201.269
-238.182
-270.924
-299.159
-322.607
-341.503
-356.819
-369.514
-379.986
-388.474
-395.18
-400.291
-404.049
-406.447
-406.978
-405
-400.262
-392.81
-382.88
-370.816
-356.909
-341.476
-325.026
-308.175
-291.385
-274.94
-259.004
-243.65
-228.979
-215.127
-202.199
-190.229
-179.231
-169.195
-160.102
-151.943
-144.659
-138.137
-132.239
-126.805
-121.696
-116.808
-112.041
-107.281
-102.441
-97.439
-92.199
-86.689
-80.891
-74.793
-68.407
-61.758
-54.89
-47.877
-40.811
-33.784
-26.891
-20.217
-13.849
-7.889
-2.418
2.508
6.838
10.55
13.633
16.071
17.873
19.06
19.659
19.71
19.263
18.36
17.057
15.414
13.496
11.378
9.126
6.793
4.43
2.082
-0.21
-2.405
-4.466
-6.369
-8.083
-9.578
-10.828
-11.801
-12.47
-12.815
-12.818
-12.462
-11.732
-10.613
-9.09
-7.152
-4.791
-1.997
1.234
4.91
9.031
13.593
18.59
24.012
29.848
36.081
42.696
49.672
56.986
64.617
72.538
80.724
89.146
97.774
106.577
115.523
124.577
133.704
142.87
152.038
161.171
170.232
179.186
187.996
196.625
205.038
213.2
221.075
228.631
235.835
242.657
249.067
255.038
260.544
265.563
270.072
274.053
277.49
280.367
282.675
284.402
285.543
286.092
286.049
285.413
284.188
282.38
279.997
277.049
273.551
269.516
264.963
259.912
254.384
248.402
241.992
235.181
227.996
220.467
212.625
204.501
196.129
187.539
178.767
169.844
160.804
151.679
142.503
133.306
124.12
114.975
105.9
96.923
88.07
79.366
70.836
62.502
54.383
46.499
38.867
31.502
24.417
17.625
11.134
4.953
-0.912
-6.457
-11.678
-16.575
-21.148
-25.4
-29.334
-32.956
-36.273
-39.291
-42.019
-44.468
-46.646
-48.566
-50.238
-51.675
-52.888
-53.89
-54.694
-55.313
-55.759
-56.046
-56.185
-56.189
-56.07
-55.84
-55.51
-55.09
-54.591
-54.023
-53.395
-52.717
-51.995
-51.237
-50.45
-49.641
-48.813
-47.973
-47.123
-46.267
-45.407
-44.546
-43.686
-42.828
-41.973
-41.122
-40.276
-39.436
-38.602
-37.774
-36.953
-36.138
-35.33
-34.528
-33.733
-32.944
-32.161
-31.384
-30.612
-29.846
-29.086
-28.33
-27.58
-26.834
-26.095
-25.361
-24.634
-23.914
-23.204
-22.504
-21.816
-21.142
-20.485
-19.847
-19.229
-18.634
-18.063
-17.52
-17.004
-16.518
-16.062
-15.637
-15.244
-14.883
-14.556
-14.26
-13.998
-13.769
-13.572
-13.408
-13.277
-13.177
-13.109
-13.072
-13.066
-13.091
-13.145
-13.229
-13.341
-13.479
-13.643
-13.831
-14.041
-14.27
-14.518
-14.78
-15.057
-15.344
-15.642
-15.948
-16.261
-16.58
-16.906
-17.238
-17.577
-17.922
-18.276
-18.639
-19.012
-19.397
-19.795
-20.209
-20.639
-21.088
-21.557
-22.047
-22.561
-23.1
-23.665
-24.258
-24.88
-25.532
-26.216
-26.933
-27.685
-28.472
-29.296
-30.16
-31.064
-32.009
-32.996
-34.024
-35.093
-36.202
-37.349
-38.531
-39.745
-40.988
-42.256
-43.545
-44.852
-46.173
-47.5
-48.828
-50.147
-51.453
-52.737
-53.994
-55.215
-56.394
-57.524
-58.603
-59.628
-60.594
-61.495
-62.324
-63.07
-63.728
-64.297
-64.777
-65.169
-65.471
-65.682
-65.803
-65.836
-65.78
-65.635
-65.395
-65.054
-64.608
-64.059
-63.413
-62.687
-61.892
-61.017
-60.027
-58.883
-57.564
-56.083
-54.485
-52.788
-50.969
-49.028
-47.037
-45.115
-43.329
-41.614
-39.731
-37.463
-34.838
-31.957
-28.776
-25.3
-21.703
-18.189
-15.491
-13.706
-11.469
-8.757
-6.493
-6.67
-13.551
-26.684
-40.898
-50.884
-49.83
-37.423
-20.529
-4.477
5.327
7.541
6.321
3.887
1.738
0.694
-0.533
-2.335
-4.372
-6.596
-8.632
-10.146
-11.181
-11.852
-12.339
-12.865
-13.548
-14.38
-15.29
-16.258
-17.274
-18.323
-19.389
-20.431
-21.42
-22.36
-23.281
-24.205
-25.143
-26.093
-27.04
-27.977
-28.904
-29.819
-30.723
-31.616
-32.496
-33.359
-34.206
-35.034
-35.844
-36.634
-37.402
-38.146
-38.863
-39.555
-40.228
-40.883
-41.524
-42.148
-42.755
-43.342
-43.909
-44.456
-44.981
-45.483
-45.961
-46.416
-46.849
-47.262
-47.652
-48.016
-48.349
-48.645
-48.898
-49.1
-49.245
-49.325
-49.331
-49.259
-49.11
-48.879
-48.559
-48.143
-47.615
-46.967
-46.198
-45.307
-44.293
-43.165
-41.933
-40.621
-39.268
-37.9
-36.531
-35.167
-33.802
-32.432
-31.057
-29.675
-28.282
-26.874
-25.438
-23.972
-22.485
-20.962
-19.38
-17.69
-15.816
-13.715
-11.377
-8.809
-6.041
-3.114
-0.071
3.019
6.063
8.987
11.723
14.219
16.448
18.353
19.848
20.833
21.185
20.816
19.689
17.785
15.111
11.71
7.654
3.051
-1.948
-7.22
-12.677
-18.235
-23.834
-29.387
-34.772
-39.877
-44.589
-48.808
-52.475
-55.565
-58.07
-60.043
-61.587
-62.806
-63.844
-64.839
-65.882
-67.09
-68.565
-70.382
-72.672
-75.578
-79.154
-83.402
-88.206
-93.241
-98.185
-102.726
-106.419
-108.832
-109.672
-108.817
-106.566
-103.601
-100.615
-98.218
-96.979
-97.396
-99.7
-103.681
-108.359
-112.074
-112.913
-108.944
-98.336
-79.303
-50.547
-11.288
38.377
96.949
162.233
230.675
297.227
357.961
409.61
449.667
478.401
492.893
487.92
460.579
405.816
324.359
223.483
108.2
-10.926
-122.959
-221.951
-299.097
-352.288
-386.132
-403.188
-408.828
-405.484
-390.654
-365.324
-331.333
-291.376
-250.805
-212.927
-179.506
-152.627
-132.916
-119.859
-112.921
-110.872
-111.974
-115.093
-118.877
-121.396
-121.583
-119.129
-114.036
-106.951
-98.709
-89.83
-81.076
-73.512
-67.693
-63.843
-61.954
-61.604
-62.338
-63.804
-65.569
-67.167
-68.32
-68.848
-68.63
-67.689
-66.049
-63.724
-60.777
-57.278
-53.276
-48.827
-44.014
-38.925
-33.682
-28.431
-23.268
-18.267
-13.49
-8.983
-4.8
-0.982
2.456
5.519
8.21
10.527
12.471
14.045
15.28
16.22
16.912
17.407
17.746
17.957
18.07
18.106
18.084
18.02
17.918
17.782
17.619
17.44
17.259
17.09
16.942
16.821
16.735
16.691
16.697
16.761
16.89
17.094
17.383
17.767
18.259
18.869
19.607
20.48
21.494
22.655
23.964
25.427
27.044
28.815
30.742
32.824
35.061
37.453
39.997
42.693
45.537
48.525
51.655
54.92
58.316
61.834
65.469
69.212
73.054
76.985
80.994
85.071
89.203
93.379
97.584
101.806
106.029
110.24
114.424
118.566
122.65
126.66
130.582
134.399
138.097
141.66
145.072
148.318
151.383
154.251
156.908
159.341
161.534
163.474
165.15
166.549
167.661
168.477
168.986
169.184
169.062
168.617
167.846
166.747
165.319
163.564
161.483
159.082
156.364
153.338
150.01
146.39
142.489
138.318
133.89
129.22
124.323
119.215
113.913
108.437
102.804
97.036
91.152
85.174
79.123
73.019
66.886
60.745
54.618
48.525
42.488
36.527
30.663
24.914
19.3
13.836
8.54
3.426
-1.49
-6.196
-10.681
-14.933
-18.943
-22.703
-26.205
-29.446
-32.42
-35.126
-37.564
-39.734
-41.639
-43.285
-44.68
-45.831
-46.748
-47.443
-47.928
-48.215
-48.317
-48.247
-48.017
-47.642
-47.135
-46.514
-45.795
-44.995
-44.131
-43.219
-42.277
-41.32
-40.363
-39.413
-38.482
-37.577
-36.713
-35.912
-35.188
-34.553
-34.014
-33.575
-33.237
-32.992
-32.819
-32.688
-32.564
-32.417
-32.226
-31.977
-31.651
-31.229
-30.679
-29.959
-29.045
-27.916
-26.562
-24.979
-23.172
-21.172
-19.049
-16.905
-14.831
-12.902
-11.172
-9.699
-8.555
-7.82
-7.591
-7.941
-8.939
-10.701
-13.238
-16.475
-20.256
-24.235
-28.007
-31.244
-33.522
-34.363
-33.683
-31.606
-28.471
-25.137
-22.289
-20.322
-19.884
-21.477
-24.804
-29.098
-33.005
-34.271
-30.909
-21.379
-3.846
23.331
59.759
104.155
155.535
210.876
269.004
329.057
384.685
430.608
461.418
471.8
464.437
442.711
409.209
368.133
319.866
265.311
207.101
146.542
86.131
28.203
-25.786
-74.303
-116.994
-154.426
-187.292
-216.217
-241.633
-264.034
-284.365
-303.623
-322.262
-340.225
-357.082
-372.347
-385.725
-396.867
-405.162
-410.043
-411.225
-408.673
-402.654
-393.616
-381.96
-368.138
-352.708
-336.15
-318.847
-301.155
-283.34
-265.582
-248.053
-230.891
-214.201
-198.154
-182.962
-168.786
-155.741
-143.87
-133.145
-123.542
-115.028
-107.536
-100.972
-95.204
-90.07
-85.46
-81.3
-77.494
-73.941
-70.494
-66.96
-63.212
-59.178
-54.81
-50.097
-45.033
-39.608
-33.857
-27.85
-21.667
-15.399
-9.116
-2.864
3.287
9.252
14.93
20.193
24.956
29.173
32.803
35.828
38.235
40.015
41.189
41.803
41.903
41.532
40.732
39.536
37.992
36.158
34.101
31.89
29.585
27.232
24.876
22.559
20.318
18.19
16.199
14.364
12.705
11.248
10.018
9.042
8.342
7.936
7.841
8.073
8.648
9.578
10.878
12.556
14.622
17.084
19.949
23.221
26.903
30.992
35.483
40.368
45.636
51.274
57.267
63.596
70.241
77.182
84.394
91.853
99.531
107.4
115.429
123.587
131.841
140.156
148.497
156.828
165.114
173.318
181.404
189.336
197.078
204.595
211.853
218.819
225.461
231.749
237.653
243.145
248.2
252.794
256.907
260.517
263.61
266.17
268.185
269.646
270.547
270.883
270.653
269.858
268.502
266.591
264.135
261.147
257.639
253.63
249.138
244.186
238.795
232.992
226.803
220.256
213.379
206.203
198.758
191.077
183.192
175.134
166.938
158.635
150.259
141.842
133.414
125.008
116.654
108.38
100.214
92.184
84.316
76.632
69.155
61.907
54.905
48.168
41.71
35.543
29.68
24.13
18.899
13.994
9.417
5.173
1.26
-2.322
-5.575
-8.503
-11.11
-13.404
-15.392
-17.082
-18.485
-19.609
-20.467
-21.071
-21.434
-21.567
-21.486
-21.204
-20.734
-20.092
-19.292
-18.349
-17.276
-16.088
-14.798
-13.419
-11.965
-10.448
-8.879
-7.27
-5.631
-3.973
-2.304
-0.635
1.026
2.672
4.294
5.886
7.443
8.957
10.424
11.839
13.198
14.499
15.737
16.911
18.018
19.057
20.027
20.926
21.756
22.516
23.206
23.827
24.381
24.867
25.287
25.643
25.936
26.166
26.336
26.447
26.5
26.497
26.44
26.329
26.167
25.954
25.692
25.383
25.028
24.627
24.182
23.693
23.161
22.587
21.971
21.314
20.615
19.875
19.094
18.272
17.409
16.504
15.558
14.57
13.54
12.469
11.357
10.203
9.008
7.773
6.499
5.185
3.832
2.443
1.017
-0.444
-1.938
-3.464
-5.019
-6.601
-8.208
-9.837
-11.485
-13.147
-14.821
-16.503
-18.188
-19.871
-21.548
-23.214
-24.865
-26.495
-28.099
-29.672
-31.21
-32.706
-34.157
-35.558
-36.903
-38.19
-39.413
-40.569
-41.653
-42.663
-43.595
-44.446
-45.213
-45.894
-46.488
-46.992
-47.406
-47.728
-47.96
-48.1
-48.151
-48.113
-47.988
-47.78
-47.491
-47.124
-46.683
-46.172
-45.596
-44.96
-44.269
-43.527
-42.74
-41.913
-41.052
-40.162
-39.248
-38.316
-37.372
-36.42
-35.465
-34.513
-33.569
-32.638
-31.724
-30.832
-29.966
-29.131
-28.33
-27.567
-26.845
-26.167
-25.537
-24.955
-24.423
-23.945
-23.519
-23.148
-22.832
-22.57
-22.364
-22.213
-22.116
-22.074
-22.085
-22.149
-22.266
-22.434
-22.653
-22.922
-23.24
-23.606
-24.02
-24.481
-24.987
-25.537
-26.13
-26.766
-27.441
-28.156
-28.908
-29.696
-30.518
-31.372
-32.256
-33.168
-34.106
-35.067
-36.049
-37.05
-38.066
-39.094
-40.132
-41.176
-42.221
-43.264
-44.301
-45.328
-46.34
-47.331
-48.298
-49.236
-50.138
-51.001
-51.818
-52.584
-53.294
-53.943
-54.526
-55.038
-55.473
-55.829
-56.101
-56.284
-56.376
-56.375
-56.276
-56.078
-55.78
-55.381
-54.881
-54.28
-53.581
-52.785
-51.896
-50.918
-49.855
-48.714
-47.5
-46.22
-44.88
-43.488
-42.054
-40.584
-39.088
-37.576
-36.056
-34.54
-33.038
-31.56
-30.116
-28.717
-27.372
-26.092
-24.886
-23.764
-22.734
-21.805
-20.986
-20.284
-19.706
-19.258
-18.944
-18.767
-18.728
-18.828
-19.063
-19.431
-19.927
-20.547
-21.284
-22.131
-23.082
-24.129
-25.264
-26.479
-27.766
-29.113
-30.504
-31.927
-33.365
-34.802
-36.222
-37.608
-38.938
-40.197
-41.372
-42.449
-43.413
-44.246
-44.925
-45.431
-45.756
-45.893
-45.839
-45.593
-45.155
-44.541
-43.778
-42.89
-41.903
-40.829
-39.664
-38.41
-37.072
-35.655
-34.17
-32.613
-30.957
-29.188
-27.298
-25.273
-23.101
-20.745
-18.137
-15.23
-11.991
-8.415
-4.533
-0.376
4.027
8.627
13.364
18.153
22.875
27.44
31.777
35.807
39.453
42.609
45.138
46.932
47.92
48.061
47.364
45.846
43.537
40.503
36.835
32.648
28.086
23.268
18.285
13.237
8.226
3.369
-1.202
-5.377
-9.082
-12.281
-14.98
-17.212
-19.039
-20.531
-21.766
-22.849
-23.9
-25.032
-26.346
-27.934
-29.868
-32.237
-35.148
-38.645
-42.679
-47.058
-51.434
-55.441
-58.744
-61.036
-62.013
-61.491
-59.476
-56.29
-52.622
-49.173
-46.526
-45.096
-45.053
-46.509
-49.433
-52.988
-55.808
-55.773
-49.833
-36.592
-15.905
11.328
42.031
75.759
114.182
158.929
213.169
275.717
342.134
407.528
463.012
501.469
516.022
497.895
445.199
358.356
240.782
105.499
-35.481
-168.052
-274.537
-348.417
-388.757
-401.117
-400.443
-395.082
-387.691
-378.071
-361.365
-337.13
-309.09
-280.995
-256.882
-238.566
-225.979
-218.633
-215.157
-213.849
-212.897
-210.577
-206.107
-199.2
-189.491
-177.019
-162.221
-145.827
-129.11
-113.376
-99.283
-87.18
-77.345
-69.79
-64.467
-61.258
-59.707
-59.273
-59.596
-60.401
-61.522
-62.899
-64.4
-65.852
-67.117
-68.068
-68.623
-68.733
-68.348
-67.418
-65.921
-63.864
-61.303
-58.328
-55.03
-51.489
-47.762
-43.901
-39.975
-36.079
-32.322
-28.802
-25.573
-22.668
-20.109
-17.914
-16.094
-14.643
-13.528
-12.704
-12.132
-11.782
-11.635
-11.666
-11.841
-12.115
-12.44
-12.776
-13.097
-13.381
-13.61
-13.765
-13.833
-13.807
-13.69
-13.485
-13.19
-12.801
-12.309
-11.71
-11.003
-10.189
-9.267
-8.237
-7.097
-5.845
-4.482
-3.009
-1.425
0.271
2.081
4.006
6.042
8.188
10.439
12.79
15.238
17.776
20.399
23.1
25.874
28.715
31.618
34.576
37.584
40.635
43.723
46.84
49.98
53.136
56.299
59.463
62.618
65.759
68.875
71.96
75.003
77.998
80.936
83.808
86.607
89.324
91.952
94.482
96.908
99.222
101.418
103.489
105.43
107.234
108.897
110.413
111.778
112.987
114.037
114.923
115.642
116.191
116.568
116.771
116.799
116.651
116.328
115.831
115.161
114.32
113.31
112.135
110.8
109.308
107.665
105.876
103.949
101.89
99.707
97.407
95
92.495
89.9
87.226
84.481
81.675
78.82
75.924
72.998
70.052
67.097
64.144
61.203
58.284
55.398
52.555
49.763
47.033
44.373
41.791
39.295
36.894
34.594
32.402
30.323
28.363
26.525
24.813
23.229
21.773
20.446
19.247
18.172
17.218
16.379
15.652
15.029
14.503
14.066
13.709
13.425
13.206
13.042
12.924
12.841
12.781
12.734
12.688
12.63
12.548
12.431
12.265
12.042
11.752
11.389
10.945
10.408
9.764
9.003
8.122
7.12
6.001
4.772
3.444
2.039
0.594
-0.858
-2.284
-3.658
-4.967
-6.188
-7.298
-8.263
-9.045
-9.61
-9.942
-10.034
-9.881
-9.495
-8.892
-8.125
-7.294
-6.49
-5.794
-5.259
-4.899
-4.743
-4.851
-5.289
-6.132
-7.446
-9.247
-11.563
-14.458
-17.892
-21.745
-25.777
-29.54
-32.617
-34.727
-35.547
-34.778
-32.391
-28.457
-23.267
-17.557
-11.907
-6.683
-2.421
0.553
2.558
4.174
6.413
11.008
19.415
32.888
53.076
81.066
116.726
159.266
207.044
257.165
306.665
352.566
390.922
419.031
436.448
441.966
434.66
413.655
376.151
324.383
265.495
206.595
155.928
115.024
78.119
40.522
-2.556
-51.811
-102.86
-153.142
-200.66
-244.064
-283.757
-319.282
-349.787
-375.214
-395.56
-410.892
-421.964
-428.722
-431.226
-431.127
-428.969
-426.783
-426.597
-425.285
-420.727
-409.733
-388.439
-360.781
-330.515
-300.544
-275.156
-252.953
-232.553
-214.536
-198.099
-184
-172.767
-163.684
-156.491
-150.776
-145.847
-141.148
-136.329
-131.365
-126.605
-122.329
-118.569
-115.25
-112.297
-109.762
-107.628
-105.693
-103.607
-101.073
-97.955
-94.239
-89.976
-85.179
-79.858
-74.09
-68.012
-61.773
-55.496
-49.269
-43.149
-37.22
-31.599
-26.391
-21.671
-17.481
-13.83
-10.724
-8.165
-6.139
-4.611
-3.533
-2.854
-2.524
-2.501
-2.737
-3.177
-3.759
-4.412
-5.074
-5.695
-6.233
-6.653
-6.922
-7.012
-6.901
-6.577
-6.028
-5.241
-4.2
-2.888
-1.292
0.596
2.782
5.269
8.062
11.164
14.579
18.306
22.345
26.695
31.356
36.327
41.603
47.177
53.039
59.179
65.582
72.236
79.123
86.227
93.528
101.007
108.646
116.422
124.314
132.299
140.355
148.456
156.579
164.7
172.793
180.834
188.797
196.658
204.393
211.977
219.387
226.597
233.586
240.331
246.809
252.999
258.882
264.435
269.642
274.484
278.945
283.009
286.661
289.89
292.683
295.031
296.926
298.361
299.333
299.838
299.876
299.446
298.553
297.2
295.395
293.144
290.459
287.35
283.831
279.916
275.622
270.966
265.967
260.645
255.022
249.119
242.96
236.568
229.968
223.185
216.246
209.176
202.002
194.75
187.447
180.119
172.791
165.49
158.238
151.061
143.979
137.015
130.188
123.517
117.019
110.709
104.602
98.71
93.043
87.612
82.424
77.484
72.796
68.365
64.19
60.272
56.609
53.198
50.034
47.112
44.426
41.967
39.726
37.693
35.857
34.205
32.725
31.403
30.226
29.179
28.247
27.416
26.672
26
25.386
24.817
24.279
23.76
23.248
22.731
22.198
21.64
21.049
20.415
19.731
18.991
18.189
17.32
16.381
15.366
14.275
13.104
11.853
10.52
9.108
7.615
6.045
4.399
2.681
0.895
-0.955
-2.865
-4.829
-6.842
-8.897
-10.989
-13.113
-15.26
-17.426
-19.604
-21.788
-23.971
-26.149
-28.315
-30.464
-32.592
-34.693
-36.764
-38.799
-40.796
-42.749
-44.657
-46.515
-48.321
-50.071
-51.764
-53.397
-54.969
-56.477
-57.921
-59.299
-60.612
-61.858
-63.038
-64.153
-65.204
-66.19
-67.114
-67.978
-68.783
-69.531
-70.225
-70.868
-71.462
-72.009
-72.514
-72.977
-73.403
-73.794
-74.152
-74.481
-74.782
-75.06
-75.315
-75.552
-75.773
-75.98
-76.176
-76.364
-76.546
-76.725
-76.903
-77.082
-77.265
-77.453
-77.649
-77.854
-78.069
-78.295
-78.532
-78.783
-79.045
-79.319
-79.604
-79.9
-80.204
-80.516
-80.833
-81.154
-81.477
-81.799
-82.119
-82.434
-82.742
-83.04
-83.327
-83.6
-83.856
-84.094
-84.311
-84.505
-84.673
-84.814
-84.924
-85.001
-85.044
-85.05
-85.017
-84.944
-84.828
-84.669
-84.466
-84.217
-83.922
-83.582
-83.198
-82.769
-82.297
-81.783
-81.231
-80.64
-80.015
-79.356
-78.667
-77.95
-77.208
-76.443
-75.658
-74.855
-74.036
-73.205
-72.363
-71.513
-70.657
-69.798
-68.937
-68.077
-67.22
-66.369
-65.525
-64.69
-63.866
-63.054
-62.257
-61.474
-60.708
-59.958
-59.225
-58.508
-57.808
-57.123
-56.452
-55.795
-55.151
-54.516
-53.892
-53.275
-52.664
-52.059
-51.457
-50.857
-50.259
-49.661
-49.062
-48.46
-47.856
-47.247
-46.634
-46.015
-45.389
-44.757
-44.118
-43.472
-42.818
-42.155
-41.485
-40.806
-40.119
-39.425
-38.725
-38.019
-37.309
-36.596
-35.881
-35.168
-34.457
-33.75
-33.049
-32.356
-31.673
-31.001
-30.344
-29.702
-29.078
-28.474
-27.893
-27.337
-26.809
-26.31
-25.843
-25.41
-25.012
-24.65
-24.327
-24.044
-23.801
-23.601
-23.445
-23.334
-23.27
-23.254
-23.286
-23.366
-23.495
-23.673
-23.898
-24.171
-24.492
-24.859
-25.273
-25.733
-26.238
-26.787
-27.379
-28.012
-28.682
-29.387
-30.122
-30.882
-31.662
-32.457
-33.262
-34.071
-34.882
-35.691
-36.493
-37.287
-38.069
-38.834
-39.579
-40.295
-40.975
-41.61
-42.193
-42.714
-43.167
-43.545
-43.844
-44.058
-44.187
-44.227
-44.171
-44.01
-43.733
-43.33
-42.799
-42.139
-41.358
-40.469
-39.491
-38.446
-37.36
-36.251
-35.129
-33.993
-32.83
-31.628
-30.371
-29.056
-27.69
-26.282
-24.833
-23.344
-21.808
-20.207
-18.509
-16.678
-14.664
-12.438
-9.992
-7.342
-4.533
-1.627
1.301
4.192
7.003
9.697
12.242
14.602
16.742
18.615
20.167
21.332
22.028
22.192
21.785
20.8
19.27
17.259
14.853
12.132
9.163
6.005
2.717
-0.639
-4.005
-7.319
-10.521
-13.539
-16.278
-18.654
-20.592
-22.04
-22.985
-23.433
-23.42
-22.997
-22.215
-21.127
-19.795
-18.275
-16.629
-14.936
-13.271
-11.728
-10.418
-9.424
-8.87
-8.92
-9.652
-11.049
-12.96
-15.042
-16.93
-18.347
-18.921
-18.199
-15.924
-12.101
-7.167
-2.068
2.179
4.749
4.822
1.553
-5.467
-15.948
-28.707
-41.68
-52.263
-57.802
-55.593
-42.554
-17.036
20.519
69.194
126.919
193.199
269.997
354.939
441.636
518.393
568.361
581.562
556.367
499.295
423.766
339.136
247.426
145.218
29.779
-95.364
-217.614
-318.269
-385.831
-417.808
-420.72
-409.066
-391.645
-371.858
-350.586
-324.617
-294.245
-262.532
-231.986
-206.186
-187.162
-174.627
-167.794
-165.251
-165.167
-166.303
-167.597
-167.573
-165.033
-159.419
-150.568
-138.87
-125.23
-110.438
-95.338
-81.086
-68.545
-58.199
-50.344
-44.914
-41.607
-40.16
-40.198
-41.204
-42.864
-45.008
-47.501
-50.324
-53.43
-56.692
-60.031
-63.392
-66.661
-69.709
-72.427
-74.71
-76.525
-77.905
-78.883
-79.497
-79.771
-79.714
-79.346
-78.7
-77.807
-76.705
-75.441
-74.061
-72.636
-71.257
-69.984
-68.857
-67.888
-67.062
-66.363
-65.779
-65.287
-64.864
-64.489
-64.143
-63.809
-63.48
-63.139
-62.762
-62.317
-61.762
-61.068
-60.215
-59.19
-57.989
-56.61
-55.05
-53.316
-51.421
-49.372
-47.175
-44.833
-42.344
-39.712
-36.943
-34.043
-31.021
-27.885
-24.643
-21.3
-17.865
-14.343
-10.741
-7.061
-3.306
0.522
4.418
8.378
12.398
16.471
20.594
24.76
28.965
33.202
37.466
41.752
46.055
50.368
54.687
59.004
63.313
67.609
71.882
76.127
80.334
84.494
88.601
92.644
96.617
100.511
104.317
108.028
111.636
115.131
118.508
121.756
124.868
127.835
130.648
133.299
135.78
138.084
140.202
142.127
143.853
145.374
146.684
147.778
148.651
149.3
149.722
149.916
149.88
149.615
149.122
148.404
147.464
146.307
144.937
143.36
141.583
139.613
137.456
135.122
132.618
129.954
127.141
124.188
121.108
117.912
114.614
111.225
107.759
104.229
100.65
97.034
93.396
89.751
86.111
82.491
78.904
75.365
71.884
68.475
65.149
61.914
58.782
55.76
52.857
50.079
47.433
44.923
42.555
40.333
38.259
36.337
34.567
32.95
31.485
30.17
29
27.969
27.073
26.303
25.651
25.109
24.667
24.317
24.05
23.856
23.727
23.65
23.614
23.606
23.612
23.62
23.618
23.594
23.536
23.434
23.283
23.079
22.813
22.474
22.045
21.512
20.869
20.111
19.239
18.255
17.172
16.01
14.805
13.593
12.404
11.264
10.189
9.198
8.32
7.597
7.072
6.78
6.734
6.94
7.404
8.118
9.045
10.114
11.217
12.252
13.157
13.873
14.345
14.5
14.231
13.429
12.021
9.932
7.094
3.541
-0.646
-5.301
-10.075
-14.625
-18.623
-21.651
-23.406
-23.867
-23.144
-21.567
-19.682
-17.775
-16.058
-14.944
-14.539
-14.459
-13.944
-11.629
-5.945
4.134
19.582
41.577
70.77
107.186
150.01
197.143
246.023
294.393
339.665
378.889
409.469
429.085
436.32
431.315
414.923
388.117
352.513
310.252
263.517
214.934
166.869
120.531
76.603
35.656
-2.147
-36.798
-68.251
-97.166
-124.432
-150.218
-174.407
-196.822
-217.111
-235.185
-251.21
-264.843
-275.489
-282.945
-287.173
-288.302
-286.66
-282.385
-275.502
-266.354
-255.479
-243.358
-230.462
-217.141
-203.626
-190.199
-177.157
-164.688
-152.912
-141.917
-131.779
-122.624
-114.595
-107.786
-102.226
-97.884
-94.69
-92.557
-91.381
-91.034
-91.355
-92.191
-93.421
-94.955
-96.72
-98.625
-100.554
-102.357
-103.896
-105.075
-105.828
-106.122
-105.941
-105.282
-104.168
-102.652
-100.812
-98.716
-96.416
-93.946
-91.342
-88.656
-85.963
-83.356
-80.912
-78.684
-76.707
-75.005
-73.594
-72.481
-71.654
-71.079
-70.716
-70.528
-70.484
-70.564
-70.739
-70.972
-71.218
-71.427
-71.558
-71.579
-71.46
-71.177
-70.707
-70.029
-69.132
-68.014
-66.67
-65.094
-63.276
-61.207
-58.877
-56.284
-53.423
-50.292
-46.885
-43.2
-39.234
-34.984
-30.451
-25.633
-20.529
-15.14
-9.466
-3.513
2.713
9.202
15.946
22.932
30.149
37.58
45.21
53.022
60.998
69.118
77.364
85.711
94.137
102.618
111.13
119.645
128.138
136.582
144.947
153.207
161.332
169.294
177.064
184.612
191.909
198.929
205.642
212.024
218.047
223.689
228.925
233.735
238.1
242
245.419
248.344
250.761
252.662
254.037
254.882
255.194
254.97
254.212
252.925
251.115
248.789
245.959
242.638
238.841
234.586
229.892
224.781
219.277
213.404
207.188
200.659
193.844
186.773
179.478
171.988
164.336
156.553
148.669
140.717
132.727
124.73
116.754
108.829
100.982
93.24
85.628
78.17
70.889
63.806
56.94
50.309
43.93
37.816
31.98
26.432
21.182
16.235
11.597
7.271
3.258
-0.443
-3.833
-6.915
-9.696
-12.18
-14.376
-16.291
-17.935
-19.318
-20.451
-21.344
-22.01
-22.462
-22.71
-22.769
-22.65
-22.368
-21.936
-21.366
-20.671
-19.865
-18.961
-17.971
-16.908
-15.783
-14.608
-13.394
-12.152
-10.891
-9.62
-8.349
-7.084
-5.834
-4.605
-3.403
-2.234
-1.103
-0.015
1.027
2.017
2.954
3.833
4.651
5.406
6.094
6.714
7.263
7.738
8.139
8.464
8.711
8.88
8.97
8.981
8.914
8.77
8.548
8.251
7.879
7.433
6.917
6.33
5.676
4.955
4.171
3.324
2.418
1.455
0.437
-0.633
-1.753
-2.92
-4.129
-5.379
-6.665
-7.984
-9.33
-10.7
-12.089
-13.491
-14.901
-16.314
-17.725
-19.13
-20.522
-21.898
-23.254
-24.584
-25.886
-27.155
-28.388
-29.581
-30.731
-31.836
-32.893
-33.9
-34.853
-35.752
-36.595
-37.38
-38.105
-38.77
-39.373
-39.914
-40.393
-40.808
-41.161
-41.453
-41.684
-41.857
-41.973
-42.036
-42.048
-42.012
-41.932
-41.811
-41.652
-41.459
-41.235
-40.983
-40.706
-40.409
-40.093
-39.762
-39.418
-39.064
-38.703
-38.336
-37.965
-37.592
-37.219
-36.848
-36.48
-36.116
-35.758
-35.407
-35.065
-34.732
-34.409
-34.095
-33.792
-33.497
-33.209
-32.929
-32.653
-32.38
-32.107
-31.833
-31.555
-31.27
-30.976
-30.669
-30.348
-30.01
-29.651
-29.27
-28.865
-28.433
-27.973
-27.483
-26.962
-26.41
-25.823
-25.203
-24.547
-23.855
-23.126
-22.358
-21.553
-20.708
-19.824
-18.901
-17.939
-16.94
-15.905
-14.835
-13.732
-12.599
-11.438
-10.252
-9.045
-7.82
-6.582
-5.334
-4.08
-2.825
-1.573
-0.329
0.904
2.122
3.321
4.498
5.648
6.768
7.855
8.907
9.918
10.887
11.81
12.683
13.504
14.269
14.975
15.621
16.203
16.719
17.168
17.547
17.857
18.096
18.263
18.359
18.384
18.34
18.228
18.048
17.805
17.498
17.131
16.706
16.225
15.692
15.106
14.472
13.791
13.066
12.299
11.491
10.647
9.767
8.856
7.915
6.948
5.958
4.948
3.92
2.879
1.829
0.772
-0.288
-1.347
-2.401
-3.448
-4.485
-5.507
-6.512
-7.498
-8.461
-9.399
-10.31
-11.19
-12.036
-12.846
-13.615
-14.341
-15.02
-15.646
-16.217
-16.729
-17.178
-17.559
-17.869
-18.104
-18.26
-18.335
-18.325
-18.229
-18.043
-17.767
-17.399
-16.939
-16.388
-15.745
-15.013
-14.192
-13.286
-12.298
-11.231
-10.088
-8.875
-7.597
-6.261
-4.874
-3.443
-1.977
-0.486
1.018
2.522
4.013
5.479
6.905
8.277
9.579
10.798
11.921
12.938
13.834
14.599
15.219
15.683
15.979
16.099
16.031
15.767
15.301
14.628
13.748
12.664
11.375
9.88
8.173
6.252
4.121
1.786
-0.744
-3.456
-6.329
-9.332
-12.421
-15.556
-18.698
-21.814
-24.879
-27.857
-30.714
-33.411
-35.909
-38.178
-40.195
-41.936
-43.39
-44.567
-45.506
-46.275
-46.962
-47.643
-48.379
-49.23
-50.265
-51.562
-53.199
-55.243
-57.723
-60.68
-64.199
-68.29
-72.871
-77.729
-82.464
-86.663
-90.011
-92.147
-92.651
-91.295
-88.032
-83.117
-77.314
-71.353
-65.713
-60.943
-57.524
-55.579
-54.949
-54.922
-53.788
-49.768
-41.442
-27.066
-5.056
25.601
65.858
114.967
169.431
225.819
280.767
332.078
381.154
427.697
467.521
493.889
495.978
464.527
397.866
298.744
174.095
35.563
-105.921
-237.517
-343.323
-413.388
-444.791
-442.208
-419.369
-389.294
-359.071
-331.567
-304.498
-274.621
-242.544
-210.44
-181.455
-159.31
-144.784
-136.617
-133.356
-133.144
-134.739
-137.668
-140.865
-142.682
-142.227
-139.3
-134.136
-127.527
-120.089
-112.104
-104.195
-97.296
-91.979
-88.505
-86.842
-86.562
-87.272
-88.683
-90.428
-92.104
-93.443
-94.273
-94.498
-94.132
-93.194
-91.691
-89.668
-87.18
-84.264
-80.95
-77.292
-73.365
-69.273
-65.153
-61.1
-57.17
-53.412
-49.863
-46.559
-43.546
-40.837
-38.423
-36.301
-34.47
-32.933
-31.692
-30.729
-30
-29.462
-29.063
-28.762
-28.534
-28.355
-28.201
-28.058
-27.911
-27.753
-27.587
-27.409
-27.209
-26.98
-26.708
-26.388
-26.016
-25.593
-25.115
-24.581
-23.986
-23.328
-22.602
-21.805
-20.93
-19.969
-18.913
-17.756
-16.493
-15.122
-13.638
-12.041
-10.328
-8.501
-6.558
-4.503
-2.334
-0.054
2.336
4.836
7.442
10.153
12.965
15.877
18.884
21.982
25.167
28.434
31.778
35.192
38.67
42.204
45.788
49.413
53.07
56.749
60.441
64.133
67.814
71.473
75.096
78.672
82.187
85.628
88.983
92.24
95.385
98.406
101.292
104.029
106.606
109.011
111.233
113.26
115.082
116.689
118.073
119.223
120.134
120.798
121.21
121.364
121.257
120.886
120.25
119.349
118.182
116.754
115.066
113.124
110.935
108.506
105.844
102.96
99.863
96.565
93.078
89.414
85.585
81.606
77.49
73.252
68.907
64.47
59.957
55.383
50.763
46.114
41.451
36.789
32.142
27.525
22.952
18.436
13.992
9.631
5.365
1.206
-2.838
-6.756
-10.54
-14.183
-17.679
-21.023
-24.21
-27.235
-30.098
-32.795
-35.325
-37.689
-39.886
-41.918
-43.786
-45.494
-47.044
-48.441
-49.69
-50.798
-51.773
-52.622
-53.354
-53.979
-54.504
-54.94
-55.295
-55.575
-55.788
-55.941
-56.042
-56.1
-56.125
-56.124
-56.107
-56.08
-56.049
-56.022
-56.004
-55.994
-55.993
-56.003
-56.031
-56.09
-56.193
-56.343
-56.542
-56.785
-57.065
-57.371
-57.682
-57.966
-58.187
-58.319
-58.335
-58.223
-57.97
-57.546
-56.916
-56.032
-54.856
-53.371
-51.573
-49.462
-47.058
-44.4
-41.552
-38.615
-35.674
-32.801
-30.069
-27.54
-25.295
-23.449
-22.096
-21.357
-21.392
-22.233
-23.819
-26.008
-28.474
-30.886
-33.004
-34.444
-34.781
-33.953
-32.087
-29.613
-27.416
-26.096
-25.911
-27.266
-30.386
-34.874
-39.983
-44.247
-45.363
-41.541
-31.423
-13.513
13.166
48.744
92.643
142.954
196.511
250.347
301.44
346.321
381.915
405.799
416.497
414.096
399.903
375.398
342.499
303.712
261.582
218.442
175.781
133.957
92.666
51.592
10.419
-31.191
-73.556
-116.748
-160.091
-202.311
-241.833
-277.244
-307.614
-332.457
-351.561
-365.197
-374.214
-379.621
-382.618
-384.27
-385.188
-385.711
-385.935
-385.566
-384.08
-381.081
-376.199
-369.244
-360.296
-349.481
-337.054
-323.426
-309.064
-294.336
-279.476
-264.589
-249.68
-234.762
-219.86
-205.018
-190.275
-175.694
-161.412
-147.573
-134.327
-121.825
-110.134
-99.277
-89.257
-80.047
-71.643
-64.068
-57.333
-51.451
-46.43
-42.238
-38.83
-36.148
-34.064
-32.445
-31.152
-30.02
-28.944
-27.862
-26.729
-25.537
-24.284
-22.947
-21.521
-20.005
-18.389
-16.684
-14.898
-13.042
-11.167
-9.333
-7.609
-6.082
-4.807
-3.803
-3.083
-2.631
-2.421
-2.429
-2.619
-2.943
-3.364
-3.843
-4.342
-4.832
-5.267
-5.596
-5.765
-5.709
-5.378
-4.735
-3.747
-2.392
-0.653
1.484
4.023
6.961
10.298
14.034
18.17
22.71
27.651
32.986
38.706
44.8
51.252
58.05
65.178
72.618
80.352
88.359
96.622
105.119
113.829
122.726
131.784
140.972
150.262
159.622
169.019
178.421
187.793
197.1
206.311
215.39
224.304
233.019
241.503
249.722
257.646
265.243
272.483
279.337
285.78
291.784
297.326
302.386
306.942
310.978
314.479
317.432
319.825
321.652
322.906
323.584
323.685
323.211
322.167
320.56
318.399
315.696
312.466
308.725
304.494
299.792
294.642
289.071
283.103
276.769
270.096
263.117
255.862
248.365
240.658
232.774
224.748
216.611
208.397
200.139
191.867
183.614
175.408
167.278
159.253
151.357
143.617
136.054
128.691
121.547
114.639
107.984
101.596
95.487
89.667
84.145
78.926
74.014
69.412
65.121
61.137
57.459
54.08
50.995
48.194
45.67
43.41
41.405
39.641
38.105
36.784
35.664
34.73
33.967
33.361
32.896
32.557
32.329
32.199
32.15
32.17
32.244
32.359
32.502
32.66
32.823
32.978
33.116
33.226
33.3
33.329
33.308
33.229
33.087
32.878
32.597
32.241
31.808
31.295
30.703
30.029
29.273
28.437
27.519
26.522
25.447
24.294
23.067
21.767
20.397
18.959
17.457
15.894
14.274
12.599
10.876
9.107
7.296
5.45
3.571
1.664
-0.266
-2.214
-4.178
-6.152
-8.133
-10.116
-12.098
-14.075
-16.044
-18.002
-19.944
-21.867
-23.769
-25.645
-27.493
-29.309
-31.091
-32.834
-34.536
-36.194
-37.805
-39.367
-40.876
-42.33
-43.729
-45.069
-46.35
-47.569
-48.727
-49.822
-50.854
-51.821
-52.725
-53.563
-54.337
-55.047
-55.691
-56.27
-56.785
-57.236
-57.622
-57.945
-58.205
-58.403
-58.541
-58.619
-58.64
-58.605
-58.518
-58.379
-58.193
-57.963
-57.691
-57.381
-57.036
-56.66
-56.257
-55.83
-55.382
-54.918
-54.441
-53.954
-53.461
-52.965
-52.47
-51.979
-51.495
-51.023
-50.565
-50.124
-49.705
-49.311
-48.944
-48.607
-48.304
-48.036
-47.805
-47.614
-47.462
-47.352
-47.282
-47.253
-47.264
-47.314
-47.402
-47.525
-47.68
-47.866
-48.079
-48.315
-48.572
-48.845
-49.131
-49.427
-49.727
-50.028
-50.325
-50.616
-50.894
-51.157
-51.399
-51.616
-51.805
-51.96
-52.078
-52.154
-52.187
-52.171
-52.105
-51.986
-51.812
-51.582
-51.295
-50.95
-50.547
-50.089
-49.575
-49.008
-48.391
-47.725
-47.016
-46.266
-45.479
-44.659
-43.811
-42.94
-42.05
-41.145
-40.231
-39.313
-38.394
-37.481
-36.578
-35.689
-34.821
-33.976
-33.16
-32.377
-31.631
-30.926
-30.264
-29.65
-29.086
-28.574
-28.116
-27.713
-27.366
-27.075
-26.841
-26.662
-26.537
-26.465
-26.444
-26.471
-26.544
-26.661
-26.818
-27.012
-27.24
-27.5
-27.788
-28.1
-28.435
-28.789
-29.159
-29.542
-29.936
-30.337
-30.743
-31.152
-31.56
-31.967
-32.369
-32.765
-33.152
-33.529
-33.895
-34.249
-34.588
-34.912
-35.22
-35.512
-35.787
-36.045
-36.285
-36.507
-36.712
-36.9
-37.07
-37.222
-37.355
-37.47
-37.564
-37.639
-37.691
-37.719
-37.722
-37.697
-37.644
-37.56
-37.443
-37.29
-37.101
-36.871
-36.601
-36.287
-35.928
-35.521
-35.066
-34.561
-34.006
-33.4
-32.742
-32.033
-31.273
-30.464
-29.606
-28.702
-27.752
-26.761
-25.731
-24.666
-23.571
-22.451
-21.31
-20.158
-19.002
-17.853
-16.719
-15.611
-14.538
-13.513
-12.546
-11.645
-10.82
-10.078
-9.427
-8.877
-8.437
-8.117
-7.924
-7.865
-7.946
-8.174
-8.551
-9.077
-9.749
-10.562
-11.515
-12.611
-13.856
-15.251
-16.797
-18.487
-20.316
-22.268
-24.327
-26.466
-28.646
-30.835
-33
-35.12
-37.175
-39.142
-40.995
-42.696
-44.207
-45.5
-46.549
-47.332
-47.844
-48.102
-48.138
-48.012
-47.794
-47.538
-47.305
-47.161
-47.167
-47.396
-47.924
-48.809
-50.133
-52.016
-54.474
-57.436
-60.715
-63.966
-66.871
-69.203
-70.629
-70.74
-69.421
-66.804
-63.325
-59.808
-56.83
-54.584
-53.443
-53.867
-55.757
-58.557
-61.084
-61.435
-58.174
-50.422
-36.923
-16.286
12.266
48.881
92.526
141.02
192.347
244.443
294.259
338.05
371.936
392.328
396.917
384.426
353.897
305.289
240.082
161.343
73.504
-18.465
-109.899
-196.078
-272.392
-334.962
-380.933
-409.136
-419.99
-414.767
-395.562
-365.491
-328.097
-287.139
-246.343
-208.524
-175.867
-150.101
-131.834
-120.683
-115.747
-115.458
-117.983
-121.765
-125.105
-126.515
-125.36
-121.532
-115.322
-107.522
-98.978
-90.474
-82.999
-77.285
-73.6
-72.002
-72.251
-73.888
-76.488
-79.593
-82.693
-85.463
-87.717
-89.314
-90.236
-90.496
-90.087
-89.056
-87.468
-85.357
-82.768
-79.752
-76.372
-72.729
-68.948
-65.145
-61.415
-57.822
-54.418
-51.253
-48.365
-45.775
-43.488
-41.494
-39.788
-38.366
-37.218
-36.326
-35.657
-35.167
-34.811
-34.538
-34.309
-34.092
-33.863
-33.602
-33.295
-32.932
-32.508
-32.025
-31.48
-30.866
-30.176
-29.404
-28.545
-27.599
-26.563
-25.438
-24.222
-22.915
-21.515
-20.017
-18.42
-16.718
-14.908
-12.985
-10.944
-8.784
-6.506
-4.11
-1.599
1.027
3.765
6.61
9.56
12.612
15.762
19.007
22.346
25.774
29.288
32.883
36.557
40.303
44.118
47.995
51.93
55.916
59.945
64.012
68.109
72.228
76.363
80.502
84.636
88.755
92.848
96.906
100.921
104.88
108.769
112.585
116.325
119.983
123.556
127.028
130.374
133.596
136.694
139.631
142.375
144.902
147.175
149.205
151.023
152.597
153.876
154.96
155.968
156.816
157.505
158.055
158.187
158.635
160.113
161.595
162.772
161.761
156.313
148.921
141.253
135.785
135.922
138.663
141.467
142.595
139.17
133.264
126.978
120.786
115.976
111.818
107.375
102.841
98.107
93.254
88.488
83.7
78.804
73.851
68.863
63.846
58.819
53.805
48.824
43.91
39.1
34.399
29.814
25.361
21.051
16.898
12.914
9.106
5.481
2.049
-1.182
-4.205
-7.016
-9.609
-11.983
-14.134
-16.06
-17.762
-19.241
-20.499
-21.54
-22.368
-22.991
-23.419
-23.662
-23.732
-23.64
-23.4
-23.026
-22.53
-21.924
-21.222
-20.433
-19.572
-18.652
-17.689
-16.695
-15.683
-14.662
-13.646
-12.643
-11.665
-10.717
-9.8
-8.921
-8.087
-7.312
-6.616
-6.01
-5.5
-5.086
-4.769
-4.545
-4.41
-4.345
-4.316
-4.293
-4.249
-4.159
-4.012
-3.779
-3.422
-2.898
-2.159
-1.169
0.077
1.583
3.356
5.381
7.643
10.112
12.695
15.3
17.843
20.219
22.353
24.164
25.517
26.24
26.24
25.541
24.313
22.854
21.394
20.073
19.093
18.774
19.325
20.634
22.213
23.24
22.985
21.153
17.535
11.808
4.054
-4.965
-13.8
-20.329
-22.461
-18.643
-7.26
13.429
44.329
84.22
129.851
177.821
225.631
274.178
325.959
379.096
427.553
460.957
468.2
446.188
400.843
343.98
288.316
240.502
198.932
159.366
119.632
81.037
49.153
25.712
5.99
-16.243
-48.807
-92.777
-141.256
-188.197
-227.354
-256.999
-281.344
-302.7
-322.646
-341.66
-357.67
-369.884
-378.555
-383.756
-386.037
-385.758
-382.826
-377.316
-369.467
-359.462
-347.547
-334.024
-319.156
-303.227
-286.55
-269.4
-252.014
-234.597
-217.284
-200.167
-183.333
-166.879
-150.947
-135.702
-121.259
-107.707
-95.112
-83.527
-73.025
-63.64
-55.348
-48.095
-41.797
-36.4
-31.89
-28.263
-25.496
-23.538
-22.291
-21.634
-21.473
-21.705
-22.218
-22.89
-23.573
-24.164
-24.614
-24.909
-25.06
-25.06
-24.889
-24.526
-23.973
-23.245
-22.375
-21.401
-20.344
-19.247
-18.163
-17.161
-16.327
-15.714
-15.336
-15.188
-15.251
-15.506
-15.938
-16.518
-17.204
-17.955
-18.733
-19.502
-20.234
-20.892
-21.427
-21.788
-21.915
-21.764
-21.306
-20.518
-19.383
-17.889
-16.028
-13.797
-11.206
-8.259
-4.958
-1.305
2.703
7.06
11.758
16.787
22.134
27.784
33.723
39.936
46.406
53.113
60.039
67.164
74.47
81.936
89.54
97.257
105.063
112.928
120.828
128.734
136.617
144.447
152.19
159.816
167.295
174.599
181.7
188.571
195.186
201.518
207.545
213.247
218.602
223.587
228.174
232.337
236.057
239.327
242.149
244.52
246.439
247.906
248.93
249.526
249.704
249.461
248.783
247.655
246.075
244.057
241.627
238.815
235.636
232.091
228.18
223.914
219.305
214.361
209.071
203.416
197.403
191.077
184.519
177.81
171.006
164.144
157.249
150.35
143.492
136.728
130.106
123.657
117.416
111.436
105.793
100.573
95.821
91.528
87.642
84.112
80.914
78.036
75.475
73.211
71.217
69.467
67.951
66.667
65.6
64.714
63.945
63.224
62.514
61.818
61.169
60.594
60.099
59.683
59.343
59.089
58.928
58.854
58.844
58.871
58.922
58.996
59.107
59.271
59.485
59.732
59.983
60.214
60.41
60.556
60.635
60.627
60.517
60.299
59.98
59.566
59.06
58.458
57.755
56.946
56.034
55.021
53.913
52.712
51.424
50.052
48.605
47.092
45.522
43.896
42.215
40.479
38.688
36.849
34.968
33.049
31.086
29.089
27.078
25.073
23.094
21.145
19.207
17.284
15.404
13.555
11.686
9.761
7.736
5.612
3.463
1.311
-0.915
-3.131
-5.065
-6.662
-7.998
-9.034
-10.066
-10.528
-8.747
-5.13
-1.189
0.504
-4.819
-16.73
-30.477
-41.276
-42.342
-33.424
-20.902
-9.692
-5.164
-8.112
-13.759
-19.219
-22.47
-22.966
-22.664
-22.42
-22.182
-22.015
-21.628
-20.96
-20.278
-19.662
-19.073
-18.522
-18.025
-17.575
-17.165
-16.775
-16.361
-15.915
-15.461
-15.009
-14.56
-14.117
-13.683
-13.261
-12.861
-12.486
-12.137
-11.813
-11.516
-11.247
-11.008
-10.799
-10.621
-10.472
-10.353
-10.262
-10.198
-10.159
-10.144
-10.15
-10.176
-10.219
-10.278
-10.351
-10.436
-10.532
-10.638
-10.752
-10.873
-11.001
-11.133
-11.27
-11.408
-11.548
-11.688
-11.827
-11.963
-12.096
-12.224
-12.346
-12.462
-12.57
-12.67
-12.761
-12.844
-12.917
-12.98
-13.034
-13.08
-13.117
-13.146
-13.168
-13.184
-13.194
-13.199
-13.199
-13.195
-13.185
-13.171
-13.151
-13.125
-13.093
-13.054
-13.007
-12.953
-12.891
-12.82
-12.74
-12.651
-12.553
-12.446
-12.33
-12.206
-12.074
-11.934
-11.788
-11.636
-11.479
-11.317
-11.152
-10.985
-10.817
-10.649
-10.483
-10.319
-10.159
-10.005
-9.86
-9.725
-9.604
-9.498
-9.412
-9.348
-9.31
-9.302
-9.326
-9.387
-9.488
-9.633
-9.825
-10.067
-10.363
-10.715
-11.127
-11.6
-12.138
-12.743
-13.416
-14.16
-14.976
-15.865
-16.829
-17.868
-18.984
-20.175
-21.443
-22.787
-24.206
-25.699
-27.265
-28.901
-30.604
-32.373
-34.203
-36.091
-38.031
-40.019
-42.05
-44.118
-46.217
-48.342
-50.485
-52.641
-54.803
-56.965
-59.119
-61.261
-63.382
-65.477
-67.538
-69.56
-71.537
-73.462
-75.328
-77.13
-78.863
-80.52
-82.098
-83.591
-84.995
-86.306
-87.522
-88.64
-89.658
-90.576
-91.392
-92.109
-92.728
-93.252
-93.684
-94.029
-94.293
-94.483
-94.606
-94.67
-94.683
-94.654
-94.591
-94.503
-94.398
-94.286
-94.174
-94.071
-93.986
-93.929
-93.91
-93.938
-94.023
-94.173
-94.396
-94.7
-95.09
-95.564
-96.126
-96.775
-97.514
-98.348
-99.279
-100.299
-101.404
-102.585
-103.828
-105.118
-106.43
-107.727
-108.98
-110.164
-111.258
-112.257
-113.146
-113.906
-114.516
-114.948
-115.185
-115.222
-115.052
-114.662
-114.051
-113.237
-112.268
-111.219
-110.155
-109.109
-108.095
-107.129
-106.24
-105.474
-104.886
-104.516
-104.379
-104.513
-104.994
-105.864
-107.082
-108.468
-109.673
-110.322
-110.126
-108.787
-105.976
-101.49
-95.31
-87.78
-79.655
-71.746
-64.747
-59.325
-56.099
-55.43
-57.286
-60.901
-64.759
-67.053
-65.878
-59.287
-45.377
-22.611
10.049
52.698
104.191
162.568
224.244
284.018
336.907
378.839
408.703
428.676
439.14
436.348
411.723
353.862
257.684
129.525
-13.763
-149.615
-259.973
-337.877
-387.182
-417.692
-437.668
-450.155
-453.234
-443.374
-420.355
-387.059
-348.081
-308.867
-272.681
-241.258
-216.272
-198.016
-185.861
-179.023
-176.082
-175.377
-175.871
-176.375
-175.258
-171.692
-165.521
-156.869
-146.441
-135.1
-123.367
-111.955
-101.862
-93.598
-87.358
-83.165
-80.662
-79.456
-79.271
-79.709
-80.3
-80.785
-81.004
-80.866
-80.413
-79.63
-78.483
-77
-75.217
-73.172
-70.906
-68.451
-65.84
-63.155
-60.5
-57.973
-55.676
-53.67
-51.988
-50.662
-49.713
-49.159
-49.009
-49.25
-49.862
-50.826
-52.115
-53.703
-55.557
-57.623
-59.843
-62.157
-64.497
-66.814
-69.067
-71.217
-73.232
-75.082
-76.743
-78.193
-79.422
-80.413
-81.15
-81.615
-81.794
-81.677
-81.261
-80.54
-79.515
-78.185
-76.551
-74.614
-72.378
-69.845
-67.02
-63.909
-60.515
-56.847
-52.917
-48.738
-44.323
-39.689
-34.851
-29.829
-24.64
-19.302
-13.836
-8.259
-2.589
3.155
8.955
14.793
20.651
26.512
32.359
38.174
43.942
49.648
55.276
60.813
66.244
71.558
76.743
81.788
86.683
91.416
95.981
100.367
104.569
108.578
112.391
116
119.403
122.596
125.576
128.342
130.891
133.223
135.336
137.232
138.908
140.367
141.608
142.632
143.441
144.036
144.418
144.591
144.558
144.321
143.884
143.25
142.425
141.412
140.218
138.847
137.306
135.601
133.739
131.726
129.572
127.283
124.867
122.333
119.69
116.945
114.107
111.186
108.19
105.127
102.007
98.839
95.632
92.396
89.139
85.872
82.604
79.344
76.101
72.885
69.704
66.566
63.481
60.455
57.497
54.613
51.811
49.096
46.474
43.95
41.529
39.214
37.007
34.911
32.928
31.059
29.303
27.661
26.132
24.715
23.408
22.208
21.113
20.12
19.223
18.418
17.699
17.059
16.49
15.985
15.534
15.128
14.758
14.415
14.088
13.772
13.457
13.135
12.797
12.434
12.037
11.596
11.103
10.552
9.936
9.248
8.486
7.652
6.745
5.768
4.719
3.588
2.371
1.069
-0.315
-1.777
-3.307
-4.892
-6.507
-8.121
-9.7
-11.215
-12.643
-13.969
-15.169
-16.223
-17.093
-17.736
-18.119
-18.215
-18.004
-17.472
-16.617
-15.459
-14.052
-12.471
-10.784
-9.039
-7.274
-5.543
-3.918
-2.468
-1.285
-0.438
-0.009
-0.147
-0.895
-2.168
-3.802
-5.491
-6.907
-7.833
-7.95
-6.813
-4.35
-0.779
3.437
7.501
10.906
13.311
14.208
13.206
10.373
7.264
6.041
7.882
14.304
24.916
39.141
60.914
91.642
131.775
183.005
240.206
299.861
361.154
417.081
462.179
491.696
498.424
483.341
452.713
411.586
367.121
322.904
277.68
231.879
185.696
139.523
95.53
54.63
16.506
-19.331
-53.873
-87.98
-121.674
-154.608
-186.367
-216.362
-244.017
-268.839
-290.281
-307.832
-321.305
-330.761
-336.395
-338.535
-337.461
-333.404
-326.625
-317.424
-306.133
-293.087
-278.578
-262.877
-246.267
-229.037
-211.5
-193.955
-176.603
-159.581
-142.992
-126.922
-111.506
-96.899
-83.23
-70.603
-59.086
-48.729
-39.603
-31.747
-25.15
-19.764
-15.492
-12.231
-9.927
-8.55
-8.06
-8.405
-9.482
-11.161
-13.329
-15.87
-18.66
-21.562
-24.418
-27.098
-29.534
-31.694
-33.578
-35.19
-36.517
-37.544
-38.276
-38.725
-38.923
-38.91
-38.714
-38.371
-37.938
-37.485
-37.096
-36.832
-36.712
-36.733
-36.877
-37.124
-37.452
-37.833
-38.224
-38.581
-38.867
-39.045
-39.09
-38.966
-38.629
-38.032
-37.123
-35.861
-34.225
-32.2
-29.775
-26.948
-23.718
-20.093
-16.091
-11.725
-7.006
-1.946
3.447
9.161
15.176
21.475
28.037
34.839
41.864
49.088
56.489
64.045
71.734
79.535
87.428
95.389
103.396
111.423
119.445
127.437
135.375
143.232
150.984
158.607
166.077
173.372
180.471
187.353
193.997
200.385
206.497
212.317
217.826
223.009
227.849
232.334
236.449
240.184
243.526
246.467
249
251.117
252.814
254.088
254.937
255.361
255.36
254.938
254.098
252.847
251.191
249.14
246.701
243.887
240.71
237.183
233.32
229.136
224.647
219.869
214.821
209.521
203.987
198.24
192.3
186.186
179.922
173.527
167.023
160.433
153.777
147.076
140.352
133.626
126.916
120.243
113.625
107.08
100.625
94.276
88.047
81.954
76.008
70.221
64.605
59.17
53.923
48.872
44.023
39.382
34.953
30.738
26.741
22.961
19.398
16.053
12.922
10.003
7.292
4.786
2.477
0.362
-1.568
-3.319
-4.899
-6.316
-7.579
-8.696
-9.675
-10.528
-11.261
-11.884
-12.407
-12.839
-13.189
-13.465
-13.677
-13.833
-13.941
-14.01
-14.046
-14.057
-14.051
-14.034
-14.011
-13.99
-13.976
-13.975
-13.992
-14.031
-14.097
-14.195
-14.327
-14.497
-14.708
-14.962
-15.262
-15.608
-16.003
-16.448
-16.943
-17.488
-18.084
-18.731
-19.427
-20.171
-20.963
-21.8
-22.681
-23.602
-24.563
-25.559
-26.588
-27.648
-28.734
-29.842
-30.97
-32.113
-33.266
-34.425
-35.584
-36.738
-37.882
-39.011
-40.118
-41.199
-42.248
-43.26
-44.229
-45.149
-46.014
-46.821
-47.563
-48.234
-48.832
-49.35
-49.784
-50.132
-50.389
-50.552
-50.62
-50.588
-50.457
-50.223
-49.887
-49.447
-48.904
-48.259
-47.512
-46.667
-45.725
-44.691
-43.568
-42.361
-41.075
-39.716
-38.289
-36.801
-35.26
-33.672
-32.045
-30.388
-28.708
-27.016
-25.32
-23.629
-21.952
-20.3
-18.68
-17.102
-15.576
-14.11
-12.713
-11.393
-10.16
-9.02
-7.981
-7.051
-6.235
-5.539
-4.968
-4.526
-4.216
-4.041
-4.003
-4.102
-4.338
-4.712
-5.221
-5.863
-6.635
-7.535
-8.556
-9.695
-10.945
-12.3
-13.753
-15.297
-16.922
-18.622
-20.386
-22.206
-24.071
-25.973
-27.901
-29.844
-31.793
-33.736
-35.664
-37.566
-39.433
-41.255
-43.023
-44.729
-46.364
-47.923
-49.397
-50.781
-52.07
-53.26
-54.345
-55.325
-56.195
-56.955
-57.604
-58.143
-58.571
-58.89
-59.103
-59.212
-59.221
-59.133
-58.955
-58.69
-58.345
-57.926
-57.44
-56.895
-56.298
-55.657
-54.98
-54.277
-53.555
-52.824
-52.091
-51.366
-50.656
-49.97
-49.313
-48.695
-48.121
-47.597
-47.128
-46.72
-46.377
-46.101
-45.896
-45.763
-45.705
-45.723
-45.816
-45.983
-46.224
-46.538
-46.921
-47.37
-47.883
-48.454
-49.079
-49.753
-50.47
-51.222
-52.003
-52.806
-53.621
-54.442
-55.26
-56.065
-56.85
-57.604
-58.32
-58.989
-59.602
-60.151
-60.629
-61.028
-61.341
-61.562
-61.686
-61.708
-61.624
-61.43
-61.124
-60.703
-60.167
-59.515
-58.746
-57.861
-56.862
-55.75
-54.53
-53.204
-51.776
-50.254
-48.642
-46.949
-45.182
-43.349
-41.461
-39.527
-37.559
-35.569
-33.567
-31.568
-29.584
-27.63
-25.721
-23.871
-22.093
-20.403
-18.811
-17.331
-15.975
-14.749
-13.662
-12.722
-11.937
-11.314
-10.862
-10.584
-10.487
-10.577
-10.858
-11.333
-12.002
-12.858
-13.897
-15.115
-16.508
-18.08
-19.827
-21.737
-23.802
-26.009
-28.34
-30.774
-33.273
-35.789
-38.279
-40.704
-43.035
-45.249
-47.318
-49.209
-50.894
-52.343
-53.541
-54.481
-55.148
-55.533
-55.652
-55.541
-55.274
-54.952
-54.653
-54.441
-54.369
-54.486
-54.866
-55.581
-56.684
-58.218
-60.18
-62.579
-65.489
-68.878
-72.606
-76.435
-79.939
-82.723
-84.56
-85.144
-84.105
-81.363
-76.95
-71.152
-64.771
-58.389
-52.318
-47.091
-43.087
-40.2
-38.217
-36.342
-32.862
-26.497
-16.223
-0.434
22.099
52.078
90.241
135.001
182.288
229.118
272.183
310.624
347.67
382.157
410.581
425.794
414.264
369.52
290.579
180.674
53.687
-77.33
-199.365
-296.901
-362.247
-392.404
-390.809
-368.796
-337.003
-304.967
-277.381
-254.221
-234.834
-216.087
-197.17
-179.137
-162.558
-150.181
-142.877
-139.777
-140.537
-143.314
-146.662
-149.793
-151.113
-149.879
-146.101
-139.785
-131.383
-121.382
-110.027
-97.891
-85.927
-74.775
-64.755
-56.003
-48.339
-41.598
-35.764
-30.669
-26.04
-21.735
-17.668
-13.821
-10.311
-7.204
-4.498
-2.202
-0.285
1.332
2.694
3.861
4.901
5.856
6.787
7.737
8.726
9.775
10.895
12.095
13.395
14.81
16.326
17.916
19.529
21.09
22.554
23.892
25.072
26.068
26.855
27.428
27.797
27.984
28.005
27.851
27.514
27.016
26.357
25.507
24.468
23.257
21.885
20.427
18.964
17.47
16.059
15.038
14.436
14.123
14.171
14.365
15.094
17.801
22.188
26.776
29.152
25.123
14.256
0.301
-11.07
-12.987
-3.297
14.243
32.472
44.351
47.35
43.325
36.983
32.479
30.114
28.55
27.542
26.81
28.468
35.143
44.426
54.301
62.634
66.495
68.016
69.222
70.74
74.039
78.305
82.543
86.961
91.392
95.876
100.605
105.407
110.137
114.822
119.454
123.997
128.439
132.769
136.971
141.049
145.01
148.824
152.462
155.91
159.15
162.165
164.94
167.457
169.697
171.649
173.3
174.639
175.655
176.339
176.684
176.682
176.33
175.624
174.565
173.153
171.391
169.282
166.835
164.058
160.96
157.553
153.85
149.865
145.614
141.113
136.378
131.429
126.285
120.966
115.493
109.888
104.174
98.372
92.507
86.602
80.681
74.767
68.882
63.049
57.289
51.626
46.078
40.666
35.408
30.322
25.423
20.728
16.248
11.995
7.978
4.204
0.681
-2.588
-5.598
-8.348
-10.837
-13.067
-15.038
-16.754
-18.219
-19.44
-20.424
-21.179
-21.717
-22.049
-22.188
-22.15
-21.949
-21.6
-21.12
-20.525
-19.833
-19.061
-18.223
-17.337
-16.417
-15.483
-14.55
-13.635
-12.752
-11.916
-11.14
-10.438
-9.825
-9.31
-8.898
-8.595
-8.407
-8.343
-8.417
-8.637
-9.003
-9.511
-10.153
-10.922
-11.802
-12.77
-13.784
-14.8
-15.776
-16.68
-17.493
-18.188
-18.735
-19.095
-19.224
-19.09
-18.682
-17.996
-17.033
-15.8
-14.32
-12.652
-10.9
-9.179
-7.589
-6.209
-5.083
-4.254
-3.78
-3.732
-4.185
-5.195
-6.79
-8.947
-11.657
-14.924
-18.643
-22.613
-26.484
-29.763
-31.992
-32.843
-32.051
-29.419
-24.988
-18.873
-11.375
-3.165
5.089
12.797
19.597
25.626
31.579
38.228
46.361
57.379
72.885
94.38
123.095
158.321
197.245
238.352
280.801
324.282
370.264
414.819
450.212
469.999
467.054
441.651
401.27
352.529
303.077
256.78
211.99
168.009
124.129
80.399
38.916
0.476
-35.31
-69.174
-102.293
-135.069
-167.146
-198.052
-227.272
-254.339
-278.818
-300.17
-317.873
-331.692
-341.633
-347.863
-350.622
-350.09
-346.444
-339.899
-330.726
-319.262
-305.846
-290.79
-274.389
-256.943
-238.764
-220.191
-201.552
-183.103
-165.061
-147.612
-130.949
-115.316
-100.941
-88.024
-76.693
-66.992
-58.922
-52.462
-47.571
-44.168
-42.142
-41.341
-41.596
-42.772
-44.741
-47.375
-50.512
-53.936
-57.425
-60.765
-63.801
-66.43
-68.574
-70.18
-71.216
-71.681
-71.607
-71.053
-70.08
-68.738
-67.074
-65.135
-63
-60.771
-58.561
-56.484
-54.616
-53.004
-51.682
-50.666
-49.957
-49.539
-49.374
-49.413
-49.611
-49.926
-50.323
-50.766
-51.208
-51.594
-51.865
-51.958
-51.828
-51.439
-50.76
-49.771
-48.455
-46.802
-44.814
-42.497
-39.853
-36.883
-33.587
-29.962
-26.011
-21.74
-17.156
-12.267
-7.082
-1.609
4.143
10.163
16.442
22.969
29.735
36.729
43.942
51.356
58.957
66.727
74.647
82.699
90.862
99.113
107.433
115.799
124.188
132.58
140.95
149.277
157.536
165.703
173.755
181.667
189.414
196.972
204.317
211.424
218.27
224.83
231.083
237.006
242.579
247.781
252.592
256.997
260.976
264.515
267.6
270.217
272.356
274.007
275.163
275.818
275.968
275.611
274.746
273.377
271.505
269.137
266.279
262.941
259.133
254.87
250.164
245.034
239.499
233.578
227.294
220.672
213.735
206.509
199.023
191.303
183.379
175.28
167.035
158.674
150.228
141.725
133.198
124.676
116.187
107.757
99.409
91.17
83.061
75.112
67.342
59.763
52.397
45.278
38.433
31.889
25.661
19.733
14.112
8.827
3.867
-0.819
-5.273
-9.541
-13.633
-17.485
-21.081
-24.5
-27.682
-30.37
-32.511
-34.199
-35.413
-36.442
-36.807
-34.866
-30.923
-26.54
-24.179
-28.556
-39.58
-52.501
-62.647
-63.369
-54.008
-40.928
-29.068
-23.683
-25.898
-30.991
-35.999
-38.98
-39.261
-38.772
-38.44
-38.193
-38.11
-37.909
-37.506
-37.164
-36.97
-36.876
-36.89
-37.021
-37.258
-37.588
-37.985
-38.4
-38.817
-39.252
-39.71
-40.184
-40.672
-41.168
-41.672
-42.185
-42.706
-43.231
-43.755
-44.275
-44.789
-45.295
-45.791
-46.276
-46.747
-47.205
-47.648
-48.074
-48.486
-48.881
-49.262
-49.628
-49.981
-50.322
-50.653
-50.976
-51.294
-51.607
-51.918
-52.23
-52.544
-52.862
-53.186
-53.516
-53.853
-54.2
-54.555
-54.921
-55.296
-55.682
-56.077
-56.483
-56.897
-57.321
-57.752
-58.191
-58.636
-59.086
-59.541
-59.997
-60.455
-60.912
-61.366
-61.815
-62.258
-62.691
-63.113
-63.521
-63.912
-64.284
-64.634
-64.96
-65.261
-65.533
-65.775
-65.986
-66.164
-66.308
-66.418
-66.492
-66.531
-66.534
-66.501
-66.432
-66.329
-66.191
-66.02
-65.816
-65.581
-65.316
-65.023
-64.703
-64.359
-63.991
-63.603
-63.197
-62.774
-62.337
-61.889
-61.432
-60.97
-60.504
-60.038
-59.574
-59.114
-58.661
-58.217
-57.783
-57.363
-56.957
-56.567
-56.195
-55.841
-55.508
-55.196
-54.906
-54.638
-54.394
-54.173
-53.975
-53.801
-53.65
-53.523
-53.418
-53.336
-53.276
-53.237
-53.219
-53.221
-53.243
-53.284
-53.343
-53.42
-53.515
-53.626
-53.754
-53.899
-54.061
-54.24
-54.437
-54.652
-54.886
-55.139
-55.413
-55.707
-56.024
-56.363
-56.725
-57.112
-57.525
-57.964
-58.431
-58.925
-59.448
-60.001
-60.584
-61.196
-61.839
-62.511
-63.213
-63.943
-64.7
-65.483
-66.289
-67.116
-67.962
-68.821
-69.692
-70.568
-71.446
-72.319
-73.183
-74.03
-74.854
-75.649
-76.408
-77.123
-77.788
-78.393
-78.932
-79.398
-79.783
-80.08
-80.282
-80.383
-80.375
-80.254
-80.015
-79.651
-79.16
-78.537
-77.779
-76.886
-75.856
-74.689
-73.387
-71.951
-70.386
-68.695
-66.886
-64.965
-62.939
-60.819
-58.615
-56.338
-54.001
-51.617
-49.201
-46.768
-44.335
-41.922
-39.546
-37.225
-34.978
-32.824
-30.781
-28.866
-27.095
-25.481
-24.04
-22.786
-21.735
-20.9
-20.294
-19.925
-19.805
-19.94
-20.336
-20.996
-21.915
-23.089
-24.515
-26.192
-28.124
-30.311
-32.742
-35.409
-38.296
-41.381
-44.642
-48.045
-51.545
-55.098
-58.664
-62.21
-65.709
-69.131
-72.437
-75.583
-78.519
-81.209
-83.625
-85.741
-87.545
-89.051
-90.28
-91.288
-92.143
-92.893
-93.599
-94.321
-95.117
-96.062
-97.226
-98.666
-100.464
-102.722
-105.475
-108.671
-112.133
-115.533
-118.559
-120.964
-122.455
-122.665
-121.351
-118.536
-114.554
-110.107
-105.863
-102.127
-99.15
-97.336
-96.867
-97.459
-98.277
-97.708
-94.022
-86.12
-72.896
-52.9
-24.941
11.845
56.717
106.805
159.239
211.433
262.977
315.547
367.493
414.76
448.894
457.102
432.997
376.129
292.702
196.839
98.908
4.685
-82.859
-164.834
-239.952
-304.312
-354.616
-388.203
-404.82
-406.227
-394.492
-372.309
-342.788
-309.096
-274.194
-240.107
-208.088
-179.197
-154.541
-134.822
-119.922
-109.06
-101.235
-95.804
-92.326
-90.143
-88.139
-85.127
-80.577
-74.593
-67.563
-59.812
-51.529
-42.982
-34.81
-27.862
-22.622
-19.16
-17.286
-16.684
-17.151
-18.544
-20.563
-22.772
-24.804
-26.412
-27.507
-28.128
-28.3
-28.009
-27.258
-26.074
-24.516
-22.661
-20.578
-18.311
-15.886
-13.338
-10.721
-8.117
-5.631
-3.348
-1.314
0.447
1.924
3.103
3.972
4.535
4.818
4.861
4.699
4.36
3.858
3.217
2.467
1.653
0.823
0.015
-0.745
-1.437
-2.043
-2.544
-2.925
-3.177
-3.303
-3.304
-3.177
-2.917
-2.514
-1.964
-1.265
-0.415
0.587
1.742
3.047
4.502
6.107
7.865
9.777
11.839
14.051
16.425
18.982
21.737
24.695
27.838
31.146
34.626
38.272
42.034
45.838
49.61
53.315
56.988
60.671
64.33
67.986
71.85
76.11
80.803
85.873
91.072
96.81
104.432
114.596
126.449
136.592
140.028
134.368
122.001
110.185
107.242
117.107
137.051
158.844
174.617
180.891
179.261
175.032
172.324
172.52
175.106
178.276
181.097
183.626
185.989
188.382
190.72
192.718
194.226
195.184
195.638
195.698
195.485
195.06
194.464
193.92
193.532
193.183
192.766
191.931
190.946
191.3
192.977
194.535
193.155
183.868
166.341
145.319
127.506
121.184
128.578
144.435
160.62
169.326
166.795
154.983
139.97
126.251
116.578
111.921
109.271
106.793
103.944
99.722
95.132
90.989
86.931
83.065
79.278
75.275
71.242
67.35
63.566
59.922
56.464
53.175
50.059
47.143
44.395
41.782
39.311
36.977
34.777
32.723
30.812
29.043
27.415
25.926
24.57
23.344
22.241
21.255
20.378
19.605
18.926
18.336
17.827
17.391
17.018
16.699
16.423
16.181
15.962
15.753
15.543
15.322
15.077
14.796
14.469
14.082
13.625
13.091
12.471
11.755
10.935
9.995
8.927
7.727
6.393
4.928
3.34
1.637
-0.161
-2.025
-3.924
-5.827
-7.704
-9.536
-11.301
-12.971
-14.518
-15.904
-17.099
-18.089
-18.86
-19.402
-19.727
-19.855
-19.823
-19.702
-19.57
-19.505
-19.583
-19.863
-20.392
-21.209
-22.365
-23.92
-25.928
-28.433
-31.467
-35.03
-39.113
-43.705
-48.685
-53.842
-58.881
-63.375
-66.95
-69.299
-70.056
-68.944
-65.923
-61.089
-54.774
-47.606
-40.048
-32.53
-25.685
-19.753
-14.41
-9.049
-2.58
6.415
19.086
36.71
60.901
92.46
131.092
175.781
224.738
275.597
325.737
372.025
410.494
438.459
455.348
459.915
450.701
425.766
381.784
321.056
251.209
179.907
116.252
63.183
16.728
-25.554
-67.171
-109.011
-147.16
-179.808
-206.057
-225.822
-241.769
-256.195
-269.925
-283.303
-295.989
-307.392
-317.345
-325.779
-332.194
-335.799
-336.121
-332.956
-326.363
-316.786
-304.631
-290.234
-274.13
-256.93
-239.134
-221.183
-203.39
-185.894
-168.831
-152.345
-136.558
-121.627
-107.746
-95.095
-83.809
-73.965
-65.581
-58.633
-53.069
-48.806
-45.722
-43.666
-42.499
-42.11
-42.412
-43.321
-44.718
-46.435
-48.268
-50.018
-51.536
-52.715
-53.484
-53.795
-53.62
-52.959
-51.853
-50.365
-48.55
-46.448
-44.087
-41.498
-38.737
-35.888
-33.056
-30.351
-27.854
-25.617
-23.679
-22.062
-20.775
-19.811
-19.137
-18.708
-18.483
-18.429
-18.516
-18.721
-19.003
-19.314
-19.598
-19.797
-19.863
-19.762
-19.462
-18.941
-18.183
-17.175
-15.921
-14.43
-12.704
-10.745
-8.548
-6.108
-3.423
-0.496
2.675
6.089
9.746
13.645
17.783
22.154
26.758
31.596
36.678
42.006
47.577
53.381
59.406
65.636
72.054
78.633
85.33
92.108
98.929
105.768
112.62
119.474
126.316
133.134
139.912
146.647
153.361
160.061
166.753
173.444
180.139
186.869
193.692
200.65
207.771
215.058
222.475
229.989
237.569
245.162
252.707
260.114
267.257
274.037
280.38
286.202
291.431
295.964
299.66
302.41
304.135
304.783
304.345
302.814
300.185
296.492
291.8
286.207
279.849
272.832
265.229
257.123
248.589
239.729
230.675
221.528
212.364
203.245
194.215
185.314
176.593
168.06
159.698
151.472
143.323
135.219
127.156
119.125
111.125
103.147
95.167
87.182
79.211
71.264
63.358
55.505
47.712
40.004
32.42
25.005
17.806
10.859
4.183
-2.201
-8.279
-14.038
-19.467
-24.565
-29.34
-33.797
-37.939
-41.767
-45.284
-48.495
-51.413
-54.051
-56.421
-58.535
-60.403
-62.035
-63.443
-64.636
-65.621
-66.406
-66.997
-67.401
-67.629
-67.69
-67.594
-67.351
-66.974
-66.471
-65.854
-65.134
-64.322
-63.425
-62.454
-61.417
-60.324
-59.182
-58
-56.786
-55.547
-54.291
-53.026
-51.757
-50.492
-49.237
-47.999
-46.784
-45.598
-44.448
-43.338
-42.275
-41.263
-40.309
-39.417
-38.591
-37.835
-37.152
-36.545
-36.016
-35.566
-35.197
-34.907
-34.698
-34.567
-34.515
-34.538
-34.635
-34.803
-35.038
-35.338
-35.698
-36.114
-36.582
-37.097
-37.653
-38.246
-38.87
-39.52
-40.189
-40.872
-41.563
-42.255
-42.943
-43.62
-44.28
-44.918
-45.527
-46.103
-46.64
-47.134
-47.579
-47.973
-48.311
-48.591
-48.81
-48.967
-49.061
-49.09
-49.054
-48.954
-48.792
-48.567
-48.282
-47.939
-47.54
-47.089
-46.587
-46.039
-45.448
-44.816
-44.149
-43.449
-42.721
-41.968
-41.195
-40.407
-39.606
-38.799
-37.988
-37.179
-36.376
-35.582
-34.802
-34.039
-33.297
-32.58
-31.89
-31.231
-30.604
-30.013
-29.459
-28.944
-28.468
-28.033
-27.64
-27.289
-26.98
-26.714
-26.49
-26.31
-26.173
-26.078
-26.026
-26.017
-26.051
-26.127
-26.246
-26.405
-26.606
-26.847
-27.128
-27.447
-27.804
-28.198
-28.628
-29.092
-29.589
-30.118
-30.677
-31.265
-31.88
-32.521
-33.187
-33.877
-34.59
-35.325
-36.081
-36.858
-37.654
-38.469
-39.302
-40.153
-41.019
-41.9
-42.795
-43.703
-44.623
-45.553
-46.492
-47.439
-48.393
-49.352
-50.317
-51.286
-52.257
-53.23
-54.205
-55.179
-56.153
-57.126
-58.097
-59.066
-60.031
-60.992
-61.948
-62.896
-63.836
-64.765
-65.681
-66.581
-67.463
-68.323
-69.16
-69.968
-70.746
-71.49
-72.196
-72.859
-73.475
-74.04
-74.548
-74.995
-75.375
-75.68
-75.907
-76.048
-76.098
-76.05
-75.898
-75.635
-75.256
-74.754
-74.122
-73.355
-72.446
-71.391
-70.184
-68.821
-67.3
-65.616
-63.768
-61.755
-59.575
-57.228
-54.715
-52.038
-49.198
-46.198
-43.043
-39.739
-36.292
-32.71
-29.004
-25.185
-21.265
-17.26
-13.184
-9.052
-4.881
-0.687
3.513
7.702
11.861
15.975
20.022
23.985
27.843
31.574
35.161
38.584
41.826
44.869
47.695
50.288
52.634
54.722
56.537
58.067
59.291
60.199
60.787
61.057
61.015
60.672
60.042
59.148
58.028
56.715
55.247
53.656
51.967
50.205
48.403
46.593
44.819
43.109
41.476
39.922
38.446
37.034
35.668
34.302
32.854
31.249
29.412
27.27
24.78
21.888
18.549
14.738
10.425
5.594
0.257
-5.579
-11.891
-18.603
-25.659
-32.985
-40.368
-47.547
-54.138
-59.611
-63.526
-65.516
-65.183
-62.277
-56.786
-48.889
-39.239
-28.874
-18.686
-9.503
-2.045
3.469
7.194
9.672
12.345
17.191
26.092
40.929
63.317
94.063
133.351
180.629
233.095
286.341
336.11
378.57
412.76
439.96
458.885
465.156
451.313
409.111
336.326
237.638
121.517
-2.121
-124.571
-239.283
-338.565
-412.333
-454.28
-462.464
-440.352
-401.067
-357.819
-319.575
-293.192
-276.247
-262.25
-248.429
-232.029
-214.531
-201.073
-193.259
-191.236
-193.61
-196.81
-198.505
-197.569
-193.37
-186.056
-176
-163.737
-150.13
-136.253
-123.244
-111.916
-102.661
-95.651
-90.841
-88.016
-86.908
-87.098
-88.047
-89.398
-90.973
-92.674
-94.475
-96.317
-98.053
-99.54
-100.712
-101.511
-101.889
-101.818
-101.25
-100.171
-98.628
-96.7
-94.475
-92.026
-89.393
-86.596
-83.681
-80.709
-77.765
-74.956
-72.35
-69.994
-67.927
-66.171
-64.741
-63.645
-62.861
-62.344
-62.055
-61.961
-62.038
-62.274
-62.645
-63.12
-63.658
-64.215
-64.755
-65.254
-65.686
-66.031
-66.268
-66.385
-66.375
-66.242
-65.987
-65.605
-65.091
-64.437
-63.638
-62.693
-61.599
-60.355
-58.96
-57.411
-55.707
-53.849
-51.836
-49.669
-47.346
-44.867
-42.231
-39.442
-36.504
-33.423
-30.203
-26.85
-23.374
-19.78
-16.079
-12.278
-8.387
-4.414
-0.369
3.738
7.896
12.095
16.322
20.567
24.818
29.063
33.291
37.488
41.644
45.744
49.776
53.727
57.584
61.334
64.965
68.463
71.817
75.014
78.044
80.894
83.556
86.019
88.273
90.31
92.123
93.703
95.045
96.144
96.993
97.591
97.933
98.019
97.846
97.414
96.725
95.78
94.581
93.132
91.437
89.502
87.332
84.936
82.321
79.496
76.472
73.258
69.866
66.309
62.599
58.749
54.773
50.686
46.5
42.232
37.896
33.507
29.079
24.629
20.169
15.715
11.28
6.879
2.524
-1.771
-5.995
-10.134
-14.176
-18.11
-21.926
-25.611
-29.157
-32.554
-35.793
-38.867
-41.769
-44.491
-47.029
-49.377
-51.532
-53.489
-55.246
-56.801
-58.154
-59.305
-60.253
-61.002
-61.552
-61.906
-62.068
-62.041
-61.829
-61.436
-60.868
-60.129
-59.227
-58.167
-56.958
-55.608
-54.126
-52.523
-50.81
-48.997
-47.096
-45.12
-43.08
-40.988
-38.853
-36.687
-34.501
-32.305
-30.112
-27.933
-25.778
-23.659
-21.588
-19.578
-17.638
-15.777
-14.001
-12.314
-10.722
-9.236
-7.869
-6.631
-5.525
-4.554
-3.72
-3.019
-2.444
-1.975
-1.575
-1.206
-0.836
-0.436
0.009
0.521
1.128
1.862
2.761
3.85
5.138
6.633
8.338
10.25
12.346
14.565
16.796
18.935
20.886
22.583
23.99
25.056
25.71
25.874
25.466
24.433
22.774
20.485
17.532
13.967
9.918
5.668
1.708
-1.499
-3.607
-4.352
-3.569
-1.268
2.475
7.344
12.657
17.755
22.104
25.486
28.23
31.005
34.502
39.813
48.531
62.244
82.661
110.021
142.409
177.879
215.355
255.976
302.956
356.92
412.619
458.964
482.327
473.638
434.289
376.981
319.527
276.189
251.995
240.523
229.825
211.051
181.168
143.523
104.644
68.246
34.887
3.541
-27.64
-59.092
-90.013
-119.711
-147.525
-172.955
-195.705
-215.488
-232.076
-245.444
-255.708
-262.976
-267.353
-268.954
-267.897
-264.288
-258.273
-250.031
-239.765
-227.725
-214.177
-199.396
-183.661
-167.258
-150.478
-133.558
-116.696
-100.053
-83.773
-68.02
-52.995
-38.926
-26.021
-14.449
-4.315
4.328
11.454
17.086
21.276
24.117
25.734
26.232
25.698
24.22
21.888
18.821
15.187
11.192
7.041
2.942
-0.942
-4.496
-7.626
-10.283
-12.447
-14.126
-15.359
-16.181
-16.623
-16.712
-16.482
-15.972
-15.258
-14.435
-13.606
-12.885
-12.36
-12.086
-12.103
-12.428
-13.056
-13.97
-15.137
-16.509
-18.049
-19.721
-21.492
-23.329
-25.188
-27.014
-28.753
-30.339
-31.722
-32.862
-33.726
-34.287
-34.53
-34.439
-34.011
-33.248
-32.149
-30.71
-28.927
-26.791
-24.3
-21.453
-18.252
-14.7
-10.799
-6.553
-1.964
2.962
8.22
13.805
19.71
25.932
32.459
39.28
46.381
53.745
61.353
69.187
77.226
85.445
93.822
102.33
110.944
119.638
128.384
137.154
145.918
154.647
163.311
171.879
180.32
188.605
196.702
204.58
212.209
219.559
226.601
233.308
239.651
245.605
251.145
256.249
260.895
265.064
268.738
271.902
274.542
276.649
278.213
279.229
279.692
279.603
278.963
277.776
276.047
273.786
271.003
267.712
263.928
259.669
254.953
249.801
244.238
238.288
231.977
225.332
218.382
211.157
203.688
196.004
188.139
180.123
171.988
163.767
155.491
147.191
138.897
130.638
122.443
114.339
106.351
98.505
90.823
83.327
76.036
68.968
62.139
55.564
49.256
43.226
37.482
32.032
26.881
22.034
17.492
13.255
9.323
5.693
2.361
-0.679
-3.433
-5.909
-8.117
-10.065
-11.766
-13.231
-14.473
-15.503
-16.336
-16.985
-17.463
-17.784
-17.961
-18.009
-17.939
-17.766
-17.502
-17.159
-16.749
-16.283
-15.772
-15.227
-14.657
-14.072
-13.479
-12.888
-12.306
-11.738
-11.192
-10.672
-10.184
-9.733
-9.32
-8.951
-8.626
-8.348
-8.117
-7.935
-7.802
-7.717
-7.68
-7.69
-7.745
-7.844
-7.985
-8.167
-8.387
-8.644
-8.935
-9.257
-9.609
-9.988
-10.391
-10.817
-11.263
-11.727
-12.206
-12.698
-13.201
-13.714
-14.234
-14.759
-15.288
-15.819
-16.351
-16.881
-17.41
-17.936
-18.458
-18.975
-19.488
-19.996
-20.499
-20.998
-21.492
-21.982
-22.47
-22.954
-23.436
-23.918
-24.399
-24.881
-25.365
-25.851
-26.342
-26.837
-27.338
-27.846
-28.362
-28.885
-29.418
-29.961
-30.513
-31.077
-31.652
-32.238
-32.837
-33.448
-34.073
-34.711
-35.362
-36.028
-36.707
-37.4
-38.106
-38.826
-39.559
-40.304
-41.061
-41.829
-42.607
-43.395
-44.192
-44.996
-45.806
-46.622
-47.441
-48.263
-49.086
-49.91
-50.734
-51.557
-52.378
-53.196
-54.011
-54.823
-55.63
-56.432
-57.229
-58.019
-58.803
-59.578
-60.344
-61.1
-61.844
-62.575
-63.291
-63.992
-64.675
-65.339
-65.983
-66.605
-67.204
-67.778
-68.326
-68.848
-69.341
-69.805
-70.239
-70.642
-71.012
-71.348
-71.649
-71.914
-72.141
-72.328
-72.475
-72.58
-72.641
-72.657
-72.625
-72.546
-72.418
-72.241
-72.015
-71.741
-71.419
-71.051
-70.639
-70.185
-69.692
-69.161
-68.595
-67.998
-67.37
-66.715
-66.034
-65.332
-64.61
-63.87
-63.118
-62.354
-61.582
-60.805
-60.026
-59.248
-58.473
-57.705
-56.947
-56.201
-55.473
-54.764
-54.08
-53.422
-52.792
-52.193
-51.625
-51.089
-50.582
-50.102
-49.644
-49.204
-48.78
-48.369
-47.969
-47.575
-47.187
-46.803
-46.422
-46.043
-45.661
-45.268
-44.858
-44.423
-43.956
-43.453
-42.904
-42.302
-41.639
-40.909
-40.108
-39.229
-38.263
-37.193
-36.008
-34.705
-33.286
-31.755
-30.123
-28.404
-26.616
-24.793
-22.963
-21.15
-19.379
-17.653
-15.982
-14.38
-12.84
-11.354
-9.919
-8.502
-7.088
-5.684
-4.231
-2.665
-1.012
0.759
2.653
4.623
6.79
9.269
11.989
14.896
18.1
21.624
25.58
30.106
34.854
39.462
43.851
47.879
51.263
53.795
55.044
54.554
52.588
49.472
45.271
40.167
34.314
27.8
21.041
14.517
8.139
1.797
-4.475
-10.746
-16.899
-22.726
-28.25
-33.515
-38.329
-42.564
-46.139
-48.922
-50.955
-52.35
-53.175
-53.565
-53.702
-53.701
-53.673
-53.737
-53.963
-54.461
-55.346
-56.688
-58.565
-61.058
-64.241
-68.161
-72.745
-77.756
-82.799
-87.414
-91.165
-93.648
-94.403
-93.131
-89.885
-85.012
-79.248
-73.46
-68.231
-64.135
-61.876
-61.707
-63.198
-65.33
-66.291
-63.994
-56.78
-42.83
-20.156
12.471
55.489
108.373
169.066
234.781
301.873
365.05
419.849
462.742
491.616
507.2
507.863
490.17
450.837
385.21
293.286
180.853
56.625
-66.032
-172.942
-255.342
-310.212
-340.567
-353.903
-354.189
-340.809
-313.36
-273.351
-228.431
-190.148
-165.617
-155.374
-153.61
-152.679
-148.648
-141.893
-135.543
-131.489
-129.184
-126.857
-122.076
-113.783
-102.35
-88.518
-73.458
-58.468
-44.573
-32.506
-22.79
-15.591
-10.844
-8.461
-8.209
-9.676
-12.389
-15.946
-20.041
-24.521
-29.294
-34.22
-39.119
-43.793
-48.104
-51.968
-55.323
-58.12
-60.306
-61.845
-62.75
-63.079
-62.91
-62.328
-61.402
-60.176
-58.71
-57.085
-55.4
-53.782
-52.319
-51.063
-50.047
-49.292
-48.811
-48.617
-48.697
-49.009
-49.515
-50.178
-50.973
-51.883
-52.883
-53.934
-54.994
-56.011
-56.947
-57.779
-58.484
-59.046
-59.449
-59.681
-59.739
-59.632
-59.361
-58.927
-58.325
-57.548
-56.595
-55.466
-54.162
-52.685
-51.033
-49.207
-47.206
-45.032
-42.685
-40.164
-37.467
-34.593
-31.54
-28.31
-24.904
-21.327
-17.582
-13.672
-9.603
-5.381
-1.01
3.503
8.153
12.933
17.839
22.861
27.994
33.23
38.56
43.975
49.465
55.021
60.633
66.288
71.975
77.682
83.396
89.104
94.793
100.447
106.053
111.596
117.061
122.433
127.696
132.835
137.835
142.681
147.358
151.851
156.146
160.23
164.089
167.711
171.083
174.194
177.032
179.587
181.85
183.813
185.468
186.809
187.83
188.53
188.904
188.952
188.675
188.074
187.152
185.914
184.366
182.515
180.37
177.941
175.238
172.275
169.064
165.621
161.96
158.097
154.05
149.833
145.466
140.966
136.35
131.637
126.844
121.99
117.093
112.171
107.242
102.324
97.433
92.586
87.799
83.088
78.465
73.946
69.542
65.264
61.123
57.129
53.288
49.607
46.093
42.749
39.578
36.582
33.761
31.115
28.641
26.337
24.2
22.225
20.409
18.744
17.226
15.848
14.603
13.482
12.477
11.578
10.778
10.064
9.424
8.848
8.321
7.833
7.37
6.921
6.472
6.013
5.534
5.028
4.485
3.897
3.254
2.55
1.775
0.923
-0.012
-1.034
-2.147
-3.355
-4.655
-6.045
-7.522
-9.09
-10.757
-12.528
-14.405
-16.385
-18.462
-20.627
-22.862
-25.142
-27.43
-29.687
-31.878
-33.973
-35.952
-37.789
-39.46
-40.928
-42.148
-43.086
-43.715
-44.02
-43.992
-43.641
-42.999
-42.129
-41.124
-40.075
-39.055
-38.133
-37.377
-36.867
-36.69
-36.941
-37.696
-39.048
-41.112
-43.903
-47.337
-51.229
-55.252
-59.071
-62.437
-65.01
-66.382
-66.446
-65.329
-63.42
-61.437
-59.855
-58.801
-58.541
-59.393
-61.147
-63.124
-64.018
-61.974
-55.634
-44.097
-26.256
-0.979
32.191
72.805
119.176
168.856
219.795
269.64
315.25
353.228
380.277
395.034
398.621
390.965
370.962
337.226
287.263
224.748
158.112
94.886
43.511
5.547
-24.218
-50.185
-78.023
-109.846
-142.772
-175.06
-204.991
-232.161
-258.701
-285.404
-311.887
-337.345
-360.103
-379.208
-394.61
-406.224
-414.008
-418.024
-418.314
-415.13
-408.987
-400.275
-389.282
-376.31
-361.608
-345.461
-328.211
-310.163
-291.598
-272.803
-253.999
-235.389
-217.189
-199.591
-182.813
-167.076
-152.555
-139.404
-127.742
-117.63
-109.102
-102.153
-96.713
-92.681
-89.931
-88.323
-87.76
-88.145
-89.353
-91.251
-93.672
-96.429
-99.354
-102.274
-105
-107.393
-109.344
-110.781
-111.691
-112.078
-111.955
-111.356
-110.305
-108.832
-106.983
-104.806
-102.359
-99.719
-96.961
-94.175
-91.468
-88.918
-86.572
-84.46
-82.575
-80.907
-79.44
-78.144
-76.98
-75.914
-74.907
-73.926
-72.944
-71.922
-70.817
-69.579
-68.154
-66.498
-64.583
-62.389
-59.903
-57.118
-54.03
-50.643
-46.969
-43.016
-38.79
-34.295
-29.533
-24.507
-19.229
-13.707
-7.954
-1.979
4.207
10.594
17.171
23.928
30.854
37.94
45.177
52.554
60.058
67.674
75.386
83.177
91.031
98.928
106.85
114.777
122.69
130.569
138.394
146.144
153.798
161.335
168.734
175.971
183.027
189.878
196.503
202.879
208.986
214.803
220.308
225.484
230.31
234.77
238.846
242.522
245.785
248.621
251.019
252.967
254.458
255.484
256.04
256.124
255.733
254.868
253.532
251.729
249.467
246.753
243.598
240.014
236.015
231.619
226.844
221.708
216.235
210.447
204.369
198.026
191.446
184.655
177.683
170.557
163.307
155.961
148.549
141.1
133.643
126.205
118.815
111.499
104.284
97.194
90.253
83.484
76.908
70.544
64.411
58.525
52.9
47.55
42.486
37.716
33.248
29.087
25.236
21.696
18.466
15.545
12.928
10.61
8.583
6.839
5.368
4.161
3.204
2.486
1.994
1.713
1.629
1.727
1.991
2.406
2.957
3.627
4.401
5.263
6.198
7.191
8.227
9.293
10.373
11.455
12.527
13.577
14.593
15.566
16.486
17.345
18.136
18.852
19.487
20.036
20.495
20.86
21.128
21.298
21.367
21.334
21.198
20.96
20.618
20.175
19.632
18.989
18.249
17.414
16.487
15.47
14.366
13.178
11.911
10.568
9.152
7.669
6.122
4.515
2.854
1.142
-0.615
-2.413
-4.249
-6.118
-8.017
-9.94
-11.884
-13.843
-15.812
-17.788
-19.766
-21.74
-23.706
-25.658
-27.593
-29.507
-31.399
-33.263
-35.095
-36.888
-38.639
-40.345
-42.007
-43.622
-45.186
-46.696
-48.15
-49.548
-50.891
-52.176
-53.403
-54.564
-55.651
-56.666
-57.606
-58.475
-59.278
-60.003
-60.641
-61.185
-61.623
-61.969
-62.241
-62.433
-62.547
-62.578
-62.502
-62.371
-62.241
-62.054
-61.781
-61.357
-60.685
-59.875
-59.068
-58.221
-57.333
-56.526
-55.837
-55.546
-55.961
-56.89
-58.135
-59.596
-61.059
-62.393
-63.561
-64.078
-63.49
-61.915
-59.422
-56.334
-53.126
-49.896
-46.719
-44.077
-42.347
-41.619
-42.054
-43.243
-44.67
-46.275
-47.932
-49.388
-50.506
-51.082
-50.872
-50.17
-49.292
-48.285
-47.278
-46.302
-45.32
-44.475
-43.908
-43.506
-43.173
-42.876
-42.537
-42.199
-41.919
-41.662
-41.406
-41.167
-40.948
-40.769
-40.654
-40.589
-40.562
-40.569
-40.603
-40.67
-40.778
-40.923
-41.108
-41.331
-41.588
-41.881
-42.212
-42.581
-42.988
-43.431
-43.907
-44.417
-44.958
-45.531
-46.133
-46.762
-47.413
-48.082
-48.765
-49.46
-50.165
-50.876
-51.588
-52.299
-53.005
-53.703
-54.39
-55.064
-55.719
-56.353
-56.962
-57.544
-58.094
-58.611
-59.091
-59.531
-59.929
-60.284
-60.593
-60.855
-61.069
-61.233
-61.348
-61.412
-61.424
-61.386
-61.294
-61.151
-60.955
-60.707
-60.406
-60.051
-59.642
-59.178
-58.659
-58.084
-57.45
-56.758
-56.005
-55.191
-54.316
-53.379
-52.381
-51.321
-50.199
-49.016
-47.771
-46.466
-45.102
-43.678
-42.195
-40.656
-39.063
-37.419
-35.727
-33.991
-32.211
-30.391
-28.534
-26.647
-24.736
-22.808
-20.871
-18.932
-16.997
-15.079
-13.187
-11.33
-9.52
-7.764
-6.069
-4.451
-2.921
-1.495
-0.188
1
2.073
3.034
3.891
4.626
5.22
5.675
5.984
6.149
6.187
6.057
5.711
5.231
4.671
4.099
3.607
3.09
2.395
1.572
0.656
-0.512
-2.005
-4.016
-6.794
-10.045
-13.425
-16.896
-20.349
-23.573
-26.479
-28.707
-29.836
-30.153
-29.959
-29.288
-28.3
-27.093
-25.664
-24.334
-23.45
-22.818
-22.291
-21.876
-21.488
-21.212
-21.186
-21.328
-21.61
-22.296
-23.547
-25.397
-27.805
-30.447
-33.01
-35.359
-37.286
-38.439
-38.603
-37.791
-36.372
-35.187
-34.93
-35.872
-38.109
-41.705
-46.591
-52.273
-57.563
-60.545
-59.43
-53.133
-41.03
-22.549
2.922
35.417
74.237
117.825
164.336
212.693
261.124
306.395
345.412
375.171
395.691
410.858
421.458
425.775
418.118
387.379
329.019
243.178
133.106
10.692
-113.374
-228.194
-320.17
-382.272
-411.836
-411.791
-391.598
-360.345
-326.397
-294.265
-265.103
-239.266
-213.935
-188.261
-162.894
-138.2
-117.348
-101.598
-90.379
-83.633
-79.615
-77.007
-75.199
-72.672
-68.733
-63.476
-56.951
-49.651
-42.08
-34.406
-27.113
-21.051
-16.71
-14.25
-13.613
-14.385
-16.185
-18.787
-21.823
-24.84
-27.517
-29.599
-30.962
-31.644
-31.668
-31.034
-29.784
-27.967
-25.643
-22.901
-19.813
-16.457
-12.931
-9.332
-5.777
-2.365
0.83
3.74
6.321
8.551
10.415
11.911
13.054
13.849
14.312
14.474
14.358
14.001
13.445
12.731
11.911
11.032
10.126
9.222
8.342
7.5
6.711
5.984
5.322
4.731
4.22
3.795
3.468
3.246
3.136
3.143
3.269
3.52
3.899
4.416
5.074
5.882
6.847
7.974
9.273
10.75
12.41
14.254
16.284
18.5
20.901
23.488
26.256
29.203
32.326
35.62
39.083
42.709
46.494
50.429
54.51
58.727
63.074
67.54
72.118
76.797
81.565
86.413
91.329
96.302
101.319
106.366
111.432
116.501
121.56
126.595
131.591
136.534
141.408
146.199
150.894
155.478
159.937
164.257
168.424
172.427
176.251
179.885
183.316
186.532
189.522
192.277
194.786
197.041
199.032
200.754
202.198
203.359
204.232
204.812
205.095
205.08
204.764
204.148
203.231
202.014
200.501
198.695
196.599
194.22
191.562
188.633
185.441
181.993
178.299
174.369
170.214
165.843
161.27
156.506
151.564
146.457
141.197
135.799
130.275
124.64
118.907
113.091
107.207
101.269
95.294
89.295
83.289
77.291
71.315
65.377
59.491
53.671
47.931
42.286
36.748
31.33
26.044
20.902
15.916
11.095
6.448
1.986
-2.286
-6.358
-10.226
-13.883
-17.326
-20.55
-23.551
-26.327
-28.877
-31.198
-33.292
-35.16
-36.806
-38.234
-39.453
-40.469
-41.292
-41.932
-42.401
-42.709
-42.868
-42.888
-42.78
-42.556
-42.23
-41.815
-41.328
-40.784
-40.197
-39.583
-38.956
-38.331
-37.718
-37.127
-36.564
-36.039
-35.568
-35.172
-34.871
-34.677
-34.598
-34.641
-34.806
-35.086
-35.468
-35.922
-36.415
-36.919
-37.409
-37.867
-38.272
-38.594
-38.792
-38.816
-38.63
-38.206
-37.532
-36.606
-35.44
-34.065
-32.543
-30.969
-29.422
-27.99
-26.764
-25.822
-25.267
-25.21
-25.746
-27.005
-29.135
-32.17
-36.039
-40.565
-45.429
-50.342
-55.093
-59.314
-62.552
-64.623
-65.601
-65.897
-66.238
-67.045
-68.352
-70.375
-73.451
-77.419
-81.605
-84.526
-84.106
-78.945
-68.114
-50.362
-24.279
11.037
54.645
103.3
153.62
203.726
254.539
308.133
362.612
411.835
446.238
456.729
440.753
402.424
351.259
297.21
246.325
200.437
157.039
113.39
69.171
25.579
-15.239
-51.982
-85.537
-117.812
-149.895
-181.879
-213.389
-243.811
-272.876
-300.669
-326.62
-349.594
-368.891
-384.163
-395.362
-402.815
-406.659
-406.778
-403.326
-396.687
-387.214
-375.33
-361.389
-345.588
-328.223
-309.678
-290.283
-270.379
-250.294
-230.239
-210.411
-191.025
-172.258
-154.324
-137.473
-121.908
-107.801
-95.291
-84.443
-75.29
-67.838
-62.025
-57.755
-54.901
-53.303
-52.848
-53.444
-54.973
-57.317
-60.32
-63.769
-67.471
-71.239
-74.875
-78.233
-81.206
-83.704
-85.704
-87.211
-88.242
-88.843
-89.05
-88.886
-88.391
-87.606
-86.581
-85.4
-84.149
-82.91
-81.791
-80.864
-80.17
-79.741
-79.573
-79.641
-79.92
-80.369
-80.937
-81.584
-82.269
-82.95
-83.595
-84.159
-84.59
-84.84
-84.85
-84.574
-83.983
-83.05
-81.761
-80.111
-78.094
-75.715
-72.986
-69.914
-66.507
-62.769
-58.703
-54.314
-49.612
-44.607
-39.312
-33.736
-27.892
-21.789
-15.439
-8.853
-2.042
4.984
12.216
19.643
27.253
35.03
42.96
51.028
59.217
67.511
75.891
84.341
92.841
101.373
109.92
118.462
126.978
135.449
143.855
152.173
160.383
168.463
176.391
184.143
191.697
199.031
206.122
212.947
219.485
225.713
231.61
237.156
242.331
247.115
251.491
255.442
258.95
262.001
264.582
266.68
268.286
269.392
269.991
270.079
269.653
268.715
267.266
265.309
262.853
259.906
256.48
252.587
248.245
243.471
238.286
232.713
226.775
220.498
213.911
207.042
199.922
192.581
185.051
177.367
169.56
161.664
153.715
145.745
137.789
129.879
122.048
114.328
106.75
99.341
92.13
85.143
78.404
71.935
65.755
59.884
54.337
49.126
44.262
39.753
35.606
31.822
28.402
25.344
22.645
20.298
18.293
16.622
15.272
14.228
13.475
12.997
12.775
12.79
13.023
13.452
14.055
14.812
15.701
16.7
17.788
18.943
20.145
21.374
22.611
23.838
25.037
26.194
27.292
28.32
29.266
30.119
30.872
31.518
32.052
32.47
32.772
32.955
33.023
32.976
32.819
32.556
32.194
31.738
31.198
30.58
29.894
29.149
28.354
27.519
26.654
25.769
24.872
23.974
23.083
22.207
21.356
20.536
19.754
19.017
18.33
17.698
17.125
16.613
16.165
15.781
15.461
15.203
15.007
14.869
14.785
14.752
14.764
14.815
14.9
15.012
15.144
15.29
15.443
15.595
15.739
15.87
15.98
16.062
16.113
16.124
16.093
16.013
15.881
15.693
15.445
15.134
14.758
14.314
13.802
13.22
12.569
11.848
11.059
10.203
9.283
8.3
7.259
6.162
5.014
3.819
2.58
1.303
-0.008
-1.348
-2.712
-4.096
-5.494
-6.903
-8.318
-9.736
-11.152
-12.564
-13.968
-15.361
-16.741
-18.104
-19.447
-20.769
-22.067
-23.338
-24.58
-25.791
-26.969
-28.112
-29.219
-30.288
-31.317
-32.306
-33.253
-34.156
-35.014
-35.827
-36.594
-37.312
-37.983
-38.604
-39.175
-39.694
-40.161
-40.575
-40.933
-41.236
-41.48
-41.664
-41.788
-41.85
-41.848
-41.782
-41.65
-41.453
-41.19
-40.862
-40.469
-40.011
-39.491
-38.909
-38.268
-37.57
-36.817
-36.013
-35.162
-34.266
-33.331
-32.359
-31.357
-30.328
-29.277
-28.209
-27.131
-26.046
-24.962
-23.883
-22.816
-21.767
-20.743
-19.75
-18.794
-17.881
-17.018
-16.21
-15.463
-14.781
-14.171
-13.637
-13.182
-12.811
-12.527
-12.332
-12.23
-12.22
-12.306
-12.488
-12.765
-13.138
-13.606
-14.169
-14.825
-15.572
-16.41
-17.335
-18.346
-19.44
-20.614
-21.865
-23.19
-24.584
-26.044
-27.566
-29.145
-30.777
-32.459
-34.185
-35.95
-37.75
-39.581
-41.438
-43.315
-45.208
-47.112
-49.023
-50.936
-52.845
-54.747
-56.638
-58.511
-60.364
-62.192
-63.989
-65.75
-67.473
-69.15
-70.778
-72.35
-73.861
-75.305
-76.677
-77.973
-79.185
-80.309
-81.339
-82.27
-83.098
-83.816
-84.421
-84.907
-85.27
-85.506
-85.612
-85.585
-85.422
-85.122
-84.682
-84.104
-83.388
-82.533
-81.542
-80.417
-79.16
-77.776
-76.269
-74.644
-72.908
-71.067
-69.131
-67.112
-65.02
-62.867
-60.666
-58.429
-56.172
-53.907
-51.646
-49.401
-47.182
-45.001
-42.873
-40.81
-38.825
-36.929
-35.133
-33.449
-31.885
-30.45
-29.146
-27.974
-26.933
-26.026
-25.259
-24.642
-24.181
-23.877
-23.728
-23.73
-23.874
-24.15
-24.535
-24.994
-25.498
-26.021
-26.538
-27.032
-27.479
-27.85
-28.12
-28.255
-28.229
-28.019
-27.611
-27.007
-26.229
-25.31
-24.29
-23.223
-22.168
-21.198
-20.4
-19.859
-19.65
-19.82
-20.442
-21.625
-23.425
-25.832
-28.691
-31.683
-34.516
-36.972
-38.774
-39.584
-39.171
-37.441
-34.711
-31.728
-29.095
-27.247
-26.784
-28.171
-31.58
-37.092
-43.087
-47.272
-48.839
-46.189
-39.425
-29.189
-11.578
15.928
55.713
110.079
173.128
237.906
298.395
347.972
387.499
419.432
443.269
457.046
451.917
418.49
351.729
250.867
126.035
-8.343
-136.82
-242.715
-319.473
-367.293
-391.385
-403.411
-409.701
-411.541
-407.65
-393.641
-369.036
-337.099
-301.637
-266.645
-234.24
-205.174
-180.503
-160.872
-146.254
-136.124
-129.533
-125.804
-124.5
-124.919
-125.829
-125.919
-124.531
-121.664
-117.685
-112.924
-107.567
-101.874
-96.457
-92.146
-89.401
-88.249
-88.445
-89.603
-91.43
-93.729
-96.192
-98.394
-100.021
-100.906
-101.007
-100.409
-99.178
-97.332
-94.913
-91.993
-88.649
-84.985
-81.099
-77.073
-72.998
-68.95
-64.987
-61.171
-57.557
-54.176
-51.048
-48.17
-45.524
-43.104
-40.902
-38.908
-37.098
-35.441
-33.899
-32.431
-31
-29.572
-28.124
-26.634
-25.086
-23.474
-21.792
-20.046
-18.244
-16.391
-14.488
-12.538
-10.543
-8.509
-6.441
-4.345
-2.227
-0.092
2.054
4.209
6.37
8.537
10.71
12.887
15.073
17.268
19.472
21.686
23.909
26.139
28.379
30.63
32.893
35.172
37.468
39.784
42.123
44.489
46.887
49.321
51.793
54.303
56.858
59.463
62.122
64.843
67.621
70.449
73.326
76.25
79.214
82.215
85.241
88.278
91.327
94.386
97.455
100.534
103.607
106.658
109.673
112.635
115.541
118.389
121.164
123.852
126.447
128.941
131.335
133.635
135.805
137.809
139.62
141.202
142.547
143.647
144.482
145.039
145.298
145.236
144.847
144.131
143.061
141.624
139.793
137.539
134.891
131.879
128.521
124.847
120.864
116.579
112.02
107.211
102.171
96.925
91.485
85.866
80.106
74.24
68.308
62.357
56.388
50.404
44.421
38.448
32.506
26.617
20.791
15.036
9.375
3.829
-1.582
-6.832
-11.918
-16.832
-21.569
-26.126
-30.486
-34.629
-38.546
-42.227
-45.664
-48.853
-51.786
-54.455
-56.864
-59.019
-60.924
-62.589
-64.015
-65.208
-66.173
-66.918
-67.454
-67.792
-67.943
-67.918
-67.731
-67.396
-66.931
-66.353
-65.676
-64.915
-64.086
-63.204
-62.284
-61.341
-60.386
-59.431
-58.488
-57.57
-56.691
-55.865
-55.102
-54.411
-53.803
-53.285
-52.867
-52.553
-52.341
-52.23
-52.224
-52.329
-52.557
-52.915
-53.402
-54.012
-54.741
-55.574
-56.495
-57.479
-58.481
-59.465
-60.396
-61.25
-62.012
-62.658
-63.153
-63.454
-63.513
-63.3
-62.808
-62.028
-60.954
-59.606
-58.022
-56.271
-54.456
-52.645
-50.892
-49.261
-47.805
-46.605
-45.768
-45.374
-45.525
-46.333
-47.799
-49.841
-52.308
-54.893
-57.286
-59.248
-60.406
-60.352
-59.001
-56.514
-53.328
-50.163
-47.511
-45.552
-44.629
-45.205
-47.191
-49.898
-51.922
-51.364
-46.788
-37.059
-20.95
2.835
35.164
74.904
119.6
167.372
215.795
264.196
311.901
353.21
383.592
398.754
395.024
376.369
346.471
308.406
266.752
221.64
173.647
124.407
73.78
23.176
-25.852
-72.791
-116.559
-156.661
-193.537
-227.139
-257.121
-283.327
-305.579
-324.114
-339.883
-353.692
-365.75
-376.225
-385.268
-392.931
-399.393
-404.547
-407.781
-408.578
-406.742
-402.256
-395.322
-386.218
-375.129
-362.344
-348.342
-333.544
-318.282
-302.814
-287.235
-271.597
-255.975
-240.444
-225.087
-210.044
-195.481
-181.545
-168.395
-156.173
-144.998
-134.965
-126.116
-118.442
-111.896
-106.423
-101.987
-98.571
-96.159
-94.707
-94.134
-94.327
-95.152
-96.466
-98.121
-99.948
-101.771
-103.45
-104.891
-106.042
-106.892
-107.44
-107.671
-107.581
-107.17
-106.45
-105.454
-104.219
-102.791
-101.227
-99.599
-97.994
-96.512
-95.219
-94.152
-93.324
-92.722
-92.328
-92.124
-92.075
-92.141
-92.281
-92.452
-92.615
-92.736
-92.769
-92.662
-92.358
-91.794
-90.923
-89.709
-88.125
-86.152
-83.779
-80.994
-77.796
-74.192
-70.187
-65.781
-60.976
-55.772
-50.173
-44.188
-37.828
-31.105
-24.034
-16.627
-8.899
-0.868
7.449
16.035
24.87
33.937
43.213
52.675
62.296
72.048
81.902
91.827
101.793
111.765
121.711
131.598
141.394
151.065
160.58
169.905
179.01
187.862
196.431
204.688
212.602
220.145
227.289
234.01
240.284
246.086
251.397
256.199
260.474
264.208
267.39
270.008
272.056
273.527
274.42
274.734
274.472
273.639
272.243
270.294
267.807
264.797
261.281
257.28
252.816
247.913
242.594
236.889
230.824
224.429
217.736
210.775
203.58
196.185
188.622
180.927
173.132
165.272
157.38
149.488
141.629
133.834
126.133
118.555
111.128
103.88
96.834
90.014
83.441
77.134
71.109
65.381
59.962
54.86
50.084
45.639
41.53
37.757
34.321
31.219
28.448
26.002
23.873
22.053
20.531
19.295
18.332
17.627
17.166
16.934
16.913
17.089
17.443
17.96
18.621
19.409
20.307
21.297
22.362
23.486
24.654
25.852
27.066
28.286
29.502
30.707
31.892
33.051
34.18
35.272
36.324
37.332
38.292
39.201
40.058
40.863
41.619
42.33
43
43.635
44.242
44.83
45.407
45.98
46.552
47.128
47.713
48.316
48.952
49.63
50.355
51.128
51.952
52.822
53.729
54.657
55.576
56.456
57.27
57.994
58.612
59.115
59.494
59.739
59.837
59.784
59.592
59.28
58.866
58.378
57.847
57.325
56.888
56.611
56.566
56.812
57.396
58.339
59.641
61.298
63.298
65.605
68.161
70.866
73.587
76.195
78.563
80.542
81.986
82.697
82.427
81.05
78.544
74.914
70.245
64.498
57.453
49.081
39.57
28.942
