Name,Criss Capps
Date of Birth,"Feb 5, 1952"
Recorded Date,2021-09-11 17:22:02 -0400
Classification,Sinus Rhythm
Symptoms,
Software Version,1.90
Device,"Watch5,4"
Sample Rate,512.844 hertz


Lead,Lead I
Unit,µV

-29.971
-35.485
-44.989
-58.695
-74.724
-90.113
-102.763
-109.481
-109.935
-104.326
-86.691
-53.175
0.399
76.554
165.377
257.619
344.814
420.254
488.524
549.732
600.63
634.603
634.302
591.375
503.676
373.362
219.921
62.047
-81.369
-187.565
-250.973
-274.595
-267.993
-250.709
-232.835
-217.461
-204.708
-189.142
-170.155
-150.613
-132.451
-118.863
-111.093
-107.652
-106.949
-107.167
-106.601
-105.013
-103.183
-101.329
-99.117
-96.587
-93.89
-91.295
-89.377
-88.046
-86.48
-84.465
-82.38
-80.432
-78.843
-77.673
-76.622
-75.677
-75.122
-74.902
-74.733
-74.396
-73.645
-72.395
-70.765
-68.788
-66.44
-63.775
-60.868
-57.802
-54.677
-51.539
-48.391
-45.259
-42.181
-39.205
-36.385
-33.749
-31.312
-29.083
-27.064
-25.25
-23.625
-22.164
-20.845
-19.653
-18.569
-17.582
-16.678
-15.84
-15.053
-14.298
-13.555
-12.806
-12.035
-11.227
-10.37
-9.455
-8.475
-7.425
-6.299
-5.091
-3.796
-2.409
-0.926
0.654
2.335
4.116
5.996
7.971
10.038
12.189
14.42
16.722
19.087
21.506
23.969
26.464
28.98
31.503
34.022
36.521
38.987
41.405
43.761
46.041
48.231
50.318
52.288
54.13
55.831
57.382
58.772
59.992
61.036
61.897
62.569
63.048
63.333
63.421
63.312
63.006
62.507
61.817
60.94
59.882
58.649
57.248
55.688
53.978
52.127
50.147
48.048
45.844
43.546
41.168
38.722
36.222
33.681
31.112
28.528
25.943
23.368
20.815
18.296
15.822
13.403
11.048
8.766
6.564
4.449
2.427
0.504
-1.316
-3.031
-4.636
-6.13
-7.511
-8.78
-9.936
-10.98
-11.916
-12.745
-13.471
-14.098
-14.632
-15.077
-15.439
-15.725
-15.94
-16.093
-16.19
-16.238
-16.244
-16.216
-16.161
-16.084
-15.994
-15.894
-15.792
-15.692
-15.597
-15.512
-15.439
-15.381
-15.34
-15.317
-15.313
-15.328
-15.361
-15.412
-15.477
-15.554
-15.64
-15.729
-15.819
-15.903
-15.976
-16.031
-16.064
-16.065
-16.029
-15.949
-15.817
-15.626
-15.368
-15.036
-14.624
-14.127
-13.538
-12.853
-12.069
-11.181
-10.188
-9.089
-7.885
-6.575
-5.161
-3.646
-2.036
-0.335
1.45
3.31
5.237
7.218
9.24
11.289
13.351
15.411
17.451
19.454
21.404
23.285
25.081
26.778
28.359
29.807
31.106
32.239
33.19
33.943
34.483
34.796
34.871
34.706
34.296
33.637
32.724
31.541
30.084
28.353
26.346
24.069
21.529
18.742
15.742
12.583
9.312
5.975
2.608
-0.766
-4.109
-7.38
-10.534
-13.517
-16.295
-18.852
-21.152
-23.166
-24.89
-26.345
-27.617
-28.833
-30.092
-31.475
-33.027
-34.792
-36.857
-39.309
-42.246
-45.758
-49.85
-54.571
-60.041
-66.235
-73.005
-79.992
-86.518
-91.946
-95.817
-97.592
-96.896
-93.727
-88.27
-81.328
-74.243
-68.089
-63.862
-62.456
-63.944
-67.699
-72.532
-76.042
-75.273
-67.519
-49.815
-19.616
24.168
81.456
150.749
228.6
310.589
391.565
465.318
525.667
567.387
586.397
580.182
548.224
491.661
413.667
319.359
214.915
106.975
1.942
-94.038
-175.482
-238.499
-281.525
-304.916
-310.5
-301.166
-280.079
-251.489
-220.528
-191.346
-166.36
-146.791
-132.861
-124.319
-121.074
-121.814
-123.903
-125.261
-124.849
-122.297
-117.846
-111.679
-103.481
-93.686
-83.673
-74.57
-67.075
-61.499
-57.664
-55.471
-55.138
-56.538
-59.111
-62.325
-65.669
-68.806
-71.705
-74.326
-76.522
-78.229
-79.436
-80.134
-80.379
-80.193
-79.504
-78.273
-76.507
-74.239
-71.585
-68.691
-65.672
-62.639
-59.68
-56.843
-54.171
-51.689
-49.396
-47.284
-45.338
-43.548
-41.929
-40.499
-39.257
-38.194
-37.271
-36.433
-35.639
-34.851
-34.031
-33.15
-32.189
-31.129
-29.971
-28.724
-27.39
-25.969
-24.457
-22.842
-21.121
-19.293
-17.357
-15.319
-13.182
-10.951
-8.634
-6.242
-3.783
-1.264
1.308
3.93
6.593
9.291
12.014
14.752
17.494
20.229
22.944
25.625
28.259
30.833
33.335
35.753
38.075
40.289
42.385
44.354
46.187
47.876
49.412
50.79
52.003
53.047
53.916
54.608
55.12
55.45
55.597
55.565
55.353
54.967
54.41
53.688
52.807
51.774
50.597
49.285
47.846
46.293
44.634
42.884
41.053
39.155
37.204
35.212
33.193
31.161
29.128
27.108
25.112
23.152
21.241
19.389
17.606
15.902
14.287
12.77
11.357
10.056
8.873
7.812
6.877
6.07
5.393
4.846
4.429
4.14
3.977
3.936
4.014
4.205
4.502
4.9
5.391
5.967
6.619
7.337
8.113
8.936
9.797
10.687
11.597
12.517
13.44
14.356
15.259
16.141
16.997
17.821
18.607
19.353
20.054
20.711
21.321
21.887
22.408
22.89
23.335
23.748
24.136
24.505
24.861
25.213
25.568
25.937
26.328
26.751
27.216
27.733
28.313
28.966
29.701
30.526
31.45
32.48
33.623
34.884
36.267
37.776
39.412
41.177
43.069
45.087
47.226
49.481
51.845
54.307
56.858
59.482
62.166
64.891
67.641
70.397
73.14
75.849
78.504
81.087
83.578
85.959
88.209
90.309
92.237
93.976
95.506
96.808
97.866
98.664
99.189
99.437
99.402
99.078
98.461
97.537
96.3
94.751
92.892
90.725
88.263
85.521
82.531
79.344
76.005
72.56
69.051
65.506
61.96
58.461
55.053
51.79
48.719
45.864
43.252
40.92
38.885
37.135
35.606
34.192
32.792
31.34
29.798
28.116
26.203
23.963
21.318
18.211
14.642
10.58
5.876
0.514
-5.35
-11.434
-17.236
-22.289
-26.326
-28.912
-29.429
-27.713
-23.954
-18.563
-12.452
-6.351
-0.758
3.271
4.544
4.071
4.663
8.54
17.298
28.415
36.765
42.901
53.508
79.048
129.376
206.294
300.738
400.428
497.565
585.128
659.416
714.849
736.278
714.265
647.414
543.043
421.463
299.365
185.879
84.701
-6.905
-88.408
-155.825
-205.46
-233.96
-241.776
-231.944
-207.999
-174.848
-137.559
-100.757
-68.537
-43.202
-25.737
-16.905
-16.567
-23.354
-35.19
-49.235
-62.723
-74.238
-82.99
-88.112
-89.32
-86.876
-81.431
-74.428
-67.442
-61.234
-56.222
-52.776
-50.933
-50.666
-51.858
-53.966
-56.329
-58.567
-60.435
-61.819
-62.761
-63.245
-63.239
-62.803
-62.03
-60.99
-59.749
-58.323
-56.699
-54.892
-52.936
-50.882
-48.797
-46.739
-44.758
-42.885
-41.141
-39.541
-38.096
-36.81
-35.68
-34.692
-33.826
-33.071
-32.421
-31.863
-31.388
-30.975
-30.599
-30.241
-29.882
-29.506
-29.101
-28.655
-28.154
-27.591
-26.959
-26.253
-25.471
-24.606
-23.653
-22.609
-21.469
-20.232
-18.897
-17.466
-15.937
-14.314
-12.602
-10.804
-8.929
-6.983
-4.974
-2.91
-0.801
1.343
3.513
5.695
7.879
10.051
12.199
14.309
16.368
18.362
20.279
22.105
23.827
25.436
26.918
28.264
29.464
30.51
31.392
32.103
32.638
32.991
33.158
33.136
32.924
32.522
31.93
31.15
30.185
29.038
27.716
26.222
24.563
22.747
20.78
18.673
16.433
14.072
11.601
9.03
6.371
3.636
0.838
-2.012
-4.902
-7.82
-10.754
-13.693
-16.626
-19.54
-22.427
-25.276
-28.078
-30.825
-33.509
-36.123
-38.662
-41.12
-43.492
-45.776
-47.967
-50.063
-52.063
-53.965
-55.769
-57.475
-59.084
-60.597
-62.017
-63.346
-64.588
-65.747
-66.826
-67.831
-68.765
-69.634
-70.441
-71.193
-71.893
-72.546
-73.156
-73.728
-74.264
-74.769
-75.244
-75.691
-76.111
-76.506
-76.874
-77.215
-77.528
-77.811
-78.061
-78.276
-78.452
-78.585
-78.67
-78.701
-78.674
-78.582
-78.42
-78.18
-77.856
-77.442
-76.93
-76.314
-75.589
-74.747
-73.784
-72.693
-71.471
-70.114
-68.619
-66.984
-65.207
-63.29
-61.233
-59.04
-56.714
-54.26
-51.683
-48.992
-46.196
-43.303
-40.327
-37.278
-34.172
-31.023
-27.85
-24.671
-21.504
-18.369
-15.286
-12.275
-9.356
-6.548
-3.867
-1.332
1.039
3.229
5.22
6.997
8.541
9.839
10.877
11.641
12.124
12.326
12.245
11.88
11.23
10.284
9.04
7.505
5.681
3.576
1.203
-1.42
-4.254
-7.244
-10.342
-13.497
-16.671
-19.839
-22.959
-25.988
-28.882
-31.582
-34.055
-36.278
-38.209
-39.818
-41.095
-42.054
-42.771
-43.361
-43.911
-44.492
-45.145
-45.911
-46.868
-48.097
-49.684
-51.711
-54.186
-57.166
-60.776
-64.998
-69.68
-74.483
-78.781
-82.004
-83.74
-83.476
-80.82
-75.761
-68.532
-59.951
-51.293
-43.521
-37.533
-34.219
-33.782
-35.735
-38.873
-40.875
-39.141
-31.215
-14.192
14.604
56.824
111.721
175.842
245.242
316.82
390.817
468.693
546.655
615.512
660.109
665.098
625.513
546.956
444.257
334.141
226.659
125.493
29.853
-60.07
-140.516
-206.159
-252.142
-276.602
-280.495
-266.506
-238.45
-200.612
-157.725
-114.694
-75.522
-43.381
-20.664
-8.265
-5.988
-12.71
-26.078
-43.289
-61.824
-79.161
-93.223
-102.962
-107.88
-108.08
-104.495
-98.309
-90.759
-83.299
-76.981
-72.271
-69.429
-68.392
-68.822
-70.372
-72.544
-74.705
-76.484
-77.73
-78.38
-78.519
-78.21
-77.455
-76.329
-74.938
-73.334
-71.552
-69.598
-67.445
-65.112
-62.646
-60.104
-57.551
-55.027
-52.547
-50.126
-47.772
-45.495
-43.303
-41.189
-39.139
-37.149
-35.214
-33.334
-31.51
-29.732
-27.983
-26.248
-24.512
-22.76
-20.985
-19.18
-17.337
-15.452
-13.522
-11.546
-9.523
-7.452
-5.33
-3.156
-0.926
1.361
3.702
6.099
8.548
11.047
13.591
16.176
18.795
21.443
24.114
26.799
29.492
32.184
34.867
37.533
40.173
42.776
45.334
47.836
50.271
52.63
54.902
57.077
59.145
61.097
62.924
64.616
66.166
67.567
68.811
69.893
70.807
71.55
72.117
72.506
72.716
72.746
72.598
72.274
71.775
71.106
70.272
69.276
68.126
66.827
65.386
63.811
62.11
60.291
58.363
56.337
54.222
52.029
49.769
47.452
45.089
42.693
40.274
37.842
35.408
32.982
30.575
28.195
25.852
23.552
21.304
19.113
16.985
14.925
12.936
11.02
9.182
7.421
5.741
4.14
2.62
1.179
-0.183
-1.468
-2.679
-3.817
-4.886
-5.891
-6.834
-7.721
-8.555
-9.343
-10.09
-10.801
-11.482
-12.138
-12.775
-13.397
-14.01
-14.618
-15.223
-15.828
-16.435
-17.045
-17.657
-18.271
-18.883
-19.492
-20.097
-20.695
-21.281
-21.854
-22.408
-22.939
-23.444
-23.915
-24.346
-24.726
-25.048
-25.304
-25.486
-25.587
-25.599
-25.514
-25.325
-25.025
-24.613
-24.082
-23.42
-22.618
-21.662
-20.549
-19.291
-17.896
-16.366
-14.71
-12.935
-11.055
-9.093
-7.059
-4.944
-2.745
-0.451
1.931
4.374
6.854
9.346
11.838
14.338
16.842
19.327
21.787
24.225
26.65
29.091
31.534
33.917
36.184
38.279
40.166
41.841
43.289
44.483
45.397
45.992
46.253
46.184
45.764
44.949
43.683
41.896
39.582
36.802
33.605
30.046
26.171
22.011
17.632
13.114
8.524
3.918
-0.665
-5.198
-9.62
-13.84
-17.762
-21.289
-24.378
-27.037
-29.26
-31.075
-32.539
-33.726
-34.767
-35.781
-36.83
-37.989
-39.335
-40.951
-42.953
-45.458
-48.518
-52.233
-56.749
-62.058
-68.038
-74.369
-80.427
-85.64
-89.59
-91.762
-91.638
-89.108
-84.327
-77.983
-71.489
-65.969
-62.131
-60.764
-62.292
-66.257
-71.606
-76.264
-77.048
-70.968
-55.349
-27.477
14.869
71.062
137.889
211.856
288.142
365.937
448.804
533.999
614.656
677.135
700.321
674.566
601.846
494.376
375.18
259.91
155.349
63.116
-20.612
-95.305
-156.748
-201.77
-227.797
-235.665
-228.524
-209.146
-181.314
-149.482
-117.807
-89.758
-67.275
-50.821
-40.649
-37.258
-40.139
-47.712
-57.661
-67.543
-76.048
-82.847
-87.575
-89.588
-88.673
-85.187
-80.189
-75.191
-71.021
-67.861
-65.823
-65.049
-65.635
-67.555
-70.423
-73.505
-76.302
-78.621
-80.39
-81.648
-82.391
-82.55
-82.13
-81.251
-80.026
-78.533
-76.82
-74.874
-72.695
-70.342
-67.889
-65.426
-63.034
-60.749
-58.571
-56.507
-54.558
-52.738
-51.072
-49.552
-48.144
-46.794
-45.404
-43.912
-42.298
-40.56
-38.734
-36.809
-34.691
-32.409
-30.161
-28.108
-26.329
-24.615
-22.411
-19.442
-15.874
-11.839
-7.281
-2.217
3.189
8.071
10.642
10.858
10.672
11.256
12.668
10.623
-2.421
-28
-60.85
-88.694
-95.496
-75.577
-33.331
19.301
64.821
94.369
105.662
100.473
88.115
74.095
61.615
54.085
48.448
42.864
37.796
32.602
29.443
29.781
32.434
36.377
40.607
44.359
47.703
50.69
52.886
54.029
54.292
54.056
53.676
53.307
52.863
52.188
51.296
50.263
49.109
47.806
46.289
44.526
42.538
40.395
38.148
35.823
33.43
30.967
28.442
25.876
23.294
20.715
18.154
15.617
13.104
10.622
8.176
5.774
3.42
1.114
-1.146
-3.358
-5.517
-7.611
-9.634
-11.58
-13.449
-15.239
-16.949
-18.577
-20.121
-21.582
-22.961
-24.259
-25.476
-26.612
-27.668
-28.644
-29.543
-30.368
-31.122
-31.808
-32.432
-32.996
-33.507
-33.969
-34.385
-34.76
-35.097
-35.398
-35.666
-35.9
-36.1
-36.268
-36.403
-36.505
-36.575
-36.613
-36.62
-36.596
-36.544
-36.462
-36.347
-36.197
-36.004
-35.763
-35.469
-35.114
-34.691
-34.194
-33.618
-32.962
-32.225
-31.405
-30.496
-29.488
-28.368
-27.126
-25.762
-24.27
-22.657
-20.932
-19.115
-17.237
-15.335
-13.431
-11.538
-9.661
-7.785
-5.902
-4
-2.063
-0.095
1.904
3.937
5.998
8.088
10.23
12.455
14.826
17.418
20.27
23.401
26.808
30.442
34.246
38.146
42.037
45.84
49.486
52.905
56.054
58.887
61.334
63.317
64.726
65.425
65.318
64.337
62.447
59.674
56.068
51.714
46.755
41.325
35.55
29.554
23.425
17.237
11.077
5.034
-0.779
-6.214
-11.153
-15.5
-19.193
-22.221
-24.589
-26.347
-27.612
-28.536
-29.303
-30.084
-31.005
-32.156
-33.607
-35.43
-37.731
-40.621
-44.188
-48.521
-53.614
-59.451
-66.106
-73.46
-81.242
-89.071
-96.279
-102.217
-106.556
-108.877
-108.642
-105.784
-100.404
-92.822
-84.139
-75.306
-66.686
-58.85
-52.598
-47.975
-44.384
-41.086
-35.047
-21.864
-0.257
30.561
70.025
111.336
152.437
197.652
250.073
320.362
414.853
522.185
627.704
709.081
741.938
721.147
649.656
536.904
401.765
256.227
110.998
-20.177
-129.677
-211.024
-262.217
-290.931
-303.872
-305.256
-296.977
-275.826
-241.114
-196.787
-148.697
-103.899
-67.547
-42.033
-27.942
-24.63
-30.775
-44.061
-61.494
-80.281
-97.698
-111.564
-120.844
-125.07
-124.372
-119.769
-112.566
-104.109
-95.925
-89.088
-84.047
-81.035
-79.946
-80.393
-81.982
-84.173
-86.31
-88.014
-89.136
-89.616
-89.542
-88.981
-87.94
-86.502
-84.773
-82.81
-80.654
-78.315
-75.777
-73.07
-70.251
-67.385
-64.546
-61.776
-59.092
-56.514
-54.05
-51.711
-49.504
-47.423
-45.453
-43.59
-41.83
-40.169
-38.608
-37.134
-35.727
-34.37
-33.045
-31.737
-30.437
-29.136
-27.825
-26.5
-25.156
-23.789
-22.4
-20.983
-19.534
-18.049
-16.52
-14.946
-13.322
-11.647
-9.919
-8.137
-6.302
-4.416
-2.481
-0.5
1.523
3.584
5.678
7.798
9.938
12.091
14.25
16.405
18.547
20.667
22.756
24.805
26.802
28.74
30.608
32.396
34.097
35.701
37.201
38.588
39.854
40.991
41.994
42.856
43.57
44.131
44.535
44.779
44.858
44.772
44.521
44.103
43.52
42.774
41.867
40.804
39.588
38.224
36.719
35.079
33.311
31.424
29.426
27.326
25.134
22.858
20.51
18.099
15.634
13.128
10.59
8.03
5.46
2.889
0.328
-2.214
-4.725
-7.197
-9.621
-11.989
-14.293
-16.525
-18.679
-20.75
-22.732
-24.621
-26.414
-28.107
-29.699
-31.188
-32.575
-33.86
-35.043
-36.127
-37.115
-38.008
-38.812
-39.529
-40.164
-40.721
-41.206
-41.624
-41.981
-42.281
-42.53
-42.735
-42.9
-43.03
-43.131
-43.207
-43.262
-43.3
-43.323
-43.333
-43.334
-43.326
-43.31
-43.286
-43.252
-43.208
-43.151
-43.077
-42.984
-42.866
-42.719
-42.537
-42.314
-42.045
-41.724
-41.343
-40.896
-40.378
-39.781
-39.1
-38.327
-37.458
-36.486
-35.409
-34.222
-32.921
-31.506
-29.974
-28.327
-26.566
-24.694
-22.712
-20.626
-18.442
-16.166
-13.809
-11.378
-8.885
-6.342
-3.766
-1.171
1.426
4.007
6.554
9.049
11.472
13.804
16.029
18.13
20.091
21.893
23.519
24.954
26.182
27.189
27.959
28.477
28.727
28.704
28.406
27.831
26.977
25.84
24.411
22.688
20.68
18.391
15.827
13
9.923
6.635
3.192
-0.35
-3.939
-7.532
-11.1
-14.597
-17.976
-21.191
-24.19
-26.944
-29.439
-31.646
-33.532
-35.092
-36.337
-37.335
-38.216
-39.089
-40.053
-41.197
-42.565
-44.224
-46.262
-48.75
-51.759
-55.329
-59.441
-64.112
-69.412
-75.271
-81.473
-87.608
-92.989
-96.936
-98.927
-98.564
-95.517
-89.771
-81.67
-71.872
-61.595
-52.259
-44.953
-40.148
-37.777
-37.095
-36.704
-34.738
-28.481
-14.618
10.153
46.803
93.757
149.254
210.489
278.116
356.032
441.707
528.239
601.538
641.098
637.446
590.349
507.748
405.437
291.275
169.91
48.3
-65.371
-157.311
-216.756
-243.504
-246.44
-237.483
-225.161
-211.717
-193.874
-170.524
-144.318
-118.797
-98.21
-84.383
-76.411
-72.99
-72.587
-73.268
-73.329
-71.85
-68.45
-63.332
-57.158
-50.446
-43.609
-37.288
-32.139
-28.472
-26.361
-25.615
-25.849
-26.795
-28.254
-29.997
-31.8
-33.453
-34.771
-35.669
-36.133
-36.155
-35.735
-34.866
-33.54
-31.796
-29.698
-27.31
-24.697
-21.911
-18.994
-15.999
-12.984
-10.013
-7.149
-4.43
-1.878
0.492
2.675
4.668
6.467
8.09
9.56
10.899
12.126
13.252
14.288
15.251
16.159
17.031
17.884
18.731
19.585
20.456
21.355
22.291
23.27
24.296
25.37
26.497
27.68
28.924
30.233
31.609
33.056
34.574
36.166
37.832
39.569
41.375
43.246
45.178
47.167
49.207
51.292
53.414
55.566
57.739
59.926
62.115
64.297
66.46
68.593
70.685
72.725
74.699
76.598
78.409
80.122
81.726
83.213
84.572
85.794
86.872
87.798
88.564
89.166
89.597
89.853
89.93
89.825
89.536
89.063
88.406
87.565
86.543
85.343
83.969
82.425
80.718
78.855
76.844
74.693
72.412
70.012
67.502
64.895
62.202
59.435
56.608
53.732
50.819
47.883
44.934
41.986
39.05
36.136
33.255
30.418
27.634
24.913
22.264
19.694
17.213
14.827
12.544
10.369
8.307
6.363
4.538
2.835
1.255
-0.203
-1.54
-2.757
-3.857
-4.843
-5.721
-6.494
-7.169
-7.752
-8.252
-8.674
-9.028
-9.32
-9.56
-9.754
-9.908
-10.03
-10.125
-10.199
-10.255
-10.298
-10.332
-10.362
-10.391
-10.425
-10.468
-10.524
-10.596
-10.688
-10.801
-10.934
-11.083
-11.244
-11.408
-11.571
-11.727
-11.869
-11.991
-12.086
-12.147
-12.173
-12.156
-12.087
-11.955
-11.739
-11.425
-11.01
-10.493
-9.881
-9.191
-8.435
-7.625
-6.787
-5.935
-5.07
-4.189
-3.266
-2.275
-1.204
-0.054
1.159
2.415
3.718
5.075
6.493
8.002
9.623
11.382
13.333
15.509
17.903
20.487
23.184
25.896
28.557
31.115
33.533
35.786
37.823
39.594
41.059
42.162
42.852
43.062
42.687
41.642
39.893
37.446
34.369
30.768
26.713
22.27
17.508
12.495
7.32
2.069
-3.198
-8.425
-13.549
-18.482
-23.098
-27.282
-30.956
-34.085
-36.686
-38.796
-40.434
-41.648
-42.522
-43.155
-43.686
-44.215
-44.787
-45.464
-46.321
-47.461
-49.015
-51.101
-53.769
-57.079
-61.137
-65.91
-71.265
-76.908
-82.271
-86.822
-90.196
-91.945
-91.591
-89.079
-84.559
-78.537
-72.224
-66.551
-61.982
-59.216
-58.74
-60.154
-62.709
-64.945
-64.128
-57.911
-44.518
-21.893
11.731
57.078
113.897
180.881
253.719
326.347
394.847
455.576
506.443
549.048
578.808
586.746
565.835
507.776
415.04
301.29
179.295
62.818
-40.422
-130.345
-205.311
-263.933
-304.753
-325.319
-326.229
-309.994
-280.023
-241.537
-199.679
-158.842
-122.816
-93.692
-72.493
-60.16
-56.601
-60.339
-69.321
-80.925
-92.568
-102.931
-111.178
-116.261
-117.782
-115.992
-111.487
-105.601
-99.795
-94.708
-90.675
-88.062
-86.882
-87.071
-88.487
-90.539
-92.541
-94.156
-95.208
-95.635
-95.53
-94.9
-93.719
-92.09
-90.138
-87.954
-85.609
-83.116
-80.456
-77.656
-74.77
-71.863
-69.011
-66.255
-63.612
-61.094
-58.705
-56.452
-54.34
-52.362
-50.5
-48.744
-47.085
-45.523
-44.06
-42.686
-41.386
-40.141
-38.932
-37.743
-36.567
-35.393
-34.214
-33.023
-31.815
-30.588
-29.341
-28.071
-26.774
-25.444
-24.078
-22.672
-21.224
-19.732
-18.197
-16.617
-14.994
-13.329
-11.625
-9.884
-8.108
-6.299
-4.462
-2.601
-0.719
1.178
3.085
4.994
6.899
8.793
10.667
12.514
14.325
16.091
17.805
19.457
21.041
22.547
23.97
25.301
26.535
27.665
28.687
29.595
30.386
31.055
31.6
32.019
32.308
32.468
32.498
32.396
32.165
31.804
31.314
30.699
29.961
29.103
28.129
27.044
25.852
24.561
23.175
21.702
20.15
18.525
16.836
15.092
13.3
11.469
9.607
7.723
5.825
3.92
2.017
0.121
-1.759
-3.616
-5.446
-7.24
-8.995
-10.703
-12.36
-13.962
-15.505
-16.983
-18.396
-19.74
-21.012
-22.212
-23.338
-24.389
-25.366
-26.268
-27.097
-27.853
-28.539
-29.157
-29.709
-30.199
-30.63
-31.005
-31.328
-31.602
-31.83
-32.016
-32.162
-32.272
-32.348
-32.393
-32.408
-32.396
-32.358
-32.296
-32.209
-32.098
-31.962
-31.799
-31.608
-31.386
-31.13
-30.837
-30.503
-30.126
-29.701
-29.224
-28.692
-28.1
-27.442
-26.715
-25.914
-25.033
-24.069
-23.017
-21.872
-20.633
-19.296
-17.858
-16.317
-14.672
-12.922
-11.066
-9.107
-7.044
-4.881
-2.621
-0.27
2.164
4.674
7.248
9.876
12.543
15.235
17.937
20.633
23.306
25.94
28.517
31.021
33.435
35.745
37.933
39.983
41.877
43.598
45.13
46.458
47.566
48.436
49.054
49.405
49.483
49.284
48.8
48.02
46.929
45.517
43.785
41.741
39.392
36.752
33.837
30.68
27.334
23.857
20.305
16.718
13.122
9.545
6.026
2.611
-0.647
-3.707
-6.558
-9.193
-11.596
-13.763
-15.711
-17.494
-19.234
-21.062
-23.08
-25.362
-27.945
-30.843
-34.1
-37.771
-41.914
-46.577
-51.76
-57.405
-63.503
-70.065
-76.957
-83.901
-90.387
-95.716
-99.297
-100.729
-99.724
-96.073
-89.854
-81.356
-71.239
-60.607
-50.521
-41.843
-34.983
-29.833
-25.695
-21.487
-15.678
-6.192
8.998
32.254
65.444
109.214
163.467
225.697
290.919
354.403
411.593
461.651
508.351
552.737
592.84
617.382
607.457
550.143
438.84
285.349
117.502
-36.851
-149.904
-211.207
-229.046
-217.953
-198.549
-182.239
-169.144
-156.299
-138.071
-114.07
-88.558
-65.495
-48.715
-39.712
-38.131
-43.039
-52.357
-63.52
-74.386
-83.65
-90.897
-95.863
-98.009
-97.16
-93.697
-88.673
-83.528
-79.087
-75.566
-73.058
-71.682
-71.528
-72.598
-74.563
-76.792
-78.846
-80.511
-81.698
-82.429
-82.688
-82.42
-81.633
-80.414
-78.849
-77.011
-74.935
-72.611
-70.044
-67.264
-64.318
-61.273
-58.191
-55.13
-52.129
-49.213
-46.405
-43.721
-41.178
-38.781
-36.522
-34.385
-32.364
-30.455
-28.658
-26.97
-25.378
-23.863
-22.41
-21.003
-19.634
-18.292
-16.969
-15.653
-14.337
-13.015
-11.683
-10.339
-8.979
-7.594
-6.18
-4.731
-3.243
-1.714
-0.141
1.48
3.151
4.873
6.646
8.47
10.345
12.268
14.239
16.253
18.305
20.391
22.505
24.638
26.784
28.932
31.076
33.206
35.313
37.39
39.427
41.414
43.341
45.2
46.98
48.673
50.269
51.761
53.14
54.4
55.536
56.544
57.419
58.153
58.742
59.18
59.466
59.598
59.578
59.404
59.076
58.598
57.974
57.207
56.304
55.265
54.093
52.79
51.361
49.816
48.167
46.417
44.563
42.599
40.512
38.302
35.975
33.53
30.971
28.302
25.532
22.688
19.8
16.895
13.989
11.079
8.166
5.271
2.436
-0.253
-2.693
-4.823
-6.613
-8.072
-9.246
-10.12
-10.69
-11.104
-11.49
-11.948
-12.479
-12.72
-12.254
-11.045
-9.161
-6.69
-3.919
-1.064
1.353
1.952
-0.628
-6.026
-12.721
-19.453
-25.439
-33.942
-50.34
-74.746
-103.203
-125.758
-128.413
-106.596
-63.703
-9.481
39.421
73.732
90.591
90.51
81.661
69.369
56.582
46.507
36.847
26.391
15.52
3.735
-6.567
-13.85
-18.646
-21.307
-23.084
-24.968
-26.88
-28.917
-31.394
-34.32
-37.571
-40.779
-43.241
-44.555
-44.648
-43.507
-41.197
-37.809
-33.435
-28.269
-22.601
-16.634
-10.485
-4.223
2.144
8.556
14.899
21.049
26.861
32.224
37.064
41.325
44.971
48.015
50.505
52.517
54.163
55.515
56.608
57.463
58.069
58.425
58.539
58.421
58.088
57.558
56.851
55.98
54.959
53.777
52.398
50.779
48.866
46.619
44.024
41.079
37.802
34.231
30.418
26.418
22.291
18.08
13.811
9.522
5.248
1.036
-3.046
-6.95
-10.635
-14.056
-17.176
-19.99
-22.519
-24.831
-27.034
-29.205
-31.394
-33.652
-36.026
-38.587
-41.415
-44.59
-48.159
-52.178
-56.76
-61.912
-67.517
-73.303
-78.754
-83.336
-86.662
-88.274
-87.66
-84.747
-79.763
-73.32
-66.699
-60.907
-56.505
-54.294
-54.884
-57.944
-62.6
-67.036
-68.316
-64.091
-52.211
-30.174
3.834
50.78
109.389
176.726
250.257
326.361
403.328
478.861
543.987
591.454
613.525
603.855
568.552
513.572
443.587
362.776
267.051
156.841
41.138
-65.321
-144.639
-187.429
-196.983
-186.103
-168.917
-154.003
-142.946
-132.459
-120.77
-108.656
-98.128
-92.027
-91.008
-93.761
-98.787
-104.007
-107.631
-109.038
-108.043
-104.838
-100.117
-94.507
-88.536
-82.875
-78.129
-74.591
-72.36
-71.35
-71.305
-72.018
-73.328
-75.046
-76.996
-79.027
-80.994
-82.773
-84.265
-85.386
-86.076
-86.298
-86.034
-85.285
-84.073
-82.439
-80.441
-78.132
-75.562
-72.773
-69.804
-66.708
-63.545
-60.374
-57.26
-54.247
-51.365
-48.636
-46.075
-43.688
-41.47
-39.407
-37.478
-35.668
-33.963
-32.355
-30.835
-29.39
-28.005
-26.666
-25.358
-24.068
-22.784
-21.496
-20.194
-18.871
-17.523
-16.144
-14.735
-13.291
-11.808
-10.282
-8.708
-7.084
-5.406
-3.672
-1.88
-0.03
1.876
3.837
5.85
7.911
10.017
12.161
14.34
16.546
18.772
21.012
23.256
25.496
27.722
29.923
32.091
34.213
36.279
38.28
40.204
42.041
43.783
45.42
46.942
48.343
49.612
50.745
51.733
52.573
53.258
53.785
54.15
54.353
54.391
54.265
53.975
53.521
52.906
52.132
51.202
50.12
48.89
47.518
46.011
44.374
42.616
40.745
38.77
36.701
34.546
32.316
30.021
27.672
25.278
22.852
20.402
17.941
15.477
13.021
10.582
8.169
5.79
3.454
1.166
-1.067
-3.24
-5.346
-7.38
-9.34
-11.22
-13.016
-14.727
-16.349
-17.88
-19.32
-20.667
-21.923
-23.088
-24.162
-25.149
-26.05
-26.869
-27.609
-28.273
-28.867
-29.394
-29.861
-30.271
-30.631
-30.946
-31.221
-31.46
-31.668
-31.848
-32.003
-32.136
-32.249
-32.342
-32.418
-32.475
-32.516
-32.539
-32.544
-32.529
-32.494
-32.436
-32.353
-32.241
-32.098
-31.919
-31.7
-31.437
-31.124
-30.758
-30.333
-29.842
-29.281
-28.644
-27.924
-27.116
-26.213
-25.21
-24.103
-22.887
-21.559
-20.117
-18.56
-16.889
-15.103
-13.207
-11.204
-9.099
-6.897
-4.605
-2.231
0.215
2.723
5.283
7.882
10.506
13.137
15.76
18.356
20.908
23.397
25.804
28.109
30.294
32.346
34.247
35.982
37.534
38.883
40.013
40.909
41.559
41.952
42.076
41.924
41.495
40.793
39.823
38.587
37.079
35.289
33.211
30.849
28.209
25.303
22.144
18.752
15.158
11.41
7.554
3.63
-0.329
-4.304
-8.262
-12.154
-15.921
-19.492
-22.812
-25.837
-28.529
-30.862
-32.832
-34.454
-35.769
-36.845
-37.745
-38.539
-39.303
-40.116
-41.055
-42.187
-43.632
-45.58
-48.152
-51.341
-54.953
-58.568
-61.799
-64.422
-66.118
-66.336
-64.697
-61.22
-56.516
-51.95
-48.735
-47.268
-48.074
-52.17
-59.996
-71.353
-83.804
-92.114
-93.383
-86.948
-73.57
-56.474
-32.36
5.275
59.798
136.39
230.871
334.145
442.72
546.278
636.538
705.855
738.215
726.93
670.942
576.177
459.78
333.919
210.297
95.614
-9.479
-99.361
-173.164
-229.895
-267.678
-290.135
-297.431
-289.827
-269.951
-240.139
-205.777
-172.455
-143.228
-119.715
-102.029
-90.043
-84.273
-84.199
-88.122
-93.81
-99.087
-102.924
-105.199
-105.693
-103.862
-99.587
-93.342
-86.209
-79.656
-74.508
-70.905
-68.906
-68.578
-69.873
-72.667
-76.526
-80.681
-84.621
-88.121
-91.056
-93.432
-95.244
-96.402
-96.891
-96.782
-96.09
-94.849
-93.099
-90.854
-88.192
-85.221
-82.031
-78.74
-75.454
-72.239
-69.142
-66.183
-63.351
-60.652
-58.098
-55.695
-53.464
-51.407
-49.515
-47.774
-46.154
-44.624
-43.153
-41.704
-40.238
-38.731
-37.167
-35.54
-33.857
-32.121
-30.329
-28.48
-26.567
-24.586
-22.536
-20.415
-18.224
-15.963
-13.634
-11.244
-8.799
-6.305
-3.767
-1.191
1.423
4.069
6.744
9.439
12.147
14.861
17.573
20.271
22.944
25.58
28.168
30.698
33.159
35.54
37.831
40.023
42.106
44.071
45.91
47.615
49.18
50.596
51.858
52.961
53.899
54.669
55.268
55.693
55.943
56.017
55.917
55.643
55.197
54.582
53.801
52.86
51.761
50.512
49.118
47.586
45.924
44.142
42.248
40.25
38.159
35.985
33.736
31.423
29.056
26.644
24.197
21.725
19.238
16.746
14.257
11.781
9.327
6.903
4.516
2.175
-0.114
-2.345
-4.512
-6.608
-8.63
-10.573
-12.432
-14.204
-15.885
-17.475
-18.969
-20.369
-21.672
-22.879
-23.992
-25.01
-25.936
-26.772
-27.519
-28.182
-28.763
-29.266
-29.694
-30.053
-30.346
-30.579
-30.756
-30.883
-30.963
-31.002
-31.003
-30.971
-30.909
-30.82
-30.707
-30.572
-30.417
-30.245
-30.058
-29.855
-29.637
-29.405
-29.158
-28.895
-28.615
-28.314
-27.991
-27.641
-27.262
-26.849
-26.4
-25.909
-25.372
-24.784
-24.141
-23.437
-22.667
-21.825
-20.907
-19.907
-18.82
-17.645
-16.376
-15.012
-13.551
-11.993
-10.34
-8.592
-6.752
-4.823
-2.81
-0.718
1.447
3.676
5.961
8.292
10.658
13.043
15.433
17.81
20.159
22.462
24.702
26.86
28.92
30.866
32.686
34.365
35.887
37.234
38.389
39.338
40.065
40.558
40.807
40.799
40.53
40.003
39.221
38.184
36.89
35.326
33.484
31.366
28.972
26.309
23.394
20.244
16.892
13.386
9.772
6.094
2.391
-1.312
-4.983
-8.578
-12.052
-15.345
-18.405
-21.199
-23.684
-25.831
-27.656
-29.18
-30.459
-31.583
-32.601
-33.571
-34.59
-35.738
-37.118
-38.845
-40.98
-43.637
-47.01
-51.158
-56.007
-61.321
-66.554
-71.187
-74.872
-77.114
-77.35
-75.366
-71.272
-65.747
-60.244
-56.058
-54.024
-55.01
-59.703
-68.085
-79.342
-91.397
-100.844
-104.427
-99.073
-81.52
-49.218
-0.432
64.082
140.253
224.278
312.82
403.482
495.529
581.425
649.12
687.776
686.903
647.957
580.12
490.846
388.854
275.809
153.457
31.047
-81.595
-171.347
-231.991
-268.746
-288.367
-300.143
-308.197
-308.731
-300.087
-281.598
-255.002
-225.689
-196.198
-166.934
-138.555
-111.437
-86.913
-66.977
-52.226
-42.323
-37.374
-37.286
-41.601
-49.416
-58.714
-67.428
-74.562
-79.689
-82.558
-83.254
-81.888
-78.944
-75.66
-73.045
-71.551
-71.343
-72.23
-73.941
-76.337
-79.085
-81.603
-83.472
-84.424
-84.359
-83.402
-81.659
-79.197
-76.146
-72.662
-68.916
-65.058
-61.187
-57.35
-53.585
-49.919
-46.39
-43.036
-39.874
-36.933
-34.223
-31.742
-29.496
-27.479
-25.673
-24.054
-22.579
-21.2
-19.885
-18.609
-17.351
-16.102
-14.846
-13.569
-12.271
-10.947
-9.591
-8.198
-6.758
-5.26
-3.702
-2.078
-0.391
1.357
3.166
5.036
6.965
8.952
10.996
13.095
15.251
17.464
19.732
22.05
24.412
26.813
29.244
31.699
34.167
36.638
39.103
41.551
43.974
46.359
48.697
50.974
53.18
55.302
57.329
59.249
61.051
62.722
64.252
65.631
66.852
67.904
68.783
69.482
69.997
70.324
70.462
70.411
70.169
69.739
69.122
68.321
67.34
66.185
64.862
63.377
61.738
59.955
58.035
55.99
53.83
51.566
49.209
46.773
44.269
41.712
39.115
36.492
33.857
31.224
28.606
26.017
23.47
20.975
18.545
16.189
13.916
11.735
9.652
7.673
5.804
4.048
2.409
0.889
-0.511
-1.791
-2.95
-3.991
-4.916
-5.727
-6.428
-7.023
-7.517
-7.916
-8.225
-8.452
-8.604
-8.689
-8.714
-8.69
-8.623
-8.524
-8.401
-8.262
-8.114
-7.965
-7.822
-7.689
-7.571
-7.473
-7.397
-7.345
-7.318
-7.316
-7.338
-7.383
-7.447
-7.527
-7.619
-7.718
-7.817
-7.91
-7.991
-8.054
-8.091
-8.095
-8.058
-7.972
-7.83
-7.624
-7.345
-6.986
-6.539
-5.997
-5.353
-4.602
-3.74
-2.762
-1.666
-0.451
0.882
2.333
3.898
5.574
7.355
9.234
11.201
13.247
15.36
17.528
19.735
21.964
24.197
26.417
28.603
30.737
32.8
34.771
36.633
38.369
39.963
41.4
42.663
43.734
44.598
45.239
45.642
45.794
45.685
45.304
44.648
43.72
42.521
41.052
39.312
37.292
34.993
32.417
29.572
26.468
23.123
19.568
15.847
12.013
8.12
4.211
0.324
-3.51
-7.256
-10.872
-14.31
-17.524
-20.474
-23.117
-25.419
-27.351
-28.914
-30.155
-31.149
-31.993
-32.762
-33.496
-34.244
-35.071
-36.042
-37.249
-38.775
-40.635
-42.903
-45.71
-49.045
-52.802
-56.68
-60.083
-62.494
-63.541
-62.767
-59.861
-54.871
-48.027
-40.13
-32.505
-26.145
-21.834
-20.282
-21.494
-24.842
-29.239
-32.52
-31.891
-24.849
-9.047
17.512
55.974
106.391
167.635
237.276
310.389
381.474
446.87
501.626
543.258
570.647
576.986
559.503
517.442
449.711
363.945
264.314
152.721
36.533
-77.413
-174.917
-240.415
-268.909
-263.099
-236.153
-203.818
-174.362
-150.906
-131.563
-113.429
-96.453
-82.456
-73.994
-71.961
-75.814
-83.344
-91.046
-97.179
-101.296
-103.135
-103.077
-101.276
-97.323
-91.843
-86.302
-81.481
-77.818
-75.459
-74.023
-73.438
-73.992
-75.541
-77.615
-79.864
-81.915
-83.561
-84.884
-85.864
-86.387
-86.439
-86.024
-85.173
-83.991
-82.545
-80.846
-78.918
-76.782
-74.461
-72.014
-69.498
-66.968
-64.483
-62.077
-59.774
-57.593
-55.544
-53.639
-51.877
-50.241
-48.707
-47.257
-45.88
-44.569
-43.319
-42.111
-40.924
-39.743
-38.552
-37.341
-36.101
-34.82
-33.49
-32.104
-30.659
-29.154
-27.59
-25.967
-24.281
-22.533
-20.721
-18.845
-16.908
-14.91
-12.851
-10.735
-8.566
-6.348
-4.086
-1.787
0.543
2.898
5.268
7.646
10.024
12.392
14.741
17.061
19.342
21.574
23.747
25.851
27.876
29.812
31.651
33.382
34.999
36.494
37.86
39.091
40.182
41.128
41.924
42.567
43.054
43.383
43.551
43.558
43.402
43.084
42.604
41.965
41.168
40.217
39.115
37.867
36.478
34.953
33.299
31.523
29.633
27.637
25.544
23.364
21.105
18.777
16.391
13.957
11.484
8.981
6.459
3.925
1.39
-1.14
-3.655
-6.147
-8.61
-11.036
-13.417
-15.747
-18.019
-20.228
-22.367
-24.432
-26.417
-28.319
-30.133
-31.857
-33.487
-35.023
-36.462
-37.805
-39.053
-40.206
-41.267
-42.239
-43.125
-43.93
-44.657
-45.311
-45.896
-46.418
-46.881
-47.288
-47.645
-47.954
-48.219
-48.443
-48.629
-48.778
-48.893
-48.975
-49.025
-49.043
-49.031
-48.989
-48.916
-48.814
-48.68
-48.515
-48.317
-48.084
-47.813
-47.502
-47.145
-46.738
-46.276
-45.753
-45.163
-44.499
-43.752
-42.918
-41.989
-40.958
-39.82
-38.57
-37.201
-35.712
-34.099
-32.362
-30.499
-28.512
-26.402
-24.174
-21.833
-19.383
-16.831
-14.185
-11.451
-8.638
-5.757
-2.816
0.172
3.196
6.241
9.289
12.323
15.323
18.271
21.144
23.923
26.586
29.113
31.488
33.694
35.711
37.52
39.102
40.442
41.527
42.345
42.887
43.144
43.11
42.788
42.18
41.29
40.115
38.647
36.874
34.788
32.392
29.692
26.696
23.416
19.867
16.08
12.101
7.973
3.74
-0.563
-4.901
-9.223
-13.463
-17.548
-21.401
-24.961
-28.185
-31.044
-33.517
-35.601
-37.304
-38.648
-39.702
-40.553
-41.3
-42.052
-42.918
-44.002
-45.468
-47.555
-50.381
-53.914
-57.946
-62.052
-65.832
-69.034
-71.332
-72.251
-71.592
-69.573
-66.863
-64.734
-64.356
-66.292
-70.98
-78.9
-89.921
-103.058
-116.426
-126.983
-131.556
-127.863
-113.756
-87.001
-46.196
8.913
77.162
155.552
240.092
326.929
411.576
488.56
552.417
598.024
621.077
620.165
596.573
551.706
488.387
407.193
305.796
187.78
60.405
-62.256
-158.892
-218.114
-237.706
-224.372
-196.033
-164.915
-136.494
-113.375
-92.157
-71.91
-54.577
-41.016
-32.906
-31.214
-37.848
-55.816
-84.942
-120.347
-150.898
-164.191
-154.912
-127.145
-93.412
-66.665
-53.072
-51.225
-54.344
-57.005
-57.479
-56.498
-56.207
-57.173
-58.735
-60.461
-61.951
-63.234
-64.528
-65.723
-66.686
-67.449
-68.021
-68.385
-68.475
-68.168
-67.409
-66.24
-64.734
-62.955
-60.943
-58.723
-56.341
-53.856
-51.336
-48.847
-46.433
-44.122
-41.937
-39.893
-37.997
-36.251
-34.642
-33.149
-31.75
-30.424
-29.155
-27.933
-26.741
-25.564
-24.386
-23.191
-21.966
-20.699
-19.381
-18.002
-16.557
-15.041
-13.45
-11.785
-10.044
-8.225
-6.327
-4.346
-2.281
-0.13
2.109
4.434
6.846
9.342
11.918
14.569
17.29
20.073
22.91
25.794
28.714
31.66
34.621
37.587
40.544
43.481
46.386
49.246
52.049
54.784
57.438
60.002
62.464
64.815
67.045
69.146
71.109
72.926
74.591
76.097
77.437
78.606
79.6
80.414
81.044
81.491
81.751
81.824
81.713
81.418
80.941
80.288
79.462
78.469
77.315
76.007
74.553
72.962
71.242
69.403
67.454
65.406
63.267
61.05
58.762
56.415
54.017
51.58
49.111
46.621
44.119
41.614
39.114
36.629
34.166
31.733
29.337
26.984
24.682
22.435
20.249
18.128
16.076
14.096
12.191
10.362
8.611
6.938
5.343
3.824
2.381
1.012
-0.285
-1.514
-2.677
-3.776
-4.816
-5.8
-6.73
-7.612
-8.447
-9.24
-9.994
-10.71
-11.392
-12.042
-12.661
-13.251
-13.812
-14.345
-14.849
-15.324
-15.769
-16.183
-16.563
-16.906
-17.209
-17.47
-17.683
-17.843
-17.947
-17.988
-17.961
-17.86
-17.68
-17.414
-17.056
-16.6
-16.041
-15.371
-14.586
-13.679
-12.647
-11.485
-10.191
-8.762
-7.197
-5.495
-3.658
-1.687
0.413
2.637
4.982
7.439
9.999
12.654
15.393
18.203
21.072
23.985
26.924
29.872
32.81
35.718
38.577
41.367
44.067
46.657
49.12
51.439
53.597
55.574
57.35
58.905
60.222
61.284
62.077
62.587
62.802
62.713
62.321
61.626
60.624
59.309
57.663
55.677
53.352
50.69
47.702
44.406
40.823
36.985
32.946
28.753
24.452
20.079
15.657
11.221
6.821
2.516
-1.622
-5.534
-9.183
-12.53
-15.544
-18.238
-20.639
-22.808
-24.847
-26.813
-28.761
-30.779
-32.928
-35.301
-38.021
-41.151
-44.814
-49.195
-54.305
-60.054
-66.221
-72.286
-77.799
-82.504
-85.936
-87.601
-87.451
-85.607
-82.671
-79.95
-78.246
-77.811
-79.098
-82.392
-87.27
-93.009
-97.847
-98.725
-93.479
-80.751
-58.707
-25.779
18.908
76.08
143.118
213.897
284.442
351.206
414.616
480.292
546.727
608.434
654.131
663.887
628.839
548.079
426.891
286.117
142.739
12.069
-87.375
-151.634
-181.669
-184.139
-176.344
-167.703
-161.504
-157.53
-149.413
-135.704
-119.683
-104.441
-93.696
-88.548
-87.532
-89.347
-92.608
-95.908
-98.121
-98.582
-97.202
-94.313
-90.519
-86.351
-82.184
-78.503
-75.843
-74.467
-74.397
-75.484
-77.415
-79.937
-82.893
-86.07
-89.252
-92.256
-94.892
-97.056
-98.719
-99.853
-100.442
-100.485
-99.973
-98.928
-97.416
-95.492
-93.219
-90.654
-87.841
-84.835
-81.704
-78.515
-75.342
-72.236
-69.229
-66.344
-63.598
-61
-58.56
-56.272
-54.118
-52.082
-50.155
-48.326
-46.592
-44.943
-43.363
-41.838
-40.353
-38.898
-37.464
-36.04
-34.618
-33.188
-31.745
-30.285
-28.804
-27.299
-25.763
-24.188
-22.57
-20.901
-19.178
-17.394
-15.544
-13.627
-11.639
-9.581
-7.454
-5.259
-2.997
-0.673
1.71
4.147
6.631
9.158
11.718
14.303
16.905
19.512
22.115
24.701
27.259
29.777
32.242
34.643
36.967
39.203
41.339
43.364
45.265
47.033
48.657
50.128
51.435
52.57
53.526
54.295
54.872
55.253
55.433
55.412
55.186
54.757
54.125
53.292
52.261
51.035
49.621
48.024
46.252
44.312
42.216
39.972
37.592
35.088
32.471
29.754
26.95
24.071
21.131
18.143
15.121
12.077
9.027
5.982
2.957
-0.036
-2.985
-5.877
-8.702
-11.449
-14.108
-16.671
-19.13
-21.476
-23.705
-25.81
-27.787
-29.633
-31.345
-32.921
-34.362
-35.67
-36.845
-37.89
-38.811
-39.61
-40.294
-40.867
-41.336
-41.707
-41.988
-42.186
-42.308
-42.363
-42.359
-42.305
-42.208
-42.076
-41.918
-41.739
-41.546
-41.346
-41.143
-40.941
-40.746
-40.56
-40.385
-40.224
-40.076
-39.943
-39.822
-39.712
-39.608
-39.507
-39.403
-39.291
-39.163
-39.013
-38.835
-38.62
-38.36
-38.047
-37.673
-37.231
-36.711
-36.104
-35.403
-34.601
-33.689
-32.663
-31.518
-30.248
-28.851
-27.326
-25.673
-23.892
-21.985
-19.956
-17.809
-15.55
-13.188
-10.732
-8.193
-5.583
-2.918
-0.216
2.505
5.224
7.921
10.575
13.164
15.666
18.059
20.324
22.444
24.398
26.168
27.732
29.069
30.161
30.99
31.543
31.804
31.763
31.411
30.751
29.782
28.505
26.914
24.995
22.742
20.155
17.239
14.003
10.466
6.651
2.594
-1.65
-6.03
-10.497
-15.009
-19.538
-24.046
-28.483
-32.79
-36.898
-40.747
-44.297
-47.503
-50.328
-52.777
-54.87
-56.661
-58.243
-59.67
-60.995
-62.304
-63.663
-65.159
-66.915
-69
-71.534
-74.706
-78.542
-82.961
-87.764
-92.456
-96.55
-99.755
-101.574
-101.447
-99.335
-95.401
-90.253
-85.283
-81.511
-79.414
-79.727
-83.001
-88.836
-96.377
-103.746
-107.653
-105.419
-95.013
-74.172
-40.901
5.936
66.288
138.562
218.248
299.326
377.884
450.429
514.605
571.352
615.994
639.263
634.46
593.181
515.563
414.224
298.797
180.131
69.351
-32.025
-118.194
-181.806
-225.408
-249.41
-256.345
-253.085
-239.337
-216.072
-188.174
-158.858
-132.455
-112.259
-98.515
-91.213
-90.422
-95.188
-103.25
-111.739
-118.629
-122.984
-124.745
-124.097
-120.727
-114.612
-106.693
-98.486
-91.138
-85.172
-80.629
-77.34
-75.427
-75.018
-75.868
-77.45
-79.261
-80.975
-82.45
-83.671
-84.556
-84.988
-84.933
-84.414
-83.493
-82.24
-80.689
-78.851
-76.749
-74.42
-71.905
-69.256
-66.53
-63.781
-61.065
-58.435
-55.928
-53.57
-51.378
-49.362
-47.522
-45.847
-44.319
-42.914
-41.616
-40.413
-39.289
-38.225
-37.201
-36.197
-35.197
-34.187
-33.151
-32.079
-30.957
-29.778
-28.534
-27.221
-25.835
-24.374
-22.834
-21.212
-19.504
-17.709
-15.826
-13.854
-11.793
-9.644
-7.41
-5.096
-2.706
-0.249
2.27
4.842
7.457
10.105
12.775
15.458
18.14
20.81
23.455
26.065
28.626
31.127
33.557
35.903
38.156
40.303
42.334
44.241
46.012
47.64
49.116
50.431
51.581
52.557
53.356
53.973
54.405
54.651
54.708
54.578
54.263
53.764
53.086
52.233
51.213
50.03
48.694
47.212
45.593
43.848
41.986
40.017
37.953
35.805
33.583
31.299
28.964
26.591
24.191
21.775
19.355
16.943
14.55
12.188
9.866
7.597
5.389
3.252
1.194
-0.777
-2.653
-4.429
-6.099
-7.659
-9.105
-10.434
-11.645
-12.737
-13.708
-14.561
-15.297
-15.917
-16.425
-16.823
-17.116
-17.307
-17.402
-17.405
-17.321
-17.158
-16.92
-16.614
-16.248
-15.827
-15.36
-14.854
-14.315
-13.749
-13.165
-12.566
-11.96
-11.35
-10.742
-10.139
-9.544
-8.961
-8.39
-7.834
-7.293
-6.765
-6.251
-5.749
-5.256
-4.768
-4.283
-3.797
-3.305
-2.804
-2.287
-1.751
-1.19
-0.599
0.028
0.697
1.413
2.183
3.013
3.906
4.867
5.901
7.011
8.198
9.466
10.813
12.24
13.745
15.326
16.979
18.7
20.483
22.32
24.203
26.123
28.069
30.026
31.981
33.919
35.825
37.682
39.475
41.185
42.798
44.298
45.672
46.905
47.983
48.888
49.607
50.125
50.428
50.503
50.339
49.926
49.258
48.339
47.168
45.748
44.078
42.149
39.961
37.517
34.82
31.878
28.705
25.321
21.764
18.082
14.321
10.526
6.731
2.958
-0.756
-4.379
-7.868
-11.172
-14.256
-17.091
-19.638
-21.86
-23.751
-25.332
-26.663
-27.842
-28.939
-29.996
-31.06
-32.18
-33.428
-34.887
-36.641
-38.738
-41.241
-44.277
-47.879
-51.97
-56.319
-60.418
-63.712
-65.771
-66.085
-64.127
-59.833
-53.416
-45.488
-37.427
-30.432
-25.342
-23.266
-24.962
-30.064
-37.633
-45.76
-51.163
-51.01
-42.771
-23.344
9.543
56.582
117.396
189.815
269.635
352.464
433.211
505.539
563.591
602.564
618.405
608.499
572.598
511.875
430.32
335.135
232.168
126.408
21.527
-81.514
-177.474
-258.616
-316.707
-341.027
-328.912
-285.605
-222.671
-159.721
-111.212
-84.102
-76.935
-79.441
-84.233
-86.619
-86.012
-86.243
-87.866
-91.112
-95.574
-98.54
-98.918
-96.277
-90.439
-82.907
-75.5
-69.037
-63.904
-60.139
-57.505
-56.165
-56.283
-57.57
-59.443
-61.388
-63.069
-64.335
-65.23
-65.711
-65.68
-65.124
-64.085
-62.643
-60.89
-58.881
-56.624
-54.131
-51.437
-48.585
-45.642
-42.677
-39.745
-36.901
-34.179
-31.601
-29.185
-26.94
-24.873
-22.978
-21.237
-19.627
-18.133
-16.747
-15.46
-14.259
-13.123
-12.031
-10.963
-9.905
-8.843
-7.767
-6.665
-5.525
-4.34
-3.105
-1.816
-0.472
0.933
2.404
3.944
5.558
7.248
9.013
10.856
12.777
14.774
16.845
18.985
21.19
23.455
25.772
28.137
30.54
32.974
35.431
37.901
40.374
42.84
45.288
47.706
50.084
52.409
54.67
56.855
58.952
60.951
62.84
64.61
66.249
67.75
69.102
70.298
71.33
72.192
72.878
73.384
73.706
73.841
73.788
73.547
73.117
72.5
71.699
70.716
69.556
68.222
66.72
65.058
63.241
61.278
59.178
56.951
54.605
52.153
49.604
46.971
44.264
41.495
38.677
35.822
32.941
30.046
27.149
24.261
21.394
18.557
15.761
13.014
10.325
7.702
5.152
2.681
0.296
-1.998
-4.197
-6.296
-8.293
-10.185
-11.97
-13.647
-15.218
-16.682
-18.041
-19.297
-20.453
-21.514
-22.482
-23.362
-24.16
-24.879
-25.527
-26.109
-26.63
-27.096
-27.514
-27.888
-28.224
-28.525
-28.797
-29.043
-29.264
-29.465
-29.647
-29.811
-29.959
-30.091
-30.207
-30.307
-30.39
-30.453
-30.494
-30.51
-30.496
-30.449
-30.364
-30.236
-30.06
-29.83
-29.539
-29.183
-28.756
-28.252
-27.663
-26.986
-26.214
-25.343
-24.37
-23.291
-22.105
-20.809
-19.405
-17.894
-16.279
-14.562
-12.748
-10.842
-8.851
-6.782
-4.644
-2.445
-0.198
2.086
4.391
6.7
8.998
11.266
13.486
15.641
17.711
19.678
21.529
23.247
24.817
26.224
27.45
28.478
29.293
29.883
30.236
30.339
30.184
29.767
29.089
28.154
26.961
25.507
23.779
21.771
19.484
16.92
14.086
11
7.682
4.167
0.506
-3.25
-7.054
-10.864
-14.651
-18.38
-22.001
-25.46
-28.694
-31.648
-34.289
-36.577
-38.482
-40.016
-41.206
-42.115
-42.848
-43.475
-44.069
-44.733
-45.546
-46.609
-48.052
-49.945
-52.402
-55.602
-59.556
-64.184
-69.292
-74.394
-79.043
-82.952
-85.605
-86.444
-85.368
-82.463
-78.286
-74.116
-70.822
-68.821
-68.831
-71.405
-76.278
-82.76
-89.034
-91.918
-88.97
-78.367
-57.743
-25.084
20.747
80.435
151.417
227.836
305.303
379.138
447.776
514.087
575.412
627.588
662.253
663.041
622.716
538.688
413.018
264.609
111.409
-27.744
-130.337
-191.209
-213.665
-207.739
-193.09
-179.7
-169.995
-162.934
-152.689
-138.663
-124.023
-111.51
-104.222
-102.498
-104.472
-108.543
-112.731
-115.22
-115.348
-112.922
-108.149
-101.768
-94.472
-86.809
-79.475
-73.15
-68.186
-64.715
-62.667
-61.768
-61.799
-62.589
-63.933
-65.634
-67.517
-69.414
-71.184
-72.716
-73.914
-74.71
-75.059
-74.937
-74.342
-73.289
-71.817
-69.982
-67.837
-65.431
-62.807
-60.006
-57.08
-54.093
-51.109
-48.194
-45.396
-42.741
-40.251
-37.939
-35.805
-33.843
-32.033
-30.348
-28.768
-27.276
-25.859
-24.507
-23.202
-21.927
-20.666
-19.401
-18.119
-16.809
-15.459
-14.06
-12.606
-11.092
-9.518
-7.884
-6.187
-4.426
-2.598
-0.701
1.267
3.306
5.417
7.601
9.855
12.177
14.561
17.002
19.493
22.027
24.595
27.187
29.795
32.406
35.01
37.596
40.15
42.661
45.117
47.505
49.813
52.03
54.143
56.143
58.019
59.761
61.361
62.81
64.102
65.23
66.187
66.968
67.569
67.987
68.217
68.259
68.109
67.77
67.242
66.526
65.626
64.547
63.293
61.871
60.288
58.551
56.671
54.655
52.515
50.262
47.905
45.457
42.93
40.334
37.681
34.983
32.25
29.494
26.724
23.951
21.185
18.434
15.707
13.011
10.356
7.747
5.192
2.696
0.264
-2.097
-4.386
-6.597
-8.728
-10.777
-12.743
-14.625
-16.424
-18.141
-19.778
-21.337
-22.821
-24.233
-25.578
-26.86
-28.082
-29.25
-30.367
-31.439
-32.47
-33.464
-34.424
-35.355
-36.26
-37.14
-37.997
-38.834
-39.65
-40.447
-41.223
-41.979
-42.711
-43.42
-44.102
-44.755
-45.374
-45.957
-46.498
-46.992
-47.433
-47.815
-48.13
-48.372
-48.532
-48.603
-48.577
-48.448
-48.207
-47.846
-47.359
-46.739
-45.98
-45.076
-44.022
-42.813
-41.447
-39.921
-38.235
-36.391
-34.387
-32.228
-29.918
-27.46
-24.863
-22.133
-19.279
-16.31
-13.237
-10.073
-6.832
-3.529
-0.178
3.201
6.589
9.965
13.307
16.594
19.803
22.913
25.9
28.743
31.424
33.923
36.224
38.309
40.157
41.751
43.075
44.116
44.86
45.298
45.419
45.219
44.701
43.866
42.719
41.256
39.468
37.35
34.903
32.133
29.051
25.676
22.031
18.15
14.086
9.89
5.611
1.29
-3.048
-7.366
-11.622
-15.762
-19.721
-23.444
-26.896
-30.034
-32.827
-35.28
-37.41
-39.276
-40.973
-42.559
-44.092
-45.646
-47.278
-49.074
-51.136
-53.53
-56.362
-59.786
-63.849
-68.502
-73.558
-78.56
-83.017
-86.517
-88.567
-88.653
-86.574
-82.45
-76.839
-70.964
-66.078
-63.076
-62.775
-65.783
-72.031
-80.715
-90.137
-97.358
-99.172
-92.744
-75.413
-45.229
-0.956
57.727
129.391
211.039
297.564
381.873
458.647
524.201
576.537
617.173
642.54
644.828
617.986
555.321
460.331
346.372
225.677
111.679
12.039
-73.035
-142.021
-194.357
-229.819
-246.267
-243.954
-225.744
-195.613
-159.291
-122.503
-89.321
-62.294
-43.043
-32.749
-31.558
-38.383
-50.936
-65.936
-80.438
-92.829
-102.137
-107.462
-108.454
-105.316
-98.805
-90.552
-82.278
-74.875
-68.837
-64.551
-62.093
-61.458
-62.521
-64.727
-67.388
-70.092
-72.57
-74.655
-76.339
-77.571
-78.286
-78.524
-78.354
-77.824
-76.978
-75.833
-74.373
-72.616
-70.597
-68.355
-65.956
-63.461
-60.926
-58.408
-55.945
-53.566
-51.294
-49.144
-47.124
-45.231
-43.456
-41.785
-40.209
-38.721
-37.312
-35.966
-34.666
-33.393
-32.131
-30.869
-29.595
-28.299
-26.973
-25.608
-24.202
-22.749
-21.249
-19.701
-18.101
-16.446
-14.733
-12.959
-11.122
-9.22
-7.251
-5.213
-3.108
-0.935
1.302
3.599
5.952
8.355
10.802
13.284
15.794
18.324
20.863
23.401
25.929
28.435
30.91
33.341
35.72
38.034
40.275
42.431
44.495
46.457
48.31
50.045
51.655
53.132
54.471
55.665
56.708
57.595
58.32
58.88
59.272
59.493
59.543
59.422
59.131
58.672
58.048
57.263
56.324
55.235
54.003
52.637
51.144
49.532
47.812
45.993
44.085
42.097
40.04
37.922
35.755
33.547
31.307
29.046
26.772
24.495
22.223
19.966
17.732
15.53
13.368
11.254
9.195
7.198
5.269
3.415
1.639
-0.055
-1.663
-3.183
-4.614
-5.956
-7.208
-8.372
-9.451
-10.446
-11.36
-12.198
-12.963
-13.659
-14.29
-14.861
-15.376
-15.84
-16.257
-16.632
-16.969
-17.272
-17.546
-17.795
-18.022
-18.232
-18.429
-18.615
-18.795
-18.97
-19.143
-19.317
-19.493
-19.67
-19.85
-20.03
-20.209
-20.385
-20.553
-20.709
-20.848
-20.963
-21.05
-21.102
-21.112
-21.073
-20.977
-20.819
-20.59
-20.285
-19.896
-19.417
-18.843
-18.167
-17.387
-16.496
-15.493
-14.374
-13.137
-11.78
-10.302
-8.704
-6.984
-5.145
-3.191
-1.124
1.049
3.322
5.685
8.126
10.634
13.195
15.792
18.411
21.034
23.643
26.221
28.747
31.205
33.575
35.837
37.974
39.963
41.787
43.425
44.862
46.081
47.064
47.796
48.26
48.447
48.347
47.953
47.255
46.237
44.892
43.218
41.219
38.906
36.291
33.388
30.223
26.835
23.268
19.573
15.796
11.97
8.13
4.313
0.565
-3.059
-6.518
-9.785
-12.847
-15.698
-18.334
-20.758
-23.005
-25.147
-27.272
-29.483
-31.863
-34.469
-37.351
-40.543
-44.083
-48.026
-52.41
-57.261
-62.583
-68.331
-74.466
-80.976
-87.705
-94.353
-100.482
-105.46
-108.66
-109.599
-107.9
-103.295
-95.867
-85.972
-74.25
-61.799
-49.876
-39.645
-31.784
-26.342
-22.55
-19.024
-14.141
-5.864
8.516
32.124
66.965
113.835
171.031
234.106
300.305
367.398
433.314
497.803
554.755
593.833
606.302
582.608
522.69
437.108
336.489
233.959
137.732
47.914
-33.555
-104.589
-162.622
-203.314
-225.697
-231.97
-225.241
-209.469
-188.649
-166.222
-145.415
-128.494
-116.315
-108.797
-105.233
-104.622
-105.8
-107.39
-108.014
-106.969
-104.241
-100.134
-95.19
-89.906
-84.682
-80.052
-76.569
-74.472
-73.751
-74.229
-75.594
-77.607
-80.102
-82.869
-85.687
-88.344
-90.653
-92.515
-93.911
-94.819
-95.235
-95.149
-94.552
-93.483
-92.007
-90.183
-88.073
-85.726
-83.18
-80.493
-77.727
-74.95
-72.231
-69.614
-67.124
-64.778
-62.585
-60.549
-58.674
-56.944
-55.334
-53.825
-52.401
-51.05
-49.765
-48.529
-47.324
-46.134
-44.94
-43.73
-42.491
-41.213
-39.884
-38.497
-37.046
-35.526
-33.937
-32.275
-30.538
-28.722
-26.823
-24.84
-22.773
-20.621
-18.385
-16.066
-13.669
-11.198
-8.659
-6.058
-3.404
-0.702
2.037
4.805
7.592
10.388
13.181
15.962
18.716
21.432
24.096
26.697
29.221
31.654
33.984
36.199
38.285
40.232
42.028
43.664
45.131
46.42
47.523
48.435
49.149
49.663
49.973
50.076
49.973
49.664
49.151
48.437
47.525
46.42
45.129
43.657
42.011
40.201
38.235
36.123
33.874
31.502
29.017
26.431
23.759
21.012
18.204
15.349
12.461
9.553
6.639
3.731
0.844
-2.012
-4.823
-7.58
-10.271
-12.886
-15.416
-17.854
-20.193
-22.425
-24.546
-26.552
-28.438
-30.203
-31.844
-33.36
-34.751
-36.017
-37.16
-38.182
-39.085
-39.874
-40.551
-41.123
-41.595
-41.971
-42.26
-42.467
-42.6
-42.666
-42.672
-42.627
-42.538
-42.412
-42.257
-42.08
-41.886
-41.683
-41.474
-41.265
-41.058
-40.856
-40.662
-40.475
-40.297
-40.127
-39.962
-39.802
-39.643
-39.481
-39.314
-39.135
-38.94
-38.722
-38.475
-38.192
-37.868
-37.495
-37.065
-36.571
-36.005
-35.361
-34.63
-33.806
-32.881
-31.848
-30.701
-29.434
-28.044
-26.525
-24.876
-23.095
-21.183
-19.142
-16.975
-14.686
-12.283
-9.771
-7.161
-4.464
-1.691
1.145
4.03
6.949
9.881
12.809
15.712
18.57
21.363
24.069
26.667
29.135
31.458
33.617
35.597
37.378
38.943
40.273
41.352
42.165
42.7
42.944
42.889
42.533
41.878
40.93
39.695
38.174
36.359
34.249
31.848
29.16
26.195
22.97
19.505
15.834
12.003
8.054
4.027
-0.044
-4.137
-8.221
-12.256
-16.198
-19.99
-23.578
-26.921
-29.961
-32.652
-34.993
-36.997
-38.705
-40.186
-41.458
-42.546
-43.515
-44.428
-45.367
-46.42
-47.61
-49.022
-50.865
-53.235
-56.116
-59.303
-62.251
-64.466
-65.67
-65.415
-63.163
-58.752
-52.343
-44.761
-37.671
-32.403
-29.892
-31.402
-37.972
-49.811
-65.216
-80.137
-89.897
-91.401
-85.888
-76.165
-62.138
-40.619
-1.924
64.192
160.844
285.609
425.183
560.183
672.689
745.62
771.321
750.714
689.385
597.455
481.987
348.66
204.81
60.771
-67.278
-165.714
-228.173
-258.201
-269.217
-271.658
-270.258
-264.06
-247.017
-218.651
-183.212
-145.963
-113.321
-88.026
-70.051
-59.901
-57.198
-60.526
-68.276
-77.999
-87.212
-94.898
-100.53
-103.29
-102.854
-99.389
-93.398
-86.174
-79.2
-73.144
-68.327
-65.061
-63.358
-63.184
-64.441
-66.603
-68.97
-71.123
-72.825
-73.964
-74.594
-74.718
-74.289
-73.364
-72.05
-70.436
-68.594
-66.553
-64.295
-61.832
-59.212
-56.498
-53.769
-51.098
-48.521
-46.06
-43.73
-41.538
-39.492
-37.594
-35.828
-34.172
-32.61
-31.135
-29.742
-28.425
-27.17
-25.955
-24.758
-23.559
-22.345
-21.106
-19.831
-18.511
-17.139
-15.709
-14.219
-12.669
-11.054
-9.369
-7.609
-5.771
-3.85
-1.846
0.243
2.416
4.673
7.011
9.427
11.916
14.472
17.09
19.763
22.482
25.241
28.03
30.838
33.658
36.476
39.283
42.066
44.814
47.515
50.156
52.726
55.211
57.601
59.882
62.045
64.078
65.969
67.71
69.289
70.699
71.93
72.975
73.828
74.483
74.936
75.184
75.225
75.058
74.684
74.105
73.322
72.342
71.167
69.805
68.261
66.545
64.663
62.627
60.445
58.129
55.691
53.142
50.494
47.761
44.956
42.091
39.18
36.236
33.274
30.306
27.345
24.406
21.5
18.64
15.838
13.104
10.449
7.883
5.413
3.048
0.793
-1.345
-3.362
-5.254
-7.019
-8.656
-10.164
-11.544
-12.796
-13.924
-14.931
-15.82
-16.596
-17.265
-17.83
-18.3
-18.68
-18.977
-19.198
-19.35
-19.442
-19.481
-19.474
-19.429
-19.354
-19.254
-19.138
-19.011
-18.878
-18.744
-18.614
-18.491
-18.377
-18.276
-18.186
-18.11
-18.046
-17.992
-17.945
-17.903
-17.862
-17.814
-17.756
-17.681
-17.584
-17.457
-17.295
-17.089
-16.833
-16.521
-16.145
-15.7
-15.178
-14.573
-13.88
-13.093
-12.209
-11.224
-10.135
-8.94
-7.637
-6.227
-4.712
-3.093
-1.372
0.446
2.355
4.348
6.418
8.554
10.745
12.979
15.241
17.515
19.784
22.032
24.241
26.394
28.472
30.459
32.34
34.099
35.723
37.199
38.509
39.641
40.582
41.318
41.836
42.127
42.179
41.987
41.551
40.872
39.949
38.781
37.357
35.673
33.736
31.547
29.115
26.455
23.587
20.553
17.408
14.207
11.003
7.836
4.733
1.733
-1.123
-3.79
-6.211
-8.355
-10.204
-11.726
-12.9
-13.728
-14.238
-14.521
-14.713
-14.926
-15.251
-15.751
-16.476
-17.516
-18.957
-20.897
-23.429
-26.561
-30.336
-34.859
-40.096
-45.898
-51.921
-57.519
-62.087
-65.184
-66.295
-65.052
-61.433
-55.591
-48.242
-40.602
-33.599
-28.057
-24.752
-23.781
-24.642
-26.333
-26.765
-23.294
-13.61
4.591
33.507
74.44
127.687
192.422
264.967
339.499
410.548
473.446
527.496
574.793
614.63
642.21
644.752
607.75
525.437
401.469
255.255
112.22
-10.129
-99.947
-159.289
-198.368
-223.138
-239.663
-248.624
-245.826
-231.168
-206.072
-174.27
-142.568
-115.156
-93.414
-77.76
-67.4
-61.842
-61.107
-64.119
-68.772
-73.154
-76.314
-78.017
-78.425
-77.476
-74.67
-70.048
-64.485
-59.097
-54.614
-51.238
-48.826
-47.282
-46.816
-47.526
-49.135
-51.09
-52.872
-54.226
-55.122
-55.622
-55.712
-55.321
-54.437
-53.147
-51.581
-49.836
-47.958
-45.941
-43.778
-41.508
-39.19
-36.899
-34.707
-32.651
-30.748
-29.011
-27.445
-26.053
-24.836
-23.776
-22.842
-22.013
-21.272
-20.607
-20.016
-19.484
-18.988
-18.506
-18.014
-17.498
-16.945
-16.344
-15.686
-14.96
-14.163
-13.291
-12.346
-11.326
-10.228
-9.049
-7.785
-6.436
-5
-3.48
-1.876
-0.19
1.573
3.409
5.312
7.275
9.29
11.351
13.447
15.571
17.712
19.859
22.002
24.13
26.23
28.291
30.3
32.247
34.12
35.907
37.597
39.182
40.65
41.995
43.207
44.28
45.206
45.98
46.596
47.05
47.338
47.457
47.404
47.178
46.778
46.205
45.461
44.547
43.466
42.223
40.824
39.273
37.579
35.748
33.789
31.711
29.524
27.238
24.864
22.414
19.898
17.329
14.717
12.073
9.409
6.735
4.061
1.397
-1.246
-3.861
-6.437
-8.967
-11.443
-13.855
-16.199
-18.466
-20.651
-22.748
-24.753
-26.661
-28.469
-30.175
-31.776
-33.274
-34.666
-35.954
-37.141
-38.229
-39.221
-40.121
-40.935
-41.667
-42.324
-42.911
-43.435
-43.902
-44.318
-44.689
-45.021
-45.319
-45.59
-45.837
-46.065
-46.28
-46.484
-46.681
-46.874
-47.066
-47.259
-47.453
-47.651
-47.853
-48.057
-48.264
-48.47
-48.675
-48.875
-49.065
-49.242
-49.398
-49.528
-49.626
-49.684
-49.694
-49.649
-49.54
-49.359
-49.099
-48.752
-48.311
-47.769
-47.119
-46.356
-45.475
-44.473
-43.347
-42.093
-40.711
-39.202
-37.566
-35.806
-33.926
-31.929
-29.82
-27.607
-25.298
-22.902
-20.428
-17.888
-15.297
-12.671
-10.027
-7.382
-4.756
-2.168
0.362
2.815
5.173
7.418
9.537
11.511
13.321
14.95
16.379
17.596
18.588
19.341
19.846
20.092
20.078
19.806
19.276
18.486
17.425
16.081
14.447
12.528
10.33
7.865
5.15
2.205
-0.934
-4.215
-7.593
-11.025
-14.478
-17.929
-21.334
-24.635
-27.769
-30.667
-33.283
-35.577
-37.52
-39.101
-40.327
-41.223
-41.847
-42.266
-42.548
-42.777
-43.024
-43.365
-43.906
-44.729
-45.972
-47.827
-50.316
-53.343
-56.696
-59.966
-62.803
-65.039
-66.3
-66.065
-64.267
-61.101
-57.171
-53.641
-51.198
-49.902
-50.052
-52.071
-55.675
-60.146
-63.887
-64.188
-59.089
-47.581
-28.407
-0.083
38.309
87.24
146.118
211.36
278.437
344.194
404.513
458.601
510.022
557.619
599.492
628.989
629.494
591.203
509.037
385.02
238.891
92.121
-33.506
-119.291
-163.884
-175.805
-170.121
-162.197
-157.516
-154.686
-148.325
-135.346
-118.051
-100.491
-86.996
-79.446
-76.978
-78.167
-81.473
-85.246
-88.055
-89.081
-88.03
-85.155
-81.072
-76.31
-71.282
-66.542
-62.719
-60.16
-58.97
-59.029
-60.023
-61.703
-63.905
-66.434
-69.084
-71.679
-74.042
-76.037
-77.615
-78.736
-79.37
-79.513
-79.149
-78.284
-76.966
-75.254
-73.21
-70.893
-68.351
-65.627
-62.775
-59.855
-56.931
-54.069
-51.309
-48.677
-46.194
-43.871
-41.717
-39.733
-37.905
-36.211
-34.634
-33.16
-31.778
-30.482
-29.256
-28.084
-26.951
-25.841
-24.742
-23.643
-22.533
-21.4
-20.237
-19.035
-17.791
-16.502
-15.162
-13.766
-12.308
-10.784
-9.188
-7.518
-5.771
-3.944
-2.037
-0.05
2.014
4.151
6.36
8.634
10.969
13.357
15.793
18.269
20.777
23.307
25.851
28.398
30.938
33.461
35.955
38.409
40.812
43.152
45.418
47.598
49.682
51.659
53.519
55.252
56.85
58.305
59.608
60.755
61.738
62.555
63.199
63.67
63.963
64.078
64.016
63.778
63.365
62.781
62.029
61.114
60.047
58.833
57.473
55.97
54.327
52.552
50.66
48.662
46.553
44.352
42.094
39.81
37.535
35.283
33.023
30.759
28.536
26.329
24.055
21.659
19.074
16.301
13.459
10.574
7.522
4.438
1.773
-0.38
-2.157
-3.503
-4.905
-5.443
-2.315
3.853
10.528
13.454
4.681
-15.202
-38.237
-56.431
-58.456
-43.724
-22.892
-4.214
3.381
-1.542
-10.983
-20.098
-25.645
-26.714
-26.47
-26.129
-25.294
-23.956
-21.853
-19.188
-16.505
-14.104
-12.218
-11.399
-12.545
-16.165
-21.945
-29.203
-37.269
-45.327
-52.758
-58.823
-62.132
-61.711
-57.561
-50.081
-40.15
-29.138
-17.919
-7.226
1.59
7.554
10.283
9.525
5.917
0.832
-4.937
-10.837
-16.038
-20.039
-22.419
-22.6
-20.814
-17.94
-14.446
-10.622
-6.732
-2.763
1.135
4.585
7.617
10.577
13.631
16.866
20.26
23.611
26.855
30.069
33.234
36.278
39.14
41.727
44.011
46.035
47.795
49.255
50.372
51.068
51.323
51.183
50.678
49.838
48.684
47.212
45.43
43.358
40.992
38.325
35.353
32.064
28.474
24.619
20.542
16.308
11.978
7.584
3.16
-1.264
-5.665
-9.999
-14.217
-18.269
-22.092
-25.628
-28.83
-31.656
-34.092
-36.154
-37.879
-39.332
-40.587
-41.711
-42.789
-43.896
-45.11
-46.537
-48.262
-50.415
-53.177
-56.586
-60.56
-64.896
-69.181
-73.02
-76.156
-78.15
-78.454
-76.959
-73.865
-69.811
-65.993
-63.228
-61.819
-62.291
-65.197
-70.293
-76.732
-82.693
-85.319
-82.454
-72.642
-53.985
-24.714
15.935
68.169
130.753
200.579
275.073
350.61
420.86
481.383
528.983
561.638
582.933
592.851
585.317
555.153
492.344
391.769
263.088
119.695
-16.67
-121.381
-185.693
-209.665
-203.363
-186.286
-168.915
-155.229
-145.151
-133.188
-118.569
-103.826
-91.124
-83.502
-81.497
-83.403
-87.622
-92.097
-95.03
-95.813
-94.349
-90.913
-86.16
-80.702
-75.062
-69.864
-65.732
-62.967
-61.623
-61.584
-62.563
-64.316
-66.673
-69.435
-72.401
-75.399
-78.256
-80.819
-83.015
-84.786
-86.083
-86.892
-87.19
-86.973
-86.28
-85.165
-83.683
-81.886
-79.819
-77.513
-75.02
-72.397
-69.712
-67.033
-64.406
-61.861
-59.421
-57.099
-54.905
-52.843
-50.897
-49.045
-47.268
-45.554
-43.894
-42.285
-40.713
-39.164
-37.625
-36.083
-34.529
-32.953
-31.348
-29.704
-28.018
-26.284
-24.503
-22.674
-20.797
-18.868
-16.885
-14.844
-12.745
-10.585
-8.364
-6.081
-3.737
-1.333
1.126
3.637
6.193
8.791
11.423
14.083
16.762
19.453
22.148
24.837
27.512
30.162
32.779
35.353
37.872
40.328
42.708
45.004
47.203
49.296
51.273
53.123
54.838
56.408
57.826
59.082
60.171
61.087
61.823
62.375
62.74
62.915
62.9
62.694
62.298
61.715
60.948
60.001
58.88
57.59
56.138
54.532
52.78
50.889
48.871
46.733
44.488
42.145
39.716
37.214
34.65
32.037
29.389
26.717
24.034
21.353
18.687
16.047
13.446
10.894
8.404
5.984
3.645
1.395
-0.757
-2.805
-4.744
-6.568
-8.273
-9.858
-11.321
-12.659
-13.875
-14.968
-15.94
-16.793
-17.531
-18.157
-18.676
-19.093
-19.414
-19.646
-19.795
-19.868
-19.873
-19.817
-19.709
-19.557
-19.367
-19.148
-18.909
-18.654
-18.393
-18.131
-17.874
-17.627
-17.396
-17.182
-16.989
-16.819
-16.673
-16.549
-16.448
-16.368
-16.305
-16.256
-16.218
-16.183
-16.148
-16.105
-16.047
-15.967
-15.858
-15.711
-15.518
-15.27
-14.96
-14.58
-14.121
-13.577
-12.938
-12.2
-11.355
-10.398
-9.326
-8.133
-6.814
-5.369
-3.801
-2.113
-0.311
1.604
3.63
5.761
7.977
10.275
12.662
15.143
17.722
20.384
23.08
25.788
28.52
31.234
33.841
36.265
38.428
40.303
41.962
43.415
44.55
45.444
46.423
47.546
48.694
49.899
50.782
52.002
55.687
61.399
67.165
69.774
63.144
47.565
29.149
13.966
10.642
19.825
33.353
44.92
47.757
40.652
29.764
18.919
10.712
5.984
2.292
-1.466
-5.147
-8.775
-11.926
-14.463
-16.687
-18.673
-20.362
-21.798
-23.062
-24.256
-25.474
-26.766
-28.171
-29.772
-31.696
-34.067
-37.001
-40.547
-44.778
-49.825
-55.682
-62.242
-69.282
-76.294
-82.783
-88.445
-92.805
-95.291
-95.76
-94.227
-91.011
-87.158
-83.434
-79.995
-77.34
-76.191
-76.323
-77.033
-77.308
-73.715
-63.244
-45.617
-19.004
16.301
57.488
106.102
161.907
224.669
298.198
381.478
470.807
559.189
632.526
676.275
679.567
637.714
555.122
444.011
317.481
188.964
71.17
-29.023
-105.147
-155.594
-186.269
-201.79
-207.949
-208.228
-200.819
-186.263
-166.97
-146.355
-129.133
-117.563
-111.599
-110.37
-112.273
-115.839
-119.548
-121.781
-121.668
-119.073
-114.404
-108.403
-101.717
-94.898
-88.58
-83.391
-79.673
-77.491
-76.687
-76.957
-78.052
-79.787
-81.963
-84.376
-86.843
-89.178
-91.224
-92.897
-94.134
-94.888
-95.144
-94.881
-94.099
-92.838
-91.158
-89.117
-86.775
-84.178
-81.363
-78.385
-75.308
-72.202
-69.141
-66.175
-63.334
-60.641
-58.109
-55.746
-53.552
-51.512
-49.598
-47.79
-46.073
-44.437
-42.876
-41.376
-39.92
-38.492
-37.077
-35.663
-34.239
-32.794
-31.319
-29.806
-28.249
-26.647
-24.999
-23.303
-21.555
-19.753
-17.893
-15.974
-13.994
-11.953
-9.852
-7.691
-5.475
-3.208
-0.897
1.451
3.83
6.231
8.647
11.068
13.486
15.892
18.277
20.631
22.946
25.21
27.416
29.552
31.609
33.576
35.444
37.203
38.843
40.355
41.731
42.962
44.042
44.964
45.722
46.311
46.727
46.967
47.029
46.912
46.616
46.143
45.495
44.676
43.689
42.54
41.235
39.779
38.179
36.442
34.575
32.586
30.484
28.276
25.973
23.582
21.115
18.582
15.993
13.359
10.691
8
5.297
2.594
-0.099
-2.77
-5.411
-8.01
-10.558
-13.047
-15.468
-17.813
-20.076
-22.25
-24.331
-26.313
-28.193
-29.966
-31.632
-33.187
-34.63
-35.961
-37.178
-38.284
-39.279
-40.164
-40.943
-41.618
-42.193
-42.673
-43.061
-43.365
-43.589
-43.74
-43.826
-43.852
-43.828
-43.759
-43.653
-43.518
-43.359
-43.184
-42.998
-42.807
-42.616
-42.429
-42.251
-42.083
-41.93
-41.792
-41.671
-41.568
-41.481
-41.409
-41.351
-41.305
-41.265
-41.227
-41.188
-41.141
-41.08
-41
-40.893
-40.753
-40.57
-40.339
-40.051
-39.697
-39.271
-38.763
-38.167
-37.477
-36.686
-35.789
-34.781
-33.66
-32.423
-31.069
-29.598
-28.01
-26.309
-24.496
-22.577
-20.559
-18.449
-16.258
-13.994
-11.672
-9.307
-6.917
-4.517
-2.127
0.234
2.548
4.794
6.952
9.007
10.941
12.738
14.379
15.845
17.118
18.182
19.02
19.617
19.957
20.029
19.828
19.352
18.601
17.574
16.266
14.666
12.772
10.585
8.109
5.352
2.329
-0.935
-4.398
-8.005
-11.704
-15.449
-19.205
-22.941
-26.618
-30.193
-33.618
-36.842
-39.837
-42.571
-45.006
-47.113
-48.896
-50.397
-51.697
-52.9
-54.076
-55.266
-56.52
-57.911
-59.53
-61.474
-63.833
-66.633
-69.919
-73.827
-78.36
-83.386
-88.6
-93.388
-97.152
-99.518
-100.018
-98.147
-93.892
-87.477
-79.556
-71.612
-64.805
-59.814
-57.591
-58.708
-62.653
-68.491
-74.32
-76.79
-73.128
-60.977
-37.488
-0.729
49.742
113.487
188.323
269.829
353.408
434.043
505.458
561.701
597.742
609.226
594.693
556.316
496.503
417.804
320.749
204.279
72.969
-62.262
-183.675
-272.916
-322.461
-336.029
-326.388
-307.708
-286.816
-264.19
-237.67
-206.567
-173.236
-141.877
-116.393
-98.489
-88.661
-86.429
-89.694
-96.216
-104.148
-111.518
-117.38
-121.37
-122.59
-120.652
-115.976
-109.241
-101.548
-94.196
-87.742
-82.391
-78.531
-76.237
-75.414
-75.908
-77.181
-78.563
-79.694
-80.388
-80.532
-80.166
-79.288
-77.861
-75.972
-73.745
-71.271
-68.622
-65.817
-62.843
-59.72
-56.499
-53.245
-50.033
-46.924
-43.948
-41.127
-38.472
-35.99
-33.688
-31.556
-29.575
-27.724
-25.982
-24.343
-22.799
-21.339
-19.948
-18.602
-17.279
-15.96
-14.632
-13.281
-11.899
-10.477
-9.007
-7.485
-5.91
-4.279
-2.59
-0.839
0.978
2.865
4.823
6.853
8.953
11.124
13.364
15.667
18.031
20.447
22.911
25.415
27.95
30.507
33.075
35.645
38.205
40.743
43.248
45.707
48.108
50.44
52.691
54.85
56.907
58.851
60.674
62.365
63.918
65.323
66.575
67.667
68.593
69.348
69.928
70.329
70.548
70.583
70.434
70.1
69.582
68.884
68.008
66.958
65.74
64.361
62.828
61.149
59.334
57.392
55.334
53.17
50.912
48.569
46.155
43.678
41.151
38.584
35.987
33.371
30.746
28.123
25.511
22.919
20.358
17.836
15.362
12.946
10.596
8.319
6.123
4.015
2.002
0.089
-1.718
-3.415
-5
-6.468
-7.82
-9.054
-10.17
-11.17
-12.054
-12.826
-13.487
-14.04
-14.488
-14.835
-15.084
-15.238
-15.302
-15.28
-15.177
-14.996
-14.742
-14.42
-14.036
-13.592
-13.095
-12.549
-11.959
-11.328
-10.663
-9.966
-9.243
-8.496
-7.73
-6.947
-6.148
-5.336
-4.511
-3.672
-2.82
-1.952
-1.066
-0.16
0.768
1.722
2.704
3.718
4.768
5.856
6.987
8.165
9.394
10.678
12.021
13.427
14.9
16.44
18.052
19.737
21.498
23.334
25.247
27.235
29.297
31.433
33.64
35.913
38.247
40.637
43.075
45.553
48.059
50.581
53.104
55.615
58.099
60.54
62.922
65.23
67.447
69.561
71.559
73.425
75.145
76.702
78.078
79.26
80.234
80.988
81.509
81.788
81.82
81.606
81.148
80.441
79.48
78.248
76.738
74.949
72.883
70.548
67.959
65.136
62.111
58.934
55.649
52.295
48.904
45.492
42.09
38.739
35.49
32.405
29.533
26.905
24.559
22.522
20.784
19.319
18.069
16.937
15.872
14.822
13.713
12.493
11.081
9.367
7.284
4.712
1.48
-2.424
-6.912
-11.769
-16.536
-20.784
-24.23
-26.399
-26.752
-25.197
-21.94
-17.633
-13.479
-10.314
-8.452
-8.43
-10.862
-15.578
-21.75
-27.58
-30.266
-27.625
-18.21
-0.196
28.429
68.836
121.189
184.028
254.253
328.853
404.781
477.751
542.576
594.053
627.517
639.836
629.464
595.503
538.194
460.004
365.314
259.844
150.137
42.533
-56.991
-142.741
-210.062
-256.357
-280.9
-284.602
-270.102
-241.029
-201.782
-157.484
-113.144
-72.756
-39.532
-15.739
-2.084
1.739
-3.08
-14.264
-29.219
-45.581
-60.897
-73.19
-81.51
-85.428
-85.069
-81.295
-75.138
-67.722
-60.449
-54.334
-49.816
-47.124
-46.171
-46.624
-48.162
-50.324
-52.489
-54.285
-55.561
-56.253
-56.448
-56.221
-55.585
-54.614
-53.418
-52.054
-50.562
-48.956
-47.212
-45.35
-43.419
-41.473
-39.576
-37.766
-36.057
-34.463
-32.989
-31.64
-30.419
-29.316
-28.314
-27.406
-26.585
-25.846
-25.186
-24.591
-24.043
-23.524
-23.013
-22.494
-21.955
-21.385
-20.774
-20.116
-19.404
-18.636
-17.809
-16.921
-15.968
-14.947
-13.856
-12.693
-11.458
-10.152
-8.774
-7.328
-5.814
-4.236
-2.598
-0.902
0.846
2.642
4.482
6.358
8.265
10.195
12.14
14.092
16.04
17.976
19.889
21.769
23.603
25.383
27.096
28.733
30.284
31.74
33.093
34.335
35.46
36.462
37.336
38.077
38.682
39.148
39.473
39.654
39.691
39.584
39.333
38.938
38.402
37.725
36.911
35.963
34.883
33.678
32.351
30.909
29.359
27.708
25.964
24.137
22.235
20.269
18.248
16.183
14.082
11.957
9.816
7.669
5.523
3.387
1.268
-0.826
-2.889
-4.915
-6.899
-8.836
-10.722
-12.553
-14.325
-16.036
-17.683
-19.264
-20.777
-22.221
-23.596
-24.901
-26.137
-27.306
-28.408
-29.449
-30.429
-31.355
-32.229
-33.057
-33.845
-34.596
-35.318
-36.015
-36.693
-37.356
-38.008
-38.655
-39.299
-39.943
-40.59
-41.24
-41.895
-42.553
-43.216
-43.881
-44.546
-45.21
-45.869
-46.52
-47.16
-47.782
-48.384
-48.959
-49.5
-50
-50.453
-50.85
-51.183
-51.445
-51.625
-51.714
-51.705
-51.587
-51.353
-50.993
-50.501
-49.867
-49.086
-48.151
-47.06
-45.808
-44.394
-42.817
-41.076
-39.175
-37.117
-34.906
-32.548
-30.049
-27.42
-24.669
-21.808
-18.85
-15.809
-12.7
-9.541
-6.352
-3.151
0.041
3.201
6.31
9.343
12.279
15.098
17.777
20.297
22.637
24.775
26.692
28.368
29.784
30.923
31.77
32.31
32.534
32.438
32.021
31.28
30.214
28.813
27.074
25.002
22.604
19.887
16.868
13.566
10.016
6.27
2.378
-1.616
-5.669
-9.756
-13.845
-17.893
-21.857
-25.685
-29.328
-32.76
-35.952
-38.866
-41.484
-43.815
-45.908
-47.861
-49.764
-51.674
-53.625
-55.646
-57.79
-60.132
-62.74
-65.686
-68.996
-72.704
-76.931
-81.692
-86.859
-92.149
-97.021
-100.911
-103.459
-104.227
-102.687
-98.733
-92.532
-84.674
-76.465
-68.939
-62.668
-58.482
-57.096
-58.363
-61.628
-65.179
-66.075
-62.038
-51.097
-30.73
1.26
46.473
104.246
170.687
241.29
311.834
381.84
454.53
527.889
596.111
647.497
663.959
636.776
565.321
455.465
323.013
181.84
44.451
-74.55
-165.813
-224.521
-252.344
-260.213
-258.391
-252.546
-244.002
-228.404
-203.945
-173.833
-142.04
-113.319
-90.861
-74.761
-64.608
-60.499
-61.627
-66.438
-73.882
-82.635
-91.147
-98.904
-105.393
-109.561
-111.204
-110.704
-108.287
-104.737
-101.104
-97.731
-94.934
-93.196
-92.533
-92.854
-94.069
-95.693
-97.171
-98.265
-98.815
-98.731
-98.09
-96.905
-95.183
-93.053
-90.641
-88.032
-85.289
-82.421
-79.42
-76.319
-73.177
-70.062
-67.032
-64.119
-61.339
-58.703
-56.218
-53.892
-51.716
-49.672
-47.748
-45.934
-44.225
-42.624
-41.126
-39.717
-38.385
-37.111
-35.875
-34.664
-33.466
-32.27
-31.067
-29.849
-28.611
-27.35
-26.062
-24.74
-23.378
-21.969
-20.506
-18.986
-17.403
-15.754
-14.037
-12.25
-10.395
-8.472
-6.481
-4.427
-2.311
-0.138
2.087
4.357
6.666
9.006
11.368
13.743
16.12
18.489
20.839
23.159
25.439
27.666
29.83
31.92
33.928
35.842
37.654
39.356
40.939
42.396
43.719
44.903
45.942
46.829
47.56
48.132
48.54
48.782
48.857
48.764
48.503
48.077
47.487
46.737
45.831
44.775
43.575
42.238
40.772
39.186
37.487
35.685
33.791
31.813
29.762
27.647
25.478
23.265
21.017
18.743
16.453
14.155
11.859
9.573
7.306
5.067
2.864
0.705
-1.402
-3.449
-5.43
-7.338
-9.168
-10.916
-12.578
-14.151
-15.634
-17.024
-18.322
-19.529
-20.645
-21.673
-22.615
-23.474
-24.253
-24.956
-25.587
-26.149
-26.647
-27.085
-27.467
-27.797
-28.079
-28.317
-28.516
-28.679
-28.811
-28.917
-28.999
-29.063
-29.111
-29.148
-29.175
-29.194
-29.208
-29.217
-29.22
-29.216
-29.203
-29.178
-29.137
-29.076
-28.99
-28.872
-28.716
-28.518
-28.269
-27.964
-27.596
-27.158
-26.643
-26.045
-25.358
-24.575
-23.691
-22.701
-21.601
-20.386
-19.054
-17.6
-16.022
-14.32
-12.491
-10.536
-8.454
-6.246
-3.916
-1.471
1.08
3.726
6.46
9.271
12.147
15.07
18.025
20.995
23.968
26.925
29.846
32.704
35.472
38.123
40.635
42.992
45.175
47.162
48.926
50.441
51.688
52.648
53.307
53.643
53.632
53.262
52.535
51.46
50.052
48.321
46.274
43.916
41.251
38.289
35.07
31.677
28.215
24.765
21.355
17.976
14.635
11.371
8.219
5.06
1.62
-2.225
-6.36
-10.429
-13.94
-16.737
-18.977
-20.484
-20.908
-20.473
-19.812
-20.236
-22.373
-24.672
-25.508
-25.397
-30.01
-47.327
-81.05
-127.025
-168.708
-187.077
-172.265
-124.602
-61.162
-4.401
31.839
40.164
27.598
8.435
-8.519
-16.7
-17.795
-18.474
-21.337
-28.173
-38.331
-48.845
-57.696
-61.999
-58.487
-44.972
-24.325
-3.797
11.983
20.055
28.538
57.617
121.9
232.414
384.925
551.317
700.438
800.138
829.299
791.288
700.725
578.424
442.046
300.35
159.519
27.842
-80.46
-153.843
-188.422
-191.035
-179.065
-165.356
-156.06
-150.992
-144.011
-134.006
-123.478
-114.99
-112.151
-115.241
-121.88
-130.229
-137.996
-143.06
-144.679
-142.515
-136.623
-127.786
-116.882
-104.68
-92.09
-80.007
-68.928
-59.148
-50.823
-43.883
-38.303
-34.101
-31.198
-29.485
-28.89
-29.334
-30.733
-33.008
-36.007
-39.536
-43.447
-47.585
-51.818
-56.022
-60.032
-63.712
-66.954
-69.651
-71.739
-73.174
-73.918
-73.965
-73.34
-72.081
-70.258
-67.951
-65.222
-62.141
-58.78
-55.218
-51.557
-47.88
-44.248
-40.718
-37.328
-34.11
-31.093
-28.29
-25.692
-23.29
-21.068
-19.006
-17.092
-15.307
-13.623
-12.01
-10.424
-8.834
-7.219
-5.562
-3.849
-2.071
-0.218
1.711
3.709
5.769
7.89
10.069
12.306
14.597
16.935
19.312
21.719
24.147
26.589
29.039
31.488
33.931
36.359
38.769
41.155
43.511
45.83
48.102
50.318
52.465
54.535
56.517
58.399
60.171
61.822
63.342
64.725
65.961
67.042
67.96
68.711
69.287
69.684
69.898
69.925
69.765
69.416
68.879
68.155
67.246
66.155
64.888
63.447
61.841
60.076
58.158
56.099
53.906
51.59
49.162
46.634
44.019
41.33
38.578
35.779
32.945
30.09
27.228
24.37
21.53
18.721
15.952
13.237
10.584
8.003
5.504
3.094
0.78
-1.431
-3.535
-5.526
-7.402
-9.161
-10.8
-12.32
-13.721
-15.004
-16.172
-17.228
-18.177
-19.022
-19.771
-20.428
-21.002
-21.498
-21.926
-22.292
-22.605
-22.874
-23.105
-23.307
-23.488
-23.654
-23.811
-23.965
-24.121
-24.284
-24.456
-24.64
-24.838
-25.052
-25.28
-25.524
-25.78
-26.046
-26.32
-26.596
-26.871
-27.138
-27.39
-27.62
-27.82
-27.982
-28.096
-28.154
-28.147
-28.063
-27.895
-27.633
-27.267
-26.789
-26.19
-25.463
-24.602
-23.601
-22.455
-21.162
-19.72
-18.129
-16.39
-14.505
-12.48
-10.319
-8.029
-5.619
-3.097
-0.475
2.234
5.017
7.859
10.743
13.648
16.553
19.438
22.28
25.056
27.743
30.316
32.755
35.041
37.154
39.076
40.787
42.266
43.496
44.462
45.15
45.548
45.646
45.436
44.916
44.09
42.963
41.536
39.807
37.766
35.409
32.74
29.765
26.499
22.958
19.165
15.154
10.977
6.68
2.312
-2.086
-6.484
-10.837
-15.095
-19.196
-23.074
-26.67
-29.934
-32.825
-35.325
-37.435
-39.175
-40.588
-41.724
-42.641
-43.421
-44.146
-44.905
-45.799
-46.903
-48.33
-50.271
-52.811
-55.925
-59.434
-62.9
-65.872
-68.029
-68.956
-68.156
-65.432
-60.884
-55.099
-49.406
-45.059
-42.912
-43.813
-48.398
-56.615
-67.726
-79.908
-89.896
-94.48
-90.907
-76.101
-47.611
-4.121
54.855
126.655
206.439
290.884
375.289
456.221
530.513
588.899
624.232
630.696
604.732
551.853
477.134
385.032
280.036
166.284
53.598
-46.293
-121.242
-166.159
-186.907
-190.778
-186.767
-180.137
-168.933
-153.703
-136.457
-119.26
-106.186
-99.037
-97.1
-99.344
-104.186
-109.647
-114.02
-116.298
-115.971
-113.152
-108.534
-102.754
-96.345
-90.047
-84.583
-80.357
-77.567
-76.153
-75.832
-76.391
-77.658
-79.424
-81.49
-83.685
-85.855
-87.867
-89.617
-91.017
-91.995
-92.507
-92.531
-92.056
-91.092
-89.682
-87.881
-85.744
-83.327
-80.674
-77.824
-74.829
-71.748
-68.644
-65.581
-62.603
-59.739
-57.01
-54.431
-52.008
-49.739
-47.608
-45.59
-43.668
-41.828
-40.06
-38.354
-36.697
-35.073
-33.468
-31.867
-30.259
-28.636
-26.987
-25.304
-23.582
-21.816
-20.007
-18.155
-16.258
-14.314
-12.323
-10.282
-8.191
-6.049
-3.857
-1.615
0.675
3.01
5.385
7.794
10.233
12.694
15.17
17.654
20.136
22.609
25.062
27.487
29.872
32.209
34.486
36.693
38.821
40.859
42.797
44.627
46.339
47.924
49.376
50.687
51.85
52.859
53.71
54.398
54.919
55.269
55.446
55.448
55.274
54.923
54.396
53.694
52.82
51.777
50.57
49.202
47.681
46.013
44.204
42.262
40.195
38.012
35.722
33.334
30.859
28.306
25.687
23.01
20.288
17.529
14.745
11.946
9.14
6.338
3.55
0.784
-1.951
-4.645
-7.288
-9.874
-12.393
-14.837
-17.2
-19.475
-21.657
-23.739
-25.72
-27.593
-29.358
-31.012
-32.552
-33.979
-35.291
-36.488
-37.571
-38.542
-39.402
-40.156
-40.805
-41.354
-41.807
-42.168
-42.442
-42.633
-42.746
-42.784
-42.754
-42.661
-42.51
-42.307
-42.058
-41.768
-41.443
-41.089
-40.71
-40.309
-39.891
-39.457
-39.009
-38.55
-38.077
-37.592
-37.095
-36.587
-36.068
-35.539
-34.999
-34.449
-33.887
-33.313
-32.724
-32.114
-31.477
-30.804
-30.091
-29.332
-28.52
-27.654
-26.727
-25.737
-24.684
-23.567
-22.382
-21.122
-19.774
-18.329
-16.79
-15.164
-13.466
-11.717
-9.935
-8.143
-6.37
-4.637
-2.954
-1.323
0.274
1.855
3.423
4.969
6.471
7.905
9.269
10.567
11.805
13.012
14.212
15.436
16.741
18.158
19.686
21.298
22.928
24.486
25.915
27.176
28.244
29.111
29.749
30.123
30.205
29.942
29.276
28.139
26.435
24.094
21.103
17.487
13.333
8.771
3.914
-1.147
-6.326
-11.558
-16.775
-21.895
-26.845
-31.549
-35.913
-39.827
-43.176
-45.873
-47.877
-49.204
-49.916
-50.106
-49.896
-49.412
-48.785
-48.151
-47.622
-47.294
-47.301
-47.818
-48.946
-50.691
-52.899
-55.215
-57.302
-58.926
-59.763
-59.357
-57.416
-53.994
-49.607
-45.34
-42.237
-40.813
-41.502
-44.906
-51.216
-59.891
-69.505
-77.393
-80.745
-77.726
-66.312
-44.008
-9.144
39.264
99.827
167.783
239.795
314.057
389.426
466.721
539.852
597.052
627.623
621.033
578.204
509.81
424.679
329.995
226.19
111.121
-8.775
-118.788
-201.966
-247.576
-257.612
-245.375
-225.411
-206.646
-191.064
-175.568
-158.586
-141.339
-126.177
-116.03
-111.584
-111.497
-114.194
-117.507
-119.474
-119.332
-116.865
-112.279
-106.265
-99.456
-92.356
-85.626
-79.946
-75.641
-72.793
-71.293
-70.823
-71.127
-72.035
-73.336
-74.823
-76.321
-77.652
-78.669
-79.315
-79.541
-79.312
-78.619
-77.445
-75.797
-73.725
-71.291
-68.56
-65.592
-62.433
-59.124
-55.719
-52.278
-48.868
-45.555
-42.385
-39.384
-36.573
-33.962
-31.561
-29.368
-27.366
-25.529
-23.835
-22.267
-20.811
-19.459
-18.193
-16.992
-15.839
-14.715
-13.606
-12.5
-11.381
-10.239
-9.063
-7.845
-6.581
-5.269
-3.903
-2.477
-0.987
0.572
2.204
3.913
5.699
7.566
9.513
11.54
13.642
15.816
18.058
20.363
22.723
25.132
27.582
30.065
32.57
35.089
37.61
40.123
42.615
45.075
47.491
49.85
52.141
54.351
56.468
58.482
60.382
62.157
63.798
65.296
66.643
67.83
68.853
69.704
70.38
70.875
71.188
71.316
71.259
71.018
70.594
69.99
69.208
68.255
67.134
65.853
64.416
62.834
61.112
59.262
57.292
55.214
53.037
50.774
48.436
46.034
43.582
41.09
38.57
36.035
33.495
30.961
28.445
25.957
23.507
21.106
18.762
16.484
14.279
12.154
10.116
8.169
6.319
4.569
2.922
1.38
-0.055
-1.383
-2.604
-3.718
-4.727
-5.634
-6.442
-7.154
-7.775
-8.31
-8.764
-9.142
-9.451
-9.696
-9.884
-10.02
-10.111
-10.162
-10.181
-10.173
-10.144
-10.099
-10.043
-9.982
-9.919
-9.857
-9.8
-9.748
-9.704
-9.668
-9.639
-9.618
-9.602
-9.589
-9.577
-9.562
-9.541
-9.509
-9.46
-9.39
-9.292
-9.16
-8.99
-8.773
-8.505
-8.179
-7.79
-7.331
-6.8
-6.189
-5.496
-4.714
-3.842
-2.876
-1.815
-0.657
0.597
1.946
3.388
4.918
6.531
8.221
9.979
11.797
13.664
15.567
17.493
19.428
21.356
23.261
25.128
26.938
28.677
30.327
31.874
33.301
34.592
35.729
36.698
37.483
38.069
38.443
38.589
38.498
38.166
37.589
36.763
35.684
34.341
32.728
30.853
28.72
26.334
23.708
20.856
17.807
14.607
11.293
7.902
4.461
0.981
-2.514
-5.99
-9.415
-12.739
-15.93
-18.981
-21.867
-24.554
-27.031
-29.297
-31.405
-33.447
-35.483
-37.539
-39.612
-41.684
-43.786
-45.967
-48.269
-50.757
-53.436
-56.325
-59.559
-63.17
-67.04
-70.917
-74.259
-76.473
-77.226
-76.105
-72.627
-66.797
-58.87
-49.527
-40.247
-32.288
-26.468
-23.877
-25.308
-30.499
-38.646
-47.864
-54.875
-56.896
-51.425
-35.46
-6.667
35.948
92.261
160.236
235.812
314.757
392.215
462.268
519.128
557.61
573.708
565.26
532.205
475.987
399.802
308.646
208.67
106.779
9.577
-76.848
-147.576
-199.746
-232.448
-246.554
-244.58
-230.248
-207.639
-181.411
-156.1
-134.61
-118.493
-108.282
-103.453
-102.928
-105.453
-109.2
-112.17
-113.34
-112.42
-109.536
-105.266
-100.167
-94.676
-89.469
-85.283
-82.46
-81.074
-80.997
-81.894
-83.52
-85.717
-88.246
-90.874
-93.401
-95.621
-97.423
-98.786
-99.675
-100.073
-99.976
-99.366
-98.265
-96.74
-94.851
-92.658
-90.22
-87.575
-84.779
-81.897
-78.999
-76.157
-73.422
-70.823
-68.382
-66.112
-64.02
-62.112
-60.379
-58.796
-57.344
-56.007
-54.772
-53.633
-52.574
-51.578
-50.627
-49.702
-48.79
-47.88
-46.959
-46.016
-45.039
-44.023
-42.96
-41.847
-40.678
-39.446
-38.144
-36.765
-35.303
-33.753
-32.111
-30.373
-28.536
-26.601
-24.568
-22.439
-20.217
-17.906
-15.509
-13.033
-10.483
-7.866
-5.189
-2.461
0.311
3.116
5.945
8.788
11.635
14.474
17.295
20.087
22.838
25.537
28.172
30.732
33.207
35.585
37.855
40.009
42.036
43.929
45.679
47.278
48.721
50.001
51.115
52.06
52.832
53.43
53.854
54.105
54.183
54.091
53.832
53.409
52.827
52.092
51.208
50.182
49.021
47.733
46.326
44.808
43.189
41.477
39.685
37.82
35.894
33.917
31.901
29.855
27.791
25.718
23.647
21.588
19.551
17.544
15.577
13.657
11.792
9.988
8.252
6.588
5.001
3.494
2.071
0.734
-0.516
-1.678
-2.751
-3.735
-4.632
-5.442
-6.167
-6.811
-7.377
-7.868
-8.287
-8.64
-8.932
-9.167
-9.35
-9.487
-9.582
-9.64
-9.667
-9.667
-9.644
-9.603
-9.546
-9.477
-9.397
-9.309
-9.214
-9.111
-8.999
-8.879
-8.747
-8.601
-8.439
-8.256
-8.048
-7.811
-7.539
-7.229
-6.873
-6.466
-6.003
-5.475
-4.879
-4.206
-3.452
-2.61
-1.674
-0.639
0.497
1.74
3.092
4.556
6.132
7.821
9.621
11.53
13.545
15.66
17.871
20.168
22.543
24.986
27.485
30.027
32.596
35.175
37.746
40.292
42.794
45.232
47.586
49.837
51.968
53.963
55.803
57.472
58.949
60.216
61.257
62.056
62.6
62.876
62.871
62.578
61.996
61.125
59.96
58.496
56.717
54.614
52.19
49.448
46.398
43.059
39.449
35.602
31.568
27.394
23.127
18.804
14.449
10.101
5.81
1.638
-2.343
-6.075
-9.525
-12.654
-15.432
-17.866
-19.975
-21.819
-23.491
-25.051
-26.555
-28.081
-29.686
-31.459
-33.519
-35.94
-38.854
-42.428
-46.67
-51.492
-56.693
-61.848
-66.583
-70.655
-73.624
-74.979
-74.615
-72.687
-69.752
-66.846
-64.581
-63.056
-62.591
-63.642
-66.039
-69.1
-71.297
-70.168
-63.941
-51.636
-31.907
-3.194
35.525
84.666
143.217
208.584
278.261
349.764
419.61
483.503
536.606
573.95
591.778
588.738
565.209
522.204
461.144
381.32
281.717
166.272
44.246
-68.231
-154.144
-205.329
-223.558
-219.525
-205.343
-187.95
-169.152
-147.514
-123.296
-98.656
-76.463
-60.221
-51.578
-50.484
-55.992
-65.354
-75.29
-84.01
-90.619
-94.757
-96.408
-95.174
-90.967
-84.762
-78.164
-72.296
-67.675
-64.392
-62.292
-61.523
-62.234
-64.152
-66.707
-69.379
-71.825
-73.893
-75.611
-76.919
-77.717
-77.987
-77.759
-77.095
-76.076
-74.745
-73.106
-71.175
-68.983
-66.567
-63.99
-61.318
-58.611
-55.936
-53.334
-50.835
-48.461
-46.23
-44.155
-42.239
-40.469
-38.825
-37.295
-35.872
-34.55
-33.322
-32.17
-31.074
-30.016
-28.982
-27.959
-26.936
-25.902
-24.844
-23.755
-22.627
-21.456
-20.241
-18.974
-17.651
-16.264
-14.808
-13.279
-11.675
-9.992
-8.227
-6.379
-4.449
-2.439
-0.353
1.807
4.036
6.328
8.678
11.077
13.52
15.998
18.501
21.021
23.548
26.07
28.577
31.058
33.501
35.894
38.226
40.485
42.659
44.736
46.706
48.557
50.279
51.862
53.296
54.574
55.687
56.628
57.392
57.973
58.368
58.573
58.587
58.41
58.042
57.484
56.739
55.81
54.7
53.416
51.962
50.345
48.572
46.652
44.592
42.403
40.095
37.679
35.165
32.566
29.893
27.159
24.377
21.56
18.72
15.869
13.021
10.188
7.382
4.615
1.898
-0.759
-3.344
-5.849
-8.265
-10.585
-12.802
-14.91
-16.904
-18.779
-20.534
-22.164
-23.668
-25.045
-26.295
-27.417
-28.413
-29.286
-30.039
-30.676
-31.201
-31.62
-31.938
-32.163
-32.301
-32.358
-32.342
-32.26
-32.12
-31.931
-31.699
-31.433
-31.14
-30.826
-30.5
-30.166
-29.83
-29.495
-29.164
-28.84
-28.524
-28.217
-27.917
-27.624
-27.337
-27.054
-26.775
-26.498
-26.219
-25.934
-25.64
-25.334
-25.007
-24.652
-24.256
-23.811
-23.308
-22.738
-22.095
-21.372
-20.558
-19.651
-18.647
-17.543
-16.335
-15.014
-13.561
-11.972
-10.253
-8.415
-6.478
-4.458
-2.367
-0.229
1.927
4.082
6.223
8.353
10.495
12.652
14.816
16.966
19.062
21.082
23.025
24.892
26.693
28.44
30.136
31.808
33.505
35.24
37.002
38.74
40.359
41.792
43.002
43.965
44.682
45.143
45.305
45.139
44.613
43.682
42.309
40.43
37.947
34.815
31.042
26.686
21.88
16.741
11.348
5.781
0.103
-5.619
-11.29
-16.824
-22.152
-27.183
-31.834
-36.002
-39.565
-42.447
-44.637
-46.165
-47.123
-47.627
-47.784
-47.723
-47.581
-47.481
-47.543
-47.915
-48.787
-50.262
-52.327
-54.832
-57.458
-59.904
-61.987
-63.446
-63.828
-62.872
-60.662
-57.679
-54.99
-53.564
-53.791
-55.951
-60.497
-67.53
-76.51
-86.047
-93.501
-96.104
-92.13
-79.877
-57.169
-22.152
26.378
86.916
154.585
224.71
294.924
367.181
445.156
526.682
601.904
653.009
662.873
626.476
551.01
453.642
349.248
243.271
136.804
30.16
-67.548
-141.944
-184.192
-193.762
-181.77
-162.526
-144.779
-131.346
-119.677
-107.838
-96.623
-87.912
-84.202
-85.851
-91.286
-98.782
-106.127
-111.518
-114.286
-114.181
-111.428
-106.773
-100.954
-94.617
-88.489
-83.182
-78.988
-76.014
-74.19
-73.288
-73.114
-73.515
-74.32
-75.38
-76.598
-77.878
-79.126
-80.258
-81.161
-81.746
-81.966
-81.79
-81.209
-80.233
-78.884
-77.204
-75.248
-73.064
-70.691
-68.162
-65.507
-62.766
-59.991
-57.235
-54.55
-51.977
-49.538
-47.252
-45.125
-43.156
-41.335
-39.644
-38.057
-36.555
-35.125
-33.753
-32.429
-31.139
-29.868
-28.602
-27.326
-26.027
-24.694
-23.316
-21.884
-20.393
-18.837
-17.214
-15.523
-13.764
-11.934
-10.032
-8.058
-6.01
-3.891
-1.703
0.552
2.869
5.242
7.663
10.125
12.619
15.134
17.661
20.188
22.705
25.2
27.661
30.077
32.437
34.729
36.941
39.063
41.084
42.995
44.783
46.441
47.959
49.328
50.54
51.59
52.469
53.172
53.696
54.036
54.19
54.158
53.939
53.534
52.945
52.176
51.232
50.118
48.84
47.407
45.825
44.105
42.255
40.285
38.206
36.027
33.76
31.415
29.003
26.534
24.021
21.472
18.9
16.316
13.73
11.154
8.597
6.071
3.585
1.15
-1.227
-3.537
-5.771
-7.925
-9.991
-11.965
-13.842
-15.618
-17.292
-18.862
-20.326
-21.683
-22.936
-24.084
-25.131
-26.077
-26.926
-27.682
-28.348
-28.929
-29.427
-29.849
-30.199
-30.482
-30.704
-30.872
-30.991
-31.067
-31.109
-31.122
-31.113
-31.088
-31.053
-31.014
-30.974
-30.939
-30.911
-30.895
-30.891
-30.902
-30.927
-30.969
-31.026
-31.096
-31.177
-31.267
-31.361
-31.456
-31.547
-31.629
-31.695
-31.74
-31.758
-31.741
-31.685
-31.58
-31.42
-31.197
-30.903
-30.53
-30.071
-29.517
-28.861
-28.097
-27.219
-26.222
-25.102
-23.857
-22.484
-20.983
-19.356
-17.604
-15.73
-13.739
-11.637
-9.432
-7.132
-4.748
-2.29
0.228
2.79
5.381
7.98
10.57
13.131
15.644
18.088
20.441
22.685
24.803
26.779
28.593
30.227
31.66
32.874
33.852
34.582
35.049
35.242
35.152
34.777
34.119
33.18
31.96
30.453
28.644
26.526
24.1
21.368
18.345
15.045
11.49
7.713
3.763
-0.314
-4.476
-8.689
-12.929
-17.159
-21.335
-25.399
-29.283
-32.929
-36.285
-39.309
-41.985
-44.315
-46.317
-48.034
-49.512
-50.805
-51.988
-53.137
-54.333
-55.671
-57.215
-59.077
-61.46
-64.449
-67.997
-71.898
-75.656
-78.757
-80.866
-81.549
-80.289
-76.957
-71.769
-65.448
-59.552
-55.56
-54.445
-57.134
-64.282
-75.661
-90.275
-106.035
-119.29
-126.296
-123.863
-108.852
-78.746
-32.275
30.54
107.895
195.55
288.234
380.435
465.781
537.677
590.081
617.871
619.039
595.612
550.372
485.538
399.86
290.197
160.154
21.645
-104.302
-195.278
-241.586
-248.386
-232.317
-211.319
-194.898
-183.019
-170.623
-155.415
-138.508
-122.826
-112.476
-108.653
-110.309
-116.651
-125.317
-133.236
-138.994
-141.873
-141.559
-138.691
-133.687
-126.317
-117.278
-108.016
-99.349
-91.846
-85.792
-80.891
-77.116
-74.796
-73.837
-73.86
-74.657
-75.933
-77.487
-79.305
-81.177
-82.847
-84.214
-85.223
-85.861
-86.164
-86.115
-85.687
-84.907
-83.787
-82.334
-80.546
-78.374
-75.818
-72.935
-69.809
-66.573
-63.324
-60.112
-56.993
-54.008
-51.179
-48.525
-46.035
-43.669
-41.411
-39.259
-37.219
-35.323
-33.576
-31.961
-30.454
-29.014
-27.607
-26.213
-24.806
-23.357
-21.849
-20.269
-18.619
-16.911
-15.152
-13.339
-11.468
-9.528
-7.514
-5.428
-3.269
-1.039
1.257
3.616
6.029
8.484
10.972
13.486
16.017
18.562
21.113
23.662
26.199
28.715
31.2
33.643
36.033
38.357
40.603
42.76
44.817
46.765
48.594
50.296
51.863
53.287
54.563
55.684
56.645
57.441
58.07
58.528
58.813
58.923
58.86
58.623
58.216
57.642
56.906
56.011
54.964
53.771
52.44
50.979
49.394
47.695
45.89
43.989
42.002
39.939
37.811
35.629
33.401
31.139
28.854
26.554
24.25
21.952
19.668
17.409
15.183
12.998
10.863
8.786
6.772
4.827
2.958
1.167
-0.541
-2.164
-3.699
-5.144
-6.497
-7.757
-8.924
-9.997
-10.976
-11.862
-12.658
-13.364
-13.984
-14.52
-14.975
-15.352
-15.655
-15.888
-16.055
-16.16
-16.208
-16.205
-16.156
-16.068
-15.947
-15.797
-15.626
-15.436
-15.232
-15.017
-14.792
-14.559
-14.317
-14.068
-13.812
-13.551
-13.287
-13.019
-12.752
-12.488
-12.229
-11.976
-11.725
-11.472
-11.214
-10.945
-10.66
-10.35
-10.009
-9.631
-9.21
-8.748
-8.239
-7.678
-7.053
-6.348
-5.554
-4.669
-3.691
-2.619
-1.459
-0.225
1.06
2.353
3.63
4.875
6.086
7.273
8.445
9.606
10.766
11.935
13.125
14.354
15.632
16.951
18.33
19.797
21.405
23.238
25.346
27.741
30.42
33.358
36.513
39.841
43.268
46.692
50.026
53.191
56.126
58.796
61.14
63.076
64.504
65.297
65.364
64.659
63.144
60.8
57.641
53.703
49.071
43.884
38.26
32.297
26.091
19.719
13.279
6.89
0.668
-5.263
-10.791
-15.826
-20.279
-24.057
-27.115
-29.431
-31.033
-32.021
-32.486
-32.509
-32.188
-31.612
-30.882
-30.147
-29.543
-29.192
-29.247
-29.805
-31.011
-33.096
-36.11
-39.96
-44.411
-48.928
-53.009
-56.375
-58.553
-58.982
-57.611
-54.6
-50.562
-46.913
-44.672
-44.356
-46.733
-52.244
-60.35
-70.053
-79.33
-84.862
-84.011
-74.516
-53.762
-20.02
27.236
87.53
158.61
236.683
317.96
397.892
471.026
532.224
576.562
600.193
600.879
578.48
534.983
473.482
397.285
306.829
201.464
84.457
-35.492
-142.119
-218.591
-257.823
-263.524
-249.095
-229.239
-211.605
-197.346
-183.587
-168.487
-152.95
-139.137
-129.515
-124.494
-123.007
-123.732
-124.666
-124.206
-121.766
-117.178
-110.805
-103.39
-95.504
-87.635
-80.391
-74.33
-69.741
-66.691
-65.034
-64.466
-64.73
-65.624
-66.939
-68.452
-69.966
-71.303
-72.319
-72.944
-73.135
-72.853
-72.089
-70.84
-69.122
-66.988
-64.502
-61.725
-58.721
-55.543
-52.238
-48.866
-45.493
-42.182
-39
-35.989
-33.174
-30.572
-28.19
-26.03
-24.085
-22.335
-20.752
-19.313
-18
-16.797
-15.692
-14.667
-13.701
-12.778
-11.879
-10.99
-10.097
-9.19
-8.256
-7.288
-6.278
-5.222
-4.118
-2.961
-1.746
-0.467
0.88
2.298
3.792
5.362
7.01
8.736
10.538
12.412
14.355
16.36
18.421
20.531
22.683
24.867
27.075
29.297
31.523
33.743
35.947
38.123
40.262
42.352
44.383
46.346
48.23
50.025
51.721
53.311
54.785
56.135
57.354
58.434
59.37
60.154
60.783
61.253
61.56
61.702
61.679
61.491
61.139
60.625
59.953
59.127
58.152
57.034
55.779
54.395
52.889
51.269
49.543
47.721
45.81
43.82
41.759
39.637
37.462
35.244
32.991
30.712
28.417
26.114
23.813
21.521
19.247
16.998
14.783
12.609
10.481
8.405
6.387
4.43
2.54
0.718
-1.033
-2.712
-4.318
-5.85
-7.311
-8.7
-10.02
-11.272
-12.459
-13.583
-14.648
-15.655
-16.609
-17.511
-18.366
-19.177
-19.948
-20.682
-21.384
-22.056
-22.704
-23.329
-23.937
-24.529
-25.109
-25.678
-26.239
-26.794
-27.342
-27.885
-28.422
-28.952
-29.473
-29.982
-30.476
-30.951
-31.403
-31.825
-32.214
-32.562
-32.865
-33.117
-33.312
-33.444
-33.506
-33.493
-33.4
-33.219
-32.946
-32.574
-32.099
-31.516
-30.821
-30.01
-29.081
-28.031
-26.858
-25.563
-24.146
-22.609
-20.953
-19.182
-17.302
-15.321
-13.245
-11.084
-8.849
-6.555
-4.214
-1.842
0.545
2.931
5.299
7.632
9.912
12.125
14.255
16.284
18.197
19.977
21.606
23.069
24.35
25.432
26.3
26.938
27.336
27.489
27.39
27.034
26.414
25.515
24.331
22.863
21.115
19.089
16.796
14.252
11.486
8.551
5.495
2.365
-0.797
-3.965
-7.107
-10.174
-13.121
-15.9
-18.463
-20.795
-22.875
-24.669
-26.169
-27.387
-28.377
-29.26
-30.148
-31.125
-32.264
-33.603
-35.205
-37.171
-39.582
-42.518
-46.036
-50.11
-54.768
-60.105
-66.045
-72.385
-78.747
-84.486
-89.08
-92.2
-93.397
-92.292
-88.808
-83.031
-75.539
-67.36
-59.205
-51.638
-45.261
-40.229
-36.222
-32.479
-27.402
-19.026
-5.51
15.127
44.756
84.893
135.296
193.269
255.593
318.689
381.174
445.976
513.404
578.871
633.765
662.301
650.403
594.958
498.433
370.142
227.294
82.975
-48.72
-150.532
-216.57
-247.358
-249.607
-237.766
-220.474
-198.938
-171.775
-139.378
-104.67
-74.284
-55.608
-47.819
-48.446
-54.247
-59.541
-64.011
-67.907
-70.746
-73.666
-75.566
-75.258
-72.661
-67.983
-62.699
-58.212
-54.991
-53.167
-52.528
-52.869
-54.351
-56.844
-59.849
-62.948
-65.755
-68.05
-69.873
-71.224
-72.018
-72.24
-71.913
-71.071
-69.814
-68.217
-66.301
-64.105
-61.664
-59.017
-56.234
-53.381
-50.516
-47.7
-44.972
-42.353
-39.865
-37.519
-35.324
-33.286
-31.392
-29.623
-27.969
-26.419
-24.968
-23.613
-22.337
-21.123
-19.956
-18.823
-17.715
-16.623
-15.537
-14.448
-13.348
-12.231
-11.092
-9.929
-8.735
-7.504
-6.229
-4.903
-3.524
-2.087
-0.589
0.972
2.598
4.289
6.042
7.855
9.727
11.653
13.63
15.652
17.715
19.812
21.938
24.085
26.246
28.412
30.577
32.732
34.866
36.973
39.041
41.062
43.025
44.92
46.738
48.468
50.1
51.625
53.033
54.316
55.466
56.475
57.337
58.047
58.6
58.991
59.219
59.282
59.178
58.908
58.472
57.872
57.11
56.189
55.113
53.886
52.514
51
49.353
47.577
45.681
43.67
41.555
39.343
37.042
34.664
32.217
29.713
27.161
24.573
21.959
19.33
16.697
14.07
11.459
8.874
6.324
3.817
1.362
-1.034
-3.364
-5.623
-7.805
-9.906
-11.921
-13.847
-15.682
-17.423
-19.069
-20.62
-22.075
-23.435
-24.699
-25.869
-26.947
-27.936
-28.838
-29.656
-30.395
-31.059
-31.653
-32.181
-32.65
-33.064
-33.429
-33.751
-34.033
-34.281
-34.499
-34.691
-34.859
-35.007
-35.137
-35.25
-35.347
-35.427
-35.49
-35.534
-35.557
-35.557
-35.53
-35.472
-35.379
-35.247
-35.071
-34.846
-34.568
-34.231
-33.829
-33.356
-32.808
-32.178
-31.459
-30.646
-29.734
-28.716
-27.59
-26.351
-24.996
-23.521
-21.927
-20.213
-18.38
-16.429
-14.365
-12.191
-9.915
-7.544
-5.087
-2.557
0.037
2.678
5.351
8.039
10.726
13.393
16.021
18.593
21.089
23.493
25.786
27.951
29.971
31.828
33.505
34.983
36.244
37.273
38.053
38.57
38.813
38.779
38.463
37.862
36.972
35.782
34.288
32.494
30.399
28.009
25.335
22.393
19.216
15.854
12.352
8.755
5.099
1.409
-2.282
-5.933
-9.503
-12.942
-16.212
-19.29
-22.144
-24.732
-27.034
-29.058
-30.862
-32.544
-34.19
-35.852
-37.549
-39.313
-41.208
-43.313
-45.714
-48.488
-51.649
-55.248
-59.43
-64.229
-69.533
-75.022
-80.042
-83.941
-86.287
-86.61
-84.456
-79.782
-72.797
-64.29
-55.889
-49.039
-44.796
-44.166
-47.584
-54.492
-63.765
-73.047
-78.608
-76.936
-64.77
-38.993
2.237
59.108
130.581
213.53
302.731
392.379
475.99
546.717
598.726
627.591
630.146
605.403
554.821
481.573
390.684
288.452
181.322
75.776
-21.694
-105.459
-171.431
-217.496
-243.713
-251.471
-242.799
-220.919
-190.255
-155.87
-122.796
-94.497
-72.607
-58.16
-51.951
-53.661
-61.864
-74.015
-86.744
-97.866
-106.592
-112.279
-114.323
-112.608
-107.411
-99.849
-91.848
-84.601
-78.507
-73.86
-70.776
-69.298
-69.489
-71.008
-73.111
-75.313
-77.345
-79.015
-80.328
-81.248
-81.67
-81.604
-81.124
-80.277
-79.127
-77.711
-76.013
-74.048
-71.851
-69.453
-66.917
-64.304
-61.669
-59.073
-56.556
-54.143
-51.86
-49.72
-47.734
-45.905
-44.22
-42.659
-41.213
-39.873
-38.629
-37.471
-36.379
-35.331
-34.311
-33.303
-32.295
-31.277
-30.236
-29.162
-28.049
-26.89
-25.683
-24.425
-23.112
-21.739
-20.303
-18.799
-17.225
-15.581
-13.865
-12.075
-10.211
-8.276
-6.272
-4.204
-2.076
0.108
2.342
4.617
6.927
9.262
11.615
13.974
16.331
18.673
20.991
23.274
25.511
27.692
29.807
31.844
33.794
35.648
37.396
39.03
40.541
41.922
43.165
44.264
45.214
46.009
46.646
47.122
47.433
47.58
47.561
47.377
47.031
46.523
45.859
45.043
44.08
42.978
41.742
40.381
38.904
37.318
35.634
33.859
32.005
30.079
28.093
26.055
23.975
21.864
19.73
17.584
15.435
13.292
11.164
9.059
6.986
4.952
2.964
1.028
-0.849
-2.661
-4.405
-6.077
-7.672
-9.19
-10.628
-11.987
-13.267
-14.47
-15.596
-16.649
-17.631
-18.546
-19.397
-20.186
-20.918
-21.596
-22.225
-22.808
-23.348
-23.85
-24.319
-24.757
-25.168
-25.557
-25.926
-26.278
-26.617
-26.943
-27.261
-27.571
-27.874
-28.171
-28.462
-28.747
-29.025
-29.292
-29.546
-29.781
-29.994
-30.179
-30.33
-30.438
-30.499
-30.504
-30.447
-30.321
-30.119
-29.835
-29.462
-28.993
-28.424
-27.749
-26.962
-26.058
-25.033
-23.885
-22.609
-21.205
-19.669
-18.002
-16.203
-14.273
-12.215
-10.03
-7.724
-5.3
-2.765
-0.129
2.6
5.409
8.287
11.219
14.187
17.174
20.161
23.128
26.056
28.924
31.712
34.401
36.973
39.411
41.7
43.821
45.759
47.493
49.01
50.291
51.324
52.094
52.589
52.8
52.725
52.361
51.708
50.759
49.501
47.926
46.034
43.824
41.303
38.485
35.388
32.049
28.518
24.846
21.083
17.268
13.432
9.608
5.836
2.169
-1.335
-4.629
-7.681
-10.461
-12.934
-15.09
-16.955
-18.595
-20.115
-21.612
-23.14
-24.756
-26.532
-28.54
-30.875
-33.647
-36.894
-40.685
-45.149
-50.28
-55.992
-62.084
-68.05
-73.361
-77.676
-80.502
-81.287
-79.967
-76.666
-71.838
-66.699
-62.242
-58.856
-57.231
-58.223
-61.558
-66.318
-71.222
-72.441
-66.457
-52.507
-28.42
5.548
46.301
95.206
153.208
221.827
305.179
400.615
498.187
583.225
640.214
658.827
639.866
594.202
530.798
456.78
373.703
275.578
166.059
55.447
-44.379
-117.207
-159.122
-177.621
-179.845
-175.666
-169.572
-158.95
-144.61
-128.379
-112.379
-100.576
-94.445
-93.244
-95.931
-100.899
-106.192
-110.147
-111.83
-110.831
-107.375
-102.211
-95.982
-89.236
-82.696
-77.043
-72.658
-69.723
-68.154
-67.671
-68.063
-69.156
-70.761
-72.701
-74.816
-76.954
-78.974
-80.754
-82.198
-83.232
-83.809
-83.904
-83.504
-82.618
-81.288
-79.575
-77.534
-75.219
-72.67
-69.92
-67.019
-64.027
-61.008
-58.031
-55.141
-52.37
-49.742
-47.273
-44.968
-42.828
-40.835
-38.962
-37.192
-35.511
-33.908
-32.376
-30.903
-29.472
-28.07
-26.683
-25.299
-23.909
-22.503
-21.071
-19.607
-18.108
-16.572
-15
-13.39
-11.739
-10.045
-8.305
-6.518
-4.682
-2.795
-0.857
1.133
3.172
5.257
7.385
9.551
11.751
13.978
16.227
18.49
20.76
23.031
25.294
27.539
29.76
31.945
34.087
36.177
38.204
40.159
42.034
43.819
45.506
47.086
48.552
49.897
51.113
52.193
53.132
53.924
54.564
55.047
55.368
55.525
55.514
55.336
54.989
54.474
53.792
52.944
51.935
50.767
49.446
47.976
46.364
44.615
42.738
40.74
38.63
36.417
34.111
31.72
29.256
26.728
24.147
21.523
18.866
16.187
13.497
10.805
8.123
5.459
2.825
0.23
-2.316
-4.805
-7.227
-9.576
-11.843
-14.023
-16.111
-18.1
-19.988
-21.772
-23.448
-25.017
-26.478
-27.831
-29.077
-30.219
-31.258
-32.199
-33.045
-33.801
-34.47
-35.059
-35.571
-36.013
-36.39
-36.707
-36.97
-37.183
-37.354
-37.486
-37.585
-37.656
-37.703
-37.73
-37.741
-37.739
-37.727
-37.705
-37.675
-37.636
-37.588
-37.528
-37.454
-37.362
-37.248
-37.106
-36.931
-36.717
-36.458
-36.146
-35.774
-35.336
-34.824
-34.232
-33.553
-32.779
-31.906
-30.928
-29.84
-28.637
-27.317
-25.876
-24.313
-22.627
-20.819
-18.891
-16.844
-14.682
-12.412
-10.038
-7.572
-5.021
-2.397
0.287
3.018
5.775
8.542
11.298
14.023
16.698
19.299
21.805
24.194
26.45
28.554
30.488
32.235
33.773
35.086
36.155
36.967
37.508
37.765
37.726
37.386
36.747
35.812
34.584
33.058
31.225
29.081
26.628
23.873
20.825
17.501
13.923
10.128
6.168
2.091
-2.055
-6.233
-10.418
-14.577
-18.667
-22.644
-26.447
-30.026
-33.347
-36.362
-39.038
-41.376
-43.394
-45.147
-46.726
-48.18
-49.56
-50.932
-52.358
-53.925
-55.718
-57.762
-60.133
-62.972
-66.348
-70.265
-74.553
-78.705
-82.24
-84.845
-86.094
-85.509
-82.819
-77.956
-71.41
-64.612
-58.868
-54.821
-53.347
-55.332
-60.906
-69.942
-80.099
-86.015
-84.765
-75.397
-58.406
-37.459
-9.985
31.184
90.536
171.984
270.063
371.649
468.583
553.901
623.325
675.069
699.046
684.513
627.742
531.913
411.908
284.951
162.026
48.681
-55.147
-148.905
-228.975
-290.945
-330.976
-348.102
-343.832
-321.103
-284.283
-238.375
-188.249
-138.699
-93.36
-54.976
-26.29
-8.631
-1.764
-4.503
-14.766
-30.029
-48.244
-67.231
-84.192
-97.359
-106.017
-109.963
-109.851
-106.659
-101.083
-94.18
-87.484
-81.891
-77.798
-75.375
-74.265
-74.05
-74.52
-75.273
-75.779
-75.786
-75.176
-73.92
-72.192
-70.115
-67.73
-65.136
-62.419
-59.621
-56.795
-53.968
-51.143
-48.364
-45.669
-43.081
-40.627
-38.316
-36.147
-34.122
-32.234
-30.464
-28.804
-27.246
-25.79
-24.435
-23.175
-21.996
-20.883
-19.818
-18.784
-17.765
-16.743
-15.703
-14.634
-13.528
-12.379
-11.184
-9.938
-8.633
-7.263
-5.821
-4.303
-2.704
-1.02
0.75
2.608
4.553
6.581
8.689
10.874
13.131
15.455
17.84
20.278
22.762
25.282
27.829
30.393
32.962
35.524
38.067
40.576
43.041
45.449
47.785
50.038
52.197
54.249
56.185
57.994
59.669
61.199
62.579
63.8
64.859
65.748
66.465
67.005
67.365
67.544
67.541
67.355
66.988
66.441
65.717
64.818
63.75
62.518
61.126
59.584
57.897
56.075
54.126
52.059
49.886
47.616
45.26
42.829
40.334
37.784
35.192
32.566
29.918
27.256
24.592
21.932
19.288
16.666
14.076
11.526
9.023
6.575
4.189
1.872
-0.371
-2.532
-4.608
-6.594
-8.487
-10.282
-11.979
-13.576
-15.072
-16.466
-17.76
-18.955
-20.053
-21.056
-21.968
-22.792
-23.532
-24.193
-24.778
-25.293
-25.742
-26.129
-26.458
-26.735
-26.964
-27.148
-27.291
-27.399
-27.474
-27.52
-27.541
-27.541
-27.522
-27.487
-27.438
-27.376
-27.303
-27.218
-27.121
-27.012
-26.888
-26.747
-26.588
-26.406
-26.199
-25.961
-25.689
-25.377
-25.02
-24.612
-24.15
-23.626
-23.035
-22.375
-21.639
-20.826
-19.93
-18.949
-17.881
-16.725
-15.479
-14.144
-12.719
-11.206
-9.607
-7.926
-6.169
-4.339
-2.445
-0.495
1.501
3.53
5.58
7.636
9.684
11.709
13.694
15.624
17.485
19.262
20.942
22.51
23.949
25.243
26.376
27.333
28.101
28.666
29.016
29.142
29.043
28.714
28.154
27.356
26.303
24.989
23.409
21.563
19.456
17.099
14.51
11.723
8.785
5.742
2.64
-0.488
-3.62
-6.722
-9.758
-12.681
-15.429
-17.963
-20.255
-22.27
-23.984
-25.4
-26.551
-27.513
-28.404
-29.31
-30.288
-31.394
-32.684
-34.237
-36.152
-38.527
-41.432
-44.942
-49.188
-54.184
-59.828
-65.848
-71.71
-76.856
-80.869
-83.254
-83.474
-81.445
-77.356
-71.782
-66.016
-61.055
-57.429
-55.941
-57.176
-60.772
-65.908
-70.829
-72.467
-68.366
-56.549
-34.524
-0.371
46.661
106.487
177.242
255.075
336.148
416.189
489.695
551.062
595.05
617.167
615.674
591.828
547.203
483.383
400.105
296.19
174.703
44.885
-76.76
-172.754
-232.958
-258.332
-260.702
-253.161
-243.347
-232.17
-215.563
-192.015
-164.104
-135.956
-112.176
-94.723
-83.601
-78.97
-79.922
-84.811
-91.679
-98.305
-103.446
-106.9
-108.438
-107.53
-104.037
-98.308
-91.34
-84.569
-78.796
-74.189
-70.834
-68.846
-68.292
-69.153
-71.062
-73.329
-75.485
-77.298
-78.662
-79.585
-80.038
-79.952
-79.337
-78.293
-76.913
-75.271
-73.406
-71.306
-68.982
-66.474
-63.837
-61.146
-58.467
-55.855
-53.345
-50.959
-48.713
-46.616
-44.673
-42.878
-41.213
-39.656
-38.192
-36.815
-35.516
-34.289
-33.114
-31.971
-30.839
-29.705
-28.555
-27.38
-26.171
-24.918
-23.616
-22.262
-20.855
-19.394
-17.878
-16.303
-14.667
-12.968
-11.203
-9.375
-7.482
-5.527
-3.509
-1.433
0.697
2.877
5.102
7.366
9.663
11.987
14.331
16.686
19.046
21.402
23.744
26.064
28.352
30.597
32.79
34.922
36.981
38.959
40.847
42.636
44.32
45.89
47.341
48.667
49.862
50.922
51.843
52.621
53.253
53.738
54.075
54.264
54.304
54.197
53.944
53.547
53.009
52.332
51.52
50.576
49.506
48.313
47.003
45.584
44.063
42.449
40.749
38.973
37.129
35.228
33.279
31.291
29.271
27.226
25.163
23.09
21.018
18.956
16.91
14.888
12.898
10.945
9.037
7.178
5.371
3.617
1.916
0.271
-1.309
-2.819
-4.25
-5.601
-6.875
-8.077
-9.207
-10.269
-11.265
-12.202
-13.089
-13.929
-14.723
-15.467
-16.154
-16.784
-17.365
-17.907
-18.429
-18.927
-19.376
-19.753
-20.024
-20.188
-20.282
-20.32
-20.296
-20.21
-20.023
-19.765
-19.57
-19.392
-19.045
-18.368
-17.137
-15.382
-13.49
-11.605
-9.605
-7.697
-6.238
-5.644
-6.61
-9.106
-12.254
-15.593
-18.999
-22.072
-24.456
-25.566
-24.335
-20.697
-15.648
-9.781
-3.483
2.796
8.869
14.215
17.834
19.544
19.945
19.412
18.302
16.872
15.08
13.15
11.572
10.422
9.461
8.533
7.482
6.301
5.206
4.325
3.712
3.536
4.009
5.304
7.551
10.76
14.823
19.605
24.985
30.859
37.125
43.654
50.29
56.867
63.201
69.106
74.366
78.719
81.904
83.707
83.994
82.709
79.858
75.507
69.75
62.709
54.539
45.423
35.55
25.131
14.394
3.562
-7.123
-17.388
-26.979
-35.679
-43.338
-49.859
-55.19
-59.315
-62.242
-64.041
-64.855
-64.863
-64.257
-63.242
-62.008
-60.781
-59.874
-59.482
-59.651
-60.258
-60.942
-61.371
-61.388
-60.751
-59.075
-56.233
-52.428
-48.287
-45.028
-43.706
-44.765
-48.55
-55.451
-65.298
-77.163
-89.236
-98.589
-102.31
-98.407
-84.983
-60.032
-22.355
28.197
90.342
161.015
236.656
314.057
389.173
457.111
513.235
553.265
574.286
575.162
555.21
514.367
454.629
379.715
294.333
204.162
114.38
29.488
-45.497
-106.28
-150.746
-178.503
-190.744
-190.087
-179.25
-161.221
-140.113
-119.841
-102.914
-90.703
-83.387
-80.288
-80.716
-83.746
-87.728
-90.947
-92.405
-91.767
-89.296
-85.59
-81.122
-76.301
-71.722
-68.031
-65.593
-64.497
-64.61
-65.632
-67.323
-69.519
-72.032
-74.656
-77.22
-79.558
-81.538
-83.11
-84.233
-84.872
-85.018
-84.656
-83.791
-82.469
-80.75
-78.693
-76.359
-73.797
-71.045
-68.156
-65.189
-62.203
-59.261
-56.404
-53.657
-51.041
-48.568
-46.249
-44.086
-42.066
-40.168
-38.375
-36.674
-35.056
-33.513
-32.033
-30.6
-29.202
-27.826
-26.462
-25.102
-23.737
-22.359
-20.963
-19.544
-18.101
-16.632
-15.137
-13.61
-12.05
-10.452
-8.815
-7.137
-5.415
-3.649
-1.837
0.02
1.921
3.862
5.841
7.854
9.898
11.966
14.052
16.149
18.251
20.35
22.436
24.502
26.537
28.533
30.481
32.372
34.196
35.944
37.609
39.181
40.652
42.016
43.265
44.392
45.393
46.262
46.993
47.584
48.03
48.329
48.477
48.472
48.314
48.003
47.537
46.919
46.151
45.235
44.175
42.978
41.647
40.19
38.614
36.926
35.136
33.251
31.282
29.238
27.13
24.969
22.764
20.527
18.268
15.998
13.726
11.463
9.216
6.996
4.81
2.665
0.569
-1.47
-3.446
-5.352
-7.181
-8.927
-10.584
-12.149
-13.618
-14.987
-16.255
-17.422
-18.488
-19.453
-20.32
-21.09
-21.767
-22.356
-22.86
-23.286
-23.641
-23.93
-24.162
-24.346
-24.488
-24.596
-24.677
-24.737
-24.782
-24.816
-24.842
-24.863
-24.881
-24.899
-24.92
-24.946
-24.982
-25.031
-25.096
-25.179
-25.282
-25.404
-25.54
-25.684
-25.829
-25.966
-26.086
-26.181
-26.241
-26.259
-26.226
-26.137
-25.983
-25.753
-25.431
-24.998
-24.438
-23.739
-22.899
-21.918
-20.806
-19.579
-18.257
-16.865
-15.418
-13.926
-12.383
-10.772
-9.075
-7.273
-5.359
-3.344
-1.233
0.97
3.266
5.659
8.167
10.822
13.663
16.739
20.077
23.678
27.512
31.519
35.62
39.722
43.746
47.634
51.33
54.786
57.949
60.766
63.171
65.082
66.409
67.048
66.919
65.974
64.206
61.641
58.347
54.423
49.952
45.005
39.651
33.946
27.967
21.801
15.539
9.275
3.115
-2.824
-8.426
-13.594
-18.262
-22.387
-25.974
-29.065
-31.676
-33.821
-35.533
-36.853
-37.876
-38.728
-39.506
-40.286
-41.143
-42.161
-43.465
-45.17
-47.377
-50.157
-53.496
-57.417
-62.007
-67.206
-72.846
-78.573
-83.75
-87.815
-90.369
-90.892
-89.002
-84.684
-78.039
-69.766
-61.085
-52.875
-46.058
-41.578
-39.543
-39.369
-40.156
-39.893
-35.87
-25.768
-6.617
24.796
68.762
123.263
186.41
254.453
326.613
406.395
490.691
572.337
639.66
674.314
666.837
617.557
531.712
420.735
295.34
164.003
38.421
-66.427
-140.497
-181.183
-193.463
-190.731
-181.629
-166.52
-146.357
-121.771
-97.542
-84.272
-84.746
-94.392
-107.577
-115.701
-116.228
-113.387
-109.15
-105.534
-103.113
-99.516
-94.297
-88.213
-81.696
-75.764
-71.168
-67.899
-65.968
-65.367
-65.815
-67.049
-68.905
-71.188
-73.695
-76.296
-78.826
-81.08
-82.962
-84.412
-85.367
-85.812
-85.731
-85.112
-83.986
-82.419
-80.47
-78.196
-75.653
-72.878
-69.928
-66.87
-63.775
-60.717
-57.751
-54.908
-52.213
-49.68
-47.319
-45.132
-43.107
-41.218
-39.444
-37.774
-36.195
-34.702
-33.283
-31.92
-30.598
-29.302
-28.018
-26.736
-25.445
-24.134
-22.793
-21.416
-20
-18.541
-17.037
-15.481
-13.869
-12.196
-10.457
-8.651
-6.775
-4.828
-2.809
-0.721
1.432
3.646
5.914
8.231
10.591
12.985
15.407
17.848
20.302
22.758
25.209
27.646
30.058
32.436
34.77
37.05
39.264
41.403
43.455
45.41
47.258
48.989
50.595
52.065
53.392
54.568
55.587
56.442
57.129
57.644
57.983
58.147
58.135
57.948
57.588
57.059
56.362
55.504
54.488
53.32
52.006
50.553
48.967
47.255
45.428
43.493
41.459
39.337
37.136
34.867
32.54
30.167
27.758
25.325
22.877
20.426
17.984
15.559
13.162
10.802
8.487
6.226
4.026
1.892
-0.169
-2.153
-4.056
-5.875
-7.605
-9.246
-10.795
-12.251
-13.615
-14.886
-16.064
-17.153
-18.153
-19.067
-19.899
-20.652
-21.331
-21.94
-22.483
-22.967
-23.396
-23.777
-24.115
-24.416
-24.685
-24.928
-25.149
-25.352
-25.542
-25.721
-25.892
-26.057
-26.216
-26.371
-26.522
-26.668
-26.807
-26.939
-27.061
-27.168
-27.258
-27.326
-27.368
-27.377
-27.35
-27.278
-27.158
-26.98
-26.74
-26.43
-26.043
-25.572
-25.01
-24.349
-23.584
-22.71
-21.721
-20.614
-19.384
-18.029
-16.55
-14.946
-13.218
-11.37
-9.403
-7.324
-5.139
-2.856
-0.485
1.965
4.481
7.048
9.651
12.271
14.893
17.497
20.065
22.576
25.011
27.353
29.584
31.685
33.638
35.423
37.021
38.413
39.581
40.507
41.176
41.571
41.681
41.503
41.031
40.26
39.184
37.787
36.061
34.011
31.635
28.943
25.947
22.665
19.136
15.416
11.555
7.604
3.602
-0.426
-4.437
-8.384
-12.215
-15.863
-19.283
-22.455
-25.341
-27.912
-30.165
-32.117
-33.853
-35.497
-37.15
-38.887
-40.752
-42.785
-45.07
-47.703
-50.785
-54.416
-58.616
-63.419
-68.924
-75.087
-81.728
-88.507
-94.804
-100.049
-103.867
-105.782
-105.385
-102.676
-97.843
-91.469
-84.601
-77.896
-71.826
-67.143
-64.129
-62.344
-60.873
-57.931
-51.271
-39.338
-20.441
7.755
46.864
97.752
159.057
226.496
295.891
363.359
428.01
491.885
552.943
606.357
642.137
644.969
607.283
528.655
414.858
281.172
141.273
7.133
-106.879
-191.757
-243.174
-262.962
-262.622
-253.649
-242.639
-231.085
-215.087
-192.745
-166.73
-141.084
-119.918
-104.956
-95.528
-90.974
-90.749
-93.749
-98.219
-102.313
-105.016
-106.175
-106.047
-104.636
-101.503
-96.676
-90.979
-85.532
-81.103
-77.903
-75.775
-74.6
-74.552
-75.718
-77.821
-80.318
-82.695
-84.658
-86.141
-87.185
-87.751
-87.764
-87.204
-86.137
-84.671
-82.903
-80.88
-78.602
-76.078
-73.338
-70.439
-67.459
-64.466
-61.518
-58.648
-55.878
-53.222
-50.692
-48.295
-46.025
-43.865
-41.792
-39.792
-37.857
-35.985
-34.17
-32.398
-30.65
-28.91
-27.164
-25.403
-23.623
-21.815
-19.975
-18.099
-16.188
-14.243
-12.268
-10.263
-8.228
-6.162
-4.064
-1.935
0.223
2.409
4.621
6.859
9.117
11.394
13.684
15.982
18.285
20.587
22.883
25.165
27.428
29.665
31.869
34.032
36.147
38.204
40.197
42.117
43.955
45.704
47.356
48.904
50.34
51.66
52.855
53.923
54.857
55.655
56.312
56.825
57.193
57.412
57.482
57.401
57.168
56.785
56.25
55.566
54.734
53.756
52.635
51.375
49.98
48.454
46.803
45.034
43.152
41.166
39.083
36.913
34.666
32.349
29.975
27.552
25.09
22.601
20.092
17.573
15.054
12.543
10.048
7.577
5.138
2.737
0.381
-1.922
-4.168
-6.35
-8.463
-10.502
-12.463
-14.342
-16.134
-17.837
-19.449
-20.966
-22.39
-23.718
-24.951
-26.092
-27.141
-28.101
-28.977
-29.772
-30.492
-31.14
-31.723
-32.246
-32.714
-33.133
-33.507
-33.841
-34.138
-34.403
-34.639
-34.847
-35.03
-35.189
-35.326
-35.442
-35.538
-35.612
-35.665
-35.697
-35.706
-35.692
-35.653
-35.587
-35.491
-35.363
-35.199
-34.996
-34.749
-34.454
-34.106
-33.698
-33.225
-32.682
-32.062
-31.36
-30.569
-29.685
-28.704
-27.623
-26.44
-25.151
-23.759
-22.263
-20.667
-18.973
-17.187
-15.314
-13.359
-11.332
-9.24
-7.092
-4.898
-2.669
-0.417
1.843
4.096
6.327
8.52
10.659
12.726
14.705
16.579
18.335
19.96
21.439
22.756
23.894
24.836
25.572
26.089
26.377
26.428
26.233
25.793
25.112
24.196
23.045
21.654
20.012
18.114
15.964
13.566
10.935
8.084
5.03
1.805
-1.548
-4.985
-8.468
-11.961
-15.446
-18.883
-22.22
-25.401
-28.353
-31.021
-33.367
-35.355
-36.966
-38.207
-39.095
-39.671
-39.997
-40.135
-40.167
-40.194
-40.316
-40.65
-41.305
-42.424
-44.23
-46.814
-50.102
-53.876
-57.7
-61.138
-63.93
-65.738
-66.063
-64.762
-62.102
-58.74
-55.923
-54.737
-55.639
-58.998
-65.203
-73.973
-84.271
-94.235
-100.951
-101.584
-94.129
-76.751
-47.8
-6.331
47.786
113.424
187.945
266.977
345.136
417.287
479.317
530.824
573.882
608.033
629.129
627.689
592.521
519.039
410.042
276.528
134.568
-0.641
-114.453
-197.295
-246.706
-266.519
-267.704
-260.791
-251.595
-241.645
-228.137
-209.886
-189.252
-169.286
-153.244
-142.432
-135.81
-131.999
-129.523
-126.858
-122.812
-116.821
-108.853
-99.299
-88.876
-78.194
-67.755
-58.215
-50.235
-44.196
-40.251
-38.298
-38.035
-39.222
-41.625
-44.955
-48.886
-53.052
-57.133
-60.936
-64.352
-67.314
-69.78
-71.677
-72.936
-73.528
-73.423
-72.624
-71.156
-69.03
-66.298
-63.05
-59.406
-55.534
-51.598
-47.701
-43.914
-40.281
-36.822
-33.567
-30.538
-27.729
-25.146
-22.789
-20.661
-18.772
-17.117
-15.671
-14.393
-13.226
-12.115
-11.022
-9.92
-8.79
-7.62
-6.4
-5.127
-3.806
-2.443
-1.033
0.428
1.95
3.54
5.198
6.922
8.708
10.549
12.44
14.376
16.351
18.359
20.396
22.458
24.545
26.653
28.777
30.911
33.047
35.174
37.285
39.369
41.415
43.412
45.35
47.22
49.013
50.719
52.329
53.835
55.229
56.502
57.648
58.658
59.527
60.247
60.814
61.223
61.47
61.551
61.465
61.209
60.785
60.192
59.432
58.508
57.423
56.181
54.786
53.245
51.563
49.748
47.808
45.751
43.586
41.323
38.971
36.541
34.041
31.483
28.877
26.233
23.562
20.873
18.177
15.485
12.806
10.149
7.525
4.942
2.41
-0.065
-2.474
-4.81
-7.067
-9.24
-11.323
-13.312
-15.205
-16.997
-18.689
-20.277
-21.763
-23.146
-24.427
-25.607
-26.688
-27.673
-28.564
-29.366
-30.081
-30.715
-31.272
-31.756
-32.174
-32.529
-32.827
-33.074
-33.273
-33.429
-33.548
-33.632
-33.686
-33.714
-33.717
-33.7
-33.662
-33.607
-33.533
-33.44
-33.329
-33.196
-33.04
-32.857
-32.644
-32.398
-32.115
-31.79
-31.42
-30.998
-30.52
-29.98
-29.373
-28.692
-27.93
-27.083
-26.145
-25.11
-23.976
-22.736
-21.388
-19.929
-18.359
-16.676
-14.883
-12.979
-10.966
-8.85
-6.637
-4.333
-1.947
0.512
3.032
5.599
8.198
10.812
13.427
16.025
18.588
21.1
23.542
25.897
28.15
30.284
32.282
34.123
35.788
37.26
38.521
39.555
40.348
40.883
41.15
41.148
40.872
40.321
39.486
38.356
36.925
35.194
33.167
30.85
28.258
25.41
22.338
19.09
15.709
12.236
8.701
5.123
1.531
-2.035
-5.534
-8.91
-12.127
-15.161
-17.98
-20.543
-22.838
-24.886
-26.74
-28.494
-30.205
-31.889
-33.571
-35.291
-37.115
-39.127
-41.404
-43.972
-46.879
-50.233
-54.068
-58.331
-62.794
-66.956
-70.3
-72.448
-73.013
-71.588
-68.025
-62.413
-55.255
-47.77
-41.129
-36.123
-33.528
-33.919
-37.309
-43.179
-50.108
-55.333
-55.997
-49.737
-34.027
-6.671
33.835
88.496
155.556
229.844
306.369
380.065
449.28
516.72
580.229
634.067
667.587
665.251
620.448
535.423
417.484
280.041
135.929
-4.898
-129.796
-225.479
-285.304
-306.713
-292.798
-254.379
-200.225
-139.775
-85.653
-45.475
-24.001
-20.284
-25.138
-31.371
-35.341
-37.035
-41.26
-50.38
-63.225
-77.75
-90.448
-98.904
-102.944
-103.027
-100.133
-95.723
-91.036
-86.712
-83.188
-80.771
-79.416
-79.043
-79.507
-80.3
-80.832
-80.758
-79.887
-78.193
-75.824
-72.863
-69.364
-65.438
-61.207
-56.814
-52.397
-48.078
-43.978
-40.197
-36.825
-33.947
-31.639
-29.94
-28.854
-28.318
-28.222
-28.482
-29.029
-29.816
-30.813
-31.953
-33.155
-34.336
-35.395
-36.255
-36.865
-37.165
-37.109
-36.682
-35.891
-34.784
-33.452
-31.958
-30.338
-28.621
-26.812
-24.93
-23.003
-21.048
-19.085
-17.131
-15.195
-13.292
-11.438
-9.631
-7.86
-6.1
-4.303
-2.441
-0.5
1.532
3.654
5.862
8.157
10.527
12.957
15.433
17.942
20.475
23.024
25.578
28.119
30.629
33.087
35.471
37.766
39.956
42.027
43.968
45.767
47.419
48.92
50.266
51.451
52.472
53.321
53.995
54.491
54.806
54.939
54.887
54.652
54.235
53.641
52.872
51.934
50.833
49.575
48.167
46.617
44.936
43.131
41.214
39.196
37.088
34.902
32.649
30.343
27.995
25.617
23.22
20.816
18.415
16.027
13.661
11.326
9.03
6.782
4.588
2.454
0.389
-1.604
-3.519
-5.351
-7.097
-8.755
-10.322
-11.797
-13.18
-14.471
-15.67
-16.78
-17.802
-18.74
-19.595
-20.374
-21.08
-21.718
-22.294
-22.814
-23.283
-23.708
-24.094
-24.448
-24.774
-25.077
-25.362
-25.633
-25.892
-26.142
-26.386
-26.625
-26.859
-27.089
-27.315
-27.536
-27.748
-27.951
-28.14
-28.311
-28.459
-28.58
-28.666
-28.712
-28.711
-28.655
-28.538
-28.35
-28.084
-27.732
-27.285
-26.735
-26.074
-25.293
-24.385
-23.343
-22.163
-20.838
-19.366
-17.742
-15.967
-14.04
-11.962
-9.737
-7.366
-4.856
-2.214
0.553
3.435
6.419
9.494
12.645
15.854
19.101
22.369
25.636
28.881
32.082
35.216
38.26
41.195
44
46.653
49.135
51.422
53.493
55.329
56.91
58.218
59.238
59.953
60.354
60.435
60.191
59.62
58.713
57.457
55.848
53.884
51.567
48.904
45.91
42.606
39.027
35.225
31.249
27.15
22.973
18.754
14.54
10.382
6.34
2.481
-1.147
-4.508
-7.558
-10.26
-12.608
-14.629
-16.386
-17.984
-19.5
-20.99
-22.521
-24.173
-26.049
-28.246
-30.854
-33.921
-37.498
-41.706
-46.564
-51.964
-57.656
-63.182
-68.086
-72.026
-74.578
-75.21
-73.736
-70.242
-65.147
-59.366
-53.529
-48.187
-44.154
-41.999
-41.824
-41.967
-40.035
-34.775
-24.417
-10.047
7.798
35.034
74.626
130.307
204.527
286.773
369.449
447.415
513.768
571.724
618.948
645.397
643.823
605.179
531.736
436.16
329.641
223.888
121.549
23.241
-63.081
-130.559
-169.782
-177.59
-163.559
-138.098
-112.172
-92.407
-77.519
-66.387
-58.125
-52.719
-52.047
-55.954
-62.93
-71.013
-77.693
-81.745
-83.007
-81.568
-77.971
-72.918
-67.033
-61.121
-55.988
-52.002
-49.268
-47.729
-47.166
-47.394
-48.264
-49.571
-51.114
-52.767
-54.426
-55.999
-57.417
-58.572
-59.373
-59.773
-59.741
-59.27
-58.37
-57.066
-55.394
-53.409
-51.164
-48.701
-46.059
-43.274
-40.389
-37.458
-34.534
-31.676
-28.923
-26.303
-23.835
-21.53
-19.387
-17.401
-15.554
-13.822
-12.19
-10.641
-9.166
-7.752
-6.386
-5.053
-3.736
-2.422
-1.096
0.253
1.636
3.061
4.536
6.065
7.651
9.295
10.999
12.767
14.6
16.502
18.475
20.52
22.637
24.828
27.091
29.422
31.818
34.273
36.78
39.333
41.922
44.539
47.174
49.815
52.452
55.073
57.667
60.22
62.722
65.16
67.524
69.801
71.982
74.057
76.015
77.85
79.552
81.115
82.531
83.794
84.899
85.84
86.613
87.215
87.641
87.891
87.961
87.853
87.566
87.102
86.464
85.655
84.681
83.547
82.259
80.825
79.253
77.553
75.732
73.802
71.771
69.649
67.448
65.175
62.842
60.456
58.028
55.567
53.08
50.576
48.063
45.55
43.043
40.552
38.082
35.641
33.237
30.874
28.56
26.3
24.1
21.963
19.894
17.896
15.972
14.123
12.349
10.652
9.029
7.481
6.004
4.598
3.259
1.985
0.773
-0.379
-1.474
-2.514
-3.501
-4.437
-5.325
-6.165
-6.959
-7.709
-8.415
-9.079
-9.699
-10.278
-10.816
-11.311
-11.765
-12.178
-12.548
-12.874
-13.156
-13.39
-13.576
-13.71
-13.786
-13.802
-13.751
-13.628
-13.428
-13.144
-12.771
-12.303
-11.733
-11.059
-10.274
-9.374
-8.356
-7.218
-5.956
-4.571
-3.061
-1.428
0.326
2.2
4.189
6.288
8.492
10.794
13.186
15.662
18.211
20.823
23.487
26.192
28.924
31.666
34.402
37.11
39.77
42.363
44.866
47.258
49.515
51.619
53.553
55.301
56.845
58.168
59.253
60.083
60.645
60.927
60.919
60.613
60.001
59.083
57.867
56.355
54.548
52.442
50.026
47.293
44.245
40.886
37.228
33.289
29.09
24.668
20.076
15.363
10.577
5.757
0.935
-3.843
-8.519
-13.031
-17.308
-21.288
-24.923
-28.17
-31.014
-33.463
-35.544
-37.313
-38.837
-40.18
-41.437
-42.697
-44.048
-45.616
-47.49
-49.805
-52.778
-56.472
-60.824
-65.647
-70.475
-74.83
-78.419
-80.744
-81.216
-79.762
-76.558
-72.253
-68.292
-65.764
-65.267
-67.671
-73.587
-82.618
-93.834
-105.153
-113.068
-114.732
-107.748
-89.326
-57.328
-10.757
50.379
124.101
206.336
293.007
379.534
460.11
528.871
580.026
608.273
611.472
590.977
548.387
486.606
405.766
302.09
178.152
41.491
-91.828
-196.932
-259.657
-277.672
-260.323
-229.361
-199.846
-177.601
-163.203
-150.795
-137.746
-125.67
-116.499
-112.758
-114.495
-119.681
-126.009
-131.074
-133.751
-133.926
-131.784
-127.927
-123.026
-117.662
-112.606
-108.616
-106.037
-104.951
-105.244
-106.626
-108.858
-111.757
-115.086
-118.597
-122.087
-125.374
-128.31
-130.826
-132.863
-134.365
-135.308
-135.675
-135.469
-134.733
-133.524
-131.897
-129.905
-127.597
-125.013
-122.21
-119.255
-116.216
-113.165
-110.155
-107.222
-104.399
-101.71
-99.171
-96.792
-94.57
-92.489
-90.54
-88.714
-87.006
-85.414
-83.933
-82.553
-81.269
-80.072
-78.954
-77.912
-76.938
-76.027
-75.174
-74.369
-73.604
-72.876
-72.185
-71.537
-70.947
-70.424
-69.971
-69.587
-69.269
-69.011
-68.806
-68.633
-68.456
-68.242
-67.96
-67.591
-67.123
-66.535
-65.793
-64.847
-63.646
-62.143
-60.318
-58.175
-55.72
-52.971
-49.96
-46.73
-43.379
-40.046
-36.864
-33.95
-31.415
-29.337
-27.853
-27.218
-27.575
-28.887
-30.938
-33.291
-35.534
-37.438
