Name,Criss Capps
Date of Birth,"Feb 5, 1952"
Recorded Date,2021-09-01 15:27:25 -0400
Classification,Sinus Rhythm
Symptoms,
Software Version,1.90
Device,"Watch5,4"
Sample Rate,512.844 hertz


Lead,Lead I
Unit,µV

118.844
141.214
153.805
155.731
152.148
147.627
146.828
150.949
156.431
160.948
162.996
162.242
160.2
157.257
153.19
148.037
141.572
133.897
125.336
115.941
105.884
95.54
85.17
74.98
65.083
55.461
46.142
37.207
28.69
20.563
12.77
5.249
-2.019
-9.032
-15.809
-22.401
-28.894
-35.364
-41.845
-48.355
-54.897
-61.471
-68.08
-74.712
-81.33
-87.895
-94.364
-100.705
-106.896
-112.91
-118.71
-124.254
-129.493
-134.385
-138.907
-143.035
-146.754
-150.053
-152.922
-155.361
-157.379
-158.987
-160.19
-160.997
-161.41
-161.439
-161.096
-160.395
-159.352
-157.981
-156.297
-154.313
-152.048
-149.517
-146.735
-143.718
-140.48
-137.035
-133.401
-129.595
-125.637
-121.545
-117.335
-113.028
-108.642
-104.196
-99.708
-95.197
-90.678
-86.169
-81.688
-77.249
-72.869
-68.562
-64.342
-60.222
-56.214
-52.329
-48.579
-44.972
-41.517
-38.221
-35.091
-32.132
-29.349
-26.744
-24.32
-22.078
-20.018
-18.142
-16.448
-14.933
-13.597
-12.437
-11.45
-10.633
-9.981
-9.489
-9.152
-8.966
-8.925
-9.022
-9.253
-9.611
-10.092
-10.692
-11.407
-12.234
-13.169
-14.209
-15.351
-16.592
-17.928
-19.353
-20.861
-22.446
-24.104
-25.832
-27.626
-29.479
-31.385
-33.339
-35.335
-37.367
-39.426
-41.498
-43.573
-45.64
-47.696
-49.746
-51.788
-53.817
-55.829
-57.816
-59.771
-61.684
-63.532
-65.279
-66.89
-68.327
-69.56
-70.568
-71.315
-71.762
-71.862
-71.561
-70.82
-69.62
-67.938
-65.758
-63.086
-59.938
-56.359
-52.45
-48.31
-44.041
-39.769
-35.607
-31.684
-28.157
-25.205
-22.952
-21.441
-20.623
-20.334
-20.374
-20.515
-20.449
-19.778
-18.18
-15.508
-11.839
-7.564
-3.216
0.679
3.555
4.897
4.354
1.828
-2.348
-7.351
-11.133
-10.623
-3.249
13.482
39.526
71.821
109.704
153.335
205.309
272.283
355.326
451.873
556.917
659.781
752.631
827.484
874.087
884.287
849.362
765.939
638.068
475.581
294.885
114.155
-48.584
-178.675
-267.63
-314.676
-325.908
-309.307
-274.291
-227.936
-175.561
-125.051
-82.495
-51.694
-33.754
-23.99
-16.753
-9.527
-1.858
3.736
3.901
-1.546
-10.941
-21.623
-30.31
-35.248
-36.164
-33.286
-27.285
-18.901
-8.795
2.13
12.749
22.006
29.301
34.459
37.565
38.9
38.753
37.414
35.26
32.667
29.857
26.92
23.863
20.639
17.255
13.79
10.347
7.043
3.97
1.199
-1.223
-3.267
-4.924
-6.208
-7.146
-7.759
-8.064
-8.067
-7.762
-7.144
-6.227
-5.045
-3.667
-2.178
-0.638
0.918
2.471
4.02
5.566
7.117
8.699
10.346
12.08
13.92
15.871
17.934
20.119
22.446
24.941
27.64
30.565
33.73
37.144
40.809
44.723
48.878
53.257
57.834
62.586
67.494
72.539
77.705
82.97
88.311
93.701
99.114
104.523
109.9
115.217
120.445
125.557
130.525
135.324
139.93
144.319
148.464
152.341
155.926
159.195
162.127
164.699
166.892
168.686
170.067
171.018
171.529
171.588
171.187
170.319
168.98
167.168
164.881
162.122
158.893
155.201
151.052
146.455
141.421
135.963
130.095
123.833
117.197
110.205
102.878
95.24
87.312
79.121
70.692
62.051
53.226
44.243
35.133
25.924
16.644
7.323
-2.011
-11.329
-20.603
-29.807
-38.913
-47.896
-56.731
-65.394
-73.863
-82.115
-90.13
-97.889
-105.375
-112.571
-119.462
-126.037
-132.284
-138.194
-143.759
-148.973
-153.832
-158.334
-162.476
-166.26
-169.687
-172.76
-175.486
-177.87
-179.921
-181.647
-183.06
-184.171
-184.991
-185.535
-185.815
-185.844
-185.638
-185.21
-184.575
-183.748
-182.744
-181.578
-180.263
-178.813
-177.243
-175.562
-173.783
-171.915
-169.968
-167.949
-165.865
-163.721
-161.522
-159.272
-156.977
-154.639
-152.261
-149.845
-147.391
-144.9
-142.369
-139.797
-137.176
-134.499
-131.758
-128.947
-126.06
-123.09
-120.032
-116.876
-113.62
-110.261
-106.793
-103.212
-99.508
-95.664
-91.675
-87.544
-83.278
-78.89
-74.396
-69.804
-65.133
-60.408
-55.643
-50.85
-46.027
-41.152
-36.223
-31.243
-26.232
-21.222
-16.234
-11.272
-6.337
-1.429
3.455
8.31
13.148
18.007
22.892
27.784
32.635
37.354
41.873
46.15
50.154
53.869
57.27
60.31
62.953
65.176
66.947
68.242
69.008
69.156
68.638
67.447
65.622
63.255
60.415
57.148
53.505
49.537
45.313
40.912
36.398
31.81
27.196
22.61
18.145
13.923
10.042
6.561
3.496
0.83
-1.444
-3.342
-4.9
-6.184
-7.293
-8.312
-9.308
-10.346
-11.492
-12.847
-14.533
-16.651
-19.306
-22.621
-26.633
-31.325
-36.585
-42.071
-47.406
-52.269
-56.228
-58.854
-59.897
-59.167
-56.818
-53.594
-50.227
-47.285
-45.493
-45.463
-47.496
-51.982
-58.051
-62.826
-63.635
-58.109
-45.348
-27.827
-7.387
17.068
48.764
94.314
159.673
244.4
344.165
450.957
553.868
645.012
715.816
756.186
757.587
711.885
617.227
479.333
310.648
128.68
-50.29
-210.305
-341.308
-439.663
-502.732
-534.727
-539.166
-516.297
-471.815
-410.354
-339.913
-274.618
-221.817
-184.822
-162.293
-145.689
-130.721
-116.694
-104.61
-98.849
-100.551
-107.708
-117.534
-125.984
-130.458
-130.442
-126.154
-118.418
-108.216
-96.367
-83.864
-71.911
-61.634
-53.657
-48.106
-44.813
-43.384
-43.396
-44.44
-46.009
-47.557
-48.751
-49.421
-49.48
-48.965
-47.906
-46.3
-44.196
-41.666
-38.753
-35.514
-32.006
-28.266
-24.367
-20.401
-16.451
-12.624
-9.004
-5.649
-2.621
0.042
2.324
4.208
5.694
6.796
7.526
7.908
7.974
7.749
7.266
6.566
5.687
4.679
3.583
2.429
1.243
0.044
-1.154
-2.336
-3.493
-4.626
-5.73
-6.803
-7.842
-8.842
-9.801
-10.718
-11.596
-12.439
-13.25
-14.031
-14.785
-15.517
-16.229
-16.927
-17.615
-18.296
-18.975
-19.66
-20.358
-21.08
-21.834
-22.631
-23.48
-24.392
-25.378
-26.446
-27.605
-28.864
-30.23
-31.71
-33.31
-35.037
-36.896
-38.89
-41.024
-43.3
-45.72
-48.286
-50.997
-53.853
-56.852
-59.991
-63.266
-66.674
-70.21
-73.866
-77.637
-81.515
-85.492
-89.558
-93.704
-97.919
-102.193
-106.513
-110.869
-115.248
-119.637
-124.025
-128.399
-132.746
-137.056
-141.314
-145.51
-149.633
-153.669
-157.609
-161.442
-165.156
-168.742
-172.191
-175.493
-178.641
-181.628
-184.445
-187.089
-189.552
-191.831
-193.922
-195.822
-197.528
-199.04
-200.356
-201.477
-202.404
-203.138
-203.684
-204.043
-204.221
-204.221
-204.05
-203.714
-203.219
-202.572
-201.781
-200.854
-199.801
-198.629
-197.349
-195.97
-194.503
-192.956
-191.34
-189.664
-187.938
-186.172
-184.374
-182.553
-180.716
-178.874
-177.031
-175.197
-173.376
-171.576
-169.8
-168.055
-166.344
-164.67
-163.036
-161.443
-159.894
-158.388
-156.926
-155.506
-154.128
-152.788
-151.484
-150.214
-148.971
-147.753
-146.553
-145.367
-144.188
-143.01
-141.827
-140.632
-139.42
-138.184
-136.92
-135.621
-134.283
-132.9
-131.469
-129.986
-128.449
-126.856
-125.204
-123.494
-121.725
-119.9
-118.019
-116.087
-114.106
-112.084
-110.028
-107.945
-105.846
-103.74
-101.637
-99.548
-97.487
-95.463
-93.486
-91.567
-89.716
-87.948
-86.274
-84.706
-83.256
-81.932
-80.744
-79.7
-78.808
-78.066
-77.475
-77.035
-76.747
-76.622
-76.667
-76.882
-77.264
-77.81
-78.508
-79.345
-80.301
-81.337
-82.415
-83.499
-84.554
-85.555
-86.478
-87.284
-87.927
-88.355
-88.511
-88.366
-87.892
-87.058
-85.86
-84.311
-82.453
-80.367
-78.131
-75.813
-73.489
-71.238
-69.151
-67.352
-65.934
-65.006
-64.715
-65.107
-66.17
-67.823
-69.764
-71.621
-73.064
-73.653
-72.918
-70.623
-66.621
-61.033
-54.542
-47.898
-41.734
-36.698
-33.305
-31.779
-32.208
-34.239
-35.791
-33.7
-25.251
-7.759
18.722
51.065
88.572
131.492
182.592
249.074
332.674
430.877
538.399
643.551
737.834
815.128
867.296
888.271
870.239
805.768
694.575
543.904
368.88
190.021
27.737
-103.907
-198.859
-257.334
-285.384
-288.498
-270.243
-235.761
-189.847
-140.048
-94.643
-57.333
-28.29
-3.15
22.497
49.268
75.37
96.614
110.307
116.96
118.298
116.879
114.844
113.13
112.398
113.245
115.751
119.662
124.616
130.112
135.569
140.535
144.482
146.766
147.207
145.977
143.362
139.82
135.735
131.349
126.998
123.084
119.84
117.383
115.732
114.782
114.469
114.766
115.607
116.904
118.551
120.427
122.412
124.4
126.305
128.061
129.605
130.879
131.841
132.468
132.758
132.737
132.418
131.817
130.95
129.841
128.529
127.063
125.496
123.881
122.261
120.672
119.145
117.708
116.383
115.186
114.124
113.195
112.405
111.761
111.27
110.94
110.773
110.77
110.929
111.25
111.732
112.372
113.168
114.116
115.215
116.462
117.855
119.391
121.067
122.875
124.808
126.857
129.011
131.259
133.589
135.99
138.448
140.95
143.484
146.038
148.6
151.156
153.695
156.205
158.672
161.087
163.436
165.709
167.895
169.984
171.967
173.834
175.577
177.188
178.66
179.987
181.162
182.182
183.04
183.735
184.263
184.623
184.813
184.834
184.687
184.374
183.896
183.259
182.465
181.519
180.426
179.192
177.822
176.324
174.704
172.969
171.128
169.188
167.158
165.046
162.862
160.615
158.314
155.967
153.585
151.177
148.752
146.319
143.887
141.465
139.061
136.684
134.341
132.039
129.783
127.579
125.431
123.344
121.32
119.361
117.469
115.646
113.891
112.204
110.585
109.031
107.541
106.11
104.735
103.412
102.134
100.896
99.692
98.514
97.355
96.208
95.064
93.914
92.749
91.56
90.337
89.071
87.751
86.367
84.911
83.375
81.75
80.029
78.206
76.276
74.234
72.075
69.796
67.393
64.861
62.199
59.401
56.465
53.388
50.169
46.808
43.308
39.671
35.905
32.015
28.008
23.891
19.669
15.349
10.938
6.439
1.86
-2.793
-7.507
-12.266
-17.057
-21.871
-26.704
-31.555
-36.433
-41.348
-46.314
-51.35
-56.465
-61.663
-66.938
-72.27
-77.642
-83.033
-88.434
-93.846
-99.27
-104.704
-110.141
-115.568
-120.958
-126.273
-131.467
-136.483
-141.285
-145.857
-150.209
-154.377
-158.415
-162.387
-166.345
-170.321
-174.344
-178.428
-182.596
-186.869
-191.288
-195.911
-200.81
-206.062
-211.725
-217.829
-224.36
-231.267
-238.463
-245.82
-253.225
-260.584
-267.813
-274.857
-281.657
-288.146
-294.251
-299.881
-304.927
-309.289
-312.877
-315.622
-317.515
-318.591
-318.936
-318.703
-318.021
-317.003
-315.77
-314.41
-313.028
-311.753
-310.674
-309.903
-309.605
-309.867
-310.71
-312.06
-313.595
-314.896
-315.584
-315.178
-313.178
-309.307
-303.427
-295.734
-286.994
-278.138
-269.953
-263.135
-258.286
-255.725
-255.455
-256.898
-257.831
-254.843
-245.046
-226.553
-199.596
-165.909
-125.524
-75.732
-12.208
67.642
162.189
264.313
364.093
455.285
534.4
599.25
646.767
668.107
652.214
591.586
485.134
339.573
168.935
-10.07
-180.434
-325.673
-434.798
-501.8
-528.015
-520.239
-484.791
-431.188
-367.075
-300.144
-242.264
-198.664
-170.877
-156.641
-146.902
-137.371
-127.6
-118.755
-115.401
-118.662
-126.405
-135.959
-143.651
-147.359
-146.946
-142.795
-135.741
-126.729
-116.565
-106.194
-96.61
-88.632
-82.61
-78.471
-75.964
-74.682
-74.203
-74.144
-74.083
-73.647
-72.655
-71.056
-68.855
-66.108
-62.827
-59.009
-54.71
-50.004
-44.975
-39.725
-34.33
-28.86
-23.406
-18.053
-12.862
-7.88
-3.121
1.415
5.719
9.78
13.581
17.109
20.366
23.366
26.132
28.702
31.11
33.394
35.596
37.753
39.894
42.044
44.213
46.406
48.631
50.9
53.223
55.616
58.088
60.649
63.307
66.066
68.932
71.906
74.987
78.174
81.466
84.86
88.357
91.955
95.651
99.441
103.319
107.277
111.305
115.391
119.523
123.686
127.865
132.043
136.206
140.337
144.419
148.435
152.368
156.202
159.919
163.502
166.937
170.206
173.296
176.191
178.878
181.345
183.58
185.573
187.315
188.797
190.013
190.958
191.626
192.017
192.127
191.957
191.507
190.781
189.783
188.516
186.99
185.211
183.189
180.935
178.459
175.775
172.894
169.832
166.602
163.218
159.697
156.053
152.302
148.461
144.544
140.569
136.549
132.502
128.441
124.381
120.337
116.321
112.347
108.427
104.573
100.796
97.105
93.51
90.019
86.639
83.376
80.235
77.219
74.329
71.568
68.934
66.428
64.046
61.787
59.646
57.618
55.698
53.88
52.157
50.522
48.966
47.48
46.056
44.684
43.355
42.059
40.787
39.527
38.271
37.008
35.729
34.423
33.082
31.696
30.257
28.757
27.19
25.549
23.831
22.032
20.151
18.188
16.143
14.017
11.812
9.529
7.173
4.745
2.249
-0.311
-2.93
-5.602
-8.316
-11.064
-13.834
-16.616
-19.396
-22.161
-24.895
-27.586
-30.221
-32.788
-35.275
-37.665
-39.937
-42.074
-44.07
-45.917
-47.61
-49.153
-50.547
-51.801
-52.941
-53.986
-54.953
-55.86
-56.706
-57.488
-58.211
-58.879
-59.498
-60.07
-60.572
-60.981
-61.278
-61.443
-61.455
-61.282
-60.864
-60.154
-59.121
-57.747
-56.049
-54.057
-51.801
-49.319
-46.666
-43.913
-41.164
-38.54
-36.132
-34.032
-32.327
-31.114
-30.528
-30.693
-31.694
-33.597
-36.425
-40.176
-44.847
-50.411
-56.795
-63.897
-71.576
-79.667
-88.046
-96.6
-105.211
-113.76
-122.088
-130.036
-137.49
-144.357
-150.574
-156.102
-160.903
-164.976
-168.39
-171.262
-173.731
-175.948
-178.023
-180.059
-182.176
-184.511
-187.224
-190.445
-194.281
-198.852
-204.193
-210.276
-216.99
-224.003
-230.881
-237.221
-242.556
-246.395
-248.492
-248.701
-247.109
-244.351
-241.15
-238.09
-235.757
-234.661
-235.025
-236.934
-240.117
-242.48
-240.735
-232.287
-214.63
-188.195
-156.861
-121.609
-82.118
-35.158
27.804
109.519
208.255
318.681
426.751
521.417
593.659
633.544
638.85
606.756
535.278
429.102
291.085
128.829
-43.816
-213.192
-361.803
-474.077
-542.805
-567.067
-552.574
-511.324
-455.74
-397.147
-346.767
-309.223
-284.392
-269.305
-256.596
-243.05
-229.225
-216.841
-210.468
-211.441
-217.691
-226.869
-235.31
-240.429
-241.794
-239.431
-233.829
-225.886
-216.425
-206.273
-196.546
-188.315
-182.075
-177.965
-175.867
-175.343
-175.965
-177.35
-178.978
-180.368
-181.266
-181.54
-181.163
-180.198
-178.646
-176.479
-173.724
-170.418
-166.609
-162.36
-157.736
-152.826
-147.737
-142.585
-137.477
-132.489
-127.667
-123.036
-118.611
-114.397
-110.406
-106.653
-103.141
-99.877
-96.856
-94.061
-91.465
-89.024
-86.689
-84.416
-82.162
-79.893
-77.587
-75.224
-72.795
-70.296
-67.721
-65.061
-62.306
-59.445
-56.468
-53.366
-50.135
-46.773
-43.28
-39.658
-35.91
-32.038
-28.048
-23.943
-19.725
-15.399
-10.969
-6.442
-1.826
2.868
7.626
12.436
17.283
22.149
27.018
31.872
36.695
41.47
46.178
50.804
55.329
59.736
64.01
68.133
72.091
75.868
79.45
82.822
85.974
88.892
91.567
93.989
96.15
98.044
99.664
101.007
102.071
102.853
103.353
103.572
103.512
103.179
102.575
101.71
100.589
99.223
97.622
95.797
93.76
91.524
89.102
86.507
83.756
80.863
77.842
74.711
71.485
68.18
64.814
61.402
57.96
54.505
51.052
47.618
44.215
40.861
37.567
34.349
31.219
28.189
25.27
22.473
19.809
17.284
14.908
12.686
10.624
8.727
6.998
5.441
4.055
2.843
1.804
0.936
0.237
-0.296
-0.667
-0.881
-0.943
-0.861
-0.641
-0.291
0.181
0.766
1.455
2.24
3.111
4.058
5.071
6.14
7.256
8.41
9.591
10.79
11.999
13.21
14.415
15.607
16.78
17.928
19.046
20.131
21.178
22.186
23.151
24.074
24.953
25.791
26.588
27.348
28.073
28.768
29.438
30.089
30.727
31.359
31.991
32.631
33.288
33.968
34.681
35.434
36.238
37.098
38.025
39.026
40.108
41.277
42.539
43.9
45.363
46.932
48.609
50.396
52.292
54.295
56.406
58.619
60.93
63.332
65.818
68.379
71.003
73.679
76.391
79.125
81.862
84.586
87.279
89.92
92.491
94.973
97.347
99.596
101.702
103.646
105.408
106.969
108.314
109.427
110.294
110.902
111.239
111.299
111.08
110.58
109.798
108.728
107.357
105.68
103.697
101.414
98.839
95.989
92.88
89.542
86.021
82.361
78.607
74.8
70.966
67.142
63.375
59.718
56.241
53.004
50.045
47.4
45.097
43.14
41.522
40.205
39.112
38.157
37.256
36.321
35.278
34.036
32.497
30.549
28.042
24.892
21.114
16.793
12.141
7.436
2.95
-0.949
-3.774
-5.195
-5.062
-3.444
-0.805
2.29
5.302
7.639
8.807
8.464
6.478
3.21
-0.479
-2.507
0.308
10.48
30.262
59.193
93.549
132.291
175.456
225.948
291.369
373.307
469.406
574.602
676.966
767.464
837.606
876.668
877.303
832.756
741.28
608.377
445.228
267.845
92.257
-65.246
-192.903
-284.152
-335.42
-350.24
-333.031
-289.588
-229.916
-162.784
-100.015
-52.764
-24.481
-14.703
-16.613
-20.43
-22.007
-20.4
-17.96
-19.35
-25.222
-33.754
-42.494
-48.158
-49.632
-47.561
-42.617
-35.798
-28.042
-20.016
-12.607
-6.747
-2.845
-0.923
-0.827
-2.203
-4.668
-7.852
-11.292
-14.529
-17.311
-19.547
-21.227
-22.396
-23.064
-23.204
-22.807
-21.895
-20.489
-18.598
-16.249
-13.48
-10.372
-7.052
-3.645
-0.235
3.12
6.391
9.567
12.628
15.563
18.374
21.055
23.602
26.015
28.288
30.432
32.469
34.436
36.385
38.369
40.424
42.58
44.858
47.27
49.828
52.54
55.402
58.418
61.591
64.927
68.436
72.122
75.986
80.024
84.232
88.6
93.119
97.782
102.578
107.497
112.53
117.666
122.899
128.218
133.61
139.06
144.554
150.073
155.599
161.115
166.6
172.033
177.397
182.672
187.839
192.88
197.778
202.516
207.076
211.444
215.604
219.542
223.244
226.7
229.898
232.829
235.485
237.86
239.949
241.749
243.257
244.474
245.401
246.039
246.393
246.467
246.268
245.803
245.082
244.114
242.912
241.489
239.857
238.032
236.029
233.864
231.552
229.111
226.556
223.907
221.18
218.392
215.561
212.706
209.843
206.989
204.161
201.375
198.648
195.993
193.424
190.957
188.603
186.375
184.284
182.34
180.553
178.93
177.48
176.209
175.121
174.221
173.512
172.996
172.674
172.546
172.611
172.867
173.311
173.941
174.751
175.736
176.891
178.207
179.678
181.296
183.052
184.936
186.94
189.053
191.266
193.569
195.951
198.402
200.911
203.468
206.062
208.682
211.32
213.965
216.607
219.239
221.853
224.439
226.993
229.506
231.974
234.39
236.752
239.054
241.295
243.471
245.581
247.625
249.603
251.515
253.363
255.149
256.876
258.548
260.167
261.738
263.266
264.755
266.211
267.638
269.044
270.433
271.811
273.186
274.561
275.943
277.337
278.748
280.179
281.633
283.113
284.621
286.158
287.723
289.315
290.933
292.573
294.23
295.899
297.572
299.242
300.898
302.53
304.126
305.671
307.151
308.549
309.849
311.033
312.083
312.981
313.707
314.244
314.574
314.68
314.543
314.145
313.467
312.492
311.205
309.591
307.638
305.336
302.675
299.654
296.273
292.529
288.422
283.945
279.093
273.868
268.275
262.324
256.029
249.408
242.486
235.302
227.895
220.303
212.562
204.701
196.75
188.749
180.746
172.799
164.966
157.292
149.818
142.58
135.596
128.867
122.369
116.043
109.835
103.686
97.527
91.294
84.902
78.247
71.242
63.778
55.71
46.976
37.576
27.589
17.287
6.984
-3.032
-12.369
-20.584
-27.402
-32.68
-36.539
-39.587
-42.503
-45.84
-50.166
-56.064
-63.933
-73.928
-85.839
-97.961
-107.307
-111.213
-106.983
-93.772
-74.375
-50.827
-23.828
7.923
52.093
115.689
201.07
307.215
423.176
534.098
626.788
686.715
705.8
680.08
607.07
490.99
337.261
155.613
-38.768
-229.811
-399.152
-533.433
-626.431
-679.154
-699.091
-693.112
-668.838
-631.954
-588.033
-546.143
-511.201
-485.777
-468.692
-453.492
-437.698
-421.713
-407.587
-399.927
-399.832
-405.612
-415.352
-425.952
-435.395
-442.957
-447.802
-449.837
-449.541
-447.343
-443.81
-439.69
-435.613
-432.262
-430.441
-430.492
-432.328
-435.725
-440.298
-445.637
-451.432
-457.281
-462.672
-467.267
-470.89
-473.465
-475.047
-475.682
-475.363
-474.131
-472.063
-469.233
-465.733
-461.639
-456.999
-451.885
-446.384
-440.597
-434.652
-428.659
-422.69
-416.796
-411.005
-405.335
-399.805
-394.422
-389.172
-384.031
-378.974
-373.98
-369.035
-364.123
-359.216
-354.281
-349.274
-344.165
-338.935
-333.573
-328.071
-322.427
-316.636
-310.703
-304.641
-298.462
-292.176
-285.791
-279.311
-272.743
-266.1
-259.393
-252.638
-245.847
-239.033
-232.207
-225.385
-218.582
-211.81
-205.086
-198.419
-191.827
-185.326
-178.933
-172.667
-166.547
-160.59
-154.817
-149.245
-143.894
-138.78
-133.92
-129.33
-125.024
-121.017
-117.322
-113.95
-110.914
-108.221
-105.881
-103.901
-102.287
-101.043
-100.174
-99.679
-99.561
-99.819
-100.449
-101.449
-102.813
-104.534
-106.604
-109.014
-111.753
-114.808
-118.165
-121.811
-125.729
-129.902
-134.315
-138.948
-143.784
-148.802
-153.984
-159.311
-164.762
-170.318
-175.959
-181.664
-187.415
-193.192
-198.976
-204.749
-210.492
-216.189
-221.821
-227.374
-232.83
-238.177
-243.399
-248.484
-253.421
-258.199
-262.809
-267.243
-271.496
-275.562
-279.437
-283.119
-286.607
-289.899
-292.996
-295.898
-298.608
-301.128
-303.462
-305.613
-307.588
-309.392
-311.031
-312.514
-313.846
-315.037
-316.094
-317.026
-317.84
-318.546
-319.153
-319.669
-320.103
-320.465
-320.764
-321.008
-321.203
-321.358
-321.477
-321.566
-321.627
-321.663
-321.674
-321.66
-321.621
-321.558
-321.47
-321.356
-321.215
-321.048
-320.856
-320.636
-320.385
-320.1
-319.773
-319.398
-318.967
-318.474
-317.907
-317.259
-316.519
-315.683
-314.748
-313.708
-312.554
-311.277
-309.861
-308.297
-306.585
-304.722
-302.706
-300.546
-298.253
-295.851
-293.377
-290.856
-288.303
-285.725
-283.118
-280.477
-277.805
-275.096
-272.348
-269.556
-266.713
-263.816
-260.875
-257.88
-254.811
-251.627
-248.259
-244.665
-240.836
-236.776
-232.513
-228.09
-223.551
-218.964
-214.421
-209.995
-205.759
-201.766
-198.046
-194.647
-191.632
-189.088
-187.131
-185.85
-185.293
-185.485
-186.428
-188.091
-190.428
-193.348
-196.712
-200.391
-204.27
-208.257
-212.287
-216.289
-220.172
-223.825
-227.116
-229.924
-232.155
-233.741
-234.631
-234.796
-234.246
-233.046
-231.321
-229.212
-226.839
-224.294
-221.664
-219.045
-216.548
-214.313
-212.458
-211.113
-210.448
-210.525
-211.341
-212.802
-214.601
-216.364
-217.719
-218.18
-217.255
-214.685
-210.314
-204.311
-197.375
-190.177
-183.414
-177.85
-173.903
-171.847
-171.902
-173.526
-175.277
-174.903
-169.104
-154.867
-130.694
-97.47
-57.449
-12.233
38.58
99.716
175.517
266.76
370.632
476.973
575.258
657.023
713.047
738.491
727.262
672.747
574.637
434.689
262.446
74.896
-110.263
-273.213
-399.534
-482.923
-524.085
-530.174
-508.367
-465.89
-408.502
-342.06
-276.885
-221.853
-182.345
-159.441
-146.75
-136.711
-125.94
-113.848
-103.37
-98.401
-99.102
-103.441
-108.679
-111.678
-110.995
-106.829
-99.786
-90.732
-80.593
-70.163
-60.205
-51.576
-45.003
-40.735
-38.702
-38.649
-40.106
-42.611
-45.772
-49.119
-52.221
-54.829
-56.77
-57.977
-58.482
-58.295
-57.427
-55.922
-53.83
-51.204
-48.119
-44.643
-40.854
-36.858
-32.754
-28.656
-24.661
-20.837
-17.251
-13.942
-10.929
-8.224
-5.827
-3.722
-1.895
-0.325
1.022
2.179
3.184
4.084
4.923
5.755
6.627
7.571
8.616
9.781
11.08
12.524
14.12
15.867
17.765
19.817
22.022
24.382
26.897
29.562
32.37
35.315
38.387
41.577
44.879
48.282
51.779
55.358
59.009
62.722
66.487
70.289
74.112
77.941
81.757
85.544
89.286
92.964
96.56
100.059
103.445
106.703
109.82
112.782
115.578
118.194
120.621
122.85
124.873
126.681
128.268
129.63
130.762
131.662
132.329
132.762
132.961
132.93
132.67
132.187
131.486
130.574
129.459
128.149
126.655
124.987
123.157
121.176
119.058
116.816
114.462
112.01
109.474
106.866
104.201
101.491
98.75
95.991
93.226
90.467
87.727
85.018
82.35
79.736
77.184
74.706
72.31
70.007
67.803
65.707
63.725
61.864
60.126
58.518
57.041
55.697
54.486
53.41
52.468
51.659
50.98
50.432
50.009
49.71
49.531
49.469
49.518
49.674
49.932
50.285
50.728
51.255
51.861
52.537
53.279
54.079
54.931
55.827
56.761
57.726
58.715
59.722
60.742
61.771
62.805
63.841
64.88
65.921
66.965
68.013
69.067
70.129
71.199
72.28
73.374
74.48
75.6
76.736
77.893
79.076
80.293
81.55
82.855
84.216
85.643
87.147
88.737
90.418
92.197
94.081
96.081
98.214
100.491
102.913
105.483
108.197
111.051
114.038
117.142
120.33
123.575
126.849
130.135
133.436
136.75
140.071
143.397
146.717
150.038
153.387
156.78
160.226
163.737
167.322
171.015
174.879
178.961
183.298
187.899
192.737
197.788
203.026
208.406
213.872
219.343
224.697
229.842
234.707
239.22
243.323
246.933
249.922
252.192
253.665
254.283
254.039
252.932
250.959
248.159
244.602
240.394
235.7
230.665
225.408
220.039
214.64
209.31
204.182
199.39
195.068
191.336
188.268
185.916
184.311
183.477
183.448
184.13
185.3
186.715
188.121
189.397
190.618
191.737
192.543
192.976
193.051
192.879
192.814
192.942
193.025
193.064
193.259
193.775
194.868
196.552
198.404
200.226
201.967
203.338
203.984
203.431
201.213
197.413
192.477
186.946
181.913
178.747
179.658
187.958
205.639
233.686
271.941
318.151
372.412
436.192
510.01
594.925
687.908
783.06
875.208
958.043
1025.8
1071.809
1087.089
1062.782
992.344
875.574
719.59
538.168
350.786
177.623
35.152
-65.449
-121.611
-138.659
-123.415
-84.526
-31.244
29.616
88.43
135.973
168.897
186.759
194.738
201.011
208.803
218.534
227.852
232.311
230.984
225.351
217.815
211.751
209.018
209.797
213.751
220.103
228.073
237.043
246.263
254.85
261.944
267.104
270.303
271.72
271.748
270.816
269.295
267.606
266.161
265.174
264.74
264.901
265.617
266.886
268.724
271.091
273.942
277.243
280.944
284.989
289.295
293.727
298.16
302.512
306.718
310.751
314.587
318.196
321.56
324.673
327.534
330.145
332.506
334.611
336.473
338.118
339.587
340.941
342.228
343.484
344.738
346.008
347.311
348.66
350.063
351.516
353.02
354.579
356.199
357.888
359.651
361.486
363.39
365.355
367.372
369.436
371.538
373.668
375.817
377.977
380.14
382.298
384.444
386.564
388.646
390.675
392.635
394.51
396.281
397.932
399.444
400.799
401.981
402.973
403.76
404.327
404.658
404.74
404.561
404.108
403.371
402.339
401.004
399.358
397.395
395.111
392.502
389.565
386.299
382.706
378.788
374.547
369.987
365.114
359.934
354.455
348.687
342.64
336.325
329.756
322.947
315.912
308.669
301.233
293.621
285.851
277.939
269.904
261.763
253.534
245.236
236.886
228.502
220.1
211.699
203.315
194.964
186.662
178.423
170.262
162.193
154.229
146.383
138.667
131.09
123.665
116.401
109.305
102.385
95.647
89.095
82.733
76.563
70.586
64.802
59.209
53.805
48.587
43.551
38.694
34.008
29.489
25.129
20.922
16.859
12.932
9.134
5.454
1.884
-1.586
-4.964
-8.26
-11.484
-14.647
-17.756
-20.824
-23.858
-26.869
-29.866
-32.858
-35.852
-38.854
-41.871
-44.907
-47.964
-51.042
-54.143
-57.266
-60.409
-63.57
-66.747
-69.936
-73.135
-76.341
-79.551
-82.758
-85.956
-89.138
-92.294
-95.414
-98.487
-101.503
-104.448
-107.309
-110.073
-112.731
-115.271
-117.681
-119.946
-122.047
-123.967
-125.701
-127.243
-128.591
-129.75
-130.723
-131.525
-132.182
-132.719
-133.157
-133.516
-133.799
-134.007
-134.147
-134.226
-134.253
-134.229
-134.137
-133.951
-133.657
-133.232
-132.656
-131.9
-130.9
-129.608
-127.992
-126.029
-123.739
-121.152
-118.299
-115.221
-111.977
-108.64
-105.323
-102.153
-99.23
-96.651
-94.508
-92.898
-91.961
-91.822
-92.575
-94.294
-97.007
-100.716
-105.42
-111.096
-117.673
-125.055
-133.089
-141.597
-150.443
-159.498
-168.645
-177.763
-186.692
-195.276
-203.389
-210.922
-217.805
-223.984
-229.402
-234.044
-237.95
-241.21
-243.973
-246.395
-248.598
-250.701
-252.827
-255.106
-257.686
-260.681
-264.189
-268.353
-273.267
-278.949
-285.317
-292.084
-298.886
-305.391
-311.178
-315.722
-318.619
-319.615
-318.811
-316.815
-314.26
-311.762
-310.068
-309.911
-312.034
-316.134
-320.266
-322.171
-319.599
-312.88
-305.298
-297.259
-286.218
-264.745
-220.713
-149.331
-54.064
55.048
161.363
255.215
336.337
406.913
470.879
524.718
554.296
545.235
486.419
375.031
221.976
44.743
-136.722
-301.697
-436.912
-536.489
-598.96
-630.156
-635.876
-618.768
-584.548
-537.548
-484.754
-438.131
-403.504
-382.808
-373.126
-365.39
-355.35
-342.733
-329.574
-321.127
-319.068
-322.079
-328.51
-335.366
-340.852
-344.582
-346.127
-345.619
-343.614
-340.492
-336.417
-331.736
-326.866
-322.211
-318.214
-315.037
-312.344
-309.696
-307.093
-304.534
-301.922
-299.208
-296.22
-292.855
-289.348
-285.99
-282.702
-279.388
-276.021
-272.521
-268.964
-265.448
-261.905
-258.27
-254.652
-251.155
-247.852
-244.84
-242.106
-239.616
-237.393
-235.44
-233.73
-232.241
-230.944
-229.806
-228.827
-228
-227.308
-226.735
-226.255
-225.841
-225.473
-225.128
-224.787
-224.433
-224.05
-223.624
-223.145
-222.602
-221.983
-221.279
-220.477
-219.568
-218.543
-217.392
-216.113
-214.701
-213.155
-211.476
-209.665
-207.725
-205.661
-203.478
-201.182
-198.781
-196.285
-193.703
-191.047
-188.329
-185.562
-182.762
-179.943
-177.12
-174.31
-171.527
-168.789
-166.112
-163.512
-161.003
-158.602
-156.321
-154.175
-152.178
-150.34
-148.674
-147.19
-145.897
-144.805
-143.921
-143.252
-142.802
-142.577
-142.579
-142.81
-143.271
-143.961
-144.878
-146.02
-147.382
-148.96
-150.748
-152.737
-154.919
-157.285
-159.825
-162.526
-165.377
-168.365
-171.477
-174.7
-178.02
-181.422
-184.892
-188.417
-191.982
-195.572
-199.174
-202.772
-206.353
-209.902
-213.405
-216.85
-220.221
-223.508
-226.696
-229.774
-232.731
-235.556
-238.239
-240.771
-243.142
-245.348
-247.38
-249.234
-250.906
-252.394
-253.696
-254.812
-255.743
-256.491
-257.057
-257.445
-257.658
-257.702
-257.581
-257.301
-256.868
-256.289
-255.572
-254.725
-253.756
-252.675
-251.491
-250.213
-248.853
-247.42
-245.925
-244.379
-242.792
-241.176
-239.54
-237.895
-236.251
-234.615
-232.997
-231.402
-229.836
-228.303
-226.804
-225.34
-223.912
-222.519
-221.16
-219.834
-218.538
-217.271
-216.03
-214.812
-213.613
-212.428
-211.248
-210.065
-208.869
-207.651
-206.398
-205.097
-203.735
-202.298
-200.775
-199.155
-197.424
-195.566
-193.561
-191.394
-189.055
-186.54
-183.845
-180.972
-177.924
-174.713
-171.361
-167.892
-164.324
-160.676
-156.95
-153.148
-149.277
-145.342
-141.354
-137.314
-133.205
-129.005
-124.7
-120.272
-115.704
-110.969
-106.012
-100.791
-95.278
-89.455
-83.341
-76.966
-70.362
-63.568
-56.64
-49.651
-42.707
-35.928
-29.408
-23.242
-17.513
-12.314
-7.775
-4.011
-1.112
0.852
1.854
1.893
0.968
-0.898
-3.639
-7.162
-11.324
-15.957
-20.929
-26.121
-31.421
-36.718
-41.86
-46.699
-51.111
-54.988
-58.26
-60.874
-62.777
-63.955
-64.445
-64.33
-63.744
-62.833
-61.717
-60.509
-59.322
-58.277
-57.519
-57.17
-57.363
-58.262
-59.924
-62.335
-65.373
-68.701
-71.956
-74.792
-76.712
-77.199
-75.966
-72.864
-68.127
-62.529
-56.749
-51.396
-47.211
-44.651
-43.819
-44.735
-46.679
-47.846
-46.491
-40.12
-25.391
-0.722
34.763
80.839
134.672
195.396
263.597
339.215
423.113
512.778
602.621
687.467
760.983
816.705
848.286
847.225
805.696
720.5
592.992
432.789
256.804
83.967
-65.608
-178.246
-249.577
-282.749
-287.086
-270.435
-238.155
-193.746
-140.7
-87.131
-41.626
-9.621
7.856
16.356
23.078
31.463
41.85
51.246
55.656
54.266
48.388
40.465
33.514
29.121
27.47
28.257
30.874
34.748
39.452
44.439
49.002
52.464
54.527
55.24
54.805
53.568
51.844
49.886
48.012
46.56
45.712
45.544
46.077
47.268
49.088
51.514
54.478
57.871
61.579
65.506
69.569
73.696
77.816
81.869
85.811
89.624
93.304
96.842
100.223
103.428
106.446
109.274
111.919
114.399
116.742
118.977
121.131
123.239
125.329
127.42
129.528
131.658
133.809
135.982
138.182
140.413
142.68
144.989
147.342
149.741
152.188
154.68
157.217
159.793
162.404
165.048
167.719
170.415
173.135
175.875
178.63
181.397
184.167
186.934
189.691
192.426
195.131
197.794
200.406
202.955
205.432
207.825
210.124
212.32
214.4
216.355
218.176
219.852
221.374
222.733
223.921
224.93
225.752
226.382
226.813
227.042
227.062
226.872
226.47
225.853
225.021
223.974
222.714
221.242
219.561
217.675
215.587
213.305
210.834
208.181
205.354
202.362
199.214
195.919
192.488
188.932
185.26
181.486
177.621
173.677
169.667
165.605
161.502
157.372
153.228
149.083
144.95
140.842
136.772
132.751
128.793
124.909
121.11
117.408
113.814
110.337
106.988
103.774
100.705
97.788
95.029
92.436
90.012
87.762
85.69
83.799
82.089
80.563
79.22
78.059
77.079
76.276
75.648
75.191
74.899
74.768
74.791
74.962
75.273
75.717
76.287
76.973
77.768
78.662
79.646
80.711
81.848
83.047
84.3
85.597
86.93
88.29
89.669
91.059
92.454
93.847
95.233
96.605
97.961
99.297
100.609
101.895
103.156
104.389
105.597
106.779
107.939
109.078
110.2
111.31
112.412
113.51
114.612
115.721
116.845
117.989
119.161
120.365
121.61
122.901
124.245
125.648
127.115
128.653
130.264
131.954
133.724
135.578
137.516
139.538
141.643
143.828
146.09
148.425
150.826
153.286
155.796
158.345
160.923
163.515
166.107
168.68
171.219
173.704
176.117
178.437
180.645
182.72
184.645
186.403
187.974
189.343
190.488
191.393
192.039
192.412
192.497
192.283
191.758
190.913
189.747
188.26
186.451
184.317
181.85
179.042
175.896
172.416
168.614
164.506
160.114
155.465
150.608
145.589
140.453
135.246
129.998
124.745
119.534
114.416
109.456
104.716
100.234
96.047
92.186
88.652
85.433
82.482
79.713
77.049
74.415
71.724
68.9
65.848
62.454
58.648
54.326
49.353
43.69
37.343
30.423
23.275
16.255
9.659
3.918
-0.516
-3.381
-4.447
-3.845
-2.303
-0.462
1.227
2.112
1.641
-0.46
-4.623
-9.984
-13.605
-12.953
-5.874
8.261
26.617
47.411
72.091
104.365
151.378
219.11
306.815
409.85
519.891
626.163
721.109
796.025
840.536
845.83
803.412
711.771
577.031
410.89
229.702
48.19
-118.674
-259.404
-367.63
-437.662
-471.932
-474.706
-448.551
-402.466
-343.401
-280.18
-227.023
-189.61
-169.023
-161.955
-157.73
-151.294
-142.582
-133.452
-129.206
-131.613
-139.029
-149.09
-158.457
-165.224
-168.902
-169.524
-167.775
-164.334
-159.717
-154.625
-149.695
-145.557
-142.902
-141.987
-142.69
-144.728
-147.675
-151.128
-154.807
-158.427
-161.646
-164.267
-166.193
-167.369
-167.86
-167.727
-166.991
-165.699
-163.929
-161.75
-159.273
-156.636
-153.937
-151.266
-148.692
-146.248
-143.975
-141.91
-140.074
-138.485
-137.145
-136.046
-135.184
-134.563
-134.169
-133.982
-133.957
-134.034
-134.161
-134.303
-134.426
-134.51
-134.531
-134.469
-134.311
-134.055
-133.695
-133.226
-132.637
-131.915
-131.052
-130.041
-128.882
-127.577
-126.128
-124.535
-122.8
-120.926
-118.916
-116.776
-114.508
-112.114
-109.599
-106.969
-104.235
-101.408
-98.502
-95.529
-92.505
-89.447
-86.37
-83.293
-80.231
-77.2
-74.218
-71.3
-68.462
-65.721
-63.091
-60.586
-58.222
-56.011
-53.966
-52.1
-50.422
-48.943
-47.671
-46.615
-45.781
-45.174
-44.799
-44.658
-44.753
-45.084
-45.651
-46.452
-47.481
-48.734
-50.203
-51.881
-53.758
-55.823
-58.063
-60.466
-63.018
-65.705
-68.512
-71.423
-74.424
-77.498
-80.628
-83.799
-86.993
-90.195
-93.388
-96.554
-99.68
-102.747
-105.742
-108.649
-111.454
-114.142
-116.701
-119.117
-121.38
-123.478
-125.401
-127.141
-128.691
-130.044
-131.195
-132.14
-132.878
-133.408
-133.729
-133.844
-133.754
-133.463
-132.977
-132.301
-131.441
-130.405
-129.202
-127.841
-126.332
-124.684
-122.91
-121.02
-119.026
-116.939
-114.773
-112.54
-110.252
-107.921
-105.56
-103.181
-100.796
-98.417
-96.054
-93.717
-91.416
-89.159
-86.955
-84.809
-82.728
-80.715
-78.776
-76.913
-75.126
-73.418
-71.787
-70.232
-68.75
-67.337
-65.99
-64.702
-63.467
-62.278
-61.128
-60.009
-58.912
-57.829
-56.75
-55.665
-54.565
-53.441
-52.282
-51.078
-49.821
-48.5
-47.107
-45.635
-44.077
-42.427
-40.679
-38.829
-36.875
-34.814
-32.647
-30.372
-27.994
-25.515
-22.94
-20.276
-17.531
-14.715
-11.84
-8.919
-5.969
-3.003
-0.041
2.901
5.803
8.647
11.412
14.081
16.635
19.055
21.321
23.415
25.315
27.003
28.46
29.67
30.617
31.287
31.67
31.761
31.556
31.052
30.243
29.121
27.68
25.92
23.846
21.464
18.787
15.837
12.643
9.249
5.699
2.032
-1.714
-5.509
-9.322
-13.114
-16.842
-20.452
-23.895
-27.13
-30.125
-32.842
-35.268
-37.414
-39.32
-41.065
-42.724
-44.356
-46.014
-47.758
-49.661
-51.814
-54.315
-57.222
-60.608
-64.576
-69.166
-74.365
-80.024
-85.771
-91.19
-95.909
-99.511
-101.562
-101.778
-99.989
-96.394
-91.748
-86.814
-82.18
-78.526
-76.456
-76.397
-78.741
-82.377
-84.379
-82.117
-72.941
-56.734
-36.698
-13.554
13.333
48.35
101.216
175.863
271.713
383.189
495.264
597.094
681.181
739.369
770.301
768.859
726.899
643.035
516.746
355.936
177.818
-1.675
-164.836
-299.353
-400.444
-464.861
-494.682
-492.132
-461.266
-411.457
-353.123
-299.459
-259.174
-233.041
-216.865
-201.794
-182.9
-160.924
-139.331
-123.746
-116.125
-114.795
-117.459
-120.828
-122.855
-122.899
-120.222
-114.809
-107.268
-98.156
-88.132
-77.965
-68.223
-59.521
-52.632
-47.894
-45.232
-44.419
-45.036
-46.673
-49.078
-51.922
-54.785
-57.37
-59.433
-60.83
-61.572
-61.662
-61.094
-59.893
-58.086
-55.716
-52.865
-49.607
-46.01
-42.146
-38.06
-33.809
-29.471
-25.133
-20.907
-16.875
-13.078
-9.541
-6.278
-3.297
-0.607
1.806
3.983
5.964
7.787
9.479
11.057
12.545
13.982
15.404
16.86
18.381
19.989
21.701
23.532
25.495
27.599
29.845
32.224
34.727
37.352
40.096
42.96
45.94
49.025
52.209
55.48
58.831
62.249
65.726
69.246
72.798
76.368
79.944
83.515
87.066
90.582
94.047
97.444
100.756
103.966
107.059
110.015
112.82
115.458
117.916
120.18
122.238
124.078
125.691
127.068
128.2
129.081
129.704
130.066
130.163
129.994
129.557
128.853
127.884
126.654
125.165
123.424
121.438
119.214
116.762
114.092
111.214
108.141
104.887
101.464
97.888
94.174
90.337
86.393
82.359
78.25
74.084
69.875
65.641
61.397
57.159
52.941
48.759
44.627
40.559
36.567
32.665
28.864
25.175
21.608
18.174
14.879
11.732
8.74
5.909
3.242
0.745
-1.581
-3.734
-5.712
-7.517
-9.149
-10.61
-11.904
-13.034
-14.004
-14.82
-15.487
-16.011
-16.399
-16.657
-16.795
-16.818
-16.735
-16.555
-16.284
-15.931
-15.503
-15.009
-14.455
-13.848
-13.194
-12.5
-11.769
-11.008
-10.221
-9.411
-8.58
-7.732
-6.867
-5.987
-5.09
-4.176
-3.244
-2.29
-1.312
-0.306
0.733
1.809
2.926
4.091
5.31
6.588
7.932
9.349
10.844
12.426
14.099
15.871
17.748
19.733
21.832
24.048
26.384
28.843
31.425
34.131
36.959
39.908
42.975
46.154
49.44
52.825
56.3
59.854
63.475
67.151
70.864
74.599
78.337
82.061
85.749
89.383
92.939
96.399
99.74
102.944
105.988
108.852
111.516
113.956
116.154
118.089
119.742
121.098
122.141
122.86
123.248
123.3
123.012
122.379
121.39
120.041
118.33
116.26
113.837
111.074
107.989
104.613
100.987
97.153
93.152
89.022
84.79
80.489
76.155
71.836
67.583
63.45
59.479
55.711
52.184
48.92
45.911
43.121
40.48
37.915
35.376
32.815
30.18
27.406
24.414
21.107
17.414
13.247
8.485
3.072
-2.972
-9.494
-16.12
-22.389
-27.848
-32.004
-34.361
-34.616
-32.669
-28.8
-23.834
-18.737
-14.455
-11.859
-11.572
-13.983
-19.133
-26.109
-33.079
-37.196
-34.696
-23.027
-0.584
33.11
76.366
129.26
192.803
267.217
353.349
448.451
546.413
640.291
722.14
784.345
819.731
822.876
788.227
712.557
598.116
448.414
273.522
89.245
-88.353
-240.975
-354.609
-423.231
-447.188
-432.17
-387.583
-325.195
-256.18
-192.966
-145.616
-116.444
-103.47
-99.353
-95.154
-87.871
-77.883
-68.542
-64.444
-65.992
-71.22
-77.202
-80.433
-79.732
-75.526
-68.442
-59.576
-49.89
-40.04
-31.033
-23.918
-19.167
-16.89
-16.943
-18.902
-22.337
-26.846
-31.874
-36.852
-41.438
-45.43
-48.723
-51.3
-53.11
-54.107
-54.306
-53.757
-52.504
-50.596
-48.079
-45.013
-41.503
-37.678
-33.68
-29.642
-25.663
-21.815
-18.163
-14.764
-11.664
-8.891
-6.451
-4.336
-2.537
-1.047
0.154
1.091
1.807
2.348
2.765
3.112
3.428
3.743
4.085
4.475
4.928
5.457
6.067
6.758
7.535
8.403
9.369
10.437
11.608
12.882
14.257
15.729
17.296
18.954
20.7
22.531
24.445
26.437
28.503
30.639
32.84
35.095
37.394
39.725
42.074
44.427
46.77
49.085
51.357
53.57
55.709
57.758
59.703
61.529
63.222
64.767
66.151
67.363
68.39
69.221
69.846
70.257
70.446
70.405
70.13
69.616
68.858
67.855
66.605
65.108
63.364
61.377
59.149
56.686
53.995
51.083
47.96
44.635
41.121
37.431
33.576
29.572
25.434
21.176
16.814
12.363
7.841
3.262
-1.356
-5.999
-10.65
-15.295
-19.918
-24.504
-29.039
-33.51
-37.903
-42.205
-46.404
-50.487
-54.444
-58.264
-61.938
-65.455
-68.809
-71.993
-74.999
-77.825
-80.466
-82.92
-85.186
-87.266
-89.16
-90.871
-92.404
-93.762
-94.952
-95.98
-96.851
-97.574
-98.156
-98.605
-98.929
-99.135
-99.234
-99.233
-99.143
-98.971
-98.729
-98.423
-98.064
-97.661
-97.223
-96.759
-96.278
-95.789
-95.298
-94.816
-94.349
-93.902
-93.482
-93.091
-92.732
-92.407
-92.116
-91.856
-91.624
-91.418
-91.235
-91.069
-90.918
-90.776
-90.64
-90.507
-90.373
-90.232
-90.077
-89.898
-89.688
-89.438
-89.136
-88.772
-88.336
-87.817
-87.208
-86.506
-85.703
-84.791
-83.761
-82.598
-81.294
-79.848
-78.259
-76.527
-74.661
-72.674
-70.591
-68.449
-66.277
-64.091
-61.902
-59.71
-57.515
-55.323
-53.138
-50.958
-48.786
-46.617
-44.455
-42.313
-40.186
-38.057
-35.888
-33.612
-31.195
-28.629
-25.922
-23.103
-20.209
-17.283
-14.39
-11.616
-9.033
-6.702
-4.661
-2.928
-1.548
-0.586
-0.135
-0.308
-1.18
-2.784
-5.143
-8.25
-12.073
-16.552
-21.57
-26.966
-32.612
-38.414
-44.308
-50.254
-56.162
-61.898
-67.313
-72.265
-76.647
-80.409
-83.474
-85.735
-87.217
-88.061
-88.469
-88.726
-88.969
-89.124
-89.224
-89.438
-89.774
-90.185
-90.643
-90.878
-90.91
-91.116
-91.487
-91.813
-92.065
-92.086
-91.742
-91.331
-90.724
-89.526
-88.118
-86.959
-86.415
-87.031
-88.785
-91.251
-94.531
-98.464
-101.831
-102.437
-96.889
-82.217
-57.445
-24.608
13.022
54.001
99.493
155.741
229.114
320.96
427.93
538.36
638.63
718.775
771.121
793.633
785.73
744.926
669.428
557.978
413.535
245.89
70.345
-93.747
-229.564
-326.87
-382.439
-402.232
-393.936
-363.147
-317.544
-261.937
-203.03
-152.701
-116.763
-97.756
-93.984
-96.025
-98.347
-99.348
-99.405
-102.551
-109.915
-119.369
-128.004
-132.653
-132.19
-127.182
-118.65
-107.915
-96.079
-84.252
-73.808
-65.595
-59.936
-56.876
-56.101
-57.255
-59.998
-63.83
-68.175
-72.616
-76.911
-80.928
-84.616
-87.904
-90.694
-92.911
-94.533
-95.546
-95.925
-95.659
-94.737
-93.175
-91.039
-88.412
-85.373
-82.012
-78.406
-74.63
-70.783
-66.947
-63.181
-59.546
-56.075
-52.786
-49.7
-46.82
-44.133
-41.625
-39.274
-37.047
-34.922
-32.872
-30.864
-28.87
-26.849
-24.768
-22.606
-20.344
-17.969
-15.474
-12.85
-10.094
-7.214
-4.213
-1.094
2.135
5.475
8.92
12.462
16.092
19.799
23.573
27.403
31.278
35.189
39.122
43.065
47.008
50.938
54.844
58.71
62.522
66.262
69.914
73.461
76.887
80.174
83.306
86.267
89.043
91.62
93.986
96.128
98.034
99.695
101.1
102.242
103.112
103.705
104.016
104.041
103.777
103.224
102.382
101.252
99.836
98.14
96.166
93.923
91.417
88.658
85.654
82.417
78.96
75.295
71.437
67.401
63.202
58.857
54.382
49.794
45.11
40.348
35.525
30.657
25.763
20.859
15.962
11.088
6.254
1.475
-3.232
-7.854
-12.376
-16.785
-21.067
-25.212
-29.208
-33.044
-36.712
-40.203
-43.509
-46.625
-49.545
-52.265
-54.783
-57.097
-59.207
-61.115
-62.821
-64.331
-65.648
-66.779
-67.728
-68.504
-69.113
-69.565
-69.867
-70.03
-70.062
-69.975
-69.779
-69.486
-69.107
-68.653
-68.136
-67.568
-66.96
-66.324
-65.67
-65.011
-64.355
-63.714
-63.098
-62.515
-61.974
-61.483
-61.047
-60.673
-60.364
-60.123
-59.951
-59.847
-59.81
-59.837
-59.924
-60.067
-60.261
-60.501
-60.781
-61.096
-61.439
-61.805
-62.186
-62.572
-62.953
-63.316
-63.648
-63.935
-64.164
-64.322
-64.396
-64.373
-64.245
-64.003
-63.637
-63.137
-62.49
-61.679
-60.693
-59.527
-58.178
-56.651
-54.957
-53.114
-51.142
-49.067
-46.908
-44.678
-42.379
-40.007
-37.554
-35.016
-32.398
-29.716
-26.984
-24.214
-21.414
-18.588
-15.728
-12.815
-9.822
-6.713
-3.471
-0.099
3.371
6.885
10.378
13.774
17.009
20.037
22.814
25.305
27.475
29.292
30.712
31.674
32.105
31.92
31.061
29.5
27.248
24.35
20.881
16.946
12.642
8.055
3.268
-1.647
-6.634
-11.636
-16.597
-21.465
-26.148
-30.533
-34.52
-38.016
-40.986
-43.468
-45.51
-47.166
-48.545
-49.776
-51.085
-52.816
-55.163
-58.143
-61.718
-65.819
-70.396
-75.393
-80.454
-84.825
-87.884
-89.352
-89.218
-87.684
-84.843
-80.684
-75.574
-70.576
-66.969
-65.613
-66.802
-70.42
-76.337
-84.645
-95.399
-106.869
-115.562
-118.643
-113.677
-101.112
-84.653
-64.814
-39.445
-3.149
52.959
132.314
231.91
344.153
457.397
562.311
653.746
727.499
778.691
801.767
789.558
736.784
643.973
514.085
355.088
180.001
3.104
-157.722
-286.576
-374.251
-418.764
-426.089
-406.253
-370.134
-326.357
-282.101
-242.363
-208.355
-179.938
-154.198
-128.731
-104.603
-84.107
-70.925
-67.22
-71.875
-82.526
-96.258
-110.486
-123.671
-134.69
-142.593
-147.055
-148.318
-146.889
-143.428
-138.732
-133.509
-128.491
-124.457
-121.705
-120.15
-119.572
-119.595
-119.896
-120.263
-120.426
-120.098
-119.161
-117.603
-115.486
-112.952
-110.086
-106.934
-103.558
-100.021
-96.381
-92.696
-89.013
-85.366
-81.785
-78.292
-74.907
-71.643
-68.504
-65.486
-62.579
-59.762
-57.028
-54.371
-51.786
-49.269
-46.811
-44.394
-42.004
-39.624
-37.239
-34.834
-32.397
-29.911
-27.367
-24.758
-22.078
-19.325
-16.492
-13.573
-10.559
-7.447
-4.23
-0.905
2.531
6.08
9.742
13.514
17.394
21.376
25.454
29.624
33.878
38.207
42.603
47.056
51.556
56.09
60.647
65.212
69.772
74.312
78.817
83.271
87.658
91.962
96.167
100.259
104.221
108.039
111.699
115.188
118.492
121.599
124.5
127.182
129.637
131.857
133.835
135.564
137.041
138.262
139.226
139.93
140.376
140.564
140.497
140.179
139.615
138.809
137.769
136.502
135.019
133.328
131.442
129.373
127.132
124.734
122.193
119.524
116.742
113.861
110.898
107.866
104.783
101.662
98.519
95.368
92.224
89.102
86.015
82.976
79.999
77.095
74.276
71.552
68.935
66.433
64.057
61.812
59.708
57.751
55.946
54.298
52.811
51.486
50.325
49.327
48.491
47.814
47.293
46.923
46.699
46.615
46.664
46.841
47.138
47.546
48.057
48.664
49.358
50.127
50.964
51.858
52.799
53.778
54.785
55.811
56.844
57.876
58.897
59.897
60.867
61.798
62.679
63.504
64.266
64.957
65.574
66.112
66.571
66.948
67.246
67.466
67.61
67.679
67.678
67.608
67.475
67.279
67.024
66.713
66.353
65.952
65.517
65.06
64.589
64.116
63.652
63.211
62.803
62.438
62.121
61.862
61.672
61.564
61.557
61.662
61.884
62.227
62.693
63.278
63.971
64.751
65.584
66.445
67.322
68.209
69.114
70.039
70.985
71.952
72.942
73.958
75.008
76.094
77.206
78.352
79.553
80.847
82.303
83.96
85.822
87.881
90.1
92.434
94.84
97.248
99.57
101.73
103.657
105.296
106.625
107.593
108.134
108.158
107.543
106.2
104.092
101.195
97.513
93.081
87.944
82.198
75.989
69.44
62.659
55.735
48.72
41.69
34.744
27.999
21.598
15.661
10.272
5.501
1.408
-1.998
-4.735
-6.883
-8.586
-9.963
-11.12
-12.161
-13.173
-14.269
-15.591
-17.252
-19.387
-22.176
-25.712
-30.022
-35.033
-40.429
-45.828
-50.876
-55.128
-58.111
-59.54
-59.259
-57.439
-54.845
-52.357
-50.682
-50.463
-52.198
-56.13
-62.291
-70.069
-77.122
-80.142
-76.343
-63.683
-42.568
-14.886
19.557
62.675
118.278
190.316
277.903
376.047
477.258
572.948
657.362
725.752
771.737
789.212
771.024
712.193
614.251
481.581
323.215
151.959
-18.953
-174.173
-300.645
-389.823
-439.753
-454.291
-439.128
-403.496
-354.89
-301.242
-253.107
-214.756
-187.962
-170.799
-155.684
-139.767
-123.257
-107.677
-97.631
-94.379
-96.186
-100.988
-105.489
-107.499
-106.396
-102.034
-94.966
-86.021
-75.918
-65.405
-55.286
-46.325
-39.219
-34.333
-31.653
-30.944
-31.822
-33.885
-36.777
-40.149
-43.625
-46.938
-49.902
-52.342
-54.193
-55.428
-56.011
-55.962
-55.314
-54.079
-52.297
-50.035
-47.351
-44.324
-41.031
-37.51
-33.82
-30.028
-26.218
-22.499
-18.953
-15.619
-12.526
-9.688
-7.115
-4.815
-2.771
-0.94
0.715
2.231
3.635
4.942
6.176
7.371
8.565
9.801
11.113
12.522
14.046
15.703
17.504
19.46
21.572
23.83
26.229
28.765
31.437
34.246
37.189
40.257
43.445
46.742
50.141
53.633
57.207
60.85
64.551
68.298
72.078
75.88
79.69
83.492
87.271
91.007
94.684
98.284
101.787
105.176
108.432
111.538
114.478
117.235
119.795
122.144
124.268
126.155
127.792
129.171
130.28
131.112
131.66
131.919
131.883
131.549
130.914
129.979
128.742
127.207
125.376
123.253
120.844
118.156
115.198
111.98
108.512
104.807
100.878
96.739
92.406
87.894
83.219
78.399
73.449
68.388
63.231
57.998
52.706
47.37
42.009
36.64
31.279
25.941
20.643
15.399
10.223
5.128
0.128
-4.766
-9.542
-14.191
-18.704
-23.071
-27.287
-31.345
-35.241
-38.973
-42.539
-45.939
-49.173
-52.244
-55.154
-57.91
-60.514
-62.974
-65.294
-67.483
-69.549
-71.5
-73.345
-75.094
-76.756
-78.342
-79.861
-81.324
-82.741
-84.12
-85.472
-86.804
-88.127
-89.448
-90.776
-92.118
-93.481
-94.871
-96.295
-97.755
-99.256
-100.798
-102.383
-104.009
-105.677
-107.381
-109.118
-110.884
-112.672
-114.478
-116.298
-118.124
-119.948
-121.764
-123.564
-125.34
-127.083
-128.779
-130.416
-131.981
-133.464
-134.854
-136.142
-137.318
-138.372
-139.296
-140.086
-140.737
-141.241
-141.589
-141.761
-141.753
-141.566
-141.207
-140.691
-140.032
-139.238
-138.328
-137.328
-136.253
-135.115
-133.912
-132.623
-131.246
-129.789
-128.271
-126.726
-125.175
-123.619
-122.059
-120.492
-118.912
-117.319
-115.694
-113.996
-112.219
-110.378
-108.522
-106.739
-105.091
-103.613
-102.334
-101.262
-100.412
-99.822
-99.518
-99.52
-99.867
-100.588
-101.738
-103.403
-105.618
-108.375
-111.619
-115.238
-119.13
-123.223
-127.446
-131.738
-136.042
-140.288
-144.417
-148.382
-152.115
-155.546
-158.59
-161.134
-163.103
-164.474
-165.282
-165.629
-165.637
-165.408
-165.034
-164.608
-164.225
-163.994
-164.029
-164.42
-165.23
-166.542
-168.475
-171.118
-174.492
-178.454
-182.627
-186.551
-189.802
-191.932
-192.468
-191.058
-187.488
-181.923
-175.097
-167.858
-160.916
-155.037
-150.946
-149.13
-149.926
-152.18
-152.981
-149.631
-139.44
-122.046
-99.974
-73.362
-41.177
0.618
60.219
140.001
238.12
348.877
459.096
559.616
643.524
702.033
730.969
723.072
670.801
574.395
436.461
267.388
84.207
-96.611
-256.665
-382.693
-469.566
-517.81
-535.247
-529.911
-506.208
-467.449
-415.402
-354.889
-295.791
-245.982
-210.168
-188.041
-172.912
-160.196
-148.096
-136.922
-130.347
-129.551
-133.101
-138.816
-143.286
-144.441
-142.122
-136.765
-129.24
-120.447
-111.03
-101.74
-93.492
-87.113
-82.991
-81.076
-81.069
-82.491
-84.866
-87.788
-90.801
-93.449
-95.444
-96.613
-96.881
-96.287
-94.869
-92.653
-89.697
-86.078
-81.863
-77.144
-72.025
-66.61
-61.031
-55.418
-49.868
-44.463
-39.272
-34.352
-29.752
-25.495
-21.585
-18.011
-14.768
-11.846
-9.231
-6.895
-4.794
-2.883
-1.108
0.582
2.231
3.872
5.538
7.249
9.025
10.876
12.808
14.82
16.919
19.11
21.398
23.79
26.286
28.885
31.585
34.384
37.277
40.26
43.329
46.48
49.709
53.012
56.385
59.823
63.319
66.862
70.444
74.049
77.665
81.277
84.869
88.425
91.93
95.366
98.72
101.974
105.116
108.129
110.999
113.713
116.256
118.617
120.784
122.745
124.492
126.015
127.307
128.36
129.17
129.732
130.044
130.102
129.907
129.457
128.755
127.803
126.605
125.167
123.494
121.596
119.48
117.157
114.639
111.936
109.062
106.029
102.852
99.545
96.122
92.597
88.987
85.305
81.568
77.79
73.985
70.169
66.355
62.557
58.788
55.061
51.388
47.781
44.251
40.809
37.464
34.225
31.102
28.1
25.227
22.489
19.889
17.431
15.117
12.95
10.929
9.054
7.323
5.736
4.287
2.974
1.791
0.734
-0.205
-1.031
-1.753
-2.376
-2.909
-3.36
-3.736
-4.045
-4.296
-4.495
-4.651
-4.771
-4.864
-4.935
-4.994
-5.045
-5.096
-5.152
-5.219
-5.3
-5.4
-5.521
-5.667
-5.838
-6.036
-6.26
-6.511
-6.786
-7.082
-7.397
-7.726
-8.065
-8.409
-8.749
-9.081
-9.395
-9.685
-9.944
-10.161
-10.33
-10.441
-10.486
-10.458
-10.35
-10.153
-9.859
-9.459
-8.943
-8.305
-7.539
-6.638
-5.597
-4.41
-3.076
-1.594
0.032
1.802
3.715
5.772
7.97
10.306
12.769
15.345
18.022
20.784
23.615
26.498
29.411
32.335
35.254
38.153
41.024
43.852
46.62
49.304
51.877
54.321
56.626
58.797
60.845
62.765
64.534
66.124
67.516
68.703
69.703
70.498
71.024
71.26
71.264
71.186
71.2
71.351
71.498
71.479
71.257
70.778
69.883
68.21
65.3
61.001
55.622
49.691
43.574
37.555
31.987
27.446
24.67
24.032
25.276
27.744
30.905
34.4
37.891
40.939
42.896
43.334
42.323
40.256
37.449
34.047
30.053
25.424
20.353
15.036
9.523
3.914
-1.65
-6.954
-11.571
-15.01
-17.014
-17.382
-16.144
-13.834
-10.981
-8.064
-5.622
-4.067
-3.691
-4.806
-7.324
-9.365
-7.941
-0.501
15.419
38.913
65.65
94.42
125.555
163.329
218.21
294.2
389.734
498.968
607.166
703.624
781.753
833.8
855.672
840.477
779.828
672.047
521.653
341.844
153.209
-23.116
-170.363
-279.493
-349.211
-385.176
-393.549
-378.077
-344.086
-295.265
-238.567
-185.853
-143.431
-114.754
-98.577
-86.883
-75.96
-65.221
-55.544
-51.258
-53.591
-60.572
-69.824
-77.911
-82.579
-83.603
-81.37
-76.641
-70.335
-63.275
-56.258
-50.176
-45.892
-43.782
-43.823
-45.803
-49.258
-53.669
-58.611
-63.64
-68.321
-72.422
-75.815
-78.4
-80.193
-81.22
-81.489
-81.065
-80.014
-78.379
-76.231
-73.666
-70.793
-67.76
-64.7
-61.689
-58.795
-56.065
-53.538
-51.264
-49.268
-47.547
-46.093
-44.897
-43.955
-43.263
-42.801
-42.522
-42.372
-42.29
-42.225
-42.145
-42.019
-41.821
-41.53
-41.127
-40.604
-39.96
-39.194
-38.297
-37.259
-36.07
-34.724
-33.222
-31.566
-29.758
-27.801
-25.697
-23.451
-21.069
-18.557
-15.917
-13.156
-10.277
-7.288
-4.199
-1.021
2.232
5.547
8.908
12.299
15.703
19.103
22.481
25.821
29.107
32.321
35.448
38.473
41.378
44.151
46.775
49.238
51.527
53.629
55.534
57.23
58.709
59.964
60.986
61.772
62.317
62.619
62.676
62.487
62.054
61.379
60.466
59.319
57.945
56.35
54.544
52.534
50.332
47.949
45.397
42.686
39.831
36.844
33.738
30.528
27.227
23.849
20.408
16.919
13.396
9.854
6.306
2.767
-0.749
-4.229
-7.659
-11.026
-14.319
-17.527
-20.637
-23.639
-26.525
-29.286
-31.913
-34.399
-36.738
-38.924
-40.952
-42.819
-44.523
-46.061
-47.432
-48.638
-49.678
-50.554
-51.27
-51.828
-52.231
-52.484
-52.592
-52.559
-52.392
-52.097
-51.682
-51.152
-50.517
-49.785
-48.964
-48.065
-47.095
-46.064
-44.981
-43.854
-42.694
-41.508
-40.306
-39.096
-37.885
-36.683
-35.496
-34.331
-33.192
-32.083
-31.009
-29.971
-28.969
-28.003
-27.073
-26.177
-25.315
-24.485
-23.685
-22.915
-22.173
-21.458
-20.767
-20.095
-19.434
-18.779
-18.119
-17.447
-16.751
-16.022
-15.247
-14.415
-13.522
-12.56
-11.518
-10.387
-9.148
-7.792
-6.313
-4.712
-2.991
-1.157
0.785
2.813
4.897
7.007
9.112
11.199
13.269
15.32
17.347
19.344
21.3
23.219
25.126
27.036
28.959
30.907
32.891
34.949
37.15
39.548
42.176
45.044
48.118
51.367
54.762
58.253
61.781
65.258
68.561
71.595
74.297
76.596
78.425
79.686
80.23
79.945
78.756
76.617
73.533
69.515
64.578
58.787
52.25
45.107
37.537
29.681
21.636
13.505
5.397
-2.551
-10.158
-17.277
-23.807
-29.667
-34.804
-39.187
-42.798
-45.69
-47.979
-49.804
-51.325
-52.682
-53.981
-55.34
-56.896
-58.767
-61.106
-64.082
-67.754
-72.135
-77.157
-82.551
-88.007
-93.215
-97.725
-101.05
-102.869
-102.925
-101.248
-98.424
-95.08
-91.772
-89.116
-87.587
-87.501
-89.175
-92.483
-95.536
-95.425
-89.602
-75.393
-53.082
-25.926
5.611
41.805
85.838
146.123
225.229
321.685
430.927
540.048
639.378
721.3
776.259
799.88
786.044
729.452
632.067
497.497
336.037
163.016
-6.883
-156.899
-275.263
-357.284
-403.471
-420.511
-414.86
-391.153
-353.065
-304.415
-252.331
-204.361
-166.091
-139.078
-119.593
-103.857
-90.189
-79.022
-73.478
-75.163
-83.065
-95.023
-107.576
-118.006
-125.06
-128.313
-128.144
-125.226
-120.269
-114.073
-107.569
-101.728
-97.394
-94.992
-94.495
-95.61
-97.909
-100.972
-104.409
-107.827
-110.853
-113.25
-114.936
-115.897
-116.159
-115.761
-114.717
-113.063
-110.877
-108.231
-105.206
-101.915
-98.454
-94.909
-91.367
-87.882
-84.487
-81.216
-78.088
-75.112
-72.309
-69.691
-67.258
-65.022
-62.979
-61.112
-59.396
-57.784
-56.226
-54.687
-53.136
-51.547
-49.907
-48.2
-46.418
-44.561
-42.627
-40.612
-38.509
-36.31
-34.006
-31.596
-29.079
-26.456
-23.734
-20.914
-18.001
-14.999
-11.912
-8.743
-5.498
-2.176
1.219
4.682
8.204
11.778
15.392
19.037
22.698
26.365
30.022
33.655
37.253
40.799
44.282
47.686
50.998
54.204
57.29
60.243
63.049
65.697
68.173
70.468
72.57
74.47
76.158
77.628
78.872
79.884
80.66
81.195
81.486
81.531
81.33
80.881
80.187
79.249
78.072
76.66
75.018
73.153
71.073
68.788
66.305
63.636
60.791
57.783
54.624
51.327
47.906
44.376
40.751
37.047
33.278
29.461
25.61
21.741
17.868
14.007
10.173
6.379
2.639
-1.033
-4.623
-8.121
-11.513
-14.789
-17.939
-20.952
-23.821
-26.536
-29.091
-31.478
-33.693
-35.731
-37.587
-39.26
-40.747
-42.049
-43.168
-44.104
-44.862
-45.446
-45.862
-46.116
-46.214
-46.164
-45.974
-45.652
-45.207
-44.648
-43.983
-43.223
-42.377
-41.455
-40.466
-39.42
-38.326
-37.193
-36.031
-34.847
-33.652
-32.453
-31.258
-30.076
-28.914
-27.78
-26.678
-25.616
-24.596
-23.622
-22.696
-21.816
-20.98
-20.187
-19.433
-18.713
-18.024
-17.359
-16.715
-16.087
-15.469
-14.858
-14.247
-13.631
-12.999
-12.342
-11.653
-10.921
-10.135
-9.286
-8.36
-7.35
-6.249
-5.05
-3.746
-2.325
-0.772
0.922
2.761
4.744
6.867
9.124
11.508
13.998
16.561
19.167
21.784
24.396
27.002
29.595
32.167
34.709
37.207
39.661
42.094
44.519
46.942
49.373
51.819
54.315
56.924
59.697
62.667
65.841
69.189
72.681
76.293
79.98
83.688
87.334
90.799
93.99
96.846
99.302
101.302
102.755
103.524
103.503
102.624
100.847
98.179
94.628
90.203
84.957
78.99
72.432
65.46
58.219
50.801
43.303
35.813
28.434
21.326
14.63
8.448
2.877
-2.022
-6.233
-9.716
-12.459
-14.566
-16.19
-17.598
-19.141
-21.008
-23.247
-25.891
-28.957
-32.455
-36.367
-40.381
-43.861
-46.373
-47.74
-47.938
-47.097
-45.216
-42.224
-38.448
-34.785
-32.143
-31.213
-32.454
-35.901
-41.562
-49.604
-59.834
-71.242
-82.286
-90.421
-92.237
-85.21
-67.836
-40.929
-7.047
32.609
79.119
137.8
214.257
309.743
420.482
534.362
637.212
718.727
771.272
793.725
788.393
754.403
690.413
594.728
464.618
304.789
128.145
-47.584
-199.747
-310.837
-374.119
-393.055
-379.591
-345.694
-300.396
-248.672
-193.278
-140.633
-97.427
-68.2
-54.759
-52.376
-54.201
-56.43
-57.506
-59.126
-64.381
-73.459
-84.636
-95.462
-103.144
-106.721
-106.661
-103.632
-98.535
-92.162
-85.201
-78.498
-72.894
-68.796
-66.209
-64.954
-64.701
-65.106
-65.851
-66.576
-66.924
-66.71
-65.9
-64.519
-62.658
-60.397
-57.781
-54.877
-51.755
-48.461
-45.03
-41.497
-37.893
-34.272
-30.697
-27.212
-23.852
-20.638
-17.578
-14.676
-11.934
-9.34
-6.878
-4.539
-2.314
-0.197
1.821
3.754
5.619
7.434
9.219
10.992
12.77
14.566
16.394
18.263
20.18
22.151
24.181
26.277
28.445
30.692
33.025
35.449
37.968
40.584
43.302
46.119
49.036
52.049
55.154
58.347
61.622
64.973
68.391
71.869
75.397
78.965
82.561
86.173
89.788
93.392
96.972
100.512
103.996
107.411
110.74
113.967
117.077
120.056
122.887
125.557
128.051
130.355
132.456
134.342
136
137.421
138.594
139.51
140.162
140.544
140.649
140.475
140.018
139.277
138.25
136.939
135.345
133.47
131.319
128.897
126.21
123.265
120.072
116.639
112.977
109.097
105.011
100.732
96.274
91.65
86.875
81.964
76.933
71.798
66.574
61.277
55.924
50.531
45.113
39.685
34.264
28.863
23.498
18.182
12.928
7.749
2.657
-2.337
-7.223
-11.99
-16.631
-21.139
-25.506
-29.727
-33.797
-37.714
-41.475
-45.079
-48.526
-51.817
-54.955
-57.943
-60.786
-63.489
-66.058
-68.499
-70.819
-73.027
-75.131
-77.138
-79.059
-80.901
-82.675
-84.391
-86.058
-87.687
-89.287
-90.868
-92.439
-94.01
-95.589
-97.185
-98.806
-100.459
-102.151
-103.888
-105.676
-107.52
-109.421
-111.382
-113.405
-115.487
-117.626
-119.819
-122.06
-124.343
-126.664
-129.015
-131.389
-133.78
-136.18
-138.584
-140.984
-143.372
-145.737
-148.067
-150.35
-152.573
-154.722
-156.784
-158.742
-160.583
-162.294
-163.869
-165.296
-166.566
-167.664
-168.573
-169.283
-169.788
-170.087
-170.182
-170.075
-169.777
-169.307
-168.7
-167.988
-167.193
-166.325
-165.382
-164.368
-163.286
-162.144
-160.95
-159.695
-158.366
-156.958
-155.474
-153.912
-152.261
-150.485
-148.52
-146.316
-143.855
-141.146
-138.221
-135.114
-131.864
-128.523
-125.161
-121.88
-118.771
-115.904
-113.322
-111.07
-109.212
-107.842
-107.091
-107.059
-107.8
-109.338
-111.667
-114.776
-118.627
-123.149
-128.214
-133.664
-139.362
-145.201
-151.109
-157.013
-162.81
-168.371
-173.538
-178.182
-182.219
-185.581
-188.215
-190.094
-191.226
-191.679
-191.593
-191.121
-190.384
-189.493
-188.529
-187.59
-186.816
-186.32
-186.239
-186.734
-187.877
-189.693
-192.12
-194.863
-197.522
-199.719
-200.972
-200.774
-198.825
-194.937
-189.241
-182.484
-175.605
-169.446
-164.768
-162.231
-162.274
-165.091
-170.297
-175.552
-177.179
-172.124
-158.228
-136.154
-108.441
-74.811
-32.403
23.976
99.534
193.371
299.557
409.189
512.821
604.452
677.476
724.025
735.935
704.094
627.157
510.367
362.148
196.839
25.867
-139.335
-284.539
-400.554
-478.926
-517.062
-520.388
-495.411
-452.509
-401.403
-349.817
-304.466
-266.947
-236.046
-207.946
-179.274
-150.565
-124.153
-103.877
-92.095
-87.869
-89.126
-93.242
-97.817
-101.599
-103.729
-103.443
-100.639
-95.645
-88.893
-80.994
-72.686
-64.598
-57.416
-51.869
-48.163
-46.134
-45.484
-45.742
-46.525
-47.565
-48.519
-49.015
-48.822
-47.835
-46.054
-43.581
-40.487
-36.811
-32.61
-27.956
-22.952
-17.712
-12.349
-6.976
-1.669
3.514
8.518
13.293
17.794
21.988
25.875
29.472
32.793
35.848
38.646
41.197
43.541
45.725
47.798
49.816
51.817
53.831
55.89
58.021
60.243
62.575
65.02
67.577
70.249
73.044
75.966
79.025
82.218
85.543
88.996
92.571
96.264
100.067
103.973
107.973
112.059
116.222
120.455
124.749
129.094
133.476
137.882
142.296
146.702
151.082
155.42
159.697
163.896
167.999
171.99
175.853
179.572
183.133
186.52
189.722
192.723
195.514
198.084
200.422
202.521
204.374
205.975
207.32
208.406
209.233
209.8
210.109
210.164
209.969
209.53
208.854
207.95
206.829
205.501
203.979
202.277
200.408
198.389
196.234
193.962
191.587
189.127
186.598
184.019
181.405
178.774
176.142
173.526
170.942
168.406
165.932
163.537
161.234
159.036
156.955
155.003
153.19
151.527
150.02
148.678
147.507
146.511
145.693
145.056
144.6
144.325
144.23
144.31
144.563
144.982
145.563
146.297
147.178
148.197
149.345
150.611
151.987
153.46
155.02
156.654
158.351
160.098
161.883
163.692
165.513
167.334
169.142
170.924
172.67
174.367
176.005
177.572
179.06
180.46
181.763
182.963
184.053
185.028
185.886
186.623
187.236
187.726
188.091
188.333
188.453
188.453
188.336
188.106
187.769
187.328
186.791
186.164
185.455
184.672
183.824
182.92
181.97
180.983
179.969
178.938
177.901
176.868
175.849
174.855
173.894
172.976
172.111
171.304
170.564
169.895
169.303
168.792
168.365
168.022
167.765
167.594
167.506
167.5
167.572
167.716
167.927
168.198
168.518
168.878
169.267
169.67
170.071
170.456
170.807
171.107
171.336
171.476
171.508
171.414
171.178
170.781
170.205
169.431
168.439
167.213
165.737
163.997
161.979
159.674
157.072
154.172
150.974
147.476
143.677
139.566
135.135
130.387
125.324
119.954
114.293
108.359
102.178
95.795
89.252
82.592
75.854
69.069
62.268
55.493
48.793
42.229
35.861
29.733
23.882
18.344
13.126
8.223
3.598
-0.82
-5.098
-9.304
-13.521
-17.827
-22.313
-27.09
-32.249
-37.902
-44.209
-51.223
-58.927
-67.21
-75.752
-84.202
-92.234
-99.407
-105.257
-109.525
-112.063
-113.039
-113.148
-113.057
-113.388
-114.788
-117.587
-121.935
-127.916
-134.937
-141.551
-145.434
-143.436
-132.993
-112.784
-83.666
-47.851
-5.879
43.094
102.165
174.639
259.15
351.499
445.118
532.085
606.695
662.126
689.735
681.087
628.675
531.021
393.212
225.628
43.011
-138.815
-303.518
-437.349
-531.376
-583.893
-600.148
-587.384
-554.376
-507.859
-453.271
-399.063
-352.502
-318.297
-297.892
-286.366
-276.97
-266.314
-253.501
-240.986
-232.822
-229.862
-230.864
-233.533
-234.718
-232.811
-227.824
-220.267
-210.98
-200.732
-190.05
-179.567
-170.113
-162.487
-157.079
-153.901
-152.737
-153.195
-154.907
-157.55
-160.698
-163.885
-166.764
-169.065
-170.636
-171.458
-171.513
-170.79
-169.31
-167.107
-164.227
-160.74
-156.717
-152.232
-147.362
-142.182
-136.774
-131.232
-125.661
-120.187
-114.903
-109.864
-105.11
-100.656
-96.513
-92.696
-89.193
-85.97
-82.991
-80.221
-77.63
-75.2
-72.901
-70.696
-68.543
-66.394
-64.215
-61.983
-59.681
-57.296
-54.817
-52.233
-49.546
-46.765
-43.895
-40.94
-37.903
-34.782
-31.58
-28.305
-24.967
-21.574
-18.135
-14.659
-11.156
-7.638
-4.117
-0.604
2.889
6.351
9.77
13.13
16.415
19.61
22.698
25.663
28.487
31.153
33.646
35.951
38.052
39.938
41.594
43.01
44.173
45.074
45.704
46.054
46.118
45.889
45.363
44.536
43.408
41.976
40.242
38.208
35.876
33.252
30.342
27.153
23.693
19.973
16.003
11.796
7.365
2.725
-2.111
-7.125
-12.302
-17.624
-23.076
-28.638
-34.294
-40.026
-45.817
-51.648
-57.503
-63.363
-69.212
-75.032
-80.807
-86.521
-92.158
-97.703
-103.142
-108.46
-113.646
-118.687
-123.572
-128.29
-132.832
-137.191
-141.358
-145.329
-149.098
-152.662
-156.019
-159.167
-162.107
-164.839
-167.364
-169.685
-171.807
-173.732
-175.465
-177.013
-178.381
-179.577
-180.607
-181.479
-182.202
-182.783
-183.232
-183.557
-183.768
-183.872
-183.879
-183.798
-183.637
-183.405
-183.11
-182.759
-182.36
-181.919
-181.441
-180.931
-180.394
-179.831
-179.246
-178.639
-178.01
-177.36
-176.686
-175.987
-175.259
-174.5
-173.704
-172.866
-171.981
-171.043
-170.044
-168.977
-167.834
-166.609
-165.293
-163.879
-162.358
-160.723
-158.966
-157.079
-155.054
-152.886
-150.566
-148.09
-145.452
-142.647
-139.675
-136.532
-133.217
-129.733
-126.081
-122.265
-118.29
-114.162
-109.889
-105.482
-100.952
-96.31
-91.572
-86.753
-81.87
-76.943
-71.993
-67.04
-62.107
-57.217
-52.394
-47.661
-43.043
-38.562
-34.241
-30.103
-26.17
-22.466
-19.011
-15.829
-12.94
-10.362
-8.111
-6.203
-4.65
-3.455
-2.625
-2.161
-2.067
-2.349
-3.011
-4.053
-5.469
-7.252
-9.386
-11.851
-14.616
-17.638
-20.873
-24.278
-27.814
-31.445
-35.135
-38.844
-42.524
-46.118
-49.571
-52.836
-55.87
-58.633
-61.102
-63.283
-65.204
-66.932
-68.536
-70.069
-71.583
-73.14
-74.809
-76.677
-78.848
-81.389
-84.386
-87.959
-92.153
-96.946
-102.199
-107.548
-112.549
-116.815
-119.91
-121.372
-120.933
-118.476
-114.222
-108.946
-103.563
-98.826
-95.386
-93.869
-94.689
-97.921
-102.974
-107.529
-108.111
-101.69
-86.238
-62.38
-32.293
3.262
45.787
100.563
172.601
263.098
368.936
479.629
584.103
672.977
736
768.08
763.723
716.779
627.769
498.449
336.163
155.887
-26.144
-190.868
-321.916
-410.402
-455.641
-464.41
-445.358
-407.938
-359.002
-304.092
-251.824
-208.928
-179.378
-163.78
-156.322
-150.336
-142.795
-133.189
-124.424
-120.295
-121.28
-125.969
-131.931
-136.207
-137.475
-135.806
-131.677
-125.923
-119.277
-112.257
-105.504
-99.734
-95.572
-93.288
-92.787
-93.767
-95.791
-98.452
-101.407
-104.304
-106.799
-108.674
-109.818
-110.163
-109.732
-108.557
-106.654
-104.072
-100.871
-97.113
-92.886
-88.307
-83.502
-78.59
-73.669
-68.803
-64.042
-59.431
-55.009
-50.811
-46.85
-43.124
-39.631
-36.369
-33.338
-30.528
-27.911
-25.438
-23.053
-20.713
-18.385
-16.045
-13.674
-11.254
-8.77
-6.216
-3.593
-0.903
1.858
4.695
7.618
10.629
13.73
16.915
20.179
23.519
26.932
30.415
33.962
37.568
41.23
44.943
48.708
52.517
56.366
60.243
64.141
68.046
71.95
75.839
79.699
83.518
87.283
90.981
94.601
98.129
101.554
104.862
108.044
111.086
113.979
116.712
119.274
121.656
123.85
125.848
127.642
129.227
130.597
131.748
132.675
133.375
133.848
134.091
134.105
133.89
133.447
132.781
131.895
130.794
129.483
127.97
126.262
124.366
122.292
120.05
117.648
115.097
112.408
109.592
106.662
103.629
100.506
97.305
94.039
90.72
87.361
83.975
80.573
77.169
73.774
70.402
67.063
63.769
60.532
57.362
54.27
51.265
48.356
45.552
42.859
40.286
37.838
35.521
33.34
31.3
29.403
27.651
26.047
24.59
23.28
22.115
21.091
20.208
19.459
18.842
18.351
17.981
17.728
17.584
17.543
17.599
17.744
17.97
18.269
18.634
19.054
19.524
20.036
20.581
21.152
21.742
22.345
22.953
23.561
24.163
24.751
25.322
25.872
26.398
26.899
27.373
27.821
28.246
28.651
29.04
29.415
29.782
30.144
30.507
30.874
31.248
31.635
32.038
32.465
32.925
33.425
33.977
34.59
35.275
36.043
36.901
37.86
38.925
40.097
41.383
42.789
44.324
45.998
47.818
49.782
51.892
54.141
56.515
58.996
61.553
64.149
66.763
69.374
71.974
74.563
77.137
79.692
82.232
84.745
87.221
89.657
92.035
94.349
96.609
98.836
101.071
103.367
105.743
108.201
110.731
113.296
115.851
118.343
120.689
122.83
124.722
126.321
127.606
128.546
129.082
129.149
128.662
127.53
125.698
123.143
119.855
115.867
111.244
106.071
100.477
94.591
88.51
82.322
76.103
69.93
63.898
58.146
52.817
47.968
43.649
39.873
36.607
33.915
31.845
30.255
28.972
27.994
27.263
26.813
26.741
26.697
26.262
25.329
23.791
21.514
18.592
14.975
10.585
6.053
2.092
-0.922
-2.616
-2.909
-2.171
-0.659
1.317
2.919
3.459
2.54
-0.212
-4.584
-9.642
-13.474
-13.116
-5.742
10.452
34.849
65.378
101.728
145.741
202.047
275.361
365.256
466.667
570.913
668.039
751.819
817.597
859.859
873.965
852.747
790.205
686.858
545.733
376.678
195.59
19.149
-134.205
-250.493
-322.603
-351.607
-343.83
-305.682
-247.647
-178.243
-107.713
-51.53
-16.044
-2.589
-6.474
-13.793
-17.393
-15.848
-10.918
-9.684
-14.922
-24.95
-37.119
-47.344
-53.458
-55.68
-54.643
-51.247
-46.27
-40.237
-33.856
-27.947
-23.226
-20.005
-18.227
-17.721
-18.182
-19.3
-20.791
-22.287
-23.442
-24.09
-24.186
-23.749
-22.866
-21.594
-19.961
-18.035
-15.882
-13.548
-11.079
-8.5
-5.836
-3.135
-0.449
2.168
4.672
7.043
9.266
11.336
13.252
15.019
16.647
18.151
19.545
20.839
22.045
23.177
24.25
25.283
26.295
27.304
28.329
29.383
30.479
31.627
32.834
34.109
35.455
36.879
38.384
39.977
41.661
43.443
45.324
47.307
49.395
51.587
53.883
56.282
58.779
61.372
64.055
66.824
69.671
72.59
75.572
78.608
81.688
84.802
87.939
91.085
94.23
97.361
100.463
103.524
106.53
109.468
112.324
115.084
117.736
120.266
122.664
124.916
127.011
128.938
130.688
132.25
133.615
134.775
135.721
136.448
136.95
137.221
137.257
137.057
136.617
135.938
135.019
133.86
132.465
130.835
128.974
126.888
124.582
122.063
119.339
116.417
113.308
110.022
106.569
102.961
99.209
95.326
91.324
87.216
83.015
78.736
74.391
69.996
65.563
61.108
56.644
52.185
47.744
43.335
38.97
34.661
30.42
26.258
22.185
18.212
14.348
10.6
6.977
3.485
0.128
-3.09
-6.165
-9.096
-11.882
-14.524
-17.024
-19.383
-21.605
-23.692
-25.65
-27.484
-29.199
-30.803
-32.304
-33.709
-35.027
-36.268
-37.442
-38.557
-39.624
-40.653
-41.652
-42.633
-43.604
-44.577
-45.559
-46.561
-47.591
-48.659
-49.772
-50.934
-52.153
-53.431
-54.772
-56.176
-57.641
-59.168
-60.753
-62.396
-64.092
-65.838
-67.63
-69.464
-71.336
-73.242
-75.173
-77.119
-79.07
-81.015
-82.941
-84.836
-86.684
-88.472
-90.187
-91.817
-93.356
-94.791
-96.111
-97.301
-98.343
-99.223
-99.938
-100.482
-100.851
-101.05
-101.087
-100.984
-100.774
-100.481
-100.117
-99.691
-99.195
-98.63
-97.997
-97.297
-96.529
-95.695
-94.786
-93.805
-92.767
-91.665
-90.485
-89.192
-87.723
-86.043
-84.151
-82.058
-79.801
-77.424
-74.975
-72.522
-70.158
-67.96
-66.002
-64.34
-62.999
-62.028
-61.497
-61.493
-62.139
-63.521
-65.676
-68.63
-72.381
-76.897
-82.133
-87.995
-94.334
-101.024
-107.954
-115.037
-122.219
-129.426
-136.555
-143.491
-150.094
-156.246
-161.866
-166.883
-171.235
-174.906
-177.913
-180.334
-182.319
-183.991
-185.452
-186.798
-188.105
-189.47
-191.017
-192.853
-195.1
-197.91
-201.365
-205.495
-210.25
-215.371
-220.507
-225.259
-229.116
-231.564
-232.264
-231
-227.85
-223.422
-218.498
-213.958
-210.766
-209.566
-210.717
-214.454
-220.367
-227.022
-231.83
-231.13
-221.385
-200.467
-169.145
-129.561
-83.16
-30.052
33.87
112.721
207.333
315.617
428.633
534.981
622.823
679.811
697.246
669.087
595.012
480.071
333.614
169.812
1.796
-156.36
-292.61
-400.508
-474.871
-516.59
-529.259
-516.157
-484.539
-440.937
-393.013
-348.672
-310.662
-279.142
-251.24
-223.985
-198.085
-175.969
-160.911
-154.658
-156.142
-163.051
-172.495
-181.997
-189.911
-194.993
-196.786
-195.49
-191.582
-185.774
-178.815
-171.469
-164.585
-159.02
-155.204
-153.085
-152.401
-152.725
-153.644
-154.864
-156.05
-156.807
-156.909
-156.258
-154.807
-152.636
-149.811
-146.348
-142.324
-137.835
-132.973
-127.868
-122.634
-117.344
-112.083
-106.908
-101.85
-96.948
-92.226
-87.693
-83.37
-79.265
-75.374
-71.702
-68.246
-64.987
-61.901
-58.94
-56.053
-53.202
-50.353
-47.478
-44.563
-41.586
-38.535
-35.408
-32.2
-28.904
-25.518
-22.028
-18.428
-14.714
-10.882
-6.936
-2.879
1.286
5.557
9.929
14.397
18.958
23.606
28.339
33.152
38.039
42.99
47.995
53.041
58.116
63.206
68.296
73.369
78.411
83.406
88.338
93.192
97.952
102.603
107.13
111.519
115.756
119.828
123.721
127.425
130.928
134.22
137.292
140.135
142.742
145.107
147.224
149.089
150.699
152.052
153.146
153.982
154.56
154.882
154.952
154.774
154.354
153.698
152.814
151.71
150.396
148.882
147.179
145.297
143.248
141.043
138.695
136.217
133.619
130.916
128.119
125.241
122.295
119.293
116.247
113.171
110.076
106.974
103.876
100.795
97.741
94.724
91.756
88.845
86.002
83.235
80.551
77.96
75.467
73.077
70.796
68.628
66.575
64.64
62.823
61.124
59.544
58.08
56.732
55.497
54.372
53.353
52.437
51.62
50.895
50.257
49.701
49.218
48.801
48.443
48.136
47.871
47.642
47.437
47.249
47.068
46.886
46.692
46.477
46.232
45.948
45.618
45.234
44.789
44.279
43.7
43.048
42.324
41.525
40.651
39.7
38.675
37.574
36.399
35.15
33.827
32.432
30.97
29.446
27.868
26.246
24.587
22.903
21.207
19.509
17.823
16.158
14.521
12.921
11.371
9.887
8.489
7.19
5.997
4.917
3.955
3.109
2.374
1.729
1.143
0.596
0.078
-0.412
-0.863
-1.267
-1.619
-1.913
-2.141
-2.298
-2.37
-2.352
-2.252
-2.057
-1.744
-1.27
-0.563
0.42
1.685
3.226
5.009
6.987
9.113
11.315
13.497
15.578
17.48
19.144
20.535
21.598
22.262
22.431
21.979
20.81
18.873
16.138
12.601
8.287
3.242
-2.446
-8.639
-15.206
-22.034
-29.029
-36.129
-43.259
-50.328
-57.226
-63.818
-69.984
-75.633
-80.691
-85.101
-88.837
-91.904
-94.366
-96.35
-97.998
-99.429
-100.746
-102.033
-103.38
-104.9
-106.716
-108.937
-111.682
-115.109
-119.311
-124.326
-130.085
-136.313
-142.639
-148.664
-153.879
-157.732
-159.811
-159.821
-157.788
-154.298
-150.057
-145.811
-142.428
-140.614
-140.89
-143.577
-148.25
-153.438
-157.237
-157.38
-151.391
-137.012
-111.898
-73.924
-21.858
43.698
120.242
204.097
290.598
376.281
459.304
537.884
610.144
670.833
710.629
718.201
682.381
598.095
467.665
301.789
118.192
-64.382
-226.896
-355.492
-444.517
-494.337
-512.527
-507.506
-484.136
-446.043
-395.122
-336.009
-278.573
-230.753
-196.908
-176.145
-161.076
-146.674
-131.567
-116.896
-106.955
-103.342
-104.951
-109.68
-114.315
-116.974
-117.018
-114.383
-109.707
-103.6
-96.509
-89.078
-81.91
-75.614
-70.901
-68.006
-66.788
-66.949
-68.017
-69.599
-71.416
-73.132
-74.365
-74.851
-74.451
-73.138
-71.005
-68.123
-64.531
-60.291
-55.482
-50.215
-44.621
-38.831
-32.976
-27.142
-21.398
-15.805
-10.419
-5.295
-0.476
4.028
8.232
12.143
15.767
19.111
22.181
25.014
27.661
30.173
32.607
35.004
37.392
39.802
42.259
44.783
47.39
50.083
52.858
55.719
58.671
61.723
64.881
68.147
71.516
74.987
78.555
82.218
85.971
89.808
93.723
97.712
101.769
105.89
110.07
114.301
118.573
122.874
127.191
131.51
135.816
140.092
144.322
148.488
152.575
156.566
160.446
164.199
167.811
171.266
174.55
177.65
180.551
183.242
185.71
187.944
189.934
191.671
193.147
194.354
195.286
195.938
196.306
196.386
196.177
195.678
194.89
193.813
192.452
190.81
188.893
186.709
184.264
181.569
178.633
175.468
172.084
168.493
164.708
160.741
156.606
152.316
147.885
143.326
138.653
133.88
129.022
124.092
119.105
114.074
109.015
103.939
98.862
93.796
88.754
83.749
78.792
73.896
69.072
64.328
59.675
55.121
50.675
46.341
42.127
38.035
34.07
30.235
26.529
22.955
19.511
16.197
13.011
9.953
7.019
4.207
1.513
-1.067
-3.537
-5.902
-8.168
-10.341
-12.427
-14.435
-16.37
-18.24
-20.053
-21.817
-23.539
-25.227
-26.89
-28.536
-30.173
-31.808
-33.449
-35.102
-36.772
-38.464
-40.18
-41.924
-43.696
-45.495
-47.322
-49.176
-51.056
-52.961
-54.89
-56.843
-58.818
-60.816
-62.835
-64.869
-66.915
-68.965
-71.012
-73.047
-75.061
-77.043
-78.986
-80.88
-82.719
-84.498
-86.208
-87.842
-89.386
-90.826
-92.151
-93.354
-94.431
-95.382
-96.215
-96.941
-97.586
-98.176
-98.729
-99.255
-99.758
-100.227
-100.654
-101.034
-101.354
-101.619
-101.831
-101.985
-102.088
-102.14
-102.125
-102.021
-101.777
-101.336
-100.669
-99.767
-98.638
-97.325
-95.873
-94.343
-92.819
-91.365
-90.036
-88.887
-87.944
-87.234
-86.812
-86.738
-87.104
-88.017
-89.54
-91.709
-94.547
-98.023
-102.086
-106.656
-111.591
-116.768
-122.091
-127.469
-132.851
-138.187
-143.394
-148.384
-153.054
-157.28
-160.985
-164.112
-166.592
-168.419
-169.632
-170.317
-170.643
-170.768
-170.79
-170.802
-170.887
-171.121
-171.625
-172.522
-173.884
-175.813
-178.413
-181.723
-185.744
-190.337
-195.119
-199.611
-203.337
-205.791
-206.501
-205.162
-201.63
-196.108
-189.299
-182.116
-175.387
-169.832
-166.183
-164.973
-166.314
-169.635
-172.733
-172.186
-164.91
-148.843
-124.482
-93.883
-58.068
-15.899
37.94
108.645
198.032
303.75
414.968
519.528
606.438
663.941
686.944
671.278
613.263
515.93
382.341
219.993
42.682
-135.265
-296.042
-423.77
-510.67
-557.168
-571.551
-564.975
-544.994
-513.056
-468.828
-413.749
-353.92
-299.534
-257.996
-231.305
-215.778
-205.345
-196.254
-188.075
-183.146
-183.044
-187.037
-192.751
-196.836
-197.17
-193.447
-186.228
-176.522
-165.295
-153.301
-141.422
-130.677
-121.943
-115.644
-111.773
-110.066
-110.101
-111.471
-113.79
-116.592
-119.411
-121.907
-123.827
-125.043
-125.539
-125.299
-124.323
-122.636
-120.265
-117.252
-113.655
-109.536
-104.96
-99.998
-94.712
-89.177
-83.476
-77.708
-71.995
-66.424
-61.05
-55.909
-51.016
-46.382
-42.021
-37.919
-34.042
-30.353
-26.816
-23.403
-20.096
-16.867
-13.678
-10.488
-7.253
-3.936
-0.518
3.021
6.693
10.509
14.479
18.603
22.869
27.273
31.809
36.476
41.274
46.2
51.245
56.402
61.661
67.013
72.451
77.965
83.542
89.171
94.843
100.544
106.266
111.997
117.721
123.424
129.091
134.706
140.253
145.717
151.081
156.329
161.448
166.423
171.243
175.894
180.364
184.644
188.723
192.591
196.241
199.664
202.855
205.808
208.519
210.984
213.201
215.168
216.885
218.353
219.573
220.549
221.284
221.783
222.052
222.099
221.931
221.558
220.988
220.233
219.302
218.208
216.963
215.578
214.066
212.44
210.711
208.894
207.001
205.044
203.037
200.992
198.922
196.839
194.755
192.682
190.632
188.615
186.642
184.724
182.868
181.086
179.384
177.771
176.252
174.834
173.522
172.32
171.231
170.257
169.4
168.661
168.038
167.533
167.142
166.863
166.693
166.63
166.667
166.801
167.025
167.334
167.722
168.181
168.704
169.283
169.911
170.58
171.282
172.008
172.751
173.502
174.255
175.001
175.733
176.444
177.13
177.782
178.398
178.971
179.5
179.979
180.408
180.784
181.107
181.376
181.592
181.757
181.871
181.939
181.962
181.943
181.888
181.799
181.683
181.544
181.388
181.22
181.046
180.873
180.706
180.551
180.413
180.298
180.211
180.154
180.132
180.149
180.205
180.302
180.439
180.616
180.832
181.082
181.361
181.663
181.982
182.309
182.634
182.944
183.227
183.469
183.656
183.772
183.801
183.727
183.532
183.201
182.718
182.068
181.233
180.198
178.946
177.461
175.728
173.734
171.466
168.914
166.07
162.932
159.498
155.767
151.739
147.407
142.771
137.833
132.603
127.089
121.309
115.284
109.047
102.641
96.112
89.501
82.85
76.19
69.557
62.991
56.542
50.264
44.207
38.414
32.919
27.76
22.957
18.503
14.362
10.461
6.726
3.101
-0.463
-4.025
-7.658
-11.446
-15.473
-19.786
-24.44
-29.529
-35.111
-41.182
-47.602
-54.054
-60.172
-65.612
-69.996
-72.877
-73.88
-72.777
-69.73
-65.328
-60.167
-54.895
-50.265
-47.002
-45.98
-47.138
-48.581
-48.101
-43.606
-34.618
-23.991
-13.428
-1.113
17.776
52.759
112.23
196.821
302.327
419.254
534.124
638.636
725.776
786.919
817.741
811.223
760.711
667.354
533.004
365.815
181.543
-3.152
-168.342
-297.566
-382.586
-423.742
-428.45
-405.506
-365.44
-315.641
-263.163
-217.985
-183.782
-161.804
-149.244
-136.886
-121.093
-101.965
-81.674
-66.481
-58.655
-56.856
-59.596
-63.948
-68.094
-71.879
-74.788
-76.312
-76.466
-75.322
-73.018
-69.997
-66.645
-63.21
-60.18
-58.072
-56.982
-56.799
-57.321
-58.236
-59.352
-60.531
-61.508
-61.966
-61.702
-60.638
-58.803
-56.295
-53.175
-49.491
-45.328
-40.823
-36.143
-31.424
-26.762
-22.202
-17.763
-13.481
-9.392
-5.528
-1.913
1.447
4.563
7.435
10.058
12.443
14.604
16.582
18.436
20.213
21.948
23.668
25.391
27.134
28.917
30.754
32.648
34.604
36.626
38.723
40.908
43.189
45.571
48.056
50.638
53.317
56.093
58.962
61.923
64.971
68.103
71.314
74.603
77.967
81.397
84.885
88.42
91.989
95.581
99.181
102.774
106.343
109.873
113.348
116.751
120.065
123.274
126.361
129.308
132.1
134.721
137.156
139.387
141.402
143.186
144.727
146.013
147.032
147.775
148.233
148.399
148.266
147.829
147.083
146.026
144.656
142.972
140.975
138.667
136.052
133.133
129.917
126.412
122.626
118.568
114.248
109.678
104.869
99.834
94.586
89.14
83.509
77.709
71.754
65.659
59.442
53.117
46.7
40.208
33.655
27.058
20.432
13.793
7.156
0.534
-6.056
-12.602
-19.09
-25.505
-31.838
-38.075
-44.206
-50.222
-56.114
-61.875
-67.497
-72.977
-78.309
-83.489
-88.515
-93.385
-98.098
-102.654
-107.052
-111.293
-115.38
-119.315
-123.1
-126.738
-130.235
-133.594
-136.82
-139.919
-142.896
-145.758
-148.51
-151.161
-153.717
-156.185
-158.573
-160.89
-163.141
-165.333
-167.473
-169.567
-171.619
-173.631
-175.605
-177.543
-179.444
-181.31
-183.139
-184.931
-186.685
-188.401
-190.079
-191.718
-193.315
-194.867
-196.371
-197.82
-199.209
-200.53
-201.777
-202.94
-204.009
-204.976
-205.833
-206.574
-207.187
-207.661
-207.978
-208.128
-208.104
-207.905
-207.531
-206.989
-206.288
-205.448
-204.495
-203.456
-202.355
-201.212
-200.038
-198.843
-197.634
-196.419
-195.215
-194.023
-192.832
-191.625
-190.375
-189.053
-187.631
-186.065
-184.294
-182.268
-179.946
-177.304
-174.343
-171.079
-167.545
-163.779
-159.821
-155.737
-151.617
-147.571
-143.721
-140.185
-137.066
-134.483
-132.575
-131.472
-131.289
-132.111
-133.982
-136.915
-140.898
-145.905
-151.901
-158.82
-166.556
-174.967
-183.867
-193.082
-202.463
-211.861
-221.124
-230.075
-238.499
-246.258
-253.334
-259.813
-265.812
-271.35
-276.301
-280.559
-284.184
-287.242
-289.707
-291.343
-291.823
-291.13
-289.682
-288.136
-286.998
-286.61
-287.293
-289.492
-293.694
-299.994
-307.876
-316.307
-324.31
-331.228
-336.561
-339.973
-341.309
-340.689
-338.738
-336.623
-335.371
-335.486
-337.309
-340.749
-344.925
-348.684
-349.72
-344.353
-330.312
-306.34
-272.25
-230.203
-179.966
-119.566
-47.909
36.658
131.632
230.814
327.709
414.785
484.87
530.674
545.426
522.138
456.182
348.784
203.162
29.348
-156.387
-336.444
-489.897
-601.458
-665.708
-686.161
-674.304
-640.803
-593.584
-537.293
-475.035
-414.775
-365.237
-332.213
-317.831
-316.614
-320.198
-323.812
-325.645
-327.56
-333.193
-342.94
-354.86
-366.264
-374.129
-377.438
-376.785
-372.977
-367.03
-359.821
-352.107
-344.761
-338.612
-334.035
-330.99
-329.251
-328.462
-328.257
-328.306
-328.251
-327.746
-326.624
-324.862
-322.495
-319.62
-316.316
-312.628
-308.62
-304.358
-299.882
-295.227
-290.427
-285.511
-280.528
-275.535
-270.573
-265.668
-260.838
-256.088
-251.42
-246.831
-242.307
-237.834
-233.401
-228.998
-224.617
-220.249
-215.877
-211.484
-207.052
-202.56
-197.992
-193.334
-188.571
-183.694
-178.696
-173.57
-168.315
-162.926
-157.401
-151.736
-145.927
-139.973
-133.871
-127.623
-121.23
-114.693
-108.017
-101.209
-94.275
-87.223
-80.064
-72.806
-65.461
-58.041
-50.559
-43.029
-35.464
-27.88
-20.293
-12.719
-5.174
2.324
9.758
17.111
24.366
31.505
38.512
45.37
52.063
58.577
64.897
71.008
76.898
82.554
87.965
93.12
98.011
102.628
106.965
111.015
114.775
118.24
121.41
124.283
126.861
129.145
131.138
132.845
134.27
135.421
136.305
136.93
137.306
137.444
137.355
137.051
136.545
135.851
134.983
133.955
132.783
131.481
130.066
128.553
126.958
125.296
123.584
121.837
120.071
118.3
116.54
114.806
113.109
111.464
109.883
108.377
106.956
105.629
104.405
103.292
102.295
101.419
100.67
100.049
99.559
99.2
98.972
98.874
98.903
99.056
99.328
99.714
100.209
100.805
101.495
102.27
103.124
104.045
105.025
106.055
107.123
108.22
109.336
110.459
111.581
112.692
113.781
114.841
115.864
116.841
117.767
118.637
119.444
120.187
120.86
121.464
121.997
122.459
122.851
123.177
123.439
123.641
123.79
123.891
123.951
123.978
123.98
123.967
123.948
123.933
123.932
123.956
124.015
124.122
124.286
124.52
124.833
125.236
125.739
126.351
127.08
127.935
128.921
130.043
131.306
132.712
134.263
135.959
137.799
139.779
141.895
144.142
146.512
148.995
151.581
154.258
157.012
159.827
162.686
165.57
168.459
171.332
174.167
176.942
179.635
182.223
184.686
187.003
189.154
191.118
192.872
194.397
195.673
196.683
197.413
197.848
197.975
197.786
197.279
196.452
195.304
193.828
192.011
189.848
187.34
184.492
181.315
177.828
174.049
170.01
165.76
161.347
156.819
152.219
147.577
142.929
138.328
133.831
129.514
125.445
121.666
118.215
115.119
112.387
110.011
107.952
106.129
104.454
102.841
101.205
99.474
97.559
95.358
92.748
89.566
85.718
81.209
76.131
70.705
65.222
59.972
55.347
51.855
49.845
49.464
50.605
52.752
55.293
57.664
59.259
59.594
58.375
55.555
51.608
47.538
45.493
48.619
59.445
80.187
110.495
146.934
188.381
234.804
288.903
357.557
442.121
540.004
645.604
747.482
837.435
907.895
949.717
956.273
920.231
839.089
717.081
563.636
393.614
221.397
62.204
-71.631
-173.174
-236.895
-265.528
-264.508
-237.732
-194.414
-141.167
-85.218
-38.369
-5.27
12.881
18.327
19.932
22.172
25.814
29.932
30.232
25.639
17.948
9.505
3.643
1.761
3.484
8.265
15.136
23.14
31.589
39.483
45.765
49.948
51.917
51.781
49.886
46.612
42.33
37.575
32.918
28.682
25.024
21.999
19.579
17.796
16.723
16.365
16.679
17.627
19.169
21.283
23.943
27.067
30.523
34.161
37.852
41.514
45.105
48.587
51.925
55.079
58.016
60.728
63.22
65.493
67.548
69.382
71.009
72.458
73.78
75.029
76.25
77.47
78.707
79.976
81.29
82.662
84.096
85.59
87.141
88.753
90.431
92.184
94.014
95.921
97.899
99.943
102.047
104.209
106.425
108.689
110.997
113.345
115.73
118.15
120.599
123.072
125.559
128.051
130.536
133.005
135.445
137.844
140.189
142.467
144.667
146.778
148.786
150.682
152.452
154.088
155.578
156.913
158.082
159.078
159.892
160.515
160.942
161.166
161.182
160.985
160.571
159.939
159.086
158.012
156.717
155.2
153.465
151.515
149.352
146.983
144.412
141.646
138.694
135.563
132.264
128.804
125.196
121.449
117.575
113.584
109.489
105.301
101.032
96.695
92.301
87.865
83.398
78.914
74.423
69.939
65.474
61.04
56.648
52.309
48.033
43.831
39.713
35.689
31.765
27.952
24.254
20.679
17.231
13.916
10.735
7.692
4.787
2.021
-0.604
-3.091
-5.439
-7.651
-9.729
-11.677
-13.498
-15.197
-16.779
-18.25
-19.617
-20.887
-22.066
-23.161
-24.18
-25.131
-26.021
-26.858
-27.649
-28.405
-29.131
-29.838
-30.531
-31.218
-31.906
-32.598
-33.301
-34.016
-34.746
-35.49
-36.25
-37.025
-37.816
-38.622
-39.442
-40.275
-41.121
-41.98
-42.848
-43.722
-44.594
-45.456
-46.301
-47.118
-47.898
-48.629
-49.302
-49.907
-50.437
-50.888
-51.251
-51.516
-51.672
-51.7
-51.59
-51.338
-50.938
-50.389
-49.7
-48.881
-47.958
-46.96
-45.902
-44.797
-43.646
-42.44
-41.174
-39.841
-38.431
-36.949
-35.397
-33.775
-32.092
-30.354
-28.548
-26.656
-24.636
-22.437
-20.037
-17.431
-14.63
-11.68
-8.63
-5.544
-2.511
0.402
3.136
5.632
7.856
9.771
11.318
12.441
13.057
13.064
12.397
11.004
8.852
5.96
2.365
-1.87
-6.637
-11.839
-17.394
-23.204
-29.201
-35.32
-41.474
-47.595
-53.593
-59.344
-64.745
-69.693
-74.093
-77.908
-81.12
-83.737
-85.823
-87.447
-88.683
-89.637
-90.405
-91.075
-91.752
-92.533
-93.526
-94.854
-96.649
-99.08
-102.251
-106.168
-110.749
-115.743
-120.82
-125.688
-129.982
-133.239
-135.157
-135.575
-134.567
-132.698
-130.655
-128.973
-128.172
-128.789
-131.184
-135.519
-141.655
-147.922
-151.229
-148.836
-138.182
-118.894
-94.396
-66.927
-36.662
-0.987
49.117
120.922
215.928
331.37
454.544
570.412
667.305
732.697
760.687
748.507
692.376
594.814
459.04
291.337
105.495
-82.67
-253.995
-391.009
-483.839
-531.554
-541.335
-522.529
-484.72
-434.475
-376.785
-319.878
-271.151
-235.573
-214.66
-203.198
-194.111
-183.785
-171.287
-159.259
-151.786
-149.602
-151.348
-154.606
-156.244
-154.817
-150.43
-143.622
-135.272
-126.154
-116.812
-107.922
-100.28
-94.606
-91.225
-90.065
-90.857
-93.198
-96.684
-100.953
-105.556
-109.994
-113.933
-117.169
-119.595
-121.223
-122.058
-122.084
-121.33
-119.854
-117.715
-114.998
-111.782
-108.129
-104.131
-99.888
-95.51
-91.125
-86.835
-82.72
-78.841
-75.23
-71.907
-68.886
-66.164
-63.726
-61.551
-59.605
-57.857
-56.281
-54.844
-53.507
-52.23
-50.959
-49.656
-48.29
-46.841
-45.292
-43.634
-41.854
-39.95
-37.926
-35.783
-33.526
-31.153
-28.664
-26.059
-23.343
-20.519
-17.597
-14.584
-11.484
-8.304
-5.051
-1.734
1.64
5.062
8.525
12.021
15.538
19.063
22.582
26.081
29.546
32.961
36.311
39.58
42.753
45.814
48.751
51.55
54.197
56.68
58.986
61.105
63.025
64.737
66.233
67.503
68.541
69.341
69.899
70.211
70.273
70.084
69.645
68.954
68.015
66.829
65.401
63.736
61.84
59.72
57.385
54.844
52.107
49.187
46.096
42.845
39.45
35.924
32.28
28.535
24.704
20.801
16.842
12.842
8.818
4.785
0.757
-3.249
-7.22
-11.14
-14.997
-18.776
-22.465
-26.052
-29.524
-32.871
-36.082
-39.149
-42.062
-44.814
-47.399
-49.811
-52.048
-54.104
-55.98
-57.673
-59.185
-60.517
-61.672
-62.651
-63.461
-64.105
-64.591
-64.927
-65.118
-65.175
-65.105
-64.919
-64.626
-64.237
-63.761
-63.208
-62.589
-61.915
-61.197
-60.443
-59.666
-58.874
-58.076
-57.282
-56.501
-55.738
-55.001
-54.293
-53.619
-52.983
-52.386
-51.829
-51.311
-50.832
-50.393
-49.991
-49.623
-49.285
-48.973
-48.683
-48.407
-48.137
-47.864
-47.576
-47.262
-46.914
-46.522
-46.076
-45.568
-44.986
-44.322
-43.571
-42.726
-41.778
-40.711
-39.511
-38.169
-36.689
-35.081
-33.351
-31.506
-29.551
-27.5
-25.374
-23.187
-20.94
-18.623
-16.222
-13.74
-11.189
-8.6
-6.001
-3.407
-0.819
1.766
4.339
6.89
9.419
11.942
14.485
17.048
19.596
22.055
24.358
26.458
28.331
29.968
31.352
32.455
33.247
33.705
33.817
33.567
32.916
31.799
30.152
27.948
25.218
22.04
18.49
14.628
10.51
6.188
1.722
-2.82
-7.387
-11.942
-16.445
-20.84
-25.04
-28.931
-32.416
-35.433
-37.959
-40.031
-41.692
-42.998
-44.031
-44.865
-45.577
-46.26
-46.985
-47.827
-48.88
-50.211
-51.928
-54.205
-57.137
-60.754
-64.959
-69.404
-73.702
-77.552
-80.549
-82.224
-82.278
-80.494
-77.019
-72.671
-68.272
-64.4
-61.772
-61.083
-62.75
-67.108
-73.014
-77.455
-77.834
-72.464
-61.97
-48.454
-31.136
-5.865
35.107
98.25
182.485
280.635
380.383
471.631
552.516
623.989
686.908
736.3
759.03
741.736
676.295
563.462
412.667
238.162
55.073
-121.256
-275.733
-396.999
-477.207
-516.1
-520.004
-495.38
-451.115
-394.59
-332.13
-274.415
-229.362
-200.376
-187.063
-181.982
-177.219
-169.546
-158.646
-147.585
-140.228
-137.251
-137.274
-138.139
-137.378
-133.89
-127.981
-120.372
-111.883
-103.125
-94.562
-86.658
-79.992
-75.235
-72.651
-72.14
-73.451
-76.181
-79.951
-84.463
-89.338
-94.099
-98.378
-101.945
-104.682
-106.601
-107.728
-108.054
-107.594
-106.4
-104.541
-102.102
-99.177
-95.836
-92.15
-88.206
-84.093
-79.925
-75.833
-71.914
-68.225
-64.802
-61.656
-58.798
-56.237
-53.965
-51.947
-50.146
-48.526
-47.053
-45.707
-44.458
-43.268
-42.092
-40.879
-39.595
-38.215
-36.724
-35.109
-33.36
-31.466
-29.428
-27.255
-24.953
-22.525
-19.974
-17.297
-14.497
-11.582
-8.558
-5.435
-2.221
1.078
4.453
7.893
11.388
14.927
18.502
22.101
25.714
29.326
32.923
36.49
40.011
43.471
46.854
50.144
53.325
56.382
59.303
62.074
64.682
67.115
69.364
71.417
73.265
74.9
76.314
77.501
78.453
79.167
79.639
79.865
79.845
79.577
79.061
78.3
77.297
76.055
74.581
72.882
70.964
68.837
66.512
64
61.312
58.461
55.46
52.324
49.066
45.702
42.246
38.713
35.118
31.475
27.799
24.106
20.408
16.721
13.059
9.434
5.861
2.352
-1.081
-4.425
-7.67
-10.805
-13.82
-16.707
-19.459
-22.067
-24.528
-26.837
-28.989
-30.983
-32.818
-34.494
-36.012
-37.374
-38.584
-39.644
-40.561
-41.34
-41.986
-42.506
-42.908
-43.199
-43.387
-43.479
-43.486
-43.414
-43.274
-43.072
-42.819
-42.522
-42.189
-41.829
-41.449
-41.055
-40.655
-40.252
-39.854
-39.463
-39.083
-38.717
-38.367
-38.032
-37.712
-37.407
-37.113
-36.829
-36.55
-36.27
-35.986
-35.69
-35.376
-35.037
-34.666
-34.256
-33.799
-33.287
-32.711
-32.065
-31.339
-30.527
-29.622
-28.616
-27.503
-26.279
-24.939
-23.479
-21.898
-20.193
-18.364
-16.413
-14.341
-12.151
-9.848
-7.44
-4.933
-2.336
0.339
3.08
5.873
8.701
11.548
14.397
17.228
20.02
22.751
25.4
27.947
30.372
32.658
34.783
36.73
38.478
40.012
41.316
42.376
43.177
43.706
43.949
43.9
43.566
42.949
42.05
40.868
39.392
37.618
35.553
33.202
30.571
27.673
24.516
21.127
17.557
13.853
10.07
6.249
2.402
-1.447
-5.27
-9.013
-12.584
-15.914
-18.963
-21.694
-24.096
-26.144
-27.767
-29.021
-30.082
-31.122
-32.356
-33.867
-35.535
-37.389
-39.591
-42.146
-45.021
-48.058
-50.867
-53.367
-55.752
-57.95
-59.767
-61.062
-61.583
-61.382
-60.86
-60.157
-59.426
-59.083
-59.514
-61.049
-64.079
-68.685
-74.604
-81.56
-87.617
-89.381
-84.109
-69.293
-46.057
-19.096
10.083
42.116
83.049
144.258
230.72
341.974
469.391
595.999
707.939
792.047
839.63
847.827
813.127
738.539
629.309
490.87
334.414
168.623
4.374
-143.656
-265.763
-352.655
-401.639
-417.206
-403.116
-367.666
-318.27
-262.463
-211.851
-172.038
-145.256
-129.547
-116.724
-103.145
-88.641
-74.79
-66.476
-65.195
-69.332
-76.797
-84.175
-89.213
-91.218
-89.977
-85.95
-79.837
-72.286
-64.02
-55.866
-48.644
-43.076
-39.538
-38.022
-38.28
-39.914
-42.496
-45.591
-48.785
-51.699
-54.091
-55.872
-56.997
-57.452
-57.247
-56.383
-54.894
-52.843
-50.279
-47.232
-43.771
-39.978
-35.966
-31.879
-27.816
-23.834
-19.986
-16.303
-12.818
-9.576
-6.591
-3.855
-1.364
0.888
2.908
4.697
6.28
7.703
9.014
10.268
11.507
12.756
14.042
15.384
16.8
18.304
19.903
21.593
23.379
25.266
27.261
29.374
31.608
33.959
36.425
39.001
41.683
44.468
47.351
50.326
53.388
56.534
59.757
63.056
66.422
69.846
73.317
76.822
80.349
83.883
87.409
90.91
94.37
97.774
101.104
104.347
107.486
110.505
113.39
116.127
118.701
121.099
123.308
125.316
127.112
128.686
130.029
131.132
131.989
132.594
132.941
133.027
132.849
132.406
131.697
130.722
129.485
127.989
126.238
124.24
122.001
119.531
116.84
113.939
110.84
107.556
104.099
100.484
96.726
92.839
88.839
84.742
80.563
76.318
72.024
67.696
63.35
59.001
54.664
50.353
46.084
41.869
37.723
33.658
29.687
25.819
22.067
18.44
14.946
11.592
8.384
5.328
2.426
-0.317
-2.901
-5.325
-7.59
-9.697
-11.648
-13.447
-15.097
-16.605
-17.976
-19.218
-20.336
-21.339
-22.235
-23.032
-23.74
-24.366
-24.919
-25.408
-25.842
-26.231
-26.583
-26.908
-27.214
-27.508
-27.798
-28.092
-28.396
-28.715
-29.051
-29.41
-29.793
-30.201
-30.635
-31.093
-31.573
-32.074
-32.595
-33.131
-33.679
-34.233
-34.788
-35.339
-35.878
-36.397
-36.885
-37.331
-37.724
-38.056
-38.317
-38.498
-38.589
-38.579
-38.461
-38.23
-37.879
-37.398
-36.774
-35.989
-35.039
-33.924
-32.656
-31.24
-29.682
-27.988
-26.171
-24.251
-22.242
-20.145
-17.949
-15.641
-13.222
-10.705
-8.12
-5.494
-2.842
-0.165
2.54
5.266
8.002
10.748
13.519
16.342
19.216
22.102
24.929
27.624
30.142
32.455
34.55
36.409
38.002
39.294
40.257
40.876
41.131
40.978
40.35
39.178
37.434
35.144
32.386
29.234
25.747
21.982
17.986
13.82
9.55
5.225
0.884
-3.438
-7.683
-11.766
-15.577
-19.015
-22.019
-24.572
-26.706
-28.465
-29.901
-31.092
-32.115
-33.056
-34.004
-35.028
-36.191
-37.572
-39.256
-41.356
-44.032
-47.368
-51.36
-55.913
-60.761
-65.577
-70.031
-73.697
-76.092
-76.889
-75.936
-73.332
-69.583
-65.308
-61.127
-57.695
-55.547
-55.062
-56.38
-59.134
-62.442
-64.22
-61.332
-51.26
-31.673
-2.745
32.28
72.562
118.116
171.47
239.41
323.16
420.363
525.963
628.508
719.337
789.89
829.719
831.792
789.192
700.369
570.85
410.786
235.051
57.944
-105.993
-244.996
-350.741
-416.248
-441.615
-429.205
-384.849
-320.988
-248.854
-181.76
-131.33
-99.646
-84.901
-80.126
-75.957
-69.514
-61.199
-53.971
-52.598
-57.773
-67.548
-79.066
-88.705
-94.663
-96.923
-95.975
-92.718
-87.974
-82.356
-76.656
-71.732
-68.306
-66.678
-66.706
-68.077
-70.377
-73.206
-76.25
-79.164
-81.611
-83.415
-84.522
-84.923
-84.666
-83.789
-82.299
-80.251
-77.732
-74.829
-71.659
-68.329
-64.923
-61.538
-58.24
-55.072
-52.072
-49.256
-46.631
-44.213
-42.018
-40.052
-38.328
-36.846
-35.593
-34.548
-33.671
-32.918
-32.248
-31.623
-31.015
-30.402
-29.768
-29.102
-28.4
-27.657
-26.865
-26.015
-25.095
-24.094
-23.004
-21.818
-20.532
-19.147
-17.66
-16.072
-14.383
-12.595
-10.706
-8.718
-6.63
-4.442
-2.157
0.221
2.685
5.226
7.837
10.505
13.219
15.965
18.729
21.499
24.259
26.997
29.696
32.343
34.922
37.419
39.82
42.111
44.277
46.305
48.182
49.896
51.435
52.789
53.946
54.899
55.639
56.159
56.453
56.515
56.343
55.932
55.281
54.389
53.259
51.891
50.29
48.461
46.41
44.145
41.676
39.012
36.163
33.142
29.961
26.633
23.171
19.59
15.904
12.127
8.276
4.365
0.41
-3.573
-7.57
-11.563
-15.539
-19.482
-23.376
-27.208
-30.962
-34.627
-38.188
-41.633
-44.95
-48.129
-51.159
-54.032
-56.74
-59.276
-61.636
-63.816
-65.813
-67.625
-69.253
-70.698
-71.961
-73.047
-73.959
-74.701
-75.279
-75.699
-75.967
-76.092
-76.08
-75.942
-75.685
-75.319
-74.854
-74.3
-73.667
-72.966
-72.205
-71.395
-70.547
-69.67
-68.773
-67.866
-66.958
-66.055
-65.167
-64.299
-63.457
-62.643
-61.861
-61.111
-60.395
-59.709
-59.052
-58.42
-57.809
-57.215
-56.635
-56.063
-55.494
-54.924
-54.346
-53.755
-53.142
-52.498
-51.81
-51.068
-50.26
-49.376
-48.405
-47.34
-46.17
-44.887
-43.488
-41.966
-40.313
-38.521
-36.573
-34.46
-32.18
-29.739
-27.146
-24.42
-21.578
-18.638
-15.628
-12.569
-9.473
-6.346
-3.176
0.045
3.316
6.624
9.943
13.245
16.524
19.774
22.994
26.198
29.399
32.612
35.879
39.216
42.612
46.035
49.414
52.663
55.725
58.558
61.129
63.424
65.409
67.047
68.312
69.152
69.514
69.342
68.547
67.065
64.892
62.049
58.618
54.722
50.453
45.896
41.134
36.221
31.224
26.215
21.253
16.414
11.792
7.483
3.603
0.256
-2.522
-4.731
-6.438
-7.769
-8.83
-9.72
-10.554
-11.434
-12.468
-13.765
-15.398
-17.446
-20.065
-23.396
-27.524
-32.421
-37.839
-43.439
-48.89
-53.774
-57.562
-59.781
-60.081
-58.499
-55.631
-52.191
-48.953
-46.803
-46.581
-49.189
-54.485
-60.591
-65.169
-65.692
-62.239
-57.797
-52.542
-43.991
-24.178
19.169
90.717
188.598
303.283
418.942
526.835
622.358
704.048
772.744
822.214
844.523
831.341
775.638
678.48
543.847
381.534
206.34
32.104
-124.549
-251.718
-343.652
-396.962
-415.113
-401.811
-361.674
-304.081
-238.166
-176.191
-129.144
-100.097
-87.988
-86.011
-85.615
-83.804
-80.386
-77.876
-80.098
-86.975
-96.324
-105.485
-111.323
-112.788
-110.427
-104.87
-97.101
-88.127
-78.743
-69.964
-62.829
-57.811
-54.967
-54.178
-55.102
-57.358
-60.581
-64.263
-67.867
-71.089
-73.798
-75.965
-77.647
-78.845
-79.513
-79.638
-79.236
-78.325
-76.928
-75.058
-72.726
-69.985
-66.928
-63.681
-60.375
-57.097
-53.899
-50.809
-47.85
-45.045
-42.422
-39.997
-37.772
-35.745
-33.913
-32.275
-30.826
-29.549
-28.408
-27.354
-26.335
-25.312
-24.26
-23.162
-22.005
-20.776
-19.464
-18.065
-16.58
-15.01
-13.349
-11.592
-9.73
-7.761
-5.688
-3.514
-1.248
1.106
3.542
6.056
8.64
11.289
13.998
16.762
19.577
22.437
25.333
28.257
31.195
34.138
37.073
39.988
42.868
45.702
48.475
51.176
53.794
56.317
58.733
61.031
63.202
65.235
67.12
68.848
70.41
71.799
73.006
74.024
74.848
75.473
75.894
76.107
76.11
75.902
75.479
74.843
73.994
72.933
71.663
70.187
68.51
66.636
64.573
62.326
59.905
57.316
54.569
51.673
48.637
45.471
42.186
38.792
35.299
31.719
28.064
24.344
20.572
16.76
12.921
9.066
5.207
1.358
-2.469
-6.263
-10.011
-13.702
-17.324
-20.866
-24.319
-27.672
-30.916
-34.044
-37.048
-39.922
-42.66
-45.257
-47.711
-50.018
-52.175
-54.183
-56.04
-57.746
-59.302
-60.71
-61.972
-63.091
-64.069
-64.912
-65.623
-66.208
-66.672
-67.022
-67.266
-67.412
-67.466
-67.439
-67.339
-67.176
-66.959
-66.697
-66.399
-66.075
-65.732
-65.38
-65.024
-64.67
-64.325
-63.989
-63.667
-63.359
-63.068
-62.793
-62.533
-62.288
-62.057
-61.84
-61.636
-61.441
-61.253
-61.066
-60.875
-60.675
-60.456
-60.209
-59.925
-59.59
-59.196
-58.732
-58.185
-57.543
-56.79
-55.906
-54.877
-53.696
-52.354
-50.85
-49.185
-47.366
-45.408
-43.337
-41.171
-38.93
-36.63
-34.278
-31.89
-29.478
-27.054
-24.631
-22.215
-19.793
-17.352
-14.871
-12.311
-9.635
-6.791
-3.708
-0.341
3.345
7.374
11.744
16.453
21.491
26.82
32.399
38.172
44.05
49.938
55.736
61.302
66.504
71.201
75.223
78.444
80.765
82.101
82.404
81.645
79.811
76.937
73.091
68.35
62.826
56.638
49.916
42.836
35.573
28.303
21.222
14.494
8.238
2.565
-2.438
-6.727
-10.285
-13.15
-15.418
-17.179
-18.524
-19.565
-20.416
-21.241
-22.227
-23.516
-25.258
-27.616
-30.648
-34.387
-38.803
-43.636
-48.541
-53.176
-57.083
-59.813
-61.109
-60.71
-58.593
-55.291
-51.435
-47.665
-44.642
-42.906
-42.935
-45.234
-49.935
-55.047
-57.106
-53.317
-41.009
-21.26
1.132
25.651
53.647
90.282
147.175
228.028
330.643
449.052
567.432
673.808
759.494
813.895
831.332
804.979
728.079
601.576
432.697
237.085
38.676
-138.022
-274.341
-361.939
-405.483
-418.226
-412.417
-394.141
-364.011
-320.02
-265.226
-210.394
-165.865
-138.25
-126.782
-122.48
-118.554
-112.23
-104.448
-100.253
-101.714
-107.723
-116.035
-123
-126.529
-126.488
-123.204
-117.532
-110.418
-102.539
-94.7
-87.825
-82.674
-79.632
-78.738
-79.785
-82.371
-86.051
-90.362
-94.83
-99.047
-102.766
-105.877
-108.312
-110.044
-111.067
-111.379
-111.017
-110.039
-108.486
-106.383
-103.792
-100.798
-97.523
-94.119
-90.688
-87.294
-83.986
-80.801
-77.773
-74.95
-72.344
-69.945
-67.748
-65.746
-63.934
-62.309
-60.845
-59.495
-58.208
-56.927
-55.608
-54.225
-52.754
-51.172
-49.466
-47.622
-45.636
-43.513
-41.252
-38.849
-36.301
-33.599
-30.745
-27.745
-24.606
-21.334
-17.938
-14.424
-10.802
-7.081
-3.27
0.625
4.593
8.628
12.72
16.854
21.018
25.196
29.372
33.53
37.652
41.721
45.719
49.63
53.436
57.122
60.672
64.071
67.303
70.356
73.215
75.869
78.304
80.512
82.482
84.205
85.674
86.884
87.827
88.502
88.904
89.033
88.888
88.471
87.783
86.828
85.611
84.138
82.416
80.453
78.26
75.847
73.226
70.408
67.406
64.235
60.908
57.44
53.845
50.138
46.336
42.453
38.505
34.508
30.477
26.429
22.378
18.339
14.327
10.356
6.441
2.595
-1.17
-4.841
-8.405
-11.853
-15.175
-18.361
-21.404
-24.298
-27.036
-29.615
-32.032
-34.283
-36.368
-38.287
-40.039
-41.625
-43.048
-44.31
-45.416
-46.369
-47.174
-47.838
-48.367
-48.769
-49.052
-49.224
-49.293
-49.268
-49.159
-48.974
-48.724
-48.419
-48.068
-47.681
-47.269
-46.841
-46.405
-45.97
-45.542
-45.127
-44.731
-44.356
-44.004
-43.676
-43.374
-43.098
-42.85
-42.628
-42.432
-42.262
-42.118
-41.999
-41.903
-41.823
-41.753
-41.684
-41.61
-41.52
-41.405
-41.252
-41.05
-40.789
-40.465
-40.068
-39.589
-39.014
-38.326
-37.511
-36.566
-35.489
-34.279
-32.937
-31.471
-29.9
-28.255
-26.565
-24.85
-23.113
-21.351
-19.561
-17.744
-15.903
-14.04
-12.143
-10.196
-8.192
-6.129
-4.005
-1.804
0.511
3.004
5.726
8.695
11.905
15.323
18.918
22.649
26.46
30.279
34.003
37.538
40.813
43.774
46.369
48.536
50.18
51.177
51.431
50.873
49.47
47.221
44.128
40.217
35.552
30.235
24.413
18.228
11.792
5.197
-1.47
-8.123
-14.639
-20.876
-26.715
-32.044
-36.778
-40.866
-44.253
-46.918
-48.89
-50.246
-51.113
-51.64
-51.954
-52.168
-52.399
-52.756
-53.376
-54.4
-55.959
-58.21
-61.245
-65.074
-69.639
-74.741
-80.081
-85.324
-90.034
-93.688
-95.913
-96.485
-95.404
-93.08
-90.058
-86.955
-84.463
-83.132
-83.392
-85.548
-89.373
-93.959
-97.163
-95.737
-87.009
-69.288
-43.282
-11.402
26.252
71.693
129.27
203.58
293.595
393.845
496.088
591.282
673.452
736.542
773.012
774.236
731.312
641.254
507.784
341.423
158.562
-23.717
-187.95
-320.345
-414.178
-469.208
-492.398
-491.928
-472.743
-437.748
-388.352
-329.366
-271.013
-222.334
-188.771
-169.605
-157.414
-146.762
-135.513
-124.563
-118.21
-117.914
-122.255
-128.763
-133.694
-134.855
-132.033
-125.624
-116.562
-105.857
-94.254
-82.628
-72.013
-63.325
-57.049
-53.245
-51.696
-51.984
-53.69
-56.422
-59.725
-63.129
-66.302
-69.008
-71.093
-72.522
-73.276
-73.339
-72.729
-71.476
-69.604
-67.157
-64.2
-60.796
-57.023
-52.955
-48.66
-44.216
-39.717
-35.271
-30.975
-26.892
-23.058
-19.49
-16.201
-13.205
-10.497
-8.049
-5.822
-3.777
-1.88
-0.107
1.571
3.191
4.795
6.433
8.142
9.949
11.872
13.926
16.126
18.483
21.001
23.673
26.493
29.458
32.566
35.819
39.213
42.742
46.396
50.167
54.044
58.019
62.083
66.223
70.426
74.68
78.972
83.292
87.625
91.955
96.264
100.536
104.752
108.894
112.944
116.881
120.689
124.35
127.848
131.167
134.294
137.214
139.913
142.382
144.608
146.582
148.296
149.742
150.914
151.809
152.422
152.752
152.799
152.564
152.05
151.261
150.202
148.88
147.304
145.482
143.426
141.147
138.659
135.975
133.112
130.083
126.907
123.6
120.179
116.663
113.069
109.416
105.72
101.999
98.272
94.556
90.867
87.222
83.638
80.13
76.712
73.4
70.206
67.141
64.216
61.441
58.824
56.372
54.091
51.985
50.059
48.315
46.754
45.376
44.182
43.168
42.332
41.667
41.17
40.833
40.649
40.611
40.709
40.934
41.278
41.729
42.278
42.913
43.623
44.396
45.221
46.088
46.983
47.898
48.823
49.749
50.668
51.575
52.463
53.329
54.17
54.982
55.764
56.514
57.231
57.913
58.561
59.175
59.757
60.309
60.837
61.347
61.849
62.351
62.864
63.397
63.958
64.557
65.203
65.904
66.666
67.498
68.409
69.411
70.523
71.758
73.121
74.612
76.224
77.942
79.756
81.65
83.603
85.599
87.632
89.7
91.822
94.015
96.283
98.62
101.004
103.412
105.841
108.289
110.758
113.266
115.823
118.447
121.18
124.045
127.032
130.11
133.207
136.233
139.127
141.844
144.348
146.619
148.612
150.285
151.613
152.553
153.058
153.073
152.497
151.255
149.331
146.739
143.542
139.844
135.716
131.227
126.464
121.492
116.387
111.224
106.04
100.887
95.842
91
86.495
82.451
78.924
75.947
73.523
71.6
70.131
69.044
68.222
67.571
67.012
66.455
65.834
65.066
64.022
62.592
60.64
57.983
54.562
50.387
45.551
40.397
35.334
30.729
27.07
24.862
24.352
25.677
28.664
32.54
36.447
39.65
41.388
41.035
38.308
33.118
25.887
18.889
15.54
18.81
31.772
54.778
84.864
121.325
163.963
214.819
280.917
364.361
463.807
575.02
686.055
786.578
866.247
913.166
919.48
878.39
788.649
656.401
493.642
317.096
142.207
-15.998
-147.876
-249.616
-317.653
-355.147
-365.068
-347.659
-309.428
-255.718
-194.883
-141.232
-101.457
-77.986
-68.437
-62.928
-56.469
-48.144
-39.023
-34.031
-34.802
-39.82
-47.012
-52.977
-55.689
-55.074
-51.531
-45.938
-39.239
-32.071
-25.133
-19.266
-15.246
-13.455
-13.91
-16.398
-20.492
-25.752
-31.76
-38.032
-44.106
-49.695
-54.631
-58.808
-62.22
-64.865
-66.74
-67.895
-68.391
-68.282
-67.624
-66.487
-64.952
-63.131
-61.157
-59.151
-57.21
-55.406
-53.797
-52.436
-51.366
-50.604
-50.152
-49.998
-50.131
-50.541
-51.212
-52.116
-53.216
-54.468
-55.824
-57.236
-58.665
-60.078
-61.452
-62.764
-64
-65.149
-66.205
-67.17
-68.039
-68.806
-69.468
-70.02
-70.459
-70.788
-71.008
-71.122
-71.134
-71.048
-70.867
-70.596
-70.238
-69.799
-69.282
-68.692
-68.035
-67.321
-66.559
-65.761
-64.939
-64.105
-63.272
-62.454
-61.664
-60.918
-60.227
-59.604
-59.063
-58.616
-58.276
-58.054
-57.962
-58.011
-58.211
-58.572
-59.102
-59.81
-60.703
-61.785
-63.064
-64.542
-66.222
-68.107
-70.197
-72.491
-74.989
-77.687
-80.581
-83.667
-86.938
-90.388
-94.009
-97.791
-101.724
-105.799
-110.003
-114.325
-118.753
-123.272
-127.871
-132.535
-137.251
-142.004
-146.78
-151.566
-156.346
-161.108
-165.837
-170.52
-175.142
-179.692
-184.157
-188.525
-192.785
-196.926
-200.941
-204.819
-208.554
-212.139
-215.568
-218.837
-221.941
-224.879
-227.648
-230.247
-232.675
-234.935
-237.027
-238.954
-240.721
-242.332
-243.791
-245.104
-246.278
-247.319
-248.233
-249.029
-249.713
-250.293
-250.778
-251.176
-251.495
-251.742
-251.925
-252.052
-252.13
-252.163
-252.157
-252.116
-252.044
-251.942
-251.814
-251.658
-251.475
-251.264
-251.026
-250.758
-250.457
-250.121
-249.744
-249.323
-248.854
-248.329
-247.74
-247.079
-246.336
-245.503
-244.572
-243.537
-242.387
-241.116
-239.713
-238.173
-236.492
-234.664
-232.676
-230.521
-228.185
-225.666
-222.975
-220.118
-217.096
-213.917
-210.586
-207.117
-203.53
-199.832
-196.021
-192.092
-188.04
-183.876
-179.624
-175.309
-170.956
-166.578
-162.171
-157.744
-153.321
-148.912
-144.523
-140.152
-135.778
-131.423
-127.145
-122.998
-119.033
-115.282
-111.746
-108.44
-105.387
-102.613
-100.155
-98.023
-96.21
-94.729
-93.61
-92.896
-92.646
-92.857
-93.47
-94.436
-95.71
-97.262
-99.081
-101.12
-103.313
-105.593
-107.905
-110.225
-112.546
-114.842
-117.057
-119.097
-120.86
-122.294
-123.385
-124.143
-124.569
-124.624
-124.334
-123.816
-123.249
-122.926
-123.099
-123.813
-125.101
-126.973
-129.272
-131.919
-134.699
-136.996
-138.232
-138.069
-136.253
-132.843
-128.207
-122.44
-115.838
-109.199
-103.36
-99.276
-97.788
-99.193
-103.35
-110.058
-118.937
-129.31
-140.107
-149.536
-154.841
-152.725
-140.777
-117.746
-84.609
-43.785
4.307
60.605
127.867
209.061
302.444
403.58
506.6
604.266
690.618
758.002
795.569
792.715
742.178
643.927
506.018
342.255
167.765
-2.713
-155.119
-278.963
-365.984
-413.833
-426.431
-408.768
-369.611
-316.989
-258.095
-203.616
-160.851
-133.083
-119.588
-112.955
-105.739
-94.946
-80.81
-67.26
-58.674
-55.826
-57.612
-61.714
-65.355
-67.368
-67.371
-65.353
-61.882
-57.357
-52.035
-46.441
-41.046
-36.313
-32.827
-30.765
-29.956
-30.186
-31.115
-32.41
-33.862
-35.195
-36.065
-36.282
-35.735
-34.385
-32.314
-29.576
-26.195
-22.248
-17.831
-13.056
-8.072
-2.997
2.095
7.128
12.059
16.846
21.442
25.815
29.945
33.819
37.439
40.808
43.922
46.793
49.44
51.899
54.225
56.466
58.653
60.815
62.969
65.132
67.324
69.554
71.823
74.135
76.494
78.906
81.38
83.925
86.543
89.234
91.995
94.823
97.718
100.679
103.703
106.787
109.929
113.126
116.378
119.682
123.032
126.423
129.844
133.285
136.738
140.19
143.629
147.044
150.422
153.752
157.021
160.219
163.333
166.351
169.263
172.056
174.72
177.243
179.615
181.826
183.867
185.727
187.399
188.875
190.148
191.212
192.061
192.691
193.098
193.28
193.234
192.961
192.459
191.732
190.781
189.609
188.223
186.627
184.827
182.83
180.644
178.277
175.736
173.032
170.172
167.166
164.026
160.761
157.383
153.903
150.334
146.686
142.973
139.207
135.4
131.565
127.714
123.861
120.018
116.197
112.411
108.672
104.991
101.378
97.844
94.398
91.048
87.801
84.665
81.643
78.742
75.966
73.319
70.803
68.422
66.176
64.068
62.097
60.263
58.563
56.996
55.558
54.246
53.054
51.979
51.014
50.154
49.391
48.719
48.129
47.615
47.165
46.773
46.428
46.122
45.846
45.594
45.358
45.132
44.911
44.691
44.47
44.245
44.013
43.771
43.519
43.253
42.974
42.678
42.364
42.034
41.688
41.331
40.969
40.607
40.253
39.915
39.602
39.321
39.082
38.89
38.749
38.667
38.654
38.721
38.885
39.154
39.535
40.034
40.651
41.379
42.206
43.109
44.061
45.046
46.054
47.081
48.138
49.23
50.361
51.542
52.766
54.03
55.336
56.674
58.038
59.443
60.906
62.471
64.189
66.081
68.151
70.388
72.744
75.172
77.608
79.963
82.171
84.176
85.922
87.374
88.502
89.25
89.555
89.333
88.478
86.928
84.642
81.599
77.821
73.352
68.269
62.695
56.749
50.524
44.105
37.555
30.924
24.294
17.754
11.398
5.341
-0.329
-5.553
-10.261
-14.398
-17.954
-20.978
-23.577
-25.907
-28.062
-30.049
-31.948
-33.92
-36.131
-38.807
-42.05
-45.74
-49.898
-54.728
-60.186
-66.046
-71.904
-76.944
-80.638
-83.008
-83.842
-82.727
-79.633
-74.706
-68.584
-62.791
-58.457
-55.878
-55.422
-57.521
-62.268
-69.512
-78.236
-85.321
-86.997
-80.712
-64.617
-39.158
-6.447
33.748
83.098
144.74
222.357
314.694
416.545
520.114
615.311
695.163
753.807
784.548
783.802
746.636
669.725
555.64
406.967
232.628
48.246
-129.468
-280.147
-388.087
-447.699
-461.256
-437.721
-388.526
-324.422
-254.084
-187.36
-133.659
-97.016
-78.403
-72.631
-70.654
-68.468
-64.882
-61.711
-63.585
-71.257
-82.783
-95.65
-106.305
-112.891
-115.516
-114.674
-111.249
-106.189
-100.234
-94.097
-88.547
-84.25
-81.442
-80.049
-79.861
-80.489
-81.546
-82.75
-83.78
-84.337
-84.314
-83.677
-82.428
-80.652
-78.391
-75.685
-72.64
-69.343
-65.856
-62.246
-58.557
-54.837
-51.164
-47.588
-44.13
-40.812
-37.631
-34.594
-31.72
-29.014
-26.476
-24.101
-21.865
-19.751
-17.748
-15.838
-13.999
-12.208
-10.432
-8.651
-6.859
-5.044
-3.199
-1.317
0.615
2.606
4.66
6.783
8.98
11.257
13.62
16.074
18.62
21.259
23.991
26.814
29.73
32.737
35.831
39.009
42.265
45.592
48.985
52.434
55.931
59.463
63.019
66.586
70.152
73.704
77.227
80.707
84.13
87.48
90.743
93.905
96.951
99.867
102.641
105.258
107.707
109.975
112.05
113.923
115.582
117.019
118.226
119.195
119.921
120.4
120.628
120.601
120.321
119.785
118.995
117.953
116.663
115.129
113.357
111.355
109.13
106.692
104.05
101.216
98.201
95.018
91.68
88.199
84.59
80.867
77.044
73.135
69.155
65.12
61.044
56.941
52.828
48.717
44.624
40.561
36.543
32.581
28.688
24.874
21.151
17.528
14.014
10.619
7.348
4.21
1.208
-1.653
-4.37
-6.941
-9.366
-11.646
-13.782
-15.777
-17.634
-19.356
-20.949
-22.417
-23.765
-25.001
-26.13
-27.159
-28.097
-28.951
-29.73
-30.443
-31.097
-31.701
-32.263
-32.79
-33.291
-33.773
-34.243
-34.707
-35.172
-35.644
-36.129
-36.631
-37.154
-37.7
-38.27
-38.865
-39.484
-40.123
-40.778
-41.444
-42.116
-42.79
-43.459
-44.118
-44.759
-45.38
-45.975
-46.539
-47.063
-47.54
-47.958
-48.308
-48.579
-48.761
-48.842
-48.811
-48.657
-48.376
-47.963
-47.415
-46.725
-45.883
-44.877
-43.701
-42.358
-40.85
-39.18
-37.361
-35.41
-33.356
-31.242
-29.098
-26.947
-24.802
-22.666
-20.543
-18.442
-16.369
-14.329
-12.327
-10.363
-8.441
-6.575
-4.758
-2.976
-1.189
0.665
2.623
4.69
6.858
9.097
11.363
13.612
15.781
17.796
19.596
21.127
22.345
23.226
23.717
23.761
23.281
22.167
20.352
17.806
14.523
10.536
5.911
0.728
-4.905
-10.857
-17.034
-23.362
-29.764
-36.163
-42.459
-48.533
-54.274
-59.582
-64.364
-68.527
-72.075
-75.08
-77.714
-80.283
-82.975
-85.852
-88.962
-92.295
-95.753
-99.274
-102.621
-105.267
-107
-107.854
-107.823
-107.132
-105.975
-104.28
-102.225
-100.359
-98.842
-97.776
-97.545
-98.11
-99.479
-102.128
-106.193
-111.448
-118.076
-124.857
-128.855
-128.186
-120.975
-107.517
-91.418
-72.99
-49.515
-14.978
39.834
117.967
215.468
323.542
429.853
525.737
607.356
671.728
714.966
731.891
714.852
658.07
561.501
427.145
263.336
84.461
-93.288
-249.716
-369.052
-444.509
-477.794
-478.828
-457.564
-421.524
-375.184
-321.453
-266.983
-219.309
-183.745
-162.139
-150.11
-140.9
-130.845
-119.179
-108.454
-102.511
-102.293
-106.825
-113.828
-120.463
-125.362
-128.014
-128.456
-127.271
-124.836
-121.447
-117.668
-113.978
-110.867
-108.911
-108.22
-108.625
-109.915
-111.751
-113.853
-116.024
-117.984
-119.396
-120.063
-119.904
-118.93
-117.244
-114.909
-111.972
-108.518
-104.67
-100.58
-96.377
-92.153
-87.964
-83.84
-79.816
-75.931
-72.22
-68.707
-65.403
-62.307
-59.411
-56.718
-54.219
-51.895
-49.713
-47.615
-45.554
-43.494
-41.41
-39.282
-37.095
-34.832
-32.48
-30.038
-27.503
-24.873
-22.144
-19.306
-16.355
-13.289
-10.11
-6.826
-3.442
0.038
3.609
7.266
11.002
14.81
18.685
22.622
26.615
30.656
34.733
38.835
42.949
47.061
51.158
55.224
59.243
63.201
67.082
70.872
74.557
78.122
81.552
84.833
87.953
90.899
93.658
96.218
98.569
100.701
102.604
104.271
105.695
106.87
107.791
108.454
108.857
109
108.881
108.502
107.864
106.97
105.826
104.436
102.806
100.945
98.861
96.562
94.06
91.366
88.49
85.444
82.242
78.894
75.416
71.82
68.119
64.327
60.459
56.528
52.548
48.533
44.496
40.451
36.412
32.39
28.399
24.451
20.556
16.726
12.971
9.3
5.723
2.248
-1.118
-4.369
-7.498
-10.501
-13.373
-16.112
-18.714
-21.179
-23.506
-25.693
-27.743
-29.656
-31.435
-33.082
-34.6
-35.992
-37.264
-38.42
-39.466
-40.406
-41.246
-41.994
-42.654
-43.235
-43.742
-44.183
-44.563
-44.889
-45.167
-45.402
-45.601
-45.768
-45.908
-46.025
-46.122
-46.202
-46.268
-46.322
-46.364
-46.394
-46.412
-46.418
-46.41
-46.384
-46.339
-46.271
-46.177
-46.051
-45.889
-45.687
-45.438
-45.138
-44.779
-44.355
-43.861
-43.29
-42.635
-41.891
-41.05
-40.109
-39.063
-37.907
-36.637
-35.251
-33.746
-32.122
-30.378
-28.516
-26.537
-24.445
-22.245
-19.942
-17.544
-15.06
-12.499
-9.874
-7.199
-4.488
-1.755
0.981
3.704
6.397
9.04
11.616
14.107
16.494
18.759
20.883
22.845
24.627
26.21
27.578
28.713
29.603
30.235
30.599
30.691
30.504
30.033
29.265
28.194
26.816
25.131
23.145
20.868
18.318
15.517
12.503
9.313
5.987
2.559
-0.939
-4.477
-8.019
-11.521
-14.928
-18.192
-21.265
-24.113
-26.707
-29.033
-31.1
-32.942
-34.629
-36.235
-37.826
-39.467
-41.226
-43.174
-45.397
-48.002
-51.061
-54.666
-58.936
-63.89
-69.51
-75.674
-82.046
-88.246
-93.923
-98.637
-101.943
-103.581
-103.323
-101.231
-97.927
-94.03
-90.093
-86.682
-84.23
-83.075
-83.591
-85.736
-87.596
-86.154
-78.877
-63.176
-39.816
-12.945
16.598
49.083
88.329
144.604
221.677
318.439
430.199
542.387
643.43
724.81
776.209
792.396
767.656
696.407
580.08
425.265
245.057
58.064
-116.768
-264.363
-376.311
-450.712
-491.73
-504.378
-492.664
-462.053
-417.795
-368.117
-321.853
-283.067
-252.131
-224.542
-195.766
-165.568
-136.479
-113.339
-99.24
-93.697
-94.605
-99.013
-104.483
-109.714
-113.682
-115.506
-114.869
-111.93
-107.118
-101.019
-94.343
-87.755
-81.989
-77.876
-75.752
-75.519
-76.918
-79.508
-82.865
-86.638
-90.397
-93.657
-96.131
-97.711
-98.376
-98.22
-97.308
-95.662
-93.357
-90.495
-87.171
-83.476
-79.498
-75.306
-70.993
-66.674
-62.445
-58.392
-54.58
-51.037
-47.781
-44.821
-42.154
-39.768
-37.646
-35.762
-34.086
-32.595
-31.255
-30.033
-28.889
-27.773
-26.647
-25.479
-24.246
-22.934
-21.533
-20.036
-18.442
-16.755
-14.979
-13.116
-11.17
-9.14
-7.027
-4.836
-2.572
-0.245
2.14
4.577
7.06
9.583
12.14
14.725
17.334
19.963
22.605
25.254
27.901
30.537
33.154
35.742
38.292
40.795
43.241
45.623
47.933
50.166
52.315
54.375
56.342
58.211
59.98
61.646
63.207
64.661
66.007
67.245
68.373
69.392
70.304
71.107
71.804
72.395
72.881
73.265
73.549
73.734
73.822
73.816
73.719
73.535
73.267
72.919
72.494
71.997
71.431
70.8
70.109
69.36
68.556
67.701
66.799
65.851
64.861
63.832
62.766
61.667
60.537
59.38
58.198
56.994
55.771
54.531
53.279
52.018
50.75
49.479
48.209
46.943
45.686
44.439
43.207
41.991
40.795
39.619
38.466
37.336
36.231
35.151
34.097
33.068
32.066
31.09
30.14
29.214
28.312
27.433
26.575
25.737
24.917
24.115
23.329
22.559
21.805
21.065
20.34
19.63
18.936
18.258
17.595
16.945
16.308
15.684
15.074
14.477
13.895
13.329
12.783
12.263
11.776
11.328
10.922
10.564
10.258
10.013
9.833
9.724
9.687
9.727
9.853
10.076
10.411
10.864
11.43
12.099
12.865
13.723
14.666
15.682
16.753
17.868
19.029
20.249
21.547
22.925
24.374
25.872
27.394
28.929
30.481
32.055
33.648
35.251
36.864
38.504
40.199
41.952
43.727
45.455
47.067
48.515
49.773
50.83
51.667
52.255
52.555
52.536
52.19
51.5
50.436
48.938
46.929
44.375
41.297
37.761
33.834
29.561
24.971
20.098
15.001
9.749
4.406
-0.985
-6.397
-11.785
-17.078
-22.172
-26.944
-31.311
-35.237
-38.726
-41.781
-44.404
-46.605
-48.421
-49.935
-51.237
-52.412
-53.532
-54.662
-55.905
-57.365
-59.178
-61.519
-64.484
-68.109
-72.356
-77.028
-81.864
-86.617
-90.93
-94.371
-96.639
-97.487
-96.882
-95.253
-93.182
-91.204
-89.883
-89.785
-91.317
-94.836
-100.491
-106.716
-110.492
-109.197
-100.148
-83.688
-63.779
-41.349
-15.605
18.48
72.131
150.283
252.387
372.205
493.146
602.044
689.853
748.875
778.977
778.791
743.736
670.932
557.594
405.702
226.323
37.815
-138.395
-282.884
-384.531
-444.163
-470.285
-473.072
-459.844
-433.234
-393.801
-345.454
-296.662
-255.241
-225.938
-207.35
-192.233
-175.804
-156.868
-137.439
-122.573
-114.183
-111.313
-112.31
-114.16
-115.183
-115.042
-113.208
-109.793
-105.265
-99.888
-94.09
-88.496
-83.527
-79.626
-77.372
-76.916
-78.061
-80.538
-83.914
-87.752
-91.772
-95.631
-98.905
-101.361
-102.885
-103.437
-103.102
-101.945
-99.986
-97.304
-94.001
-90.175
-85.952
-81.451
-76.775
-72.047
-67.37
-62.822
-58.486
-54.414
-50.635
-47.169
-44.008
-41.134
-38.537
-36.197
-34.087
-32.178
-30.429
-28.795
-27.231
-25.684
-24.112
-22.481
-20.763
-18.934
-16.983
-14.897
-12.674
-10.318
-7.826
-5.197
-2.431
0.477
3.525
6.709
10.026
13.468
17.03
20.704
24.483
28.359
32.324
36.369
40.486
44.665
48.897
53.167
57.461
61.764
66.058
70.328
74.556
78.724
82.816
86.814
90.702
94.465
98.088
101.556
104.855
107.97
110.89
113.601
116.092
118.353
120.375
122.148
123.666
124.923
125.914
126.636
127.087
127.266
127.175
126.816
126.192
125.31
124.175
122.796
121.183
119.346
117.296
115.047
112.611
110.003
107.237
104.327
101.289
98.138
94.889
91.559
88.163
84.718
81.238
77.741
74.242
70.756
67.299
63.885
60.528
57.243
54.04
50.934
47.935
45.052
42.297
39.675
37.195
34.861
32.677
30.645
28.766
27.041
25.467
24.043
22.765
21.628
20.627
19.758
19.014
18.387
17.871
17.456
17.134
16.896
16.73
16.626
16.575
16.565
16.585
16.624
16.672
16.719
16.753
16.765
16.745
16.683
16.572
16.404
16.172
15.872
15.5
15.054
14.533
13.938
13.271
12.535
11.734
10.873
9.957
8.989
7.975
6.92
5.83
4.709
3.566
2.408
1.247
0.092
-1.043
-2.145
-3.202
-4.202
-5.133
-5.985
-6.75
-7.421
-7.989
-8.447
-8.783
-8.983
-9.036
-8.939
-8.694
-8.306
-7.791
-7.169
-6.465
-5.707
-4.915
-4.105
-3.281
-2.435
-1.562
-0.656
0.279
1.225
2.167
3.095
4.001
4.88
5.747
6.626
7.552
8.569
9.7
10.946
12.282
13.655
15.004
16.257
17.355
18.259
18.935
19.359
19.507
19.355
18.859
17.955
16.566
14.602
12.003
8.742
4.835
0.342
-4.654
-10.043
-15.726
-21.627
-27.659
-33.743
-39.81
-45.791
-51.607
-57.179
-62.378
-67.016
-71.018
-74.408
-77.262
-79.731
-81.885
-83.656
-85.084
-86.346
-87.452
-88.286
-88.701
-88.41
-87.475
-86.477
-85.854
-85.776
-86.486
-88.124
-90.731
-94.566
-99.387
-104.181
-108.022
-110.303
-110.612
-109.021
-105.884
-101.432
-96.268
-91.503
-88.43
-87.513
-87.796
-87.897
-86.047
-81.856
-77.524
-73.708
-67.977
-54.773
-24.616
29.612
108.246
206.211
313.802
421.526
523.6
616.707
697.172
758.087
790.896
785.816
736.156
642.546
508.849
345.57
168.522
-6.068
-159.055
-276.519
-353.63
-392.229
-401.431
-390.045
-363.301
-324.682
-277.296
-227.347
-182.308
-147.865
-125.442
-111.137
-100.558
-91.099
-82.622
-78.114
-79.179
-84.86
-93.162
-100.65
-104.816
-105.224
-102.102
-96.172
-88.414
-79.603
-70.515
-62.226
-55.695
-51.339
-49.261
-49.27
-50.927
-53.807
-57.465
-61.364
-65.034
-68.204
-70.728
-72.551
-73.665
-74.045
-73.682
-72.615
-70.901
-68.591
-65.716
-62.332
-58.519
-54.396
-50.116
-45.803
-41.537
-37.376
-33.364
-29.542
-25.956
-22.633
-19.571
-16.763
-14.206
-11.893
-9.826
-7.983
-6.322
-4.794
-3.342
-1.921
-0.503
0.939
2.424
3.969
5.589
7.291
9.07
10.927
12.868
14.899
17.027
19.257
21.584
24.006
26.517
29.113
31.79
34.545
37.368
40.257
43.204
46.206
49.257
52.352
55.479
58.627
61.785
64.938
68.073
71.175
74.227
77.213
80.119
82.93
85.63
88.206
90.642
92.925
95.042
96.981
98.729
100.274
101.606
102.716
103.595
104.235
104.63
104.773
104.662
104.292
103.661
102.77
101.619
100.208
98.541
96.622
94.456
92.05
89.411
86.549
83.472
80.194
76.724
73.077
69.266
65.305
61.207
56.987
52.661
48.244
43.752
39.199
34.601
29.974
25.333
20.693
16.07
11.476
6.928
2.437
-1.983
-6.319
-10.561
-14.696
-18.716
-22.609
-26.369
-29.986
-33.454
-36.767
-39.921
-42.911
-45.735
-48.391
-50.879
-53.199
-55.352
-57.342
-59.17
-60.841
-62.36
-63.732
-64.962
-66.057
-67.023
-67.866
-68.595
-69.216
-69.736
-70.164
-70.506
-70.771
-70.964
-71.093
-71.165
-71.186
-71.162
-71.099
-71.002
-70.876
-70.725
-70.554
-70.366
-70.162
-69.944
-69.713
-69.47
-69.214
-68.942
-68.654
-68.346
-68.017
-67.662
-67.278
-66.863
-66.411
-65.921
-65.389
-64.814
-64.189
-63.514
-62.783
-61.995
-61.147
-60.234
-59.251
-58.193
-57.058
-55.844
-54.549
-53.174
-51.719
-50.189
-48.587
-46.923
-45.204
-43.432
-41.614
-39.755
-37.864
-35.96
-34.057
-32.166
-30.299
-28.463
-26.661
-24.895
-23.149
-21.396
-19.614
-17.778
-15.868
-13.879
-11.797
-9.616
-7.331
-4.932
-2.414
0.23
3.003
5.892
8.857
11.83
14.707
17.392
19.788
21.784
23.327
24.4
25.01
25.293
25.378
25.274
25.005
24.545
23.703
22.338
20.256
17.062
12.587
6.941
0.285
-6.893
-13.879
-20.161
-24.848
-26.744
-25.274
-19.978
