Name,Criss Capps
Date of Birth,"Feb 5, 1952"
Recorded Date,2021-10-02 14:51:50 -0400
Classification,Sinus Rhythm
Symptoms,
Software Version,1.90
Device,"Watch5,4"
Sample Rate,512.844 hertz


Lead,Lead I
Unit,µV

-47.643
-49.227
-50.632
-51.832
-52.801
-53.521
-53.969
-54.115
-53.93
-53.385
-52.456
-51.127
-49.399
-47.272
-44.767
-41.914
-38.745
-35.337
-31.773
-28.141
-24.543
-21.066
-17.779
-14.793
-12.24
-10.173
-8.598
-7.411
-6.363
-5.246
-3.905
-2.1
0.406
3.743
7.932
12.672
17.33
21.364
24.381
26.018
26.075
24.652
21.97
18.765
16.54
16.708
20.94
31.603
49.819
75.622
108.394
144.695
182.213
221.603
263.432
310.915
365.627
423.565
479.465
524.687
549.964
549.697
519.942
461.208
377.545
275.405
164.976
56.462
-39.242
-113.455
-164.363
-194.02
-209.232
-218.062
-223.521
-225.844
-223.283
-213.575
-197.814
-178.875
-159.454
-142.091
-128.145
-118.007
-111.705
-108.735
-108.254
-109.261
-110.963
-112.751
-113.853
-113.636
-111.791
-108.214
-103.149
-97.127
-90.556
-83.857
-77.623
-72.25
-67.926
-64.754
-62.625
-61.309
-60.616
-60.278
-59.939
-59.392
-58.529
-57.296
-55.736
-53.893
-51.785
-49.473
-47.038
-44.534
-42.005
-39.48
-36.964
-34.492
-32.113
-29.878
-27.843
-26.039
-24.477
-23.164
-22.095
-21.263
-20.652
-20.238
-19.989
-19.88
-19.89
-19.999
-20.189
-20.434
-20.709
-20.986
-21.237
-21.44
-21.573
-21.618
-21.559
-21.382
-21.074
-20.627
-20.034
-19.29
-18.385
-17.316
-16.078
-14.667
-13.083
-11.328
-9.404
-7.315
-5.068
-2.671
-0.135
2.529
5.31
8.194
11.166
14.212
17.315
20.459
23.628
26.803
29.968
33.106
36.198
39.228
42.179
45.033
47.775
50.389
52.861
55.178
57.325
59.293
61.07
62.648
64.017
65.172
66.106
66.814
67.294
67.544
67.562
67.35
66.909
66.243
65.357
64.254
62.942
61.428
59.719
57.825
55.754
53.517
51.123
48.584
45.911
43.116
40.211
37.208
34.119
30.957
27.734
24.461
21.152
17.818
14.47
11.119
7.778
4.456
1.164
-2.087
-5.289
-8.431
-11.504
-14.5
-17.41
-20.228
-22.946
-25.557
-28.056
-30.437
-32.694
-34.824
-36.821
-38.682
-40.405
-41.986
-43.424
-44.716
-45.861
-46.859
-47.71
-48.412
-48.967
-49.375
-49.638
-49.756
-49.731
-49.564
-49.259
-48.817
-48.242
-47.537
-46.705
-45.751
-44.678
-43.49
-42.193
-40.791
-39.289
-37.693
-36.007
-34.238
-32.39
-30.471
-28.485
-26.439
-24.338
-22.19
-20
-17.774
-15.519
-13.24
-10.945
-8.638
-6.327
-4.018
-1.717
0.571
2.837
5.078
7.286
9.456
11.582
13.66
15.684
17.65
19.552
21.388
23.152
24.842
26.455
27.988
29.439
30.806
32.088
33.285
34.396
35.421
36.361
37.217
37.991
38.685
39.302
39.846
40.319
40.728
41.075
41.368
41.611
41.809
41.97
42.099
42.203
42.29
42.365
42.435
42.508
42.59
42.688
42.809
42.957
43.14
43.362
43.628
43.943
44.31
44.731
45.209
45.746
46.342
46.997
47.71
48.477
49.297
50.164
51.074
52.019
52.988
53.975
54.968
55.958
56.933
57.881
58.791
59.654
60.46
61.198
61.859
62.428
62.895
63.247
63.476
63.572
63.525
63.326
62.969
62.454
61.78
60.944
59.942
58.761
57.396
55.845
54.112
52.2
50.122
47.892
45.531
43.077
40.563
38.023
35.482
32.957
30.47
28.055
25.744
23.586
21.612
19.84
18.292
16.983
15.9
15.021
14.292
13.63
12.981
12.293
11.499
10.551
9.374
7.88
6.028
3.744
0.936
-2.412
-6.272
-10.522
-14.848
-18.92
-22.476
-25.185
-26.715
-26.875
-25.602
-23.16
-20.176
-17.325
-15.072
-13.691
-13.572
-14.979
-17.686
-20.967
-23.035
-21.257
-14.205
-1.285
17.599
41.102
69.825
105.588
149.297
202.408
263.395
328.175
393.185
453.426
503.733
539.376
553.082
538.139
492.018
415.094
314.158
201.576
88.638
-13.011
-94.779
-155.544
-196.675
-222.723
-239.977
-250.442
-254.034
-249.77
-236.214
-214.731
-188.439
-160.709
-134.547
-111.693
-93.25
-79.617
-70.396
-64.997
-62.505
-61.776
-62.072
-62.563
-62.088
-60.015
-56.156
-50.564
-43.742
-36.33
-28.769
-21.597
-15.53
-10.948
-7.971
-6.581
-6.461
-7.213
-8.537
-10.1
-11.54
-12.67
-13.389
-13.622
-13.394
-12.719
-11.563
-9.947
-7.908
-5.459
-2.651
0.453
3.784
7.212
10.597
13.85
16.894
19.676
22.199
24.458
26.454
28.265
29.97
31.594
33.169
34.69
36.091
37.372
38.555
39.496
40.011
40.177
40.229
40.394
41.125
42.19
42.477
42.301
42.579
44.612
51.833
64.503
79.024
91.697
95.347
85.268
64.678
38.344
14.939
3.919
6.603
21.315
44.254
68.892
92.311
112.856
127.589
135.292
135.619
130.061
123.41
119.902
121.568
127.99
136.225
143.978
150.551
156.191
161.931
168.15
174.502
180.754
186.74
192.481
198.165
203.831
209.436
214.997
220.532
226.036
231.475
236.78
241.883
246.756
251.403
255.823
260.018
263.983
267.713
271.211
274.48
277.524
280.347
282.954
285.353
287.553
289.571
291.421
293.116
294.671
296.103
297.432
298.681
299.869
301.008
302.11
303.183
304.234
305.268
306.278
307.243
308.143
308.958
309.68
310.304
310.814
311.185
311.382
311.373
311.153
310.735
310.128
309.339
308.379
307.268
306.066
304.861
303.736
302.771
302.023
301.547
301.436
301.765
302.601
303.955
305.674
307.557
309.425
311.074
312.384
313.328
313.762
313.723
313.662
314.023
315.287
317.309
318.908
319.198
318.041
316.846
317.908
321.291
324.241
321.057
305.337
274.378
229.493
175.826
120.28
68.651
25.597
-6.942
-28.479
-39.904
-44.579
-44.248
-41.719
-40.617
-41.859
-48.133
-59.671
-72.873
-85.664
-94.912
-99.203
-100.743
-100.842
-100.528
-100.355
-99.382
-97.273
-94.402
-91.145
-88.104
-85.646
-83.791
-82.576
-82.04
-82.215
-83.168
-84.946
-87.575
-91.059
-95.369
-100.42
-106.087
-112.258
-118.808
-125.595
-132.462
-139.234
-145.784
-152.026
-157.894
-163.319
-168.19
-172.406
-175.898
-178.631
-180.605
-181.845
-182.378
-182.238
-181.487
-180.204
-178.484
-176.434
-174.12
-171.591
-168.883
-166.036
-163.105
-160.142
-157.177
-154.226
-151.297
-148.401
-145.549
-142.755
-140.01
-137.298
-134.6
-131.893
-129.17
-126.435
-123.692
-120.948
-118.206
-115.473
-112.764
-110.1
-107.499
-104.972
-102.529
-100.178
-97.932
-95.805
-93.808
-91.947
-90.222
-88.632
-87.177
-85.857
-84.675
-83.628
-82.706
-81.897
-81.187
-80.557
-79.984
-79.439
-78.88
-78.273
-77.588
-76.796
-75.88
-74.815
-73.571
-72.125
-70.449
-68.514
-66.302
-63.796
-60.99
-57.908
-54.582
-51.057
-47.398
-43.65
-39.86
-36.094
-32.406
-28.86
-25.514
-22.384
-19.506
-16.957
-14.76
-12.878
-11.172
-9.329
-7.056
-4.18
-0.474
4.323
10.372
17.727
26.129
34.904
43.453
51.454
58.562
64.393
68.733
71.519
73.776
77.689
84.999
96.555
111.524
128.123
146.326
168.494
198.829
240.716
293.811
353.436
412.467
465.453
509.793
545.022
570.607
582.461
573.749
538.266
473.214
380.536
268.566
149.498
35.224
-61.467
-132.797
-179.232
-203.295
-211.671
-211.073
-201.24
-183.064
-158.784
-129.664
-101.327
-76.971
-55.168
-35.615
-16.885
1.04
15.463
25.393
30.653
31.904
31.115
29.688
28.894
29.982
33.395
39.26
47.48
57.676
69.556
82.736
96.483
109.888
122.097
132.537
140.954
147.227
151.358
153.416
153.453
151.946
149.787
147.702
146.325
145.38
143.313
138.969
132.314
125.305
120.904
120.192
120.569
114.07
92.078
48.828
-16.708
-95.638
-176.429
-248.089
-300.74
-334.729
-353.822
-362.618
-368.138
-371.044
-371.686
-372.396
-373.547
-378.701
-389.006
-401.29
-413.543
-422.456
-426.82
-428.959
-429.876
-430.531
-431.374
-431.301
-430.108
-428.158
-425.638
-423.044
-420.724
-418.657
-416.843
-415.284
-413.854
-412.453
-411.041
-409.565
-407.99
-406.289
-404.39
-402.207
-399.673
-396.752
-393.426
-389.692
-385.554
-381.032
-376.168
-371.027
-365.688
-360.225
-354.696
-349.143
-343.596
-338.091
-332.673
-327.392
-322.292
-317.394
-312.72
-308.293
-304.14
-300.3
-296.789
-293.598
-290.704
-288.068
-285.672
-283.515
-281.598
-279.925
-278.498
-277.309
-276.371
-275.719
-275.356
-275.258
-275.368
-275.586
-275.842
-276.091
-276.3
-276.451
-276.515
-276.438
-276.178
-275.702
-274.967
-273.935
-272.54
-270.681
-268.312
-265.427
-262.065
-258.321
-254.262
-249.926
-245.355
-240.581
-235.641
-230.591
-225.464
-220.276
-215.064
-209.87
-204.761
-199.84
-195.167
-190.767
-186.635
-182.728
-179.019
-175.508
-172.182
-169.029
-166.041
-163.209
-160.539
-158.056
-155.77
-153.679
-151.766
-149.994
-148.345
-146.818
-145.42
-144.171
-143.082
-142.156
-141.399
-140.821
-140.423
-140.203
-140.148
-140.234
-140.443
-140.762
-141.183
-141.7
-142.307
-142.988
-143.732
-144.526
-145.358
-146.215
-147.084
-147.953
-148.808
-149.642
-150.448
-151.225
-151.97
-152.678
-153.346
-153.971
-154.55
-155.082
-155.564
-155.991
-156.361
-156.673
-156.925
-157.117
-157.247
-157.315
-157.319
-157.259
-157.133
-156.94
-156.679
-156.347
-155.943
-155.464
-154.909
-154.275
-153.559
-152.759
-151.871
-150.893
-149.822
-148.655
-147.387
-146.015
-144.536
-142.948
-141.249
-139.436
-137.508
-135.466
-133.309
-131.039
-128.659
-126.172
-123.581
-120.891
-118.107
-115.238
-112.291
-109.275
-106.2
-103.077
-99.919
-96.739
-93.551
-90.37
-87.21
-84.087
-81.019
-78.021
-75.112
-72.309
-69.631
-67.097
-64.728
-62.543
-60.563
-58.805
-57.288
-56.029
-55.043
-54.344
-53.942
-53.846
-54.066
-54.609
-55.485
-56.697
-58.249
-60.142
-62.373
-64.941
-67.84
-71.061
-74.588
-78.405
-82.499
-86.857
-91.476
-96.343
-101.437
-106.738
-112.217
-117.845
-123.589
-129.406
-135.237
-141.03
-146.731
-152.297
-157.7
-162.898
-167.848
-172.503
-176.804
-180.713
-184.212
-187.276
-189.896
-192.084
-193.857
-195.267
-196.4
-197.33
-198.136
-198.904
-199.696
-200.6
-201.694
-203.049
-204.776
-206.906
-209.405
-212.194
-215.085
-217.847
-220.29
-222.158
-223.123
-223.005
-221.676
-219.17
-215.857
-212.058
-208.064
-204.157
-200.401
-196.908
-193.846
-190.862
-187.217
-181.605
-171.888
-157.243
-137.752
-113.92
-87.845
-58.776
-24.161
17.376
68.302
126.71
187.291
246.628
299.988
344.593
378.474
396.256
393.079
364.247
308.633
230.056
133.614
27.505
-81.271
-186.23
-278.668
-353.277
-406.528
-437.894
-451.317
-449.719
-435.428
-410.585
-377.748
-342.164
-309.162
-282.13
-261.177
-242.891
-224.409
-204.963
-185.609
-169.168
-157.303
-149.833
-146.036
-144.379
-143.497
-142.751
-141.571
-139.766
-137.527
-135.021
-132.358
-129.787
-127.645
-126.325
-126.349
-127.945
-130.982
-135.236
-140.434
-146.282
-152.511
-158.79
-164.692
-169.936
-174.41
-178.065
-180.937
-183.056
-184.411
-185.044
-185.052
-184.521
-183.538
-182.19
-180.532
-178.643
-176.641
-174.618
-172.66
-170.83
-169.151
-167.637
-166.304
-165.15
-164.165
-163.333
-162.622
-162.001
-161.448
-160.931
-160.419
-159.872
-159.238
-158.479
-157.564
-156.472
-155.19
-153.71
-152.024
-150.13
-148.037
-145.748
-143.269
-140.605
-137.753
-134.717
-131.504
-128.121
-124.58
-120.888
-117.053
-113.084
-108.988
-104.775
-100.453
-96.031
-91.515
-86.915
-82.241
-77.507
-72.727
-67.915
-63.086
-58.255
-53.44
-48.656
-43.919
-39.245
-34.648
-30.144
-25.749
-21.478
-17.344
-13.364
-9.551
-5.919
-2.481
0.749
3.759
6.539
9.077
11.365
13.393
15.153
16.638
17.843
18.763
19.393
19.732
19.777
19.528
18.987
18.155
17.037
15.637
13.96
12.015
9.809
7.35
4.65
1.718
-1.434
-4.793
-8.345
-12.077
-15.973
-20.019
-24.196
-28.489
-32.881
-37.352
-41.886
-46.464
-51.069
-55.681
-60.284
-64.858
-69.386
-73.852
-78.237
-82.526
-86.703
-90.753
-94.661
-98.415
-102.002
-105.41
-108.629
-111.649
-114.462
-117.06
-119.438
-121.588
-123.508
-125.194
-126.644
-127.857
-128.834
-129.577
-130.087
-130.368
-130.424
-130.262
-129.887
-129.306
-128.525
-127.555
-126.402
-125.077
-123.588
-121.946
-120.159
-118.239
-116.194
-114.036
-111.773
-109.416
-106.974
-104.456
-101.871
-99.228
-96.534
-93.798
-91.026
-88.225
-85.401
-82.559
-79.705
-76.841
-73.97
-71.096
-68.221
-65.344
-62.466
-59.587
-56.706
-53.822
-50.931
-48.031
-45.12
-42.194
-39.249
-36.282
-33.289
-30.266
-27.209
-24.114
-20.977
-17.794
-14.562
-11.277
-7.934
-4.532
-1.068
2.462
6.058
9.723
13.458
17.262
21.135
25.077
29.086
33.159
37.294
41.487
45.733
50.027
54.361
58.73
63.126
67.54
71.963
76.385
80.796
85.187
89.548
93.866
98.133
102.336
106.465
110.508
114.452
118.285
121.993
125.564
128.986
132.247
135.337
138.245
140.964
143.488
145.813
147.935
149.848
151.55
153.038
154.313
155.377
156.232
156.883
157.336
157.603
157.696
157.631
157.419
157.067
156.578
155.961
155.23
154.402
153.497
152.536
151.543
150.555
149.62
148.787
148.099
147.591
147.293
147.241
147.476
148.049
149.004
150.375
152.182
154.437
157.143
160.29
163.854
167.779
171.98
176.36
180.817
185.259
189.584
193.71
197.535
200.921
203.81
206.204
208.17
209.908
211.629
213.482
215.689
218.542
222.215
226.838
232.352
238.318
244.342
250.174
255.597
260.481
264.724
268.248
271.363
275.508
282.717
294.658
312.175
333.958
357.833
383.507
412.94
450.972
502.105
565.878
637.431
708.077
770.097
821.865
864.37
899.094
924.616
932.333
912.786
860.45
774.523
663.311
540.063
417.417
308.367
221.627
160.134
124.02
108.883
108.342
118.052
134.136
153.811
175.92
198.16
219.635
241.877
265.833
293.085
323.418
353.649
381.701
406.099
426.446
444.068
459.415
472.293
482.947
491.731
499.314
506.691
514.307
522.127
530.271
538.833
547.697
556.607
565.046
572.35
578.263
582.887
586.361
588.904
590.75
592.123
593.434
595.193
597.71
601.132
605.486
610.696
616.721
623.56
631.136
639.319
647.963
656.898
665.993
675.152
684.255
693.163
701.725
709.79
717.266
724.119
730.347
735.982
741.069
745.639
749.756
753.516
757.019
760.39
763.74
767.171
770.816
774.826
779.356
784.542
790.512
797.38
805.227
814.068
823.826
834.316
845.281
856.447
867.488
878.029
887.802
896.62
904.532
912.046
919.84
928.705
938.945
949.833
960.39
969.668
978.445
989.968
1006.676
1028.592
1050.529
1060.767
1047.604
1004.24
931.744
841.395
749.306
669.145
609.707
573.451
556.495
554.314
563.101
577.684
594.141
607.8
613.727
611.293
602.72
592.675
585.906
583.807
585.263
587.523
588.684
588.77
588.551
589.161
591.015
593.771
597.102
600.698
604.329
607.877
611.253
614.425
617.466
620.502
623.609
626.797
630.044
633.347
636.713
640.17
643.731
647.335
650.879
654.271
657.437
660.326
662.907
665.146
667.008
668.473
669.541
670.253
670.672
670.866
670.9
670.803
670.602
670.359
670.173
670.143
670.348
670.838
671.636
672.755
674.223
676.062
678.263
680.79
683.593
686.613
689.808
693.169
696.668
700.253
703.858
707.411
710.865
714.188
717.368
720.399
723.263
725.96
728.522
730.967
733.381
735.931
738.802
742.252
746.561
751.93
758.586
766.802
776.632
787.915
800.282
813.005
825.376
836.871
846.896
854.875
860.457
863.535
864.425
863.959
863.577
865.129
870.316
880.933
896.685
914.268
929.806
938.092
936.916
930.785
927.467
937.495
966.763
1007.967
1040.902
1034.882
960.954
806.304
579.915
311.378
38.507
-207.557
-409.752
-565.17
-678.83
-756.214
-800.792
-818.544
-819.677
-818.147
-829.231
-859.074
-903.384
-951.747
-990.761
-1014.381
-1025.168
-1029.288
-1034.28
-1043.666
-1056.575
-1070.649
-1083.586
-1094.677
-1103.766
-1111.405
-1118.191
-1123.075
-1125.676
-1125.033
-1119.231
-1109.219
-1096.872
-1085.193
-1078.677
-1078.715
-1083.418
-1088.681
-1089.568
-1083.321
-1071.27
-1057.667
-1046.313
-1039.808
-1037.923
-1037.903
-1037.96
-1036.993
-1034.826
-1032.559
-1030.687
-1029.253
-1028.332
-1027.732
-1027.371
-1027.347
-1027.668
-1028.255
-1029.032
-1029.88
-1030.617
-1031.103
-1031.239
-1030.936
-1030.157
-1028.876
-1027.038
-1024.607
-1021.591
-1018.008
-1013.89
-1009.292
-1004.266
-998.904
-993.354
-987.767
-982.305
-977.108
-972.273
-967.892
-964.054
-960.817
-958.268
-956.505
-955.506
-955.205
-955.456
-955.956
-956.427
-956.608
-956.109
-954.545
-951.679
-947.36
-941.788
-935.505
-928.919
-922.377
-916.207
-910.538
-905.418
-900.854
-896.249
-890.375
-882.09
-869.776
-851.575
-826.85
-795.248
-757.225
-715.105
-669.702
-620.903
-568.717
-511.63
-450.418
-387.673
-326.47
-272.78
-232.78
-213.568
-222.23
-260.582
-326.891
-415.039
-515.078
-619.732
-721.627
-812.993
-888.669
-942.564
-972.184
-980.586
-972.338
-954.096
-930.663
-903.579
-873.415
-840.179
-805.4
-771.797
-742.144
-718.684
-701.862
-690.963
-684.887
-681.999
-680.771
-679.906
-677.87
-673.665
-667.009
-657.895
-646.733
-634.279
-621.3
-608.642
-597.303
-587.866
-580.497
-575.232
-571.839
-569.969
-569.295
-569.349
-569.587
-569.687
-569.494
-568.91
-567.949
-566.572
-564.682
-562.262
-559.331
-555.895
-551.982
-547.598
-542.741
-537.472
-531.898
-526.142
-520.338
-514.57
-508.877
-503.298
-497.862
-492.601
-487.553
-482.73
-478.126
-473.741
-469.571
-465.613
-461.867
-458.306
-454.884
-451.553
-448.257
-444.958
-441.635
-438.267
-434.839
-431.338
-427.753
-424.081
-420.328
-416.493
-412.573
-408.561
-404.45
-400.241
-395.937
-391.542
-387.063
-382.505
-377.87
-373.162
-368.387
-363.546
-358.641
-353.674
-348.643
-343.551
-338.403
-333.202
-327.956
-322.67
-317.352
-312.009
-306.648
-301.279
-295.907
-290.541
-285.186
-279.849
-274.537
-269.256
-264.012
-258.812
-253.661
-248.567
-243.534
-238.57
-233.679
-228.868
-224.14
-219.501
-214.955
-210.506
-206.158
-201.915
-197.78
-193.757
-189.849
-186.058
-182.387
-178.837
-175.409
-172.103
-168.92
-165.859
-162.919
-160.098
-157.396
-154.809
-152.337
-149.976
-147.723
-145.576
-143.531
-141.584
-139.731
-137.966
-136.285
-134.682
-133.152
-131.688
-130.284
-128.934
-127.632
-126.369
-125.139
-123.934
-122.747
-121.571
-120.397
-119.219
-118.028
-116.818
-115.582
-114.313
-113.006
-111.655
-110.255
-108.8
-107.288
-105.713
-104.073
-102.364
-100.584
-98.731
-96.804
-94.803
-92.726
-90.574
-88.348
-86.049
-83.679
-81.239
-78.733
-76.162
-73.53
-70.841
-68.098
-65.307
-62.472
-59.599
-56.692
-53.756
-50.797
-47.821
-44.831
-41.834
-38.833
-35.833
-32.839
-29.854
-26.882
-23.925
-20.987
-18.07
-15.175
-12.304
-9.458
-6.637
-3.842
-1.072
1.673
4.394
7.092
9.77
12.428
15.069
17.695
20.311
22.92
25.526
28.132
30.745
33.368
36.007
38.667
41.354
44.072
46.828
49.626
52.472
55.371
58.33
61.351
64.44
67.6
70.835
74.149
77.543
81.02
84.581
88.229
91.964
95.787
99.699
103.698
107.784
111.956
116.211
120.548
124.961
129.447
134
138.615
143.284
148.002
152.759
157.546
162.353
167.17
171.985
176.786
181.559
186.288
190.958
195.557
200.069
204.48
208.776
212.942
216.967
220.842
224.555
228.094
231.447
234.601
237.547
240.274
242.773
245.034
247.05
248.816
250.335
251.607
252.631
253.407
253.925
254.187
254.197
253.962
253.493
252.807
251.923
250.876
249.712
248.473
247.196
245.909
244.633
243.397
242.234
241.178
240.266
239.517
238.947
238.575
238.417
238.462
238.675
238.99
239.319
239.598
239.79
239.85
239.731
239.375
238.714
237.701
236.328
234.584
232.411
229.796
226.805
223.623
220.62
218.192
216.618
216.171
217.195
219.885
224.263
230.092
236.654
243.19
249.288
254.544
258.439
260.834
261.961
262.417
264.241
269.537
279.074
294.239
315.264
341.9
375.966
416.901
463.648
515.394
568.594
622.389
675.997
725.734
767.566
793.278
793.06
761.325
696.608
602.722
490.212
371.79
259.335
164.973
95.181
49.883
26.858
20.186
24.38
37.568
57.125
79.461
101.399
119.724
133.794
146.564
160.604
176.383
192.417
205.593
213.968
217.666
217.876
216.225
213.866
211.676
210.512
210.813
212.758
216.281
221.059
226.831
233.361
240.154
246.572
252.204
256.867
260.59
263.607
266.129
268.283
270.268
272.311
274.521
276.934
279.516
282.153
284.771
287.325
289.749
291.989
293.999
295.77
297.352
298.709
299.715
300.233
300.092
299.259
297.894
296.063
293.718
290.951
287.901
284.821
282.162
279.992
277.953
275.754
273.121
269.776
265.609
260.263
253.047
243.765
232.656
220.112
206.855
193.423
180.005
167.103
155.487
145.63
137.867
132.143
127.794
124.419
121.916
119.974
118.264
116.462
114.101
111.139
108.022
104.995
102.181
99.691
97.467
95.547
94.103
93.069
92.211
91.371
90.408
89.28
88.075
86.837
85.58
84.355
83.204
82.165
81.276
80.535
79.922
79.421
79.016
78.716
78.534
78.474
78.539
78.72
78.988
79.313
79.651
79.959
80.207
80.371
80.432
80.38
80.206
79.906
79.485
78.939
78.261
77.444
76.479
75.359
74.087
72.665
71.097
69.389
67.548
65.578
63.486
61.274
58.947
56.505
53.949
51.281
48.505
45.625
42.648
39.582
36.433
33.211
29.923
26.58
23.192
19.766
16.312
12.84
9.359
5.88
2.412
-1.034
-4.448
-7.818
-11.134
-14.386
-17.562
-20.654
-23.651
-26.545
-29.326
-31.987
-34.519
-36.915
-39.168
-41.273
-43.222
-45.011
-46.635
-48.092
-49.377
-50.491
-51.432
-52.2
-52.798
-53.228
-53.493
-53.598
-53.548
-53.349
-53.007
-52.532
-51.932
-51.216
-50.394
-49.479
-48.481
-47.414
-46.289
-45.12
-43.919
-42.7
-41.476
-40.26
-39.065
-37.904
-36.789
-35.732
-34.744
-33.837
-33.021
-32.304
-31.696
-31.204
-30.833
-30.589
-30.477
-30.499
-30.656
-30.949
-31.377
-31.937
-32.626
-33.44
-34.372
-35.415
-36.561
-37.801
-39.125
-40.52
-41.976
-43.48
-45.018
-46.577
-48.141
-49.698
-51.233
-52.732
-54.179
-55.563
-56.868
-58.084
-59.196
-60.194
-61.067
-61.805
-62.4
-62.845
-63.134
-63.263
-63.229
-63.03
-62.667
-62.143
-61.459
-60.622
-59.636
-58.511
-57.254
-55.878
-54.392
-52.811
-51.149
-49.423
-47.652
-45.854
-44.048
-42.254
-40.493
-38.784
-37.148
-35.601
-34.16
-32.84
-31.659
-30.632
-29.776
-29.104
-28.628
-28.357
-28.302
-28.47
-28.865
-29.487
-30.331
-31.394
-32.675
-34.176
-35.9
-37.85
-40.015
-42.384
-44.945
-47.681
-50.57
-53.582
-56.672
-59.799
-62.928
-66.025
-69.064
-72.014
-74.833
-77.476
-79.9
-82.059
-83.931
-85.508
-86.779
-87.753
-88.454
-88.904
-89.177
-89.356
-89.508
-89.719
-90.061
-90.575
-91.352
-92.5
-94.066
-96.063
-98.394
-100.804
-103.057
-104.979
-106.355
-106.966
-106.638
-105.263
-103.049
-100.548
-98.357
-96.893
-96.335
-96.819
-98.465
-101.248
-104.67
-107.049
-105.881
-99.262
-86.419
-68.565
-48.189
-25.997
-0.587
31.629
74.785
129.461
192.767
258.676
319.906
371.157
407.582
425.274
421.328
392.043
337.445
260.363
164.314
57.581
-52.253
-157.395
-247.038
-316.184
-362.885
-389.008
-402.778
-408.633
-407.491
-397.503
-373.612
-335.432
-287.965
-239.715
-200.158
-174.244
-161.364
-156.504
-153.838
-150.323
-145.787
-142.115
-140.701
-140.868
-140.818
-138.726
-133.849
-126.533
-117.561
-107.814
-97.922
-88.588
-80.653
-74.57
-70.499
-68.366
-67.842
-68.602
-70.356
-72.71
-75.229
-77.628
-79.733
-81.449
-82.765
-83.654
-84.085
-84.064
-83.623
-82.789
-81.588
-80.049
-78.206
-76.123
-73.89
-71.593
-69.328
-67.163
-65.148
-63.328
-61.74
-60.409
-59.347
-58.554
-58.02
-57.73
-57.673
-57.826
-58.165
-58.657
-59.26
-59.933
-60.627
-61.304
-61.937
-62.502
-62.979
-63.355
-63.617
-63.759
-63.783
-63.686
-63.464
-63.113
-62.629
-62.01
-61.258
-60.375
-59.365
-58.231
-56.974
-55.598
-54.105
-52.495
-50.771
-48.935
-46.985
-44.924
-42.756
-40.485
-38.117
-35.659
-33.116
-30.496
-27.805
-25.053
-22.245
-19.389
-16.492
-13.56
-10.602
-7.624
-4.635
-1.641
1.348
4.325
7.282
10.211
13.103
15.949
18.744
21.477
24.141
26.729
29.232
31.643
33.954
36.158
38.249
40.218
42.062
43.773
45.347
46.78
48.068
49.207
50.195
51.031
51.713
52.24
52.613
52.832
52.9
52.818
52.59
52.221
51.715
51.078
50.318
49.441
48.457
47.374
46.202
44.951
43.632
42.258
40.839
39.387
37.916
36.439
34.967
33.514
32.092
30.715
29.394
28.14
26.967
25.883
24.9
24.027
23.272
22.643
22.146
21.788
21.573
21.505
21.586
21.818
22.201
22.735
23.418
24.246
25.215
26.318
27.55
28.903
30.372
31.946
33.61
35.362
37.195
39.099
41.069
43.088
45.133
47.199
49.281
51.348
53.372
55.329
57.191
58.959
60.653
62.245
63.698
65.079
66.473
67.817
69.112
70.368
71.383
72.69
74.805
76.985
79.004
79.497
76.832
72.821
68.672
66.187
67.836
71.445
75.172
77.757
77.115
74.754
72.199
69.798
68.488
67.742
66.882
66.049
65.168
64.295
63.582
62.95
62.335
61.772
61.278
60.852
60.507
60.255
60.109
60.088
60.215
60.488
60.907
61.478
62.205
63.089
64.133
65.335
66.693
68.206
69.872
71.687
73.645
75.741
77.968
80.316
82.779
85.345
88.003
90.743
93.551
96.415
99.32
102.25
105.188
108.117
111.021
113.884
116.687
119.414
122.05
124.583
126.999
129.285
131.429
133.416
135.235
136.878
138.336
139.601
140.665
141.523
142.175
142.623
142.87
142.915
142.755
142.381
141.794
140.996
139.997
138.805
137.43
135.888
134.204
132.414
130.557
128.663
126.758
124.864
123.01
121.235
119.583
118.099
116.812
115.745
114.908
114.307
113.937
113.779
113.79
113.901
114.033
114.108
114.056
113.799
113.264
112.358
110.948
108.976
106.447
103.423
100.094
96.66
93.285
90.213
87.737
86.009
85.127
85.001
85.176
85.255
84.887
83.699
81.586
78.557
74.585
70.051
65.875
63.615
65.516
73.261
87.42
106.807
129.079
153.608
181.551
216.132
261.033
316.094
377.911
440.674
497.95
545.648
580.44
598.673
595.555
565.639
506.694
420.768
314.775
199.254
84.302
-21.266
-110.837
-180.795
-230.327
-261.388
-277.702
-283.724
-281.829
-272.478
-256.022
-232.401
-203.246
-171.516
-139.501
-109.467
-83.13
-61.291
-44.264
-31.781
-23.052
-17.165
-13.564
-11.589
-10.269
-8.681
-5.955
-1.699
3.82
10.172
17.072
24.188
31.117
37.388
42.38
45.802
47.795
48.635
48.652
48.108
47.155
46.003
44.96
44.243
43.963
44.146
44.708
45.585
46.754
48.172
49.771
51.454
53.087
54.53
55.691
56.509
56.952
56.998
56.618
55.784
54.483
52.727
50.544
47.955
44.978
41.627
37.931
33.942
29.732
25.38
20.948
16.488
12.041
7.647
3.344
-0.832
-4.858
-8.717
-12.395
-15.872
-19.124
-22.128
-24.866
-27.328
-29.507
-31.401
-33.004
-34.315
-35.331
-36.057
-36.494
-36.647
-36.518
-36.111
-35.434
-34.498
-33.317
-31.908
-30.287
-28.476
-26.494
-24.366
-22.113
-19.759
-17.329
-14.845
-12.33
-9.81
-7.306
-4.842
-2.44
-0.123
2.09
4.177
6.121
7.903
9.509
10.922
12.132
13.125
13.894
14.431
14.73
14.788
14.601
14.168
13.493
12.577
11.427
10.048
8.45
6.642
4.637
2.448
0.088
-2.428
-5.083
-7.862
-10.747
-13.721
-16.766
-19.864
-22.996
-26.145
-29.292
-32.419
-35.508
-38.543
-41.506
-44.382
-47.155
-49.811
-52.338
-54.722
-56.952
-59.019
-60.912
-62.626
-64.153
-65.49
-66.631
-67.577
-68.326
-68.879
-69.239
-69.409
-69.393
-69.198
-68.83
-68.296
-67.606
-66.769
-65.796
-64.696
-63.483
-62.168
-60.764
-59.284
-57.742
-56.151
-54.525
-52.879
-51.225
-49.577
-47.95
-46.357
-44.811
-43.324
-41.909
-40.577
-39.339
-38.205
-37.184
-36.284
-35.513
-34.876
-34.381
-34.03
-33.829
-33.78
-33.885
-34.146
-34.563
-35.136
-35.864
-36.744
-37.776
-38.954
-40.276
-41.736
-43.33
-45.052
-46.895
-48.853
-50.917
-53.08
-55.334
-57.668
-60.074
-62.543
-65.062
-67.624
-70.216
-72.829
-75.453
-78.077
-80.691
-83.286
-85.851
-88.377
-90.855
-93.274
-95.627
-97.904
-100.096
-102.196
-104.195
-106.087
-107.864
-109.519
-111.046
-112.44
-113.695
-114.807
-115.771
-116.583
-117.241
-117.742
-118.085
-118.27
-118.296
-118.166
-117.881
-117.444
-116.86
-116.133
-115.266
-114.267
-113.141
-111.897
-110.541
-109.082
-107.531
-105.897
-104.194
-102.434
-100.63
-98.796
-96.945
-95.091
-93.248
-91.428
-89.641
-87.899
-86.213
-84.595
-83.058
-81.616
-80.278
-79.054
-77.954
-76.986
-76.158
-75.473
-74.929
-74.524
-74.261
-74.143
-74.183
-74.388
-74.754
-75.28
-75.959
-76.778
-77.725
-78.776
-79.891
-81.037
-82.181
-83.298
-84.377
-85.394
-86.319
-87.121
-87.752
-88.186
-88.41
-88.407
-88.174
-87.729
-87.097
-86.332
-85.517
-84.718
-84.012
-83.481
-83.19
-83.229
-83.67
-84.594
-86.133
-88.335
-91.172
-94.547
-98.207
-101.868
-105.303
-108.2
-110.162
-110.963
-110.491
-108.899
-106.785
-104.687
-103.023
-102.248
-102.698
-104.566
-107.862
-111.959
-115.499
-117.059
-115.159
-108.354
-95.384
-74.842
-45.578
-7.208
39.32
91.779
147.396
203.073
256.781
307.977
355.997
399.442
434.27
452.98
446.91
409.13
337.46
235.398
112.57
-18.251
-144.415
-253.831
-339.573
-399.864
-436.288
-453.757
-455.777
-444.046
-419.863
-385.515
-346.487
-308.888
-277.503
-253.706
-234.622
-217.501
-201.094
-185.84
-174.376
-168.122
-166.595
-168.478
-171.362
-173.271
-173.176
-170.638
-165.846
-159.237
-151.327
-142.679
-133.908
-125.72
-118.81
-113.549
-109.972
-107.882
-106.886
-106.617
-106.78
-107.069
-107.187
-106.945
-106.238
-105.023
-103.314
-101.136
-98.501
-95.442
-92.003
-88.237
-84.214
-80.037
-75.833
-71.714
-67.761
-64.028
-60.542
-57.328
-54.412
-51.81
-49.532
-47.574
-45.933
-44.611
-43.61
-42.919
-42.509
-42.332
-42.323
-42.426
-42.604
-42.824
-43.059
-43.29
-43.495
-43.661
-43.786
-43.863
-43.881
-43.827
-43.684
-43.44
-43.087
-42.622
-42.044
-41.353
-40.544
-39.616
-38.569
-37.4
-36.108
-34.689
-33.137
-31.451
-29.63
-27.676
-25.593
-23.386
-21.059
-18.619
-16.075
-13.434
-10.704
-7.895
-5.013
-2.067
0.932
3.977
7.058
10.166
13.292
16.427
19.561
22.684
25.789
28.865
31.904
34.896
37.833
40.705
43.504
46.221
48.848
51.375
53.793
56.095
58.273
60.318
62.224
63.983
65.59
67.039
68.326
69.445
70.392
71.165
71.761
72.176
72.409
72.458
72.322
72.002
71.496
70.806
69.934
68.88
67.647
66.24
64.662
62.918
61.014
58.957
56.754
54.413
51.943
49.354
46.657
43.862
40.981
38.025
35.008
31.941
28.838
25.711
22.573
19.437
16.315
13.22
10.164
7.157
4.211
1.338
-1.454
-4.153
-6.75
-9.238
-11.607
-13.851
-15.962
-17.937
-19.769
-21.456
-22.995
-24.385
-25.625
-26.716
-27.661
-28.461
-29.121
-29.646
-30.042
-30.314
-30.472
-30.523
-30.476
-30.34
-30.125
-29.841
-29.498
-29.106
-28.676
-28.217
-27.739
-27.253
-26.768
-26.292
-25.837
-25.409
-25.018
-24.67
-24.374
-24.134
-23.957
-23.845
-23.804
-23.834
-23.938
-24.114
-24.363
-24.682
-25.068
-25.517
-26.024
-26.582
-27.184
-27.821
-28.486
-29.169
-29.859
-30.545
-31.217
-31.863
-32.474
-33.038
-33.544
-33.981
-34.339
-34.607
-34.775
-34.835
-34.775
-34.588
-34.267
-33.804
-33.194
-32.432
-31.514
-30.439
-29.204
-27.812
-26.263
-24.562
-22.712
-20.719
-18.592
-16.34
-13.973
-11.504
-8.945
-6.313
-3.623
-0.896
1.853
4.603
7.336
10.033
12.674
15.24
17.715
20.083
22.327
24.431
26.376
28.147
29.729
31.109
32.273
33.211
33.911
34.367
34.579
34.547
34.269
33.743
32.961
31.922
30.634
29.102
27.338
25.359
23.185
20.847
18.389
15.851
13.273
10.685
8.112
5.585
3.144
0.828
-1.322
-3.276
-5.017
-6.517
-7.758
-8.751
-9.518
-10.115
-10.618
-11.071
-11.52
-12.023
-12.636
-13.437
-14.498
-15.85
-17.534
-19.61
-22.106
-25.02
-28.236
-31.476
-34.456
-36.936
-38.65
-39.308
-38.663
-36.554
-33.164
-28.994
-24.517
-20.158
-16.306
-13.392
-11.963
-11.812
-11.457
-9.174
-3.29
5.894
15.751
25.602
36.724
54.095
85.485
133.323
195.708
266.097
334.529
396.984
452.062
497.985
533.358
550.45
539.856
498.049
425.04
326.833
214.689
97.721
-15.297
-114.364
-193.177
-248.357
-279.541
-292.597
-294.593
-289.151
-278.191
-261.266
-236.865
-206.613
-173.692
-140.868
-111.186
-86.598
-67.678
-54.678
-47.192
-44.129
-44.362
-47.084
-51.326
-55.9
-59.725
-61.744
-61.408
-58.867
-54.465
-48.489
-41.332
-33.476
-25.482
-18.031
-11.494
-5.843
-0.929
3.486
7.613
11.587
15.604
19.914
24.65
29.827
35.397
41.24
47.268
53.444
59.717
66.03
72.334
78.575
84.711
90.717
96.57
102.252
107.753
113.06
118.171
123.092
127.834
132.416
136.851
141.142
145.292
149.303
153.181
156.936
160.579
164.119
167.564
170.92
174.195
177.395
180.524
183.582
186.568
189.478
192.309
195.061
197.733
200.322
202.826
205.24
207.56
209.781
211.897
213.899
215.78
217.53
219.141
220.605
221.913
223.057
224.031
224.826
225.438
225.86
226.086
226.111
225.933
225.546
224.948
224.138
223.115
221.878
220.427
218.766
216.898
214.825
212.554
210.091
207.443
204.619
201.629
198.483
195.194
191.775
188.238
184.599
180.873
177.076
173.223
169.331
165.415
161.492
157.576
153.681
149.824
146.016
142.27
138.598
135.012
131.52
128.133
124.856
121.698
118.664
115.757
112.98
110.336
107.825
105.446
103.196
101.073
99.071
97.185
95.407
93.728
92.139
90.63
89.188
87.802
86.458
85.143
83.844
82.547
81.239
79.906
78.535
77.113
75.629
74.07
72.426
70.688
68.847
66.895
64.826
62.634
60.317
57.869
55.292
52.583
49.744
46.777
43.688
40.48
37.161
33.739
30.222
26.623
22.953
19.224
15.45
11.646
7.827
4.009
0.206
-3.565
-7.288
-10.948
-14.529
-18.015
-21.393
-24.647
-27.765
-30.732
-33.538
-36.172
-38.624
-40.885
-42.948
-44.807
-46.456
-47.893
-49.116
-50.123
-50.916
-51.496
-51.868
-52.036
-52.007
-51.789
-51.39
-50.818
-50.086
-49.202
-48.178
-47.025
-45.753
-44.37
-42.888
-41.315
-39.662
-37.937
-36.149
-34.309
-32.426
-30.51
-28.572
-26.618
-24.655
-22.687
-20.718
-18.751
-16.786
-14.821
-12.854
-10.88
-8.896
-6.899
-4.884
-2.842
-0.763
1.368
3.564
5.827
8.161
10.564
13.031
15.553
18.11
20.672
23.216
25.721
28.171
30.56
32.875
35.104
37.242
39.277
41.209
43.059
44.847
46.603
48.374
50.206
52.159
54.314
56.725
59.431
62.458
65.804
69.468
73.441
77.687
82.163
86.808
91.527
96.217
100.761
105.005
108.803
112
114.421
115.936
116.443
115.86
114.142
111.257
107.187
101.951
95.593
88.172
79.793
70.573
60.658
50.243
39.519
28.684
17.949
7.484
-2.568
-12.075
-20.937
-29.072
-36.406
-42.891
-48.502
-53.221
-57.063
-60.074
-62.33
-63.949
-65.055
-65.773
-66.238
-66.578
-66.911
-67.349
-67.983
-68.866
-70.061
-71.637
-73.612
-75.96
-78.552
-81.135
-83.426
-85.155
-86.034
-85.76
-84.098
-80.908
-76.314
-70.727
-64.619
-58.473
-52.65
-47.369
-42.89
-39.337
-36.223
-32.691
-27.113
-17.072
-1.51
19.953
46.951
77.389
111.405
150.607
195.998
249.407
309.613
372.196
432.85
486.205
526.332
547.999
545.723
514.701
455.079
370.636
267.184
153.616
36.703
-76.351
-176.537
-257.064
-310.448
-334.292
-331.477
-305.663
-265.61
-218.738
-171.556
-133.026
-105.996
-90.693
-84.933
-81.419
-76.733
-70.38
-62.867
-57.416
-54.71
-53.054
-50.914
-46.486
-39.258
-30.072
-19.91
-9.818
-0.843
6.098
10.339
11.511
9.523
4.535
-3.172
-13.281
-25.366
-38.932
-53.586
-68.996
-84.858
-100.897
-116.801
-132.283
-147.125
-161.144
-174.182
-186.105
-196.806
-206.214
-214.299
-221.038
-226.4
-230.379
-232.997
-234.324
-234.479
-233.615
-231.913
-229.544
-226.677
-223.489
-220.123
-216.681
-213.234
-209.822
-206.477
-203.256
-200.234
-197.463
-194.977
-192.782
-190.861
-189.195
-187.737
-186.427
-185.187
-183.921
-182.563
-181.077
-179.448
-177.673
-175.752
-173.667
-171.4
-168.945
-166.302
-163.472
-160.461
-157.268
-153.905
-150.4
-146.794
-143.133
-139.453
-135.771
-132.099
-128.443
-124.809
-121.203
-117.626
-114.07
-110.533
-107.014
-103.514
-100.039
-96.587
-93.153
-89.727
-86.301
-82.865
-79.414
-75.944
-72.448
-68.923
-65.367
-61.781
-58.168
-54.528
-50.863
-47.17
-43.451
-39.705
-35.932
-32.134
-28.311
-24.465
-20.597
-16.712
-12.814
-8.908
-4.997
-1.086
2.818
6.71
10.586
14.438
18.261
22.05
25.797
29.496
33.14
36.721
40.234
43.67
47.023
50.287
53.455
56.523
59.484
62.334
65.069
67.685
70.177
72.543
74.781
76.888
78.862
80.705
82.414
83.992
85.441
86.762
87.959
89.036
89.996
90.845
91.588
92.231
92.78
93.242
93.624
93.935
94.182
94.373
94.519
94.627
94.707
94.769
94.823
94.877
94.942
95.028
95.143
95.297
95.499
95.757
96.08
96.476
96.951
97.512
98.165
98.914
99.763
100.716
101.774
102.939
104.211
105.589
107.071
108.654
110.335
112.108
113.968
115.908
117.919
119.993
122.119
124.288
126.488
128.705
130.928
133.143
135.334
137.488
139.589
141.621
143.571
145.42
147.155
148.761
150.221
151.524
152.653
153.598
154.346
154.887
155.21
155.308
155.174
154.803
154.19
153.333
152.233
150.889
149.306
147.488
145.441
143.173
140.695
138.016
135.151
132.111
128.914
125.575
122.112
118.544
114.89
111.171
107.408
103.621
99.833
96.064
92.337
88.671
85.087
81.606
78.246
75.024
71.957
69.06
66.346
63.825
61.506
59.395
57.497
55.811
54.337
53.069
52
51.12
50.417
49.877
49.483
49.218
49.063
48.998
49.001
49.048
49.113
49.169
49.188
49.141
48.996
48.722
48.291
47.671
46.835
45.758
44.414
42.779
40.827
38.527
35.856
32.795
29.328
25.448
21.156
16.455
11.363
5.911
0.127
-5.958
-12.32
-18.945
-25.81
-32.895
-40.167
-47.583
-55.105
-62.705
-70.361
-78.062
-85.805
-93.593
-101.466
-109.5
-117.759
-126.301
-135.145
-144.287
-153.745
-163.548
-173.736
-184.361
-195.431
-206.963
-219.008
-231.538
-244.46
-257.578
-270.498
-282.81
-294.182
-304.246
-312.664
-319.24
-323.873
-326.818
-328.693
-330.035
-331.304
-332.863
-334.941
-337.774
-341.375
-344.992
-347.346
-347.121
-342.886
-333.579
-318.356
-295.964
-265.478
-226.98
-181.107
-129.587
-75.589
-21.931
28.384
72.826
111.757
145.516
173.015
190.975
190.738
163.35
104.363
14.302
-97.262
-217.051
-334.117
-437.863
-523.009
-587.706
-629.247
-649.333
-651.016
-637.579
-615.118
-587.661
-557.389
-525.966
-493.53
-461.027
-430.494
-404.282
-384.5
-371.562
-364.646
-362.448
-363.371
-366.261
-370.009
-372.956
-373.643
-371.34
-365.884
-357.67
-347.365
-335.526
-322.787
-310.122
-298.516
-288.569
-280.506
-274.228
-269.437
-265.896
-263.428
-261.756
-260.565
-259.663
-258.957
-258.434
-258.156
-258.108
-258.19
-258.314
-258.392
-258.351
-258.164
-257.807
-257.252
-256.505
-255.572
-254.461
-253.199
-251.794
-250.241
-248.549
-246.726
-244.806
-242.865
-240.972
-239.187
-237.559
-236.104
-234.828
-233.733
-232.804
-232.018
-231.354
-230.784
-230.292
-229.871
-229.51
-229.193
-228.898
-228.58
-228.199
-227.719
-227.105
-226.337
-225.397
-224.278
-222.984
-221.519
-219.879
-218.05
-216.008
-213.733
-211.222
-208.48
-205.514
-202.331
-198.929
-195.333
-191.606
-187.777
-183.8
-179.548
-174.869
-169.717
-164.203
-158.475
-152.58
-146.595
-140.727
-135.375
-131.005
-127.795
-125.484
-123.598
-121.826
-119.938
-117.626
-114.368
-109.501
-102.721
-94.338
-85.033
-75.33
-65.538
-55.896
-46.744
-38.625
-31.897
-26.466
-21.885
-17.777
-13.965
-10.419
-7.142
-3.972
-0.719
2.653
6.018
9.227
12.204
14.948
17.527
19.966
22.258
24.409
26.442
28.4
30.337
32.305
34.342
36.456
38.629
40.815
42.984
45.122
47.22
49.269
51.247
53.138
54.94
56.671
58.35
59.987
61.575
63.093
64.524
65.866
67.135
68.358
69.551
70.728
71.898
73.078
74.287
75.541
76.843
78.187
79.567
80.983
82.44
83.946
85.507
87.125
88.798
90.526
92.308
94.144
96.03
97.962
99.934
101.94
103.981
106.054
108.161
110.297
112.459
114.644
116.848
119.067
121.297
123.529
125.759
127.981
130.188
132.376
134.539
136.672
138.769
140.825
142.835
144.793
146.695
148.536
150.311
152.016
153.647
155.201
156.675
158.065
159.372
160.593
161.728
162.777
163.741
164.621
165.419
166.139
166.782
167.354
167.859
168.302
168.688
169.026
169.322
169.584
169.821
170.04
170.252
170.466
170.691
170.939
171.218
171.539
171.911
172.345
172.852
173.439
174.116
174.893
175.777
176.777
177.899
179.15
180.533
182.054
183.715
185.518
187.465
189.555
191.785
194.153
196.656
199.287
202.041
204.91
207.883
210.951
214.102
217.323
220.597
223.908
227.238
230.571
233.887
237.168
240.394
243.548
246.612
249.571
252.408
255.105
257.643
260.004
262.172
264.133
265.872
267.377
268.635
269.64
270.39
270.885
271.123
271.099
270.804
270.23
269.383
268.267
266.891
265.273
263.432
261.398
259.22
256.937
254.59
252.215
249.827
247.456
245.138
242.906
240.811
238.889
237.159
235.648
234.374
233.322
232.47
231.765
231.116
230.464
229.749
228.897
227.861
226.568
224.944
222.954
220.52
217.55
214.04
210.012
205.598
201.116
196.868
193.139
190.335
188.809
188.792
190.429
193.484
197.384
201.574
205.536
208.78
210.976
212.015
211.93
211.319
211.481
213.794
220.092
232.675
252.747
280.747
316.286
356.678
400.439
447.735
498.322
554.023
614.575
676.376
735.698
785.262
816.995
823.583
797.234
735.446
640.797
520.695
388.033
255.422
134.465
34.548
-40.136
-88.772
-113.986
-121.09
-114.647
-98.418
-75.741
-48.848
-20.417
7.841
36.418
65.525
95.529
125.326
151.665
172.776
187.987
197.81
204.265
208.423
210.895
212.611
214.142
216.116
218.936
222.298
225.75
229.009
231.709
233.422
233.692
231.955
227.979
221.941
214.109
204.79
194.284
182.87
170.933
158.946
147.253
136.058
125.492
115.619
106.508
98.232
90.794
84.135
78.19
72.886
68.169
64.017
60.394
57.235
54.467
52.022
49.828
47.827
45.959
44.132
42.252
40.251
38.095
35.781
33.335
30.797
28.166
25.43
22.677
20.011
17.396
14.831
12.33
9.705
7.453
6.092
4.992
3.976
1.832
-2.909
-8.62
-14.213
-18.081
-18.03
-16.032
-13.753
-12.323
-13.593
-16.206
-18.808
-21.105
-22.286
-22.852
-23.414
-23.881
-24.41
-24.947
-25.285
-25.428
-25.317
-24.94
-24.488
-24.043
-23.552
-23.129
-22.974
-23.313
-24.511
-26.573
-29.062
-31.743
-34.557
-37.291
-39.742
-41.592
-42.282
-41.78
-40.627
-39.149
-37.544
-36.04
-34.722
-33.834
-33.873
-34.894
-36.525
-38.524
-40.688
-42.882
-45.157
-47.434
-49.478
-51.26
-52.92
-54.561
-56.298
-58.176
-60.126
-62.139
-64.253
-66.473
-68.785
-71.174
-73.606
-76.073
-78.598
-81.19
-83.855
-86.591
-89.384
-92.226
-95.109
-98.028
-100.975
-103.944
-106.925
-109.909
-112.887
-115.849
-118.786
-121.686
-124.54
-127.335
-130.059
-132.701
-135.255
-137.71
-140.061
-142.298
-144.413
-146.398
-148.244
-149.946
-151.497
-152.891
-154.122
-155.185
-156.077
-156.794
-157.336
-157.699
-157.884
-157.89
-157.717
-157.369
-156.848
-156.157
-155.301
-154.285
-153.115
-151.798
-150.342
-148.755
-147.046
-145.226
-143.304
-141.291
-139.2
-137.043
-134.83
-132.576
-130.293
-127.992
-125.688
-123.393
-121.119
-118.878
-116.683
-114.546
-112.477
-110.488
-108.589
-106.788
-105.094
-103.516
-102.059
-100.729
-99.531
-98.468
-97.544
-96.759
-96.115
-95.609
-95.241
-95.008
-94.903
-94.922
-95.058
-95.303
-95.647
-96.079
-96.59
-97.167
-97.799
-98.473
-99.176
-99.895
-100.616
-101.327
-102.014
-102.663
-103.261
-103.796
-104.256
-104.628
-104.904
-105.072
-105.123
-105.051
-104.847
-104.507
-104.026
-103.402
-102.63
-101.712
-100.648
-99.442
-98.098
-96.622
-95.022
-93.307
-91.491
-89.587
-87.609
-85.573
-83.495
-81.39
-79.278
-77.173
-75.092
-73.049
-71.059
-69.141
-67.31
-65.585
-63.979
-62.507
-61.183
-60.019
-59.029
-58.218
-57.589
-57.145
-56.889
-56.826
-56.968
-57.319
-57.876
-58.635
-59.589
-60.72
-62.013
-63.436
-64.949
-66.513
-68.095
-69.666
-71.206
-72.688
-74.079
-75.342
-76.44
-77.343
-78.037
-78.495
-78.705
-78.684
-78.46
-78.087
-77.642
-77.166
-76.705
-76.322
-76.065
-76.009
-76.228
-76.757
-77.657
-79.007
-80.825
-83.088
-85.664
-88.248
-90.522
-92.221
-93.027
-92.638
-90.875
-87.667
-83.254
-78.228
-73.186
-68.607
-64.896
-62.375
-61.162
-61.091
-61.463
-61.017
-58.288
-51.894
-40.689
-23.506
0.663
32.348
71.602
117.17
166.345
216.384
264.654
309.643
352.119
391.77
426.038
449.548
453.193
429.997
378.256
301.387
207.904
105.806
0.156
-104.777
-204.621
-292.347
-359.88
-402.787
-421.251
-420.825
-409.056
-390.596
-367.998
-341.455
-310.043
-275.276
-239.549
-205.382
-176.009
-153.143
-136.759
-126.385
-120.91
-118.938
-119.531
-121.612
-123.513
-123.785
-121.701
-117.051
-110.197
-101.796
-92.327
-82.329
-72.677
-64.275
-57.684
-53.106
-50.397
-49.22
-49.285
-50.344
-52.053
-53.989
-55.815
-57.317
-58.385
-59.024
-59.26
-59.079
-58.489
-57.527
-56.216
-54.603
-52.747
-50.684
-48.455
-46.115
-43.71
-41.313
-39.021
-36.905
-35.024
-33.417
-32.091
-31.056
-30.327
-29.896
-29.744
-29.842
-30.149
-30.629
-31.26
-32.007
-32.835
-33.696
-34.535
-35.308
-35.981
-36.529
-36.929
-37.163
-37.211
-37.064
-36.721
-36.18
-35.442
-34.504
-33.361
-32.011
-30.46
-28.712
-26.777
-24.662
-22.372
-19.917
-17.306
-14.551
-11.661
-8.647
-5.518
-2.287
1.034
4.428
7.88
11.373
14.893
18.42
21.937
25.427
28.872
32.257
35.57
38.795
41.914
44.921
47.807
50.565
53.19
55.668
57.985
60.139
62.134
63.948
65.566
66.976
68.161
69.134
69.923
70.515
70.886
71.109
71.27
71.324
71.282
71.166
70.804
70.678
71.254
71.882
72.368
71.509
67.866
63.047
58.124
54.694
54.945
56.952
59.08
60.213
58.499
55.268
51.865
48.593
46.273
44.43
42.456
40.466
38.386
36.256
34.201
32.141
30.012
27.836
25.619
23.354
21.046
18.7
16.323
13.93
11.537
9.144
6.75
4.362
1.987
-0.37
-2.7
-4.998
-7.257
-9.467
-11.621
-13.707
-15.718
-17.644
-19.476
-21.205
-22.821
-24.316
-25.681
-26.908
-27.989
-28.918
-29.687
-30.292
-30.726
-30.987
-31.071
-30.976
-30.702
-30.249
-29.619
-28.814
-27.84
-26.702
-25.406
-23.961
-22.375
-20.66
-18.826
-16.886
-14.854
-12.743
-10.569
-8.347
-6.093
-3.823
-1.553
0.701
2.923
5.096
7.206
9.239
11.178
13.013
14.729
16.315
17.761
19.057
20.196
21.171
21.977
22.611
23.071
23.353
23.459
23.389
23.147
22.74
22.171
21.444
20.575
19.575
18.459
17.245
15.939
14.546
13.084
11.576
10.017
8.406
6.746
5.032
3.292
1.563
-0.158
-1.889
-3.549
-5.042
-6.417
-7.661
-8.758
-9.891
-10.558
-10.27
-9.73
-9.157
-9.843
-13.336
-17.939
-22.522
-25.4
-24.258
-21.164
-17.874
-15.597
-16.323
-18.653
-21.17
-23.571
-24.997
-25.968
-27.147
-28.416
-29.866
-31.463
-33.082
-34.823
-36.764
-38.884
-41.176
-43.646
-46.281
-49.064
-51.968
-54.943
-57.942
-60.942
-63.923
-66.869
-69.763
-72.576
-75.276
-77.826
-80.195
-82.37
-84.335
-86.071
-87.574
-88.86
-89.98
-91.016
-92.046
-93.121
-94.267
-95.512
-96.891
-98.465
-100.304
-102.454
-104.927
-107.735
-110.914
-114.476
-118.357
-122.355
-126.089
-129.161
-131.281
-132.198
-131.638
-129.408
-125.444
-119.988
-113.689
-107.17
-100.797
-94.953
-90.056
-86.384
-84.13
-82.18
-78.083
-70.002
-56.505
-38.357
-18.73
1.863
24.527
52.705
93.35
148.495
216.178
291.755
365.514
430.27
480.466
510.334
515.717
491.347
434.654
346.566
232.799
105.942
-20.733
-132.88
-218.727
-275.896
-307.008
-320.15
-325.741
-328.127
-327.706
-322.058
-307.781
-285.477
-258.021
-228.691
-200.739
-175.636
-154.112
-136.925
-123.9
-114.55
-108.34
-104.442
-102.303
-101.445
-100.866
-99.457
-96.657
-92.322
-86.657
-80.146
-73.12
-65.876
-59.035
-53.301
-49.102
-46.594
-45.665
-45.997
-47.306
-49.342
-51.75
-54.154
-56.293
-58.001
-59.21
-59.91
-60.086
-59.724
-58.839
-57.476
-55.679
-53.492
-50.962
-48.158
-45.172
-42.109
-39.073
-36.139
-33.358
-30.774
-28.419
-26.329
-24.527
-23.019
-21.801
-20.87
-20.218
-19.836
-19.71
-19.803
-20.076
-20.483
-20.973
-21.51
-22.066
-22.616
-23.139
-23.618
-24.039
-24.394
-24.68
-24.888
-25.01
-25.034
-24.951
-24.754
-24.44
-24.008
-23.458
-22.787
-21.994
-21.077
-20.037
-18.87
-17.574
-16.147
-14.586
-12.89
-11.062
-9.104
-7.02
-4.818
-2.502
-0.079
2.441
5.049
7.736
10.494
13.311
16.177
19.081
22.012
24.957
27.904
30.84
33.753
36.629
39.457
42.223
44.915
47.523
50.035
52.441
54.73
56.894
58.924
60.811
62.549
64.129
65.546
66.796
67.873
68.775
69.499
70.045
70.411
70.6
70.614
70.454
70.126
69.635
68.986
68.188
67.248
66.175
64.981
63.674
62.269
60.776
59.208
57.578
55.9
54.186
52.451
50.706
48.966
47.242
45.548
43.894
42.294
40.759
39.298
37.922
36.642
35.465
34.4
33.454
32.634
31.945
31.391
30.976
30.701
30.569
30.579
30.729
31.019
31.444
32
32.682
33.484
34.398
35.419
36.537
37.744
39.031
40.39
41.812
43.287
44.806
46.36
47.941
49.539
51.146
52.753
54.351
55.933
57.49
59.015
60.5
61.938
63.324
64.651
65.912
67.105
68.223
69.264
70.224
71.101
71.892
72.596
73.212
73.739
74.179
74.531
74.796
74.975
75.069
75.08
75.009
74.859
74.629
74.324
73.943
73.49
72.967
72.377
71.721
71.004
70.229
69.4
68.52
67.594
66.626
65.621
64.584
63.521
62.436
61.337
60.228
59.117
58.009
56.913
55.834
54.779
53.755
52.769
51.828
50.939
50.108
49.342
48.648
48.033
47.504
47.066
46.726
46.489
46.358
46.338
46.433
46.644
46.974
47.42
47.984
48.663
49.454
50.354
51.356
52.454
53.64
54.904
56.236
57.623
59.053
60.509
61.975
63.434
64.869
66.261
67.593
68.849
70.014
71.072
72.007
72.805
73.451
73.931
74.231
74.336
74.233
73.913
73.374
72.613
71.634
70.437
69.018
67.376
65.506
63.404
61.074
58.519
55.739
52.748
49.565
46.221
42.767
39.236
35.644
32.012
28.344
24.671
21.054
17.54
14.172
10.994
8.008
5.247
2.803
0.656
-1.29
-3.141
-5.087
-7.188
-9.314
-11.467
-13.753
-16.14
-18.558
-20.846
-22.66
-23.952
-24.979
-25.781
-26.266
-26.397
-26.107
-25.555
-25.166
-25.096
-25.318
-25.977
-27.381
-29.901
-33.768
-38.891
-44.927
-51.337
-57.321
-61.998
-63.466
-59.674
-49.916
-33.004
-9.255
20.183
57.056
101.281
151.899
208.409
265.395
318.434
366.298
406.305
438
459.607
463.307
441.891
390.688
308.036
200.689
80.513
-40.634
-150.297
-239.407
-305.027
-347.825
-371.427
-381.754
-382.583
-374.803
-360.387
-340.086
-315.293
-290.235
-265.92
-243.391
-224.241
-207.742
-195.194
-187.456
-183.783
-183.721
-185.508
-187.226
-187.525
-185.399
-180.61
-173.316
-163.9
-153.042
-141.53
-130.219
-120.088
-111.734
-105.38
-101.125
-98.807
-98.144
-98.845
-100.488
-102.617
-104.953
-107.334
-109.616
-111.709
-113.508
-114.888
-115.804
-116.254
-116.215
-115.672
-114.609
-113.019
-110.949
-108.483
-105.699
-102.658
-99.415
-96.014
-92.53
-89.059
-85.681
-82.456
-79.421
-76.597
-74.007
-71.666
-69.577
-67.718
-66.061
-64.568
-63.207
-61.957
-60.791
-59.68
-58.587
-57.467
-56.285
-55.015
-53.638
-52.138
-50.501
-48.713
-46.768
-44.671
-42.425
-40.032
-37.492
-34.803
-31.966
-28.987
-25.871
-22.625
-19.257
-15.771
-12.174
-8.475
-4.681
-0.801
3.157
7.185
11.275
15.414
19.592
23.793
28.004
32.212
36.401
40.556
44.664
48.709
52.678
56.557
60.335
63.998
67.533
70.928
74.173
77.255
80.166
82.894
85.432
87.771
89.905
91.826
93.53
95.012
96.268
97.296
98.093
98.661
98.998
99.108
98.992
98.656
98.105
97.345
96.383
95.228
93.889
92.374
90.696
88.864
86.89
84.786
82.564
80.237
77.818
75.319
72.755
70.138
67.483
64.803
62.113
59.425
56.753
54.111
51.511
48.967
46.491
44.095
41.791
39.59
37.5
35.533
33.696
31.996
30.441
29.035
27.785
26.693
25.762
24.996
24.396
23.962
23.694
23.592
23.654
23.878
24.261
24.8
25.492
26.331
27.314
28.435
29.688
31.069
32.57
34.185
35.908
37.731
39.647
41.648
43.728
45.878
48.091
50.361
52.681
55.044
57.444
59.875
62.331
64.807
67.299
69.801
72.309
74.819
77.327
79.831
82.325
84.808
87.276
89.726
92.156
94.561
96.94
99.289
101.605
103.885
106.126
108.324
110.477
112.581
114.633
116.628
118.565
120.439
122.247
123.984
125.646
127.23
128.73
130.142
131.462
132.683
133.802
134.812
135.71
136.49
137.147
137.676
138.074
138.337
138.461
138.444
138.283
137.977
137.523
136.923
136.176
135.284
134.249
133.072
131.757
130.309
128.733
127.034
125.219
123.295
121.268
119.149
116.946
114.669
112.327
109.933
107.496
105.03
102.546
100.055
97.571
95.105
92.668
90.272
87.927
85.641
83.423
81.28
79.218
77.244
75.364
73.581
71.901
70.329
68.871
67.53
66.31
65.208
64.223
63.353
62.597
61.951
61.41
60.969
60.622
60.37
60.21
60.138
60.141
60.199
60.294
60.419
60.562
60.721
60.897
61.091
61.319
61.611
61.994
62.495
63.129
63.898
64.812
65.888
67.15
68.635
70.36
72.323
74.526
76.961
79.589
82.358
85.181
87.928
90.506
92.822
94.781
96.312
97.32
97.708
97.406
96.319
94.341
91.458
87.725
83.299
78.514
73.709
69.195
65.375
62.668
61.342
61.421
62.618
64.34
66.005
67.317
68.048
67.852
66.656
64.913
63.565
64.139
68.27
76.995
91.241
112.21
140.578
176.453
219.352
267.66
319.42
372.341
422.985
467.621
502.88
527.678
543.529
551.459
551.477
538.73
504.609
443.628
353.14
239.333
116.68
-0.229
-96.532
-165.265
-208.726
-232.52
-245.533
-252.712
-253.854
-247.573
-231.668
-206.754
-176.403
-144.716
-115.775
-92.499
-76.487
-68.384
-67.795
-73.839
-85.232
-100.237
-117.173
-134.109
-149.097
-161.016
-169.416
-174.306
-176.185
-175.748
-173.662
-170.869
-168.395
-166.79
-166.287
-166.875
-168.26
-170.146
-172.309
-174.418
-176.132
-177.292
-177.83
-177.771
-177.242
-176.33
-175.09
-173.595
-171.911
-170.081
-168.147
-166.139
-164.079
-162.003
-159.947
-157.932
-155.978
-154.092
-152.277
-150.534
-148.854
-147.225
-145.641
-144.099
-142.598
-141.137
-139.709
-138.301
-136.9
-135.493
-134.064
-132.6
-131.087
-129.509
-127.859
-126.126
-124.305
-122.391
-120.374
-118.247
-116
-113.628
-111.122
-108.478
-105.691
-102.758
-99.677
-96.449
-93.077
-89.564
-85.914
-82.131
-78.223
-74.197
-70.061
-65.825
-61.499
-57.095
-52.625
-48.104
-43.546
-38.966
-34.38
-29.805
-25.258
-20.757
-16.319
-11.962
-7.704
-3.562
0.447
4.306
7.999
11.51
14.824
17.929
20.809
23.455
25.854
27.998
29.878
31.487
32.821
33.874
34.643
35.129
35.329
35.246
34.881
34.237
33.321
32.138
30.695
29.001
27.065
24.898
22.513
19.921
17.137
14.176
11.052
7.781
4.379
0.864
-2.748
-6.44
-10.194
-13.992
-17.818
-21.654
-25.483
-29.289
-33.056
-36.768
-40.41
-43.97
-47.432
-50.786
-54.019
-57.12
-60.08
-62.89
-65.541
-68.026
-70.34
-72.476
-74.432
-76.204
-77.789
-79.188
-80.399
-81.424
-82.263
-82.921
-83.399
-83.703
-83.836
-83.804
-83.612
-83.269
-82.779
-82.151
-81.392
-80.509
-79.511
-78.405
-77.198
-75.9
-74.517
-73.056
-71.525
-69.932
-68.282
-66.583
-64.841
-63.063
-61.254
-59.42
-57.567
-55.7
-53.824
-51.942
-50.06
-48.182
-46.312
-44.453
-42.609
-40.784
-38.981
-37.203
-35.454
-33.737
-32.054
-30.409
-28.804
-27.242
-25.727
-24.262
-22.85
-21.495
-20.2
-18.969
-17.804
-16.711
-15.691
-14.749
-13.887
-13.11
-12.419
-11.817
-11.308
-10.894
-10.577
-10.359
-10.242
-10.226
-10.312
-10.5
-10.788
-11.175
-11.66
-12.24
-12.913
-13.675
-14.522
-15.451
-16.456
-17.533
-18.676
-19.878
-21.134
-22.435
-23.775
-25.146
-26.541
-27.953
-29.374
-30.797
-32.216
-33.624
-35.015
-36.382
-37.72
-39.023
-40.287
-41.507
-42.681
-43.805
-44.879
-45.902
-46.879
-47.811
-48.702
-49.557
-50.379
-51.175
-51.95
-52.708
-53.452
-54.186
-54.917
-55.65
-56.393
-57.155
-57.941
-58.759
-59.615
-60.516
-61.466
-62.467
-63.515
-64.61
-65.754
-66.952
-68.216
-69.551
-70.959
-72.439
-73.985
-75.588
-77.232
-78.894
-80.537
-82.128
-83.638
-85.044
-86.329
-87.47
-88.444
-89.224
-89.781
-90.09
-90.135
-89.906
-89.414
-88.683
-87.755
-86.683
-85.535
-84.384
-83.317
-82.421
-81.777
-81.468
-81.548
-82.087
-83.184
-84.874
-87.125
-89.794
-92.592
-95.211
-97.414
-98.913
-99.352
-98.522
-96.366
-93.12
-89.393
-85.798
-82.769
-80.712
-80.032
-80.847
-82.908
-85.427
-86.975
-85.927
-80.829
-70.346
-53.036
-27.802
5.812
47.696
96.23
148.332
201.082
251.277
296.536
337.036
372.001
399.233
414.939
411.076
380.788
321.572
234.54
127.611
11.68
-103.127
-206.378
-290.531
-351.896
-390.544
-409.774
-414.483
-409.064
-394.096
-371.022
-342.787
-311.766
-283.301
-259.477
-238.163
-218.516
-198.663
-178.493
-160.674
-146.086
-134.995
-127.269
-121.398
-116.31
-111.154
-104.988
-97.649
-89.396
-80.538
-71.404
-62.241
-53.308
-45.13
-38.395
-33.473
-30.376
-28.892
-28.683
-29.503
-31.179
-33.424
-35.836
-38.059
-39.837
-41.049
-41.702
-41.796
-41.302
-40.205
-38.517
-36.286
-33.589
-30.503
-27.087
-23.381
-19.429
-15.296
-11.074
-6.874
-2.791
1.123
4.84
8.344
11.621
14.656
17.452
20.037
22.452
24.735
26.915
29.011
31.047
33.057
35.083
37.174
39.366
41.678
44.124
46.717
49.464
52.373
55.441
58.655
62.001
65.47
69.057
72.756
76.559
80.453
84.425
88.462
92.55
96.679
100.837
105.009
109.185
113.351
117.496
121.611
125.685
129.705
133.658
137.53
141.309
144.982
148.536
151.96
155.242
158.371
161.34
164.141
166.765
169.207
171.462
173.523
175.388
177.054
178.517
179.777
180.831
181.681
182.326
182.768
183.009
183.049
182.893
182.543
182.005
181.282
180.379
179.302
178.057
176.651
175.091
173.384
171.537
169.558
167.455
165.237
162.91
160.484
157.966
155.364
152.686
149.94
147.133
144.274
141.368
138.426
135.452
132.456
129.445
126.425
123.405
120.392
117.392
114.414
111.463
108.546
105.67
102.841
100.065
97.347
94.694
92.11
89.599
87.167
84.818
82.555
80.382
78.302
76.318
74.432
72.646
70.962
69.381
67.905
66.533
65.267
64.106
63.05
62.098
61.25
60.502
59.854
59.304
58.849
58.485
58.211
58.022
57.916
57.888
57.933
58.049
58.23
58.472
58.77
59.12
59.516
59.953
60.426
60.93
61.46
62.01
62.575
63.151
63.731
64.312
64.888
65.454
66.006
66.54
67.051
67.535
67.988
68.407
68.788
69.128
69.424
69.674
69.874
70.024
70.122
70.166
70.156
70.091
69.971
69.796
69.567
69.284
68.949
68.565
68.132
67.655
67.135
66.577
65.985
65.364
64.718
64.051
63.369
62.676
61.979
61.281
60.589
59.908
59.243
58.599
57.981
57.396
56.846
56.338
55.874
55.459
55.095
54.786
54.533
54.337
54.199
54.121
54.101
54.139
54.234
54.382
54.579
54.822
55.105
55.419
55.755
56.104
56.455
56.798
57.122
57.415
57.667
57.867
58.009
58.082
58.078
57.986
57.794
57.493
57.074
56.53
55.853
55.035
54.07
52.957
51.696
50.289
48.733
47.018
45.13
43.065
40.823
38.411
35.835
33.107
30.241
27.268
24.23
21.17
18.122
15.113
12.163
9.305
6.574
4.02
1.686
-0.398
-2.215
-3.761
-5.033
-6.049
-6.84
-7.464
-8.014
-8.591
-9.289
-10.197
-11.401
-12.973
-15.014
-17.667
-20.99
-24.966
-29.496
-34.338
-39.27
-44.122
-48.62
-52.409
-55.259
-57.036
-57.863
-58.25
-58.578
-59.096
-60.115
-61.83
-64.313
-67.507
-70.819
-73.05
-73.067
-69.69
-61.71
-48.219
-28.163
-0.587
34.713
77.455
126.452
179.025
232.339
283.42
329.951
372.463
411.263
444.818
469.409
475.91
454.703
400.707
313.059
199.282
72.542
-54.346
-168.089
-259.005
-323.812
-363.038
-381.082
-385.235
-380.466
-368.625
-352.203
-331.63
-307.906
-284.973
-263.296
-243.523
-227.068
-213.085
-202.666
-196.502
-193.698
-193.856
-195.711
-197.92
-199.516
-199.416
-197.201
-192.98
-187.039
-179.921
-172.091
-163.942
-156.157
-149.485
-144.37
-141.013
-139.34
-139.065
-139.947
-141.775
-144.245
-147.018
-149.826
-152.463
-154.841
-156.966
-158.826
-160.393
-161.621
-162.477
-162.952
-163.045
-162.775
-162.164
-161.239
-160.047
-158.65
-157.112
-155.505
-153.913
-152.384
-150.951
-149.638
-148.461
-147.451
-146.638
-146.03
-145.62
-145.395
-145.34
-145.442
-145.689
-146.05
-146.492
-146.976
-147.461
-147.921
-148.337
-148.694
-148.979
-149.181
-149.287
-149.297
-149.216
-149.044
-148.785
-148.436
-147.997
-147.474
-146.874
-146.207
-145.481
-144.704
-143.885
-143.029
-142.147
-141.243
-140.325
-139.397
-138.464
-137.531
-136.606
-135.696
-134.81
-133.957
-133.145
-132.383
-131.681
-131.046
-130.488
-130.014
-129.63
-129.343
-129.159
-129.084
-129.124
-129.284
-129.57
-129.986
-130.538
-131.23
-132.066
-133.049
-134.182
-135.466
-136.904
-138.497
-140.245
-142.15
-144.21
-146.427
-148.799
-151.326
-154.005
-156.834
-159.812
-162.933
-166.195
-169.593
-173.121
-176.775
-180.548
-184.433
-188.425
-192.517
-196.701
-200.969
-205.313
-209.723
-214.19
-218.702
-223.247
-227.811
-232.382
-236.948
-241.494
-246.009
-250.479
-254.895
-259.246
-263.522
-267.716
-271.817
-275.816
-279.703
-283.469
-287.107
-290.606
-293.959
-297.159
-300.2
-303.08
-305.8
-308.36
-310.76
-313
-315.074
-316.987
-318.747
-320.363
-321.848
-323.219
-324.499
-325.717
-326.913
-328.119
-329.369
-330.689
-332.099
-333.617
-335.261
-337.042
-338.978
-341.074
-343.318
-345.702
-348.211
-350.82
-353.501
-356.209
-358.878
-361.45
-363.872
-366.084
-368.044
-369.709
-371.047
-372.041
-372.666
-372.925
-372.843
-372.449
-371.794
-370.931
-369.899
-368.76
-367.628
-366.609
-365.813
-365.355
-365.278
-365.687
-366.753
-368.625
-371.432
-375.198
-379.829
-385.283
-391.616
-398.683
-406.059
-413.185
-419.429
-424.48
-428.23
-430.443
-430.867
-429.375
-426.987
-425.808
-426.984
-430.916
-435.718
-436.474
-431.667
-422.477
-412.974
-412.638
-424.815
-444.699
-460.552
-451.505
-401.662
-306.728
-174.25
-24.416
121.085
246.269
342.896
410.253
450.335
465.385
457.801
432.844
399.766
369.612
351.87
349.585
359.033
372.727
383.376
388.395
389.146
389.233
392.622
400.131
410.713
422.565
433.062
441.134
446.904
450.474
452.322
452.893
452.247
450.754
449.141
447.766
446.789
446.294
446.064
445.899
445.701
445.231
444.19
442.435
439.881
436.52
432.466
427.796
422.562
416.863
410.791
404.431
397.878
391.203
384.466
377.745
371.121
364.687
358.53
352.719
347.32
342.373
337.901
333.921
330.432
327.417
324.858
322.704
320.865
319.25
317.754
316.261
314.682
312.891
310.718
308.053
304.843
301.128
297.1
292.951
288.831
284.968
281.621
278.964
277.105
275.881
274.761
273.254
270.94
267.421
262.478
256.067
248.333
239.964
232.282
226.714
224.804
228.03
237.49
254.311
279.403
312.971
354.668
403.076
455.247
508.274
559.484
607.094
652.19
695.242
733.865
763.026
773.152
754.958
705.649
627.656
528.862
420.334
309.41
202.745
107.54
28.654
-28.212
-60.818
-72.257
-65.667
-44.866
-13.689
25.342
67.267
104.861
133.587
151.337
159.489
163.485
166.752
170.418
173.971
174.662
171.458
165.28
157.911
151.843
148.244
147.008
147.743
149.786
152.679
156.136
159.49
162.001
163.319
163.349
162.233
160.287
157.742
154.771
151.652
148.687
146.053
143.831
142.006
140.495
139.262
138.305
137.615
137.15
136.833
136.598
136.393
136.183
135.932
135.603
135.156
134.57
133.85
133.006
132.055
131.011
129.876
128.651
127.329
125.915
124.434
122.911
121.368
119.828
118.309
116.832
115.425
114.104
112.873
111.734
110.685
109.729
108.873
108.124
107.488
106.97
106.572
106.295
106.143
106.115
106.212
106.43
106.763
107.207
107.759
108.418
109.178
110.036
110.983
112.014
113.123
114.302
115.542
116.834
118.167
119.532
120.92
122.32
123.724
125.121
126.5
127.853
129.17
130.44
131.654
132.803
133.876
134.866
135.762
136.556
137.24
137.805
138.246
138.554
138.724
138.752
138.632
138.36
137.935
137.352
136.611
135.711
134.65
133.428
132.047
130.508
128.814
126.966
124.968
122.823
120.535
118.108
115.547
112.856
110.042
107.108
104.062
100.91
97.658
94.314
90.884
87.376
83.797
80.156
76.46
72.717
68.935
65.121
61.283
57.429
53.566
49.7
45.84
41.991
38.16
34.353
30.575
26.832
23.13
19.474
15.868
12.317
8.826
5.399
2.04
-1.247
-4.458
-7.589
-10.638
-13.6
-16.474
-19.256
-21.943
-24.534
-27.026
-29.419
-31.709
-33.896
-35.98
-37.958
-39.83
-41.596
-43.255
-44.806
-46.25
-47.587
-48.816
-49.938
-50.954
-51.864
-52.669
-53.371
-53.971
-54.472
-54.875
-55.184
-55.402
-55.532
-55.578
-55.545
-55.438
-55.261
-55.019
-54.72
-54.369
-53.973
-53.537
-53.07
-52.578
-52.068
-51.548
-51.024
-50.504
-49.996
-49.505
-49.041
-48.609
-48.217
-47.871
-47.578
-47.344
-47.174
-47.073
-47.046
-47.095
-47.224
-47.436
-47.73
-48.108
-48.569
-49.112
-49.736
-50.437
-51.213
-52.059
-52.969
-53.938
-54.959
-56.023
-57.121
-58.243
-59.379
-60.519
-61.653
-62.77
-63.859
-64.91
-65.911
-66.854
-67.73
-68.526
-69.23
-69.83
-70.312
-70.674
-70.917
-71.032
-71.019
-70.877
-70.603
-70.204
-69.688
-69.048
-68.282
-67.385
-66.354
-65.201
-63.94
-62.583
-61.149
-59.642
-58.062
-56.425
-54.748
-53.034
-51.297
-49.533
-47.734
-45.938
-44.18
-42.49
-40.907
-39.444
-38.107
-36.918
-35.893
-35.055
-34.431
-34.024
-33.832
-33.879
-34.181
-34.77
-35.687
-36.909
-38.406
-40.16
-42.138
-44.329
-46.723
-49.277
-51.941
-54.676
-57.442
-60.216
-62.988
-65.709
-68.33
-70.794
-73.03
-75.027
-76.78
-78.269
-79.499
-80.471
-81.202
-81.747
-82.171
-82.518
-82.839
-83.175
-83.573
-84.111
-84.841
-85.831
-87.183
-88.933
-91.08
-93.563
-96.159
-98.586
-100.609
-101.936
-102.223
-101.265
-98.936
-95.332
-90.991
-86.591
-82.687
-79.781
-78.421
-78.971
-81.488
-85.68
-89.979
-91.908
-90.043
-83.316
-71.295
-55.132
-33.276
-2.844
37.355
89.149
150.085
214.362
278.398
337.875
390.097
432.643
459.313
463.488
438.904
383.956
302.784
201.974
91.193
-22.627
-134.58
-237.676
-327.46
-398.473
-444.747
-465.948
-462.584
-437.652
-398.973
-353.398
-308.614
-271.329
-242.794
-222.124
-206.293
-192.144
-179.566
-169.589
-164.12
-164.267
-169.148
-177.025
-185.481
-192.553
-197.198
-199.053
-198.374
-195.555
-190.983
-185.122
-178.526
-171.843
-165.737
-160.555
-156.305
-152.827
-149.851
-147.151
-144.564
-141.885
-138.888
-135.45
-131.554
-127.261
-122.7
-117.965
-113.11
-108.195
-103.282
-98.431
-93.699
-89.136
-84.774
-80.638
-76.745
-73.11
-69.744
-66.651
-63.828
-61.262
-58.934
-56.832
-54.948
-53.276
-51.81
-50.537
-49.439
-48.497
-47.695
-47.015
-46.442
-45.959
-45.547
-45.194
-44.887
-44.616
-44.373
-44.146
-43.924
-43.693
-43.444
-43.164
-42.846
-42.48
-42.059
-41.575
-41.026
-40.409
-39.721
-38.962
-38.131
-37.228
-36.254
-35.212
-34.103
-32.932
-31.702
-30.419
-29.089
-27.717
-26.311
-24.879
-23.428
-21.966
-20.502
-19.044
-17.6
-16.177
-14.785
-13.43
-12.12
-10.862
-9.662
-8.527
-7.461
-6.472
-5.563
-4.738
-4.002
-3.357
-2.805
-2.348
-1.988
-1.725
-1.56
-1.493
-1.523
-1.65
-1.872
-2.188
-2.596
-3.093
-3.676
-4.342
-5.088
-5.91
-6.804
-7.767
-8.794
-9.881
-11.026
-12.223
-13.468
-14.758
-16.09
-17.458
-18.859
-20.29
-21.745
-23.222
-24.716
-26.223
-27.74
-29.262
-30.786
-32.308
-33.823
-35.328
-36.819
-38.291
-39.74
-41.163
-42.556
-43.915
-45.237
-46.518
-47.755
-48.944
-50.083
-51.168
-52.197
-53.166
-54.072
-54.913
-55.686
-56.388
-57.016
-57.569
-58.044
-58.439
-58.753
-58.983
-59.128
-59.187
-59.16
-59.045
-58.843
-58.552
-58.175
-57.711
-57.161
-56.527
-55.81
-55.013
-54.137
-53.184
-52.158
-51.061
-49.896
-48.667
-47.375
-46.026
-44.623
-43.169
-41.669
-40.128
-38.548
-36.935
-35.294
-33.629
-31.945
-30.247
-28.539
-26.827
-25.114
-23.407
-21.709
-20.024
-18.358
-16.715
-15.098
-13.511
-11.959
-10.443
-8.968
-7.535
-6.147
-4.807
-3.515
-2.274
-1.085
0.052
1.135
2.165
3.141
4.063
4.933
5.75
6.517
7.234
7.903
8.526
9.106
9.646
10.148
10.614
11.048
11.452
11.829
12.184
12.518
12.834
13.135
13.426
13.708
13.983
14.255
14.524
14.793
15.062
15.334
15.608
15.884
16.162
16.441
16.72
16.999
17.273
17.541
17.8
18.047
18.276
18.484
18.662
18.804
18.902
18.951
18.942
18.868
18.722
18.497
18.19
17.797
17.313
16.733
16.052
15.263
14.365
13.355
12.231
10.992
9.637
8.169
6.598
4.93
3.17
1.32
-0.627
-2.668
-4.795
-7
-9.27
-11.588
-13.938
-16.29
-18.605
-20.845
-22.977
-24.977
-26.829
-28.507
-29.979
-31.208
-32.153
-32.789
-33.099
-33.069
-32.702
-32.014
-31.037
-29.83
-28.464
-27.003
-25.523
-24.089
-22.767
-21.643
-20.778
-20.264
-20.219
-20.689
-21.66
-23.036
-24.564
-25.975
-27.035
-27.418
-26.755
-24.819
-21.488
-16.952
-11.794
-6.543
-1.667
2.347
5.111
6.356
6.045
4.782
3.833
4.533
8.376
16.861
31.258
52.995
83.215
122.151
169.369
223.29
280.691
338.25
392.459
440.731
483.559
520.803
550.73
569.353
567.055
534.986
469.115
369.468
245.572
112.369
-16.351
-126.081
-208.249
-263.386
-295.249
-310.982
-317.44
-315.011
-301.166
-275.611
-240.106
-199.843
-162.84
-132.356
-107.407
-86.952
-68.319
-50.906
-37.049
-27.462
-22.18
-20.642
-20.723
-20.631
-19.327
-16.32
-11.792
-6.22
-0.112
6.13
12.059
16.999
20.294
21.589
20.822
18.231
14.227
9.167
3.401
-2.638
-8.51
-13.865
-18.48
-22.273
-25.255
-27.438
-28.829
-29.455
-29.375
-28.665
-27.407
-25.676
-23.556
-21.139
-18.533
-15.863
-13.232
-10.726
-8.407
-6.307
-4.446
-2.831
-1.457
-0.31
0.633
1.402
2.034
2.559
3.015
3.447
3.9
4.433
5.089
5.901
6.893
8.083
9.48
11.093
12.924
14.969
17.224
19.685
22.351
25.22
28.291
31.555
35.005
38.629
42.418
46.363
50.454
54.683
59.038
63.51
68.087
72.763
77.524
82.357
87.249
92.182
97.142
102.112
107.077
112.02
116.924
121.775
126.557
131.256
135.859
140.352
144.722
148.956
153.044
156.974
160.736
164.32
167.718
170.92
173.919
176.71
179.286
181.643
183.778
185.687
187.37
188.827
190.058
191.064
191.849
192.416
192.769
192.913
192.855
192.6
192.155
191.531
190.734
189.774
188.662
187.408
186.023
184.516
182.9
181.186
179.386
177.513
175.579
173.599
171.586
169.558
167.529
165.515
163.531
161.593
159.714
157.908
156.189
154.567
153.054
151.66
150.396
149.272
148.3
147.491
146.854
146.402
146.142
146.084
146.237
146.603
147.187
147.991
149.017
150.271
151.752
153.455
155.374
157.502
159.821
162.313
164.947
167.681
170.478
173.297
176.098
178.849
181.517
184.077
186.506
188.78
190.897
192.857
194.66
196.307
197.795
199.143
200.412
201.672
202.977
204.379
205.892
207.555
209.454
211.567
213.783
215.99
218
219.726
221.245
222.502
223.31
223.65
223.562
223.095
222.453
221.49
219.631
216.535
212.046
205.883
197.816
187.536
174.549
158.934
141.393
122.448
102.484
81.936
61.127
40.567
21.023
2.806
-14.244
-30.17
-44.971
-58.603
-70.877
-81.774
-91.495
-100.083
-107.445
-113.563
-118.407
-122.042
-124.675
-126.479
-127.588
-128.149
-128.298
-128.165
-127.909
-127.652
-127.463
-127.395
-127.464
-127.675
-128.028
-128.502
-129.065
-129.67
-130.256
-130.751
-131.079
-131.184
-131.033
-130.6
-129.86
-128.794
-127.396
-125.676
-123.664
-121.392
-118.888
-116.189
-113.331
-110.363
-107.337
-104.307
-101.331
-98.457
-95.722
-93.158
-90.793
-88.647
-86.74
-85.082
-83.675
-82.518
-81.609
-80.946
-80.528
-80.356
-80.432
-80.751
-81.305
-82.083
-83.07
-84.251
-85.607
-87.109
-88.716
-90.39
-92.097
-93.81
-95.508
-97.161
-98.737
-100.195
-101.492
-102.594
-103.476
-104.117
-104.516
-104.684
-104.651
-104.477
-104.23
-103.984
-103.826
-103.832
-104.088
-104.677
-105.651
-107.094
-109.117
-111.771
-115.062
-118.883
-122.945
-126.973
-130.756
-133.981
-136.294
-137.433
-137.219
-135.864
-134.028
-132.312
-131.106
-130.867
-132.097
-135.044
-139.808
-145.326
-149.128
-149.642
-146.031
-138.083
-126.877
-110.832
-86.06
-50.092
-1.164
58.251
121.154
182.506
238.882
288.817
332.964
368.166
387.598
383.048
346.833
276.715
175.545
51.925
-80.748
-209.365
-319.856
-402.768
-457.772
-488.226
-502.177
-507.128
-503.427
-490.275
-467.798
-438.458
-409.083
-385.289
-367.896
-353.678
-338.386
-319.981
-299.529
-280.463
-265.085
-253.566
-245.282
-238.939
-233.578
-228.816
-224.167
-219.124
-213.566
-207.642
-201.449
-195.088
-188.721
-182.568
-177.052
-172.71
-169.741
-168.031
-167.373
-167.511
-168.224
-169.313
-170.494
-171.402
-171.77
-171.487
-170.522
-168.915
-166.697
-163.872
-160.468
-156.571
-152.277
-147.676
-142.869
-137.922
-132.908
-127.93
-123.073
-118.407
-114.001
-109.884
-106.067
-102.567
-99.383
-96.505
-93.924
-91.618
-89.551
-87.697
-86.022
-84.487
-83.054
-81.676
-80.309
-78.923
-77.493
-75.998
-74.43
-72.773
-71.022
-69.178
-67.236
-65.195
-63.054
-60.808
-58.455
-55.996
-53.435
-50.775
-48.022
-45.178
-42.246
-39.23
-36.135
-32.963
-29.72
-26.408
-23.032
-19.599
-16.119
-12.602
-9.057
-5.495
-1.928
1.632
5.173
8.685
12.155
15.573
18.928
22.21
25.408
28.512
31.512
34.399
37.163
39.796
42.29
44.637
46.83
48.863
50.731
52.427
53.949
55.29
56.45
57.424
58.212
58.812
59.224
59.449
59.488
59.344
59.018
58.516
57.84
56.997
55.991
54.827
53.514
52.055
50.46
48.734
46.887
44.924
42.855
40.688
38.432
36.095
33.687
31.216
28.693
26.126
23.525
20.899
18.259
15.613
12.972
10.344
7.738
5.165
2.632
0.148
-2.279
-4.64
-6.928
-9.136
-11.258
-13.286
-15.215
-17.039
-18.754
-20.354
-21.837
-23.198
-24.434
-25.543
-26.523
-27.372
-28.089
-28.674
-29.126
-29.447
-29.637
-29.698
-29.633
-29.444
-29.134
-28.707
-28.169
-27.522
-26.774
-25.93
-24.995
-23.977
-22.883
-21.72
-20.496
-19.218
-17.895
-16.535
-15.147
-13.738
-12.317
-10.893
-9.474
-8.067
-6.681
-5.322
-3.999
-2.718
-1.485
-0.307
0.81
1.863
2.847
3.757
4.592
5.348
6.025
6.621
7.137
7.574
7.934
8.218
8.43
8.574
8.655
8.679
8.651
8.58
8.472
8.337
8.184
8.022
7.861
7.71
7.581
7.482
7.425
7.419
7.474
7.599
7.802
8.095
8.483
8.975
9.578
10.295
11.133
12.096
13.185
14.403
15.748
17.221
18.819
20.54
22.379
24.331
26.389
28.544
30.787
33.108
35.492
37.924
40.389
42.868
45.346
47.804
50.225
52.589
54.881
57.084
59.184
61.165
63.01
64.702
66.226
67.569
68.719
69.666
70.398
70.906
71.188
71.243
71.072
70.671
70.033
69.147
68.008
66.622
64.993
63.131
61.048
58.758
56.293
53.693
51.001
48.253
45.477
42.696
39.948
37.279
34.74
32.382
30.237
28.327
26.673
25.29
24.177
23.313
22.659
22.143
21.695
21.249
20.729
20.055
19.149
17.902
16.175
13.897
11.071
7.787
4.261
0.717
-2.656
-5.585
-7.732
-8.88
-8.937
-8.085
-6.878
-5.813
-5.272
-5.646
-7.186
-9.984
-13.969
-18.505
-22.285
-23.933
-21.983
-14.993
-1.9
18.418
46.976
84.041
129.304
181.427
237.428
294.109
348.292
397.702
443.226
485.723
524.085
554.557
567.264
551.573
501.497
416.03
303.915
179.636
56.87
-51.025
-136.308
-197.408
-234.719
-252.214
-254.834
-245.484
-227.867
-206.032
-182.644
-161.269
-143.834
-128.911
-115.849
-103.788
-92.571
-84.331
-79.951
-79.134
-80.798
-82.756
-83.354
-81.727
-77.598
-71.225
-62.961
-53.331
-43.021
-32.73
-23.29
-15.349
-9.179
-4.901
-2.443
-1.548
-1.953
-3.316
-5.179
-7.223
-9.243
-11.051
-12.589
-13.829
-14.709
-15.224
-15.371
-15.087
-14.331
-13.085
-11.32
-9.067
-6.376
-3.291
0.097
3.697
7.42
11.16
14.847
18.445
21.917
25.246
28.414
31.379
34.122
36.642
38.935
41.009
42.875
44.536
46.018
47.358
48.596
49.776
50.929
52.071
53.216
54.377
55.561
56.78
58.037
59.327
60.652
62.014
63.415
64.863
66.357
67.891
69.459
71.055
72.673
74.309
75.96
77.621
79.286
80.954
82.623
84.291
85.956
87.61
89.249
90.864
92.448
93.994
95.491
96.932
98.306
99.605
100.821
101.946
102.972
103.89
104.693
105.372
105.92
106.33
106.594
106.705
106.657
106.444
106.06
105.502
104.765
103.845
102.741
101.449
99.969
98.299
96.44
94.392
92.157
89.736
87.135
84.356
81.404
78.287
75.01
71.582
68.01
64.303
60.47
56.522
52.468
48.32
44.09
39.788
35.427
31.021
26.582
22.123
17.658
13.201
8.764
4.362
0.008
-4.286
-8.505
-12.638
-16.671
-20.594
-24.394
-28.062
-31.587
-34.96
-38.172
-41.216
-44.084
-46.77
-49.27
-51.578
-53.691
-55.607
-57.323
-58.839
-60.155
-61.271
-62.19
-62.914
-63.447
-63.792
-63.956
-63.943
-63.761
-63.417
-62.918
-62.274
-61.492
-60.583
-59.557
-58.424
-57.193
-55.877
-54.485
-53.029
-51.519
-49.967
-48.382
-46.776
-45.159
-43.541
-41.932
-40.342
-38.78
-37.254
-35.774
-34.348
-32.981
-31.682
-30.457
-29.312
-28.251
-27.279
-26.4
-25.616
-24.932
-24.347
-23.863
-23.479
-23.196
-23.011
-22.922
-22.927
-23.021
-23.2
-23.459
-23.792
-24.195
-24.659
-25.178
-25.744
-26.349
-26.985
-27.642
-28.311
-28.982
-29.645
-30.292
-30.911
-31.492
-32.027
-32.504
-32.914
-33.247
-33.496
-33.649
-33.7
-33.64
-33.461
-33.157
-32.723
-32.155
-31.447
-30.597
-29.603
-28.464
-27.181
-25.754
-24.186
-22.48
-20.641
-18.674
-16.587
-14.388
-12.085
-9.691
-7.217
-4.679
-2.091
0.532
3.175
5.819
8.448
11.046
13.597
16.085
18.496
20.814
23.019
25.096
27.029
28.803
30.406
31.823
33.043
34.055
34.858
35.448
35.821
35.972
35.886
35.557
34.984
34.169
33.116
31.839
30.35
28.673
26.848
24.909
22.891
20.822
18.718
16.604
14.514
12.482
10.56
8.783
7.169
5.744
4.527
3.508
2.671
1.964
1.301
0.631
-0.098
-0.948
-1.958
-3.208
-4.782
-6.72
-9.105
-12.03
-15.524
-19.586
-24.103
-28.756
-33.227
-37.235
-40.415
-42.425
-43.021
-42.067
-39.829
-36.989
-34.229
-32.055
-30.911
-31.259
-33.428
-37.445
-42.148
-45.157
-44.257
-38.047
-26.873
-11.844
7.368
33.035
69.087
118.362
180.218
250.045
320.658
385.743
441.194
485.503
517.308
533.117
528.467
497.863
439.517
356.272
253.007
138.744
21.479
-91.204
-190.225
-270.542
-328.421
-363.352
-378.946
-377.363
-361.368
-334.3
-299.821
-264.432
-234.398
-212.917
-199.941
-192.158
-185.904
-179.456
-173.195
-169.037
-167.839
-169.045
-171.104
-171.499
-168.902
-163.223
-154.663
-143.969
-131.982
-119.239
-106.548
-94.971
-85.094
-77.183
-71.352
-67.392
-65.052
-64.15
-64.346
-65.204
-66.462
-67.96
-69.613
-71.436
-73.384
-75.339
-77.182
-78.804
-80.117
-81.066
-81.609
-81.701
-81.328
-80.508
-79.285
-77.729
-75.892
-73.801
-71.473
-68.927
-66.205
-63.373
-60.521
-57.727
-55.043
-52.504
-50.134
-47.946
-45.948
-44.133
-42.47
-40.922
-39.464
-38.08
-36.765
-35.51
-34.294
-33.089
-31.858
-30.574
-29.222
-27.786
-26.258
-24.631
-22.902
-21.076
-19.171
-17.199
-15.174
-13.101
-10.988
-8.84
-6.67
-4.489
-2.309
-0.141
2.006
4.122
6.195
8.216
10.174
12.063
13.878
15.612
17.258
18.808
20.254
21.591
22.811
23.91
24.881
25.72
26.423
26.987
27.412
27.695
27.836
27.835
27.692
27.408
26.984
26.423
25.725
24.895
23.933
22.844
21.63
20.294
18.841
17.273
15.595
13.811
11.926
9.943
7.869
5.707
3.462
1.14
-1.255
-3.719
-6.246
-8.831
-11.471
-14.16
-16.894
-19.669
-22.481
-25.326
-28.199
-31.097
-34.017
-36.953
-39.901
-42.858
-45.819
-48.779
-51.733
-54.677
-57.605
-60.513
-63.394
-66.245
-69.06
-71.833
-74.56
-77.235
-79.854
-82.411
-84.901
-87.32
-89.662
-91.925
-94.102
-96.191
-98.186
-100.084
-101.881
-103.574
-105.159
-106.634
-107.994
-109.237
-110.362
-111.366
-112.249
-113.008
-113.645
-114.158
-114.548
-114.816
-114.964
-114.994
-114.908
-114.71
-114.401
-113.988
-113.472
-112.86
-112.157
-111.367
-110.496
-109.55
-108.536
-107.459
-106.327
-105.145
-103.921
-102.661
-101.372
-100.062
-98.738
-97.406
-96.074
-94.749
-93.437
-92.146
-90.88
-89.647
-88.451
-87.297
-86.191
-85.136
-84.136
-83.194
-82.313
-81.494
-80.74
-80.05
-79.425
-78.865
-78.367
-77.932
-77.556
-77.236
-76.969
-76.75
-76.577
-76.444
-76.347
-76.28
-76.239
-76.217
-76.21
-76.212
-76.216
-76.218
-76.21
-76.189
-76.148
-76.084
-75.991
-75.865
-75.703
-75.502
-75.26
-74.976
-74.648
-74.275
-73.859
-73.401
-72.903
-72.369
-71.803
-71.21
-70.597
-69.974
-69.349
-68.731
-68.132
-67.561
-67.03
-66.549
-66.128
-65.777
-65.502
-65.313
-65.219
-65.23
-65.357
-65.608
-65.99
-66.511
-67.18
-68.002
-68.978
-70.106
-71.383
-72.807
-74.381
-76.112
-78.001
-80.042
-82.228
-84.552
-86.995
-89.538
-92.149
-94.782
-97.396
-99.953
-102.423
-104.787
-107.014
-109.07
-110.92
-112.526
-113.864
-114.921
-115.676
-116.118
-116.266
-116.154
-115.851
-115.45
-115.01
-114.592
-114.267
-114.094
-114.158
-114.549
-115.311
-116.496
-118.17
-120.347
-123.011
-126.047
-129.154
-131.979
-134.209
-135.5
-135.512
-134.014
-130.877
-126.266
-120.732
-114.955
-109.48
-104.691
-101.059
-98.956
-98.323
-98.64
-98.254
-94.522
-86.007
-72.08
-52.575
-28.929
-0.061
36.661
82.178
138.02
201.492
266.475
328.95
384.221
429.683
464.151
482.774
479.417
447.932
384.622
291.179
175.506
49.375
-75.771
-188.31
-281.069
-351.794
-398.781
-424.582
-431.62
-420.629
-395.717
-361.385
-323.895
-290.377
-263.804
-243.582
-226.119
-208.042
-188.848
-170.119
-154.897
-144.802
-139.295
-137.215
-136.612
-135.788
-133.853
-130
-123.97
-116.091
-106.776
-96.462
-85.664
-74.917
-64.811
-56.043
-49.02
-43.756
-40.103
-37.784
-36.507
-36.059
-36.178
-36.536
-36.879
-37.029
-36.861
-36.334
-35.42
-34.085
-32.319
-30.133
-27.537
-24.558
-21.237
-17.622
-13.762
-9.695
-5.457
-1.091
3.339
7.748
12.064
16.234
20.225
24.019
27.599
30.953
34.083
37.011
39.769
42.39
44.904
47.326
49.68
51.993
54.299
56.643
59.057
61.564
64.182
66.926
69.806
72.834
76.012
79.33
82.782
86.36
90.058
93.875
97.806
101.84
105.967
110.176
114.457
118.8
123.196
127.634
132.103
136.592
141.092
145.595
150.091
154.57
159.019
163.427
167.782
172.073
176.288
180.415
184.444
188.364
192.166
195.843
199.385
202.786
206.039
209.139
212.081
214.861
217.476
219.923
222.202
224.31
226.247
228.013
229.608
231.031
232.283
233.366
234.28
235.028
235.612
236.036
236.304
236.419
236.387
236.212
235.898
235.452
234.879
234.184
233.375
232.457
231.439
230.328
229.132
227.858
226.514
225.109
223.65
222.145
220.602
219.029
217.437
215.832
214.226
212.629
211.05
209.503
207.998
206.549
205.166
203.861
202.647
201.535
200.532
199.648
198.889
198.261
197.773
197.433
197.247
197.225
197.375
197.706
198.225
198.939
199.852
200.963
202.269
203.764
205.446
207.315
209.374
211.628
214.077
216.714
219.527
222.501
225.609
228.815
232.079
235.355
238.607
241.814
244.965
248.065
251.11
254.088
256.973
259.723
262.315
264.748
267.017
269.115
271.053
272.834
274.507
276.184
277.873
279.481
280.903
281.97
282.621
282.969
283.026
282.689
282.024
281.196
280.398
279.964
279.859
279.591
278.857
277.514
275.296
271.974
267.253
260.631
252.144
242.427
231.899
220.834
209.53
198.132
186.931
176.467
166.871
157.845
149.233
140.944
132.933
125.324
118.089
111.016
104.062
97.336
90.915
84.897
79.322
74.131
69.322
64.947
61.029
57.578
54.588
52.029
49.89
48.184
46.928
46.141
45.835
46.015
46.676
47.806
49.404
51.464
53.983
56.969
60.416
64.317
68.672
73.471
78.707
84.379
90.47
96.966
103.875
111.209
119.008
127.322
136.172
145.555
155.456
165.82
176.584
187.681
199.016
210.518
222.129
233.786
245.457
257.115
268.715
280.203
291.496
302.481
313.083
323.258
332.979
342.278
351.207
359.826
368.234
376.509
384.703
392.862
400.988
409.038
416.971
424.754
432.378
439.884
447.293
454.574
461.687
468.544
475.039
481.1
486.615
491.443
495.527
498.867
501.576
503.981
506.441
509.222
512.617
516.896
522.205
528.67
536.187
544.231
552.193
559.582
565.964
570.949
574.253
575.677
575.399
574.94
576.709
582.659
594.026
609.879
627.862
647.742
671.584
703.9
749.64
808.966
877.251
946.62
1008.391
1057.76
1092.373
1109.704
1106.901
1077.556
1015.238
918.097
786.996
630.478
462.912
299.031
155.676
43.894
-33.83
-79.986
-102.833
-109.836
-104.463
-88.819
-64.567
-35.627
-7.79
14.365
29.327
39.184
46.848
53.825
59.66
62.058
59.807
53.484
44.615
35.632
28.154
22.935
20.647
20.784
21.724
22.114
20.476
17.717
17.897
22.383
30.095
34.974
24.382
-9.676
-70.187
-154.265
-248.472
-341.37
-424.198
-489.478
-539.417
-576.242
-601.65
-620.49
-631.822
-636.151
-637.146
-635.93
-637.1
-643.055
-650.896
-659.004
-664.57
-666.342
-666.964
-667.762
-669.312
-671.53
-672.913
-672.936
-671.87
-669.973
-667.699
-665.301
-662.87
-660.641
-658.767
-657.22
-655.881
-654.57
-653.149
-651.563
-649.742
-647.581
-644.949
-641.712
-637.794
-633.184
-627.875
-621.862
-615.141
-607.703
-599.577
-590.824
-581.503
-571.667
-561.365
-550.632
-539.516
-528.08
-516.387
-504.508
-492.5
-480.402
-468.253
-456.086
-443.935
-431.83
-419.791
-407.828
-395.953
-384.185
-372.543
-361.051
-349.727
-338.583
-327.635
-316.897
-306.385
-296.117
-286.106
-276.368
-266.916
-257.766
-248.932
-240.428
-232.266
-224.455
-217.001
-209.91
-203.186
-196.829
-190.842
-185.221
-179.965
-175.071
-170.532
-166.345
-162.501
-158.992
-155.809
-152.941
-150.377
-148.105
-146.111
-144.382
-142.905
-141.664
-140.645
-139.832
-139.21
-138.763
-138.474
-138.33
-138.313
-138.408
-138.601
-138.876
-139.22
-139.618
-140.059
-140.529
-141.016
-141.511
-142.003
-142.484
-142.945
-143.381
-143.784
-144.15
-144.475
-144.755
-144.988
-145.173
-145.308
-145.394
-145.431
-145.421
-145.365
-145.266
-145.127
-144.952
-144.744
-144.507
-144.246
-143.966
-143.671
-143.365
-143.054
-142.743
-142.435
-142.137
-141.851
-141.584
-141.338
-141.117
-140.926
-140.765
-140.638
-140.547
-140.492
-140.475
-140.495
-140.554
-140.651
-140.785
-140.955
-141.16
-141.398
-141.668
-141.967
-142.293
-142.643
-143.014
-143.405
-143.811
-144.231
-144.661
-145.097
-145.538
-145.979
-146.419
-146.852
-147.276
-147.687
-148.082
-148.458
-148.812
-149.141
-149.441
-149.71
-149.946
-150.146
-150.308
-150.428
-150.505
-150.535
-150.516
-150.448
-150.326
-150.15
-149.917
-149.626
-149.276
-148.865
-148.392
-147.855
-147.253
-146.585
-145.852
-145.052
-144.185
-143.252
-142.255
-141.193
-140.07
-138.888
-137.649
-136.356
-135.012
-133.621
-132.188
-130.715
-129.209
-127.674
-126.119
-124.552
-122.983
-121.419
-119.871
-118.347
-116.858
-115.412
-114.016
-112.675
-111.396
-110.184
-109.048
-107.995
-107.031
-106.162
-105.392
-104.726
-104.169
-103.721
-103.382
-103.146
-103.009
-102.971
-103.037
-103.215
-103.512
-103.924
-104.445
-105.069
-105.786
-106.581
-107.427
-108.285
-109.117
-109.893
-110.585
-111.174
-111.638
-111.943
-112.054
-111.934
-111.546
-110.883
-109.955
-108.765
-107.343
-105.726
-103.946
-102.108
-100.325
-98.667
-97.227
-96.077
-95.255
-94.882
-95.115
-95.996
-97.506
-99.607
-102.113
-104.723
-107.243
-109.402
-110.696
-111.371
-111.769
-111.389
-110.571
-108.601
-104.378
-99.943
-96.73
-96.563
-101.625
-109.177
-116.148
-119.74
-116.489
-106.546
-89.985
-65.975
-34.62
4.928
51.997
103.466
156.474
207.901
255.737
301.449
345.295
385.015
415.988
427.464
409.019
355.996
268.427
154.946
29.288
-96.211
-209.864
-303.032
-372.267
-418.107
-443.841
-454.729
-455.381
-445.924
-426.802
-400.294
-368.364
-336.611
-308.377
-282.198
-257.451
-232.472
-207.341
-185.392
-168.306
-156.678
-150.113
-146.841
-145.57
-145.315
-145.02
-143.886
-141.461
-137.692
-132.795
-126.988
-120.564
-113.923
-107.575
-102.163
-97.983
-94.915
-92.737
-91.178
-90.024
-89.129
-88.255
-87.042
-85.245
-82.778
-79.646
-75.945
-71.749
-67.072
-61.982
-56.596
-51.057
-45.528
-40.128
-34.91
-29.905
-25.14
-20.645
-16.459
-12.615
-9.105
-5.917
-3.039
-0.463
1.809
3.79
5.519
7.052
8.456
9.781
11.064
12.329
13.601
14.904
16.258
17.677
19.159
20.707
22.328
24.031
25.83
27.733
29.739
31.846
34.05
36.347
38.735
41.21
43.765
46.395
49.094
51.859
54.686
57.57
60.503
63.474
66.471
69.484
72.5
75.505
78.486
81.429
84.321
87.149
89.903
92.569
95.138
97.597
99.937
102.149
104.222
106.148
107.92
109.531
110.974
112.244
113.338
114.251
114.982
115.528
115.891
116.07
116.066
115.882
115.52
114.984
114.278
113.409
112.382
111.203
109.881
108.423
106.838
105.133
103.319
101.404
99.397
97.307
95.142
92.913
90.628
88.297
85.928
83.53
81.112
78.684
76.252
73.826
71.414
69.023
66.661
64.336
62.055
59.824
57.651
55.541
53.502
51.538
49.655
47.858
46.152
44.541
43.029
41.619
40.315
39.119
38.034
37.062
36.205
35.464
34.839
34.331
33.94
33.665
33.506
33.461
33.528
33.705
33.991
34.381
34.874
35.464
36.149
36.923
37.781
38.719
39.731
40.81
41.95
43.145
44.388
45.672
46.99
48.336
49.7
51.077
52.458
53.837
55.206
56.558
57.887
59.186
60.45
61.673
62.85
63.977
65.05
66.066
67.021
67.914
68.742
69.505
70.202
70.834
71.401
71.906
72.35
72.738
73.073
73.359
73.603
73.809
73.984
74.134
74.266
74.387
74.506
74.63
74.766
74.923
75.109
75.331
75.597
75.913
76.286
76.72
77.222
77.795
78.443
79.167
79.968
80.848
81.806
82.84
83.949
85.126
86.368
87.667
89.017
90.407
91.825
93.259
94.695
96.119
97.517
98.872
100.169
101.394
102.532
103.571
104.495
105.288
105.935
106.421
106.734
106.861
106.791
106.513
106.018
105.302
104.365
103.206
101.822
100.206
98.346
96.239
93.887
91.298
88.482
85.452
82.222
78.825
75.302
71.695
68.041
64.366
60.696
57.063
53.509
50.087
46.847
43.827
41.053
38.543
36.31
34.353
32.654
31.171
29.834
28.567
27.3
25.97
24.509
22.861
20.94
18.618
15.832
12.58
8.93
5.085
1.262
-2.357
-5.5
-7.817
-9.074
-9.104
-7.97
-6.152
-4.112
-2.237
-0.994
-0.705
-1.547
-3.619
-6.533
-9.183
-10.316
-8.549
-2.419
9.307
27.936
54.721
90.423
134.51
185.06
239.6
295.296
350.649
405.837
460.364
512.372
556.732
584.71
587.41
558.362
496.35
405.844
295.542
176.163
57.951
-49.387
-138.57
-205.655
-249.947
-274.133
-281.525
-275.009
-256.665
-229.534
-199.445
-172.067
-151.475
-137.85
-126.607
-113.905
-98.623
-81.97
-67.507
-57.471
-51.765
-49.39
-48.654
-48.125
-46.787
-44.097
-40.033
-34.776
-28.756
-22.367
-15.835
-9.597
-4.337
-0.52
1.63
2.171
1.405
-0.46
-3.138
-6.228
-9.396
-12.228
-14.87
-18.158
-21.848
-25.059
-26.345
-23.028
-15.351
-6.064
2.094
5.21
2.987
-1.058
-4.27
-3.711
1.062
7.28
13.246
17.781
20.505
22.514
24.319
25.891
27.272
28.297
28.926
29.333
29.61
29.783
29.912
30.051
30.221
30.442
30.725
31.059
31.454
31.926
32.478
33.109
33.83
34.646
35.57
36.61
37.766
39.035
40.413
41.898
43.487
45.178
46.968
48.853
50.831
52.901
55.062
57.311
59.64
62.042
64.507
67.026
69.587
72.18
74.791
77.407
80.018
82.61
85.173
87.695
90.164
92.569
94.898
97.14
99.284
101.318
103.233
105.018
106.664
108.161
109.503
110.681
111.69
112.522
113.174
113.641
113.918
114.004
113.896
113.593
113.095
112.403
111.519
110.446
109.188
107.749
106.134
104.348
102.398
100.289
98.029
95.625
93.084
90.414
87.623
84.72
81.715
78.617
75.435
72.179
68.86
65.487
62.07
58.619
55.146
51.659
48.169
44.685
41.218
37.777
34.371
31.008
27.698
24.447
21.264
18.155
15.127
12.187
9.339
6.591
3.946
1.41
-1.013
-3.319
-5.505
-7.569
-9.509
-11.322
-13.008
-14.567
-15.999
-17.304
-18.485
-19.543
-20.48
-21.3
-22.005
-22.601
-23.091
-23.48
-23.774
-23.977
-24.095
-24.135
-24.103
-24.004
-23.846
-23.635
-23.377
-23.081
-22.753
-22.4
-22.029
-21.648
-21.264
-20.884
-20.515
-20.163
-19.834
-19.534
-19.268
-19.042
-18.858
-18.721
-18.633
-18.597
-18.615
-18.686
-18.812
-18.992
-19.226
-19.511
-19.846
-20.228
-20.654
-21.12
-21.621
-22.152
-22.708
-23.283
-23.87
-24.463
-25.055
-25.639
-26.207
-26.751
-27.264
-27.737
-28.162
-28.532
-28.839
-29.076
-29.235
-29.313
-29.303
-29.2
-29.002
-28.705
-28.309
-27.812
-27.215
-26.518
-25.724
-24.835
-23.856
-22.792
-21.65
-20.436
-19.16
-17.833
-16.468
-15.076
-13.671
-12.266
-10.875
-9.512
-8.19
-6.922
-5.72
-4.597
-3.566
-2.645
-1.846
-1.183
-0.666
-0.308
-0.116
-0.102
-0.268
-0.613
-1.137
-1.841
-2.73
-3.815
-5.103
-6.592
-8.277
-10.149
-12.194
-14.398
-16.733
-19.156
-21.63
-24.117
-26.59
-29.034
-31.421
-33.718
-35.887
-37.876
-39.648
-41.183
-42.456
-43.453
-44.183
-44.663
-44.94
-45.091
-45.183
-45.284
-45.472
-45.807
-46.371
-47.239
-48.489
-50.241
-52.548
-55.382
-58.655
-62.137
-65.534
-68.588
-70.982
-72.328
-72.411
-71.153
-68.703
-65.632
-62.571
-60.083
-58.717
-58.809
-60.523
-63.87
-68.211
-72.251
-74.023
-70.889
-61.152
-43.954
-19.332
11.199
47.83
91.644
143.194
203.624
271.066
341.193
410.063
472.495
522.491
554.369
561.579
538.217
483.976
402.144
298.2
181.638
59.956
-59.102
-165.113
-251.423
-313.142
-349.194
-364.712
-364.115
-350.288
-325.729
-291.633
-251.789
-213.49
-182.397
-161.67
-150.754
-144.699
-139.905
-134.902
-130.111
-128.193
-129.9
-134.182
-139.197
-142.278
-142.232
-139.184
-133.448
-125.707
-116.615
-106.617
-96.528
-87.309
-79.484
-73.326
-68.882
-65.927
-64.24
-63.604
-63.64
-63.943
-64.25
-64.365
-64.211
-63.812
-63.171
-62.303
-61.235
-59.976
-58.507
-56.784
-54.766
-52.44
-49.815
-46.924
-43.821
-40.561
-37.214
-33.88
-30.625
-27.489
-24.498
-21.647
-18.936
-16.383
-14.002
-11.805
-9.798
-7.977
-6.336
-4.872
-3.566
-2.392
-1.311
-0.269
0.775
1.845
2.96
4.132
5.368
6.683
8.082
9.564
11.134
12.794
14.548
16.406
18.37
20.437
22.602
24.854
27.185
29.59
32.061
34.591
37.173
39.8
42.467
45.171
47.905
50.662
53.432
56.203
58.966
61.708
64.417
67.082
69.689
72.228
74.687
77.056
79.326
81.486
83.527
85.44
87.217
88.85
90.33
91.653
92.811
93.798
94.612
95.247
95.702
95.975
96.063
95.967
95.686
95.221
94.574
93.746
92.741
91.56
90.21
88.694
87.02
85.192
83.218
81.105
78.862
76.497
74.017
71.432
68.751
65.981
63.134
60.218
57.243
54.218
51.153
48.059
44.944
41.819
38.692
35.574
32.473
29.399
26.359
23.363
20.419
17.534
14.716
11.972
9.308
6.731
4.245
1.858
-0.428
-2.608
-4.677
-6.634
-8.474
-10.195
-11.797
-13.276
-14.633
-15.866
-16.976
-17.963
-18.828
-19.572
-20.197
-20.706
-21.1
-21.383
-21.559
-21.631
-21.604
-21.482
-21.27
-20.973
-20.597
-20.148
-19.63
-19.05
-18.414
-17.729
-17
-16.234
-15.437
-14.616
-13.776
-12.925
-12.069
-11.213
-10.365
-9.529
-8.711
-7.919
-7.156
-6.428
-5.741
-5.098
-4.503
-3.961
-3.475
-3.046
-2.678
-2.371
-2.126
-1.944
-1.825
-1.767
-1.769
-1.829
-1.945
-2.112
-2.327
-2.585
-2.882
-3.212
-3.569
-3.948
-4.342
-4.744
-5.147
-5.545
-5.93
-6.294
-6.631
-6.931
-7.188
-7.394
-7.542
-7.625
-7.636
-7.57
-7.421
-7.184
-6.855
-6.432
-5.912
-5.295
-4.579
-3.766
-2.858
-1.858
-0.771
0.398
1.641
2.95
4.314
5.721
7.162
8.622
10.09
11.552
12.994
14.405
15.772
17.084
18.326
19.483
20.541
21.484
22.301
22.979
23.505
23.868
24.058
24.074
23.912
23.568
23.036
22.301
21.355
20.197
18.827
17.251
15.481
13.53
11.421
9.19
6.869
4.49
2.078
-0.355
-2.788
-5.191
-7.533
-9.765
-11.85
-13.773
-15.508
-17.037
-18.374
-19.536
-20.572
-21.562
-22.55
-23.58
-24.711
-25.979
-27.451
-29.207
-31.29
-33.787
-36.813
-40.397
-44.516
-49.036
-53.624
-57.947
-61.714
-64.55
-66.103
-66.183
-64.757
-62.19
-59.224
-56.589
-54.874
-54.543
-55.944
-59.169
-63.894
-69.104
-73.153
-74.204
-70.494
-60.561
-43.101
-17.059
18.041
61.819
113.123
169.612
227.704
283.932
334.645
377.581
413.483
442.49
463.374
472.781
462.418
424.929
357.642
261.329
144.598
20.418
-99.592
-202.975
-281.719
-335.579
-367.435
-383.368
-389.892
-387.884
-375.16
-351.7
-319.182
-282.393
-248.958
-221.567
-198.854
-179.542
-160.832
-142.553
-127.555
-116.813
-110.664
-108.815
-109.19
-110.122
-110.578
-109.486
-106.517
-101.91
-95.919
-88.806
-81.002
-73.015
-65.442
-59.08
-54.38
-51.332
-49.8
-49.526
-50.226
-51.699
-53.652
-55.647
-57.394
-58.741
-59.584
-59.956
-59.874
-59.3
-58.253
-56.771
-54.891
-52.676
-50.189
-47.457
-44.531
-41.461
-38.305
-35.159
-32.096
-29.164
-26.411
-23.857
-21.515
-19.409
-17.539
-15.893
-14.456
-13.2
-12.094
-11.12
-10.252
-9.459
-8.708
-7.953
-7.159
-6.303
-5.365
-4.333
-3.196
-1.943
-0.57
0.918
2.517
4.225
6.036
7.953
9.972
12.086
14.287
16.566
18.915
21.327
23.795
26.311
28.868
31.458
34.075
36.712
39.363
42.017
44.665
47.296
49.9
52.466
54.982
57.437
59.821
62.124
64.335
66.446
68.449
70.334
72.095
73.722
75.211
76.554
77.745
78.779
79.651
80.356
80.892
81.256
81.444
81.455
81.287
80.94
80.412
79.705
78.82
77.757
76.52
75.111
73.534
71.794
69.894
67.841
65.64
63.298
60.822
58.218
55.495
52.661
49.723
46.691
43.574
40.381
37.121
33.804
30.441
27.042
23.617
20.178
16.733
13.294
9.872
6.477
3.12
-0.191
-3.444
-6.63
-9.74
-12.765
-15.696
-18.525
-21.245
-23.848
-26.327
-28.676
-30.889
-32.963
-34.891
-36.671
-38.301
-39.776
-41.097
-42.263
-43.273
-44.129
-44.831
-45.383
-45.787
-46.047
-46.168
-46.153
-46.009
-45.741
-45.356
-44.861
-44.261
-43.566
-42.781
-41.916
-40.978
-39.975
-38.915
-37.808
-36.662
-35.485
-34.287
-33.076
-31.861
-30.649
-29.45
-28.27
-27.118
-26
-24.923
-23.893
-22.915
-21.995
-21.137
-20.344
-19.619
-18.965
-18.382
-17.871
-17.434
-17.068
-16.774
-16.549
-16.393
-16.302
-16.274
-16.305
-16.392
-16.529
-16.711
-16.934
-17.191
-17.474
-17.777
-18.093
-18.415
-18.734
-19.043
-19.335
-19.602
-19.835
-20.028
-20.174
-20.265
-20.294
-20.257
-20.148
-19.962
-19.697
-19.348
-18.915
-18.395
-17.788
-17.096
-16.317
-15.455
-14.511
-13.49
-12.395
-11.231
-10.006
-8.725
-7.399
-6.038
-4.654
-3.26
-1.866
-0.488
0.863
2.173
3.428
4.62
5.736
6.766
7.696
8.514
9.207
9.765
10.179
10.44
10.541
10.474
10.237
9.833
9.264
8.529
7.623
6.535
5.262
3.808
2.178
0.383
-1.562
-3.641
-5.823
-8.068
-10.334
-12.588
-14.804
-16.963
-19.039
-20.999
-22.799
-24.394
-25.756
-26.868
-27.713
-28.296
-28.629
-28.745
-28.708
-28.594
-28.476
-28.432
-28.525
-28.822
-29.41
-30.349
-31.724
-33.644
-36.128
-39.145
-42.59
-46.192
-49.663
-52.768
-55.188
-56.58
-56.756
-55.605
-53.299
-50.419
-47.506
-44.965
-43.107
-42.168
-42.357
-43.732
-45.825
-47.027
-45.112
-38.279
-25.626
-8.018
12.889
36.888
65.784
103.167
152.05
211.986
278.241
343.536
402.028
450.598
488.669
515.718
527.637
517.722
479.316
408.951
308.481
186.068
53.82
-75.175
-187.672
-275.199
-334.695
-367.146
-377.388
-370.366
-350.724
-323.166
-293.316
-266.536
-245.195
-228.853
-213.323
-194.559
-172.194
-148.246
-126.681
-110.323
-99.218
-92.08
-87.215
-83.418
-79.987
-76.347
-71.912
-66.34
-59.763
-52.507
-44.849
-37.102
-29.645
-22.955
-17.661
-14.08
-12.141
-11.641
-12.257
-13.706
-15.774
-18.131
-20.395
-22.298
-23.668
-24.441
-24.654
-24.313
-23.407
-21.964
-20.025
-17.659
-14.95
-11.966
-8.778
-5.46
-2.088
1.237
4.428
7.426
10.173
12.645
14.834
16.727
18.325
19.643
20.695
21.507
22.116
22.549
22.84
23.029
23.157
23.274
23.426
23.643
23.95
24.366
24.904
25.576
26.391
27.347
28.446
29.689
31.075
32.609
34.292
36.119
38.085
40.184
42.407
44.749
47.203
49.763
52.42
55.166
57.995
60.899
63.87
66.898
69.971
73.075
76.197
79.325
82.445
85.542
88.602
91.611
94.557
97.427
100.209
102.89
105.459
107.905
110.217
112.384
114.398
116.248
117.927
119.426
120.739
121.861
122.786
123.51
124.028
124.339
124.441
124.333
124.014
123.485
122.748
121.805
120.658
119.312
117.772
116.041
114.127
112.034
109.771
107.345
104.763
102.033
99.165
96.166
93.047
89.817
86.485
83.064
79.562
75.992
72.364
68.689
64.979
61.246
57.5
53.754
50.017
46.302
42.618
38.977
35.389
31.864
28.412
25.041
21.762
18.582
15.511
12.555
9.721
7.018
4.45
2.022
-0.259
-2.392
-4.371
-6.195
-7.861
-9.37
-10.72
-11.912
-12.949
-13.831
-14.563
-15.148
-15.59
-15.896
-16.07
-16.119
-16.051
-15.872
-15.59
-15.214
-14.752
-14.213
-13.607
-12.944
-12.233
-11.484
-10.709
-9.916
-9.118
-8.323
-7.542
-6.785
-6.062
-5.38
-4.75
-4.18
-3.677
-3.247
-2.898
-2.634
-2.46
-2.379
-2.395
-2.509
-2.721
-3.032
-3.441
-3.948
-4.549
-5.241
-6.022
-6.887
-7.83
-8.847
-9.93
-11.072
-12.266
-13.502
-14.773
-16.069
-17.381
-18.701
-20.017
-21.32
-22.603
-23.854
-25.064
-26.226
-27.329
-28.367
-29.332
-30.219
-31.022
-31.736
-32.358
-32.886
-33.319
-33.658
-33.903
-34.055
-34.118
-34.096
-33.994
-33.818
-33.575
-33.272
-32.922
-32.534
-32.124
-31.703
-31.285
-30.884
-30.514
-30.192
-29.929
-29.738
-29.63
-29.618
-29.714
-29.934
-30.291
-30.793
-31.452
-32.277
-33.275
-34.455
-35.817
-37.357
-39.072
-40.962
-43.029
-45.282
-47.72
-50.338
-53.127
-56.075
-59.168
-62.387
-65.703
-69.074
-72.462
-75.829
-79.151
-82.409
-85.571
-88.6
-91.454
-94.083
-96.461
-98.567
-100.376
-101.88
-103.086
-104.013
-104.709
-105.231
-105.63
-105.965
-106.298
-106.695
-107.238
-107.99
-109.045
-110.531
-112.485
-114.888
-117.631
-120.445
-123.071
-125.301
-126.844
-127.375
-126.712
-124.778
-121.867
-118.641
-115.644
-113.317
-111.987
-111.844
-113.067
-115.588
-118.559
-120.561
-120.133
-115.723
-106.193
-90.692
-67.991
-37.179
1.657
47.907
99.695
153.56
206.622
255.966
299.585
338.619
373.235
401.636
419.613
417.445
386.35
322.648
227.082
109.45
-16.118
-137.173
-240.69
-319.18
-372.536
-402.771
-416.559
-421.345
-419.378
-411.482
-397.24
-375.207
-347.124
-316.247
-285.285
-257.145
-233.836
-216.073
-203.863
-196.593
-193.216
-192.576
-193.781
-195.893
-197.565
-197.573
-195.273
-190.521
-183.693
-175.47
-166.397
-157.021
-148.133
-140.526
-134.68
-130.758
-128.627
-127.951
-128.424
-129.812
-131.818
-134.121
-136.512
-138.866
-141.103
-143.195
-145.081
-146.654
-147.86
-148.68
-149.09
-149.114
-148.797
-148.203
-147.456
-146.648
-145.817
-144.987
-144.147
-143.267
-142.342
-141.36
-140.289
-139.138
-137.9
-136.561
-135.126
-133.55
-131.753
-129.631
-127.036
-123.851
-120.013
-115.48
-110.241
-104.322
-97.751
-90.592
-82.95
-74.893
-66.476
-57.751
-48.737
-39.485
-30.076
-20.595
-11.156
-1.859
7.232
16.061
24.582
32.782
40.661
48.25
55.621
62.819
69.865
76.77
83.522
90.118
96.567
102.874
109.048
115.093
121.008
126.792
132.446
137.959
143.308
148.456
153.349
157.947
162.225
166.164
169.757
172.997
175.879
178.404
180.58
182.416
183.917
185.087
185.927
186.445
186.65
186.557
186.184
185.546
184.657
183.531
182.182
180.621
178.862
176.915
174.786
172.485
170.023
167.413
164.668
161.8
158.821
155.746
152.587
149.357
146.069
142.732
139.357
135.954
132.532
129.099
125.666
122.239
118.826
115.436
112.076
108.754
105.476
102.249
99.079
95.974
92.937
89.977
87.096
84.302
81.598
78.989
76.481
74.076
71.779
69.591
67.516
65.555
63.709
61.98
60.366
58.869
57.486
56.218
55.064
54.021
53.088
52.263
51.543
50.924
50.403
49.975
49.638
49.385
49.211
49.111
49.079
49.11
49.195
49.329
49.505
49.716
49.953
50.21
50.48
50.754
51.027
51.291
51.54
51.766
51.965
52.131
52.258
52.342
52.378
52.362
52.293
52.166
51.98
51.734
51.428
51.061
50.634
50.149
49.607
49.011
48.365
47.672
46.937
46.164
45.361
44.533
43.687
42.832
41.974
41.124
40.288
39.475
38.694
37.954
37.263
36.629
36.061
35.566
35.152
34.826
34.593
34.461
34.433
34.513
34.704
35.008
35.428
35.962
36.609
37.368
38.236
39.21
40.284
41.452
42.707
44.041
45.443
46.903
48.408
49.943
51.493
53.042
54.574
56.072
57.52
58.9
60.197
61.396
62.485
63.448
64.27
64.936
65.431
65.745
65.866
65.784
65.491
64.978
64.242
63.288
62.114
60.723
59.109
57.262
55.181
52.872
50.344
47.611
44.691
41.603
38.382
35.075
31.723
28.366
25.035
21.751
18.546
15.46
12.539
9.834
7.377
5.192
3.295
1.691
0.366
-0.707
-1.588
-2.352
-3.066
-3.805
-4.631
-5.603
-6.802
-8.292
-10.158
-12.509
-15.365
-18.695
-22.388
-26.191
-29.83
-33.065
-35.568
-36.99
-37.13
-35.882
-33.43
-30.315
-27.021
-23.986
-21.596
-20.035
-19.506
-20.103
-21.235
-21.817
-20.237
-14.201
-2.622
14.845
38.155
65.72
98.136
137.166
183.31
237.892
298.315
359.196
417.26
468.192
509.377
538.966
551.044
539.526
499.625
429.433
332.757
217.668
94.065
-27.666
-137.122
-226.293
-290.368
-328.526
-344.851
-345.509
-336.384
-320.973
-300.644
-275.759
-246.318
-214.202
-181.969
-152.05
-127.367
-109.374
-97.87
-92.124
-90.78
-92.349
-95.872
-100.319
-104.183
-106.163
-105.608
-102.413
-96.991
-90.048
-82.155
-73.873
-66.052
-59.516
-54.712
-51.777
-50.544
-50.629
-51.702
-53.47
-55.532
-57.506
-59.166
-60.381
-61.128
-61.445
-61.307
-60.688
-59.597
-58.057
-56.099
-53.759
-51.06
-48.051
-44.821
-41.469
-38.101
-34.794
-31.586
-28.509
-25.584
-22.833
-20.284
-17.95
-15.83
-13.925
-12.233
-10.745
-9.458
-8.348
-7.373
-6.49
-5.649
-4.813
-3.961
-3.075
-2.138
-1.142
-0.077
1.063
2.272
3.551
4.904
6.336
7.85
9.448
11.124
12.873
14.687
16.56
18.487
20.463
22.481
24.537
26.629
28.752
30.905
33.085
35.285
37.498
39.716
41.931
44.135
46.319
48.472
50.586
52.652
54.662
56.608
58.482
60.279
61.989
63.608
65.128
66.543
67.848
69.038
70.108
71.053
71.869
72.554
73.104
73.518
73.793
73.927
73.92
73.769
73.476
73.039
72.46
71.739
70.878
69.879
68.746
67.481
66.089
64.575
62.942
61.196
59.342
57.386
55.334
53.191
50.963
48.658
46.281
43.84
41.341
38.79
36.196
33.565
30.905
28.222
25.524
22.817
20.11
17.409
14.722
12.055
9.415
6.81
4.245
1.727
-0.737
-3.143
-5.485
-7.757
-9.955
-12.074
-14.111
-16.062
-17.925
-19.695
-21.372
-22.952
-24.435
-25.819
-27.104
-28.289
-29.374
-30.359
-31.245
-32.033
-32.724
-33.321
-33.825
-34.238
-34.563
-34.804
-34.963
-35.045
-35.053
-34.992
-34.866
-34.68
-34.438
-34.147
-33.811
-33.436
-33.028
-32.592
-32.133
-31.659
-31.173
-30.682
-30.19
-29.705
-29.229
-28.77
-28.331
-27.916
-27.532
-27.181
-26.867
-26.594
-26.365
-26.181
-26.047
-25.962
-25.928
-25.945
-26.014
-26.133
-26.302
-26.519
-26.782
-27.087
-27.432
-27.811
-28.221
-28.657
-29.112
-29.58
-30.054
-30.527
-30.991
-31.441
-31.868
-32.263
-32.62
-32.931
-33.187
-33.382
-33.507
-33.555
-33.519
-33.393
-33.17
-32.847
-32.419
-31.881
-31.231
-30.468
-29.591
-28.6
-27.497
-26.282
-24.96
-23.535
-22.013
-20.4
-18.704
-16.935
-15.103
-13.223
-11.307
-9.372
-7.431
-5.5
-3.595
-1.734
0.07
1.802
3.449
4.998
6.431
7.732
8.887
9.882
10.704
11.341
11.783
12.017
12.042
11.856
11.461
10.854
10.031
8.976
7.685
6.159
4.401
2.42
0.228
-2.159
-4.711
-7.384
-10.137
-12.93
-15.732
-18.525
-21.277
-23.955
-26.516
-28.906
-31.088
-33.039
-34.731
-36.15
-37.306
-38.217
-38.936
-39.542
-40.108
-40.709
-41.432
-42.35
-43.547
-45.087
-47.058
-49.586
-52.738
-56.512
-60.799
-65.335
-69.843
-74.082
-77.724
-80.368
-81.711
-81.579
-80.178
-78.15
-76.084
-74.459
-73.819
-74.579
-76.983
-81.155
-85.845
-89.031
-89.521
-85.69
-77.07
-63.459
-41.769
-9.769
33.942
89.474
152.048
216.834
280.721
341.395
399.229
453.312
498.25
526.437
529.568
501.052
441.332
355.829
251.347
137.329
20.753
-92.317
-193.168
-275.745
-335.644
-371.163
-385.792
-383.967
-369.251
-345.582
-317.102
-287.24
-259.922
-236.751
-215.829
-195.908
-176.023
-156.889
-141.239
-130.217
-124.01
-121.813
-121.713
-122.394
-122.578
-121.03
-117.381
-111.634
-103.999
-95.031
-85.217
-75.005
-65.172
-56.542
-49.591
-44.499
-41.164
-39.271
-38.54
-38.762
-39.623
-40.764
-41.932
-42.926
-43.653
-44.113
-44.272
-44.088
-43.549
-42.65
-41.397
-39.819
-37.94
-35.797
-33.448
-30.932
-28.297
-25.593
-22.874
-20.216
-17.679
-15.299
-13.111
-11.135
-9.386
-7.882
-6.623
-5.586
-4.748
-4.079
-3.545
-3.124
-2.787
-2.498
-2.221
-1.91
-1.529
-1.055
-0.467
0.255
1.125
2.157
3.356
4.719
6.242
7.925
9.763
11.758
13.903
16.191
18.613
21.159
23.817
26.578
29.434
32.371
35.38
38.447
41.564
44.718
47.899
51.093
54.286
57.462
60.606
63.703
66.737
69.692
72.554
75.308
77.94
80.439
82.793
84.99
87.021
88.876
90.546
92.025
93.305
94.381
95.247
95.901
96.34
96.56
96.561
96.343
95.905
95.249
94.376
93.29
91.994
90.492
88.79
86.893
84.809
82.545
80.108
77.508
74.754
71.856
68.823
65.666
62.395
59.022
55.556
52.009
48.391
44.714
40.989
37.226
33.437
29.632
25.823
22.021
18.237
14.482
10.766
7.1
3.494
-0.042
-3.499
-6.866
-10.136
-13.3
-16.351
-19.28
-22.081
-24.747
-27.274
-29.656
-31.889
-33.969
-35.892
-37.657
-39.26
-40.702
-41.98
-43.094
-44.046
-44.835
-45.463
-45.932
-46.245
-46.405
-46.416
-46.283
-46.012
-45.607
-45.076
-44.425
-43.662
-42.793
-41.827
-40.772
-39.637
-38.43
-37.161
-35.837
-34.468
-33.063
-31.631
-30.181
-28.721
-27.261
-25.809
-24.372
-22.96
-21.579
-20.238
-18.943
-17.702
-16.52
-15.404
-14.359
-13.39
-12.501
-11.694
-10.974
-10.341
-9.796
-9.339
-8.971
-8.69
-8.492
-8.377
-8.341
-8.379
-8.487
-8.66
-8.891
-9.173
-9.501
-9.866
-10.26
-10.676
-11.104
-11.536
-11.964
-12.379
-12.771
-13.132
-13.453
-13.724
-13.938
-14.085
-14.158
-14.149
-14.052
-13.861
-13.571
-13.178
-12.679
-12.072
-11.356
-10.531
-9.598
-8.561
-7.422
-6.186
-4.859
-3.449
-1.965
-0.414
1.19
2.836
4.508
6.194
7.878
9.544
11.177
12.76
14.277
15.715
17.059
18.294
19.406
20.378
21.195
21.844
22.311
22.586
22.657
22.517
22.158
21.583
20.791
19.783
18.557
17.105
15.423
13.519
11.396
9.065
6.545
3.853
1.018
-1.916
-4.912
-7.931
-10.94
-13.921
-16.844
-19.674
-22.373
-24.892
-27.191
-29.249
-31.035
-32.528
-33.739
-34.683
-35.406
-35.991
-36.485
-36.942
-37.431
-37.999
-38.725
-39.697
-40.955
-42.574
-44.659
-47.226
-50.265
-53.666
-57.11
-60.268
-62.881
-64.611
-65.123
-64.215
-61.78
-58.06
-53.719
-49.479
-45.855
-43.17
-41.827
-42.129
-43.951
-46.65
-48.331
-46.148
-38.665
-25.309
-6.021
17.521
46.472
83.516
129.375
185.729
249.998
316.156
380.638
438.771
487.315
524.191
543.547
538.98
505.305
440.511
348.172
236.122
114.498
-6.705
-118.205
-212.151
-283.511
-331.104
-357.721
-368.607
-369.591
-363.55
-350.816
-331.464
-305.177
-273.464
-239.379
-205.52
-174.475
-148.39
-128.303
-114.181
-105.391
-100.941
-99.683
-100.806
-103.363
-105.841
-106.886
-105.812
-102.474
-97.274
-90.848
-83.636
-76.122
-69.062
-63.224
-59.07
-56.699
-55.889
-56.231
-57.341
-58.93
-60.676
-62.223
-63.346
-63.906
-63.824
-63.136
-61.888
-60.095
-57.808
-55.087
-51.965
-48.518
-44.842
-41.034
-37.224
-33.508
-29.932
-26.544
-23.379
-20.465
-17.843
-15.526
-13.498
-11.753
-10.284
-9.084
-8.153
-7.463
-6.965
-6.605
-6.327
-6.083
-5.845
-5.585
-5.276
-4.901
-4.441
-3.888
-3.245
-2.508
-1.667
-0.713
0.365
1.57
2.902
4.359
5.937
7.635
9.449
11.377
13.413
15.554
17.799
20.144
22.588
25.128
27.755
30.461
33.237
36.073
38.956
41.875
44.817
47.768
50.716
53.648
56.553
59.419
62.233
64.984
67.661
70.252
72.748
75.137
77.409
79.555
81.567
83.435
85.152
86.71
88.104
89.327
90.373
91.238
91.918
92.408
92.706
92.811
92.72
92.433
91.952
91.277
90.411
89.357
88.12
86.703
85.112
83.352
81.429
79.348
77.117
74.743
72.233
69.595
66.837
63.968
60.995
57.93
54.78
51.556
48.269
44.929
41.546
38.132
34.699
31.257
27.819
24.396
21
17.643
14.334
11.087
7.91
4.814
1.81
-1.095
-3.89
-6.569
-9.124
-11.547
-13.832
-15.974
-17.967
-19.806
-21.488
-23.009
-24.367
-25.56
-26.586
-27.445
-28.139
-28.667
-29.033
-29.24
-29.292
-29.194
-28.952
-28.572
-28.061
-27.429
-26.684
-25.834
-24.89
-23.862
-22.761
-21.598
-20.382
-19.126
-17.839
-16.533
-15.218
-13.905
-12.602
-11.321
-10.071
-8.862
-7.701
-6.596
-5.556
-4.588
-3.696
-2.888
-2.166
-1.535
-0.997
-0.554
-0.206
0.047
0.207
0.277
0.259
0.161
-0.014
-0.259
-0.564
-0.921
-1.321
-1.754
-2.209
-2.677
-3.147
-3.606
-4.045
-4.451
-4.815
-5.125
-5.369
-5.538
-5.621
-5.609
-5.493
-5.267
-4.921
-4.45
-3.85
-3.117
-2.248
-1.242
-0.098
1.183
2.596
4.139
5.805
7.586
9.474
11.455
13.517
15.644
17.819
20.026
22.246
24.462
26.655
28.805
30.897
32.913
34.837
36.649
38.33
39.859
41.221
42.4
43.379
44.146
44.686
44.99
45.057
44.882
44.461
43.786
42.84
41.618
40.119
38.348
36.315
34.035
31.523
28.81
25.942
22.962
19.911
16.823
13.716
10.623
7.586
4.649
1.873
-0.705
-3.062
-5.172
-7.021
-8.614
-9.97
-11.136
-12.197
-13.217
-14.267
-15.418
-16.724
-18.265
-20.11
-22.337
-25.072
-28.357
-32.165
-36.409
-40.861
-45.256
-49.366
-52.853
-55.296
-56.447
-56.151
-54.502
-52.017
-49.149
-46.298
-43.95
-42.456
-42.042
-42.79
-44.194
-45.072
-44.169
-40.028
-31.15
-16.374
5.666
36.201
75.613
123.688
178.97
238.296
298.499
356.322
409.352
458.012
501.851
538.599
563.838
567.849
541.702
481.446
387.639
270.054
142.998
18.435
-92.485
-184.488
-258.286
-313.172
-349.404
-366.506
-360.806
-333.907
-292.115
-244.039
-202.16
-173.68
-158.446
-152.862
-148.982
-141.741
-131.709
-120.834
-113.539
-112.271
-114.231
-116.505
-115.206
-107.289
-94.981
-80.434
-65.747
-53.684
-43.586
-34.925
-28.035
-22.313
-18.306
-16.512
-16.489
-17.969
-20.516
-23.502
-26.655
-29.836
-32.829
-35.532
-37.868
-39.715
-41.028
-41.814
-42.046
-41.712
-40.827
-39.393
-37.465
-35.132
-32.479
-29.61
-26.619
-23.585
-20.61
-17.777
-15.15
-12.79
-10.725
-8.966
-7.53
-6.417
-5.611
-5.099
-4.851
-4.829
-5.003
-5.335
-5.785
-6.314
-6.871
-7.416
-7.921
-8.359
-8.712
-8.967
-9.109
-9.129
-9.028
-8.802
-8.448
-7.966
-7.35
-6.597
-5.711
-4.694
-3.551
-2.287
-0.906
0.588
2.191
3.896
5.697
7.589
9.568
11.625
13.752
15.939
18.173
20.443
22.736
25.04
27.341
29.625
31.881
34.095
36.255
38.351
40.37
42.3
44.13
45.851
47.452
48.923
50.255
51.44
52.471
53.339
54.041
54.571
54.924
55.096
55.086
54.892
54.512
53.947
53.197
52.265
51.152
49.864
48.405
46.779
44.993
43.054
40.969
38.746
36.393
33.919
31.333
28.644
25.863
22.998
20.061
17.061
14.01
10.918
7.797
4.658
1.511
-1.632
-4.76
-7.863
-10.928
-13.947
-16.908
-19.801
-22.618
-25.348
-27.982
-30.514
-32.934
-35.237
-37.415
-39.462
-41.375
-43.147
-44.776
-46.259
-47.592
-48.774
-49.805
-50.683
-51.408
-51.983
-52.408
-52.686
-52.82
-52.814
-52.672
-52.398
-52
-51.482
-50.852
-50.117
-49.285
-48.364
-47.362
-46.288
-45.152
-43.962
-42.729
-41.461
-40.168
-38.859
-37.543
-36.229
-34.926
-33.642
-32.385
-31.163
-29.982
-28.85
-27.772
-26.754
-25.801
-24.916
-24.102
-23.363
-22.701
-22.115
-21.606
-21.174
-20.816
-20.531
-20.315
-20.164
-20.074
-20.039
-20.053
-20.109
-20.201
-20.319
-20.457
-20.605
-20.754
-20.896
-21.022
-21.122
-21.189
-21.214
-21.187
-21.102
-20.951
-20.725
-20.418
-20.025
-19.539
-18.957
-18.276
-17.491
-16.602
-15.609
-14.513
-13.315
-12.018
-10.627
-9.145
-7.581
-5.941
-4.234
-2.47
-0.659
1.185
3.048
4.914
6.769
8.596
10.379
12.102
13.748
15.302
16.751
18.081
19.28
20.332
21.224
21.94
22.471
22.806
22.935
22.85
22.544
22.015
21.266
20.3
19.118
17.719
16.092
14.238
12.161
9.87
7.377
4.7
1.855
-1.126
-4.197
-7.32
-10.452
-13.56
-16.627
-19.617
-22.494
-25.215
-27.725
-29.986
-31.978
-33.675
-35.065
-36.157
-36.966
-37.538
-37.95
-38.267
-38.567
-38.932
-39.429
-40.143
-41.153
-42.548
-44.466
-46.952
-49.969
-53.414
-57.047
-60.611
-63.906
-66.616
-68.342
-68.895
-68.193
-66.397
-64.09
-61.732
-59.671
-58.389
-58.187
-59.086
-61.034
-63.488
-65.208
-65.052
-61.236
-51.294
-33.658
-7.525
25.933
63.754
103.901
146.023
192.561
246.483
308.464
376.496
444.202
503.911
548.104
568.925
560.735
519.666
445.048
340.618
214.503
78.563
-54.288
-171.071
-263.116
-327.503
-365.664
-382.89
-383.417
-369.397
-342.446
-305.396
-264.622
-227.287
-198.588
-179.284
-165.186
-152.195
-138.442
-124.656
-114.205
-109.036
-108.718
-111.638
-115.022
-116.786
-116.038
-112.495
-106.477
-98.472
-89.003
-78.724
-68.375
-58.755
-50.601
-44.316
-39.988
-37.497
-36.563
-36.882
-38.127
-39.925
-41.899
-43.771
-45.39
-46.683
-47.627
-48.18
-48.297
-47.96
-47.178
-45.968
-44.344
-42.33
-39.954
-37.265
-34.341
-31.256
-28.091
-24.93
-21.836
-18.854
-16.028
-13.389
-10.96
-8.759
-6.789
-5.037
-3.491
-2.134
-0.941
0.111
1.056
1.932
2.78
3.643
4.556
5.542
6.624
7.818
9.135
10.585
12.174
13.896
15.751
17.737
19.855
22.104
24.479
26.974
29.58
32.289
35.089
37.974
40.934
43.96
47.042
50.172
53.34
56.538
59.758
62.986
66.212
69.422
72.602
75.741
78.823
81.837
84.768
87.605
90.336
92.952
95.441
97.794
100.001
102.056
103.948
105.673
107.222
108.59
109.771
110.762
111.559
112.16
112.562
112.765
112.768
112.571
112.176
111.584
110.799
109.822
108.659
107.314
105.793
104.1
102.244
100.231
98.068
95.763
93.325
90.762
88.083
85.297
82.412
79.437
76.383
73.259
70.075
66.84
63.564
60.259
56.934
53.6
50.266
46.944
43.643
40.374
37.145
33.967
30.849
27.801
24.83
21.947
19.158
16.472
13.897
11.438
9.104
6.9
4.832
2.904
1.123
-0.509
-1.988
-3.309
-4.471
-5.471
-6.309
-6.983
-7.493
-7.84
-8.025
-8.051
-7.919
-7.633
-7.196
-6.614
-5.89
-5.031
-4.042
-2.93
-1.702
-0.365
1.072
2.602
4.216
5.905
7.66
9.472
11.331
13.229
15.155
17.1
19.054
21.008
22.952
24.878
26.776
28.638
30.456
32.222
33.928
35.569
37.138
38.631
40.042
41.367
42.603
43.748
44.799
45.756
46.618
47.387
48.063
48.648
49.147
49.562
49.898
50.16
50.352
50.481
50.552
50.572
50.549
50.488
50.397
50.284
50.156
50.022
49.887
49.76
49.646
49.552
49.483
49.444
49.439
49.472
49.544
49.658
49.815
50.014
50.254
50.531
50.843
51.184
51.548
51.926
52.308
52.684
53.043
53.374
53.665
53.903
54.075
54.171
54.18
54.09
53.888
53.561
53.095
52.479
51.701
50.751
49.619
48.297
46.778
45.063
43.154
41.048
38.745
36.236
33.516
30.592
27.467
24.152
20.664
17.019
13.245
9.385
5.476
1.554
-2.35
-6.218
-10.025
-13.739
-17.326
-20.74
-23.945
-26.925
-29.651
-32.102
-34.29
-36.226
-37.954
-39.558
-41.086
-42.589
-44.132
-45.75
-47.508
-49.481
-51.7
-54.228
-57.138
-60.442
-64.135
-68.132
-72.163
-75.935
-79.18
-81.56
-82.781
-82.623
-80.919
-77.829
-73.869
-69.672
-65.807
-62.647
-60.528
-59.779
-60.538
-62.417
-63.818
-62.24
-55.704
-43.2
-25.498
-4.497
19.784
48.921
86.018
134.389
193.471
259.719
327.522
390.659
444.873
486.028
509.497
509.463
479.689
417.836
325.792
210.7
84.371
-41.32
-154.823
-247.482
-316.188
-361.934
-389.278
-402.534
-403.13
-390.88
-365.519
-330.96
-295.219
-265.011
-243.985
-230.345
-217.719
-202.461
-184.214
-164.862
-148.593
-137.325
-130.538
-127.177
-125.281
-123.246
-120.328
-116.231
-111.08
-105.186
-98.867
-92.36
-85.959
-80.241
-75.847
-73.134
-72.179
-72.809
-74.673
-77.464
-80.913
-84.631
-88.204
-91.325
-93.769
-95.437
-96.34
-96.474
-95.833
-94.444
-92.356
-89.628
-86.345
-82.579
-78.411
-73.941
-69.274
-64.532
-59.821
-55.219
-50.802
-46.617
-42.692
-39.048
-35.691
-32.614
-29.811
-27.267
-24.956
-22.856
-20.935
-19.154
-17.474
-15.845
-14.226
-12.588
-10.907
-9.169
-7.365
-5.485
-3.529
-1.503
0.593
2.757
4.987
7.285
9.65
12.078
14.564
17.1
19.682
22.305
24.965
27.659
30.383
33.134
35.909
38.706
41.522
44.351
47.186
50.016
52.835
55.632
58.397
61.12
63.79
66.397
68.932
71.384
73.744
76.004
78.152
80.181
82.082
83.845
85.463
86.929
88.234
89.371
90.335
91.119
91.718
92.127
92.341
92.355
92.168
91.775
91.175
90.367
89.35
88.124
86.69
85.052
83.212
81.173
78.941
76.52
73.917
71.137
68.19
65.081
61.819
58.414
54.874
51.209
47.429
43.545
39.569
35.51
31.382
27.197
22.965
18.701
14.417
10.126
5.84
1.574
-2.66
-6.849
-10.979
-15.039
-19.015
-22.897
-26.672
-30.331
-33.862
-37.256
-40.504
-43.598
-46.53
-49.293
-51.882
-54.292
-56.517
-58.554
-60.402
-62.057
-63.52
-64.789
-65.867
-66.754
-67.454
-67.969
-68.303
-68.463
-68.453
-68.281
-67.954
-67.48
-66.869
-66.129
-65.271
-64.305
-63.242
-62.093
-60.869
-59.582
-58.242
-56.861
-55.45
-54.02
-52.581
-51.145
-49.72
-48.317
-46.944
-45.61
-44.321
-43.086
-41.91
-40.798
-39.756
-38.787
-37.894
-37.08
-36.346
-35.693
-35.119
-34.625
-34.207
-33.863
-33.587
-33.375
-33.221
-33.118
-33.06
-33.039
-33.047
-33.076
-33.118
-33.164
-33.206
-33.236
-33.244
-33.223
-33.164
-33.059
-32.903
-32.689
-32.411
-32.064
-31.645
-31.149
-30.575
-29.922
-29.188
-28.375
-27.482
-26.514
-25.474
-24.366
-23.197
-21.974
-20.706
-19.406
-18.085
-16.757
-15.433
-14.129
-12.858
-11.636
-10.476
-9.388
-8.386
-7.482
-6.689
-6.021
-5.49
-5.107
-4.88
-4.818
-4.931
-5.225
-5.701
-6.359
-7.196
-8.214
-9.418
-10.818
-12.416
-14.208
-16.187
-18.344
-20.668
-23.142
-25.739
-28.417
-31.138
-33.867
-36.578
-39.247
-41.842
-44.326
-46.65
-48.768
-50.648
-52.264
-53.603
-54.654
-55.42
-55.92
-56.196
-56.318
-56.362
-56.4
-56.503
-56.741
-57.18
-57.909
-59.062
-60.71
-62.866
-65.471
-68.33
-71.239
-74.022
-76.408
-78.054
-78.725
-78.256
-76.722
-74.603
-72.345
-70.338
-69.063
-68.85
-69.866
-72.187
-75.355
-78.211
-79.529
-77.938
-71.881
-60.142
-41.61
-15.201
19.487
61.993
111.584
166.377
223.073
278.513
329.145
372.559
409.435
440.075
463.367
475.891
468.964
434.526
369.158
273.757
158.298
36.12
-81.965
-185.238
-269.554
-334.813
-378.897
-402.704
-405.588
-386.317
-350.048
-303.639
-256.18
-217.005
-188.974
-170.538
-157.109
-144.046
-130.242
-117.073
-107.594
-103.636
-104.509
-108.348
-112.224
-113.851
-112.544
-108.288
-101.526
-92.906
-83.02
-72.506
-62.281
-53.306
-46.104
-40.897
-37.676
-36.18
-36.123
-37.235
-39.146
-41.454
-43.92
-46.38
-48.706
-50.875
-52.837
-54.51
-55.875
-56.928
-57.648
-58.032
-58.088
-57.816
-57.259
-56.475
-55.497
-54.369
-53.131
-51.824
-50.525
-49.292
-48.162
-47.173
-46.35
-45.706
-45.257
-44.999
-44.908
-44.96
-45.124
-45.366
-45.666
-45.994
-46.318
-46.607
-46.82
-46.921
-46.89
-46.705
-46.349
-45.809
-45.074
-44.14
-43.013
-41.697
-40.196
-38.517
-36.661
-34.634
-32.446
-30.106
-27.625
-25.015
-22.286
-19.448
-16.512
-13.49
-10.394
-7.234
-4.021
-0.764
2.522
5.825
9.13
12.424
15.694
18.925
22.104
25.217
28.253
31.198
34.044
36.779
39.394
41.88
44.23
46.436
48.491
50.39
52.127
53.699
55.103
56.334
57.393
58.276
58.984
59.517
59.875
60.059
60.072
59.916
59.595
59.111
58.47
57.677
56.737
55.657
54.442
53.099
51.636
50.061
48.381
46.604
44.738
42.793
40.777
38.699
36.567
34.39
32.179
29.943
27.69
25.432
23.176
20.934
18.715
16.528
14.383
12.289
10.257
8.294
6.41
4.613
2.912
1.313
-0.174
-1.544
-2.79
-3.907
-4.888
-5.729
-6.426
-6.977
-7.377
-7.625
-7.721
-7.663
-7.452
-7.089
-6.575
-5.913
-5.106
-4.158
-3.073
-1.857
-0.516
0.944
2.515
4.19
5.959
7.815
9.748
11.748
13.806
15.911
18.054
20.224
22.412
24.608
26.801
28.982
31.142
33.273
35.366
37.415
39.411
41.35
43.226
45.035
46.772
48.434
50.019
51.526
52.952
54.3
55.568
56.759
57.876
58.922
59.901
60.819
61.682
62.496
63.267
64.004
64.714
65.406
66.087
66.765
67.449
68.148
68.87
69.622
70.412
71.246
72.131
73.072
74.072
75.136
76.265
77.462
78.726
80.058
81.456
82.919
84.443
86.025
87.658
89.337
91.054
92.798
94.558
96.322
98.075
99.805
101.497
103.135
104.706
106.196
107.594
108.886
110.062
111.105
112.003
112.744
113.317
113.715
113.928
113.948
113.771
113.396
112.826
112.063
111.108
109.954
108.593
107.023
105.249
103.281
101.13
98.81
96.342
93.756
91.098
88.414
85.742
83.115
80.561
78.117
75.827
73.746
71.925
70.401
69.2
68.333
67.807
67.614
67.73
68.106
68.663
69.308
69.949
70.498
70.866
70.977
70.73
69.971
68.634
66.728
64.342
61.721
59.091
56.62
54.571
53.281
52.948
53.689
55.367
57.448
59.534
61.365
62.638
63.206
63.066
62.322
61.6
62.119
65.016
71.468
82.625
99.287
122.403
152.816
190.721
235.841
286.954
341.474
396.661
449.734
498.777
544.322
586.778
624.844
654.339
667.057
653.653
607.918
529.266
421.982
296.331
165.585
41.607
-62.838
-139.837
-189.561
-214.589
-221.88
-218.69
-205.738
-184.188
-156.23
-123.135
-90.574
-62.184
-37.152
-15.669
3.822
21.764
35.76
45.124
49.917
50.867
50.155
49.435
49.74
51.974
56.296
62.447
70.089
78.642
87.496
96.062
103.683
109.729
113.849
116.027
116.432
115.369
113.18
110.148
106.597
102.897
99.297
95.931
92.879
90.156
87.768
85.747
84.094
82.773
81.758
81.013
80.488
80.142
79.904
79.699
79.454
79.086
78.531
77.747
76.701
75.364
73.726
71.779
69.524
66.982
64.173
61.124
57.869
54.441
50.882
47.238
43.559
39.897
36.297
32.79
29.406
26.168
23.094
20.201
17.499
14.991
12.681
10.574
8.672
6.981
5.498
4.221
3.144
2.258
1.557
1.032
0.677
0.482
0.44
0.541
0.777
1.139
1.618
2.202
2.876
3.628
4.442
5.305
6.202
7.116
8.035
8.944
9.831
10.682
11.488
12.236
12.916
13.517
14.032
14.451
14.766
14.973
15.063
15.032
14.877
14.594
14.181
13.636
12.957
12.145
11.2
10.122
8.912
7.573
6.108
4.518
2.81
0.986
-0.949
-2.989
-5.129
-7.364
-9.687
-12.093
-14.575
-17.129
-19.747
-22.423
-25.151
-27.924
-30.736
-33.58
-36.449
-39.337
-42.235
-45.138
-48.038
-50.927
-53.8
-56.648
-59.465
-62.242
-64.973
-67.65
-70.267
-72.815
-75.289
-77.681
-79.985
-82.194
-84.303
-86.305
-88.195
-89.968
-91.619
-93.142
-94.535
-95.792
-96.911
-97.889
-98.725
-99.416
-99.962
-100.363
-100.62
-100.733
-100.706
-100.541
-100.242
-99.812
-99.258
-98.586
-97.802
-96.913
-95.928
-94.856
-93.706
-92.487
-91.21
-89.885
-88.524
-87.137
-85.737
-84.334
-82.941
-81.57
-80.232
-78.939
-77.703
-76.534
-75.444
-74.443
-73.54
-72.743
-72.062
-71.502
-71.071
-70.773
-70.612
-70.593
-70.716
-70.982
-71.391
-71.94
-72.627
-73.446
-74.393
-75.459
-76.638
-77.919
-79.293
-80.749
-82.275
-83.858
-85.485
-87.142
-88.813
-90.484
-92.138
-93.759
-95.332
-96.84
-98.267
-99.598
-100.817
-101.911
-102.863
-103.663
-104.298
-104.756
-105.028
-105.105
-104.979
-104.646
-104.102
-103.344
-102.372
-101.189
-99.8
-98.21
-96.427
-94.462
-92.325
-90.027
-87.584
-85.008
-82.313
-79.516
-76.631
-73.676
-70.67
-67.635
-64.59
-61.555
-58.549
-55.591
-52.701
-49.898
-47.193
-44.6
-42.133
-39.808
-37.647
-35.672
-33.893
-32.321
-30.96
-29.811
-28.87
-28.125
-27.548
-27.114
-26.797
-26.576
-26.438
-26.369
-26.342
-26.326
-26.281
-26.169
-25.974
-25.68
-25.269
-24.748
-24.137
-23.48
-22.859
-22.343
-21.991
-21.866
-22.03
-22.551
-23.522
-25.006
-27.072
-29.815
-33.252
-37.349
-42.019
-47.002
-51.989
-56.705
-60.802
-63.91
-65.83
-66.441
-65.83
-64.496
-62.987
-61.723
-61.106
-61.465
-62.975
-65.686
-69.209
-71.911
-71.444
-65.855
-53.861
-36.103
-14.437
10.842
41.132
79.674
129.936
191.915
262.319
335.43
404.943
466.221
514.138
543.021
547.152
520.858
463.99
380.964
278.098
164.785
47.96
-65.989
-168.373
-252.761
-313.184
-347.474
-359.619
-355.272
-341.216
-322.098
-299.517
-274.056
-245.702
-216.011
-187.521
-162.724
-143.941
-131.72
-125.201
-123.245
-124.316
-126.933
-130.075
-132.475
-132.878
-130.777
-126.119
-119.173
-110.595
-101.08
-91.241
-81.915
-73.931
-67.683
-63.302
-60.69
-59.511
-59.433
-60.12
-61.14
-62.096
-62.758
-63.013
-62.85
-62.309
-61.394
-60.089
-58.373
-56.252
-53.745
-50.86
-47.619
-44.068
-40.279
-36.375
-32.493
-28.735
-25.166
-21.827
-18.735
-15.909
-13.372
-11.134
-9.211
-7.622
-6.375
-5.482
-4.951
-4.773
-4.925
-5.369
-6.048
-6.917
-7.946
-9.113
-10.407
-11.818
-13.334
-14.947
-16.657
-18.455
-20.333
-22.273
-24.254
-26.256
-28.264
-30.271
-32.275
