Name,Criss Capps
Date of Birth,"Feb 5, 1952"
Recorded Date,2021-01-21 08:33:06 -0400
Classification,Sinus Rhythm
Symptoms,
Software Version,1.90
Device,"Watch5,4"
Sample Rate,512.844 hertz


Lead,Lead I
Unit,µV

-401.822
-519.758
-571.545
-551.23
-477.979
-378.53
-275.841
-178.181
-78.583
28.656
143.131
258.527
361.832
446.755
516.628
576.484
634.184
694.052
754.045
813.406
871.704
929.047
987.761
1048.559
1110.441
1172.05
1231.274
1286.219
1335.89
1379.746
1417.563
1449.499
1475.946
1497.372
1514.427
1527.903
1538.384
1546.303
1552.018
1555.733
1557.66
1558.096
1557.338
1555.697
1553.541
1551.142
1548.678
1546.327
1544.112
1542.031
1540.18
1538.387
1536.219
1533.671
1531.001
1528.166
1525.589
1522.71
1516.938
1507.902
1496.854
1485.561
1479.739
1480.811
1482.742
1478.29
1455.039
1403.987
1329.209
1241.285
1157.69
1096.546
1063.769
1051.052
1040.992
1012.034
944.843
834.074
680.979
488.295
268.346
32.117
-205.487
-420.969
-601.248
-743.764
-859.88
-977.384
-1121.276
-1304.645
-1525.49
-1766.283
-2007.944
-2239.296
-2455.397
-2657.789
-2844.831
-3004.062
-3124.218
-3195.359
-3215.812
-3203.03
-3176.764
-3157.249
-3160.843
-3186.124
-3225.181
-3267.418
-3302.392
-3329.723
-3355.529
-3387.705
-3432.474
-3491.516
-3562.338
-3641.027
-3725.524
-3814.697
-3907.168
-4001.641
-4095.893
-4187.004
-4272.939
-4351.533
-4419.65
-4474.64
-4514.323
-4536.339
-4538.869
-4520.422
-4479.172
-4414.235
-4326.273
-4216.059
-4084.385
-3933.241
-3765.097
-3582.671
-3389.966
-3189.797
-2982.747
-2771.717
-2561.03
-2355.941
-2165.145
-1991.594
-1830.134
-1671.864
-1504.097
-1321.361
-1132.2
-953.624
-802.786
-688.679
-604.797
-530.815
-449.262
-349
-227.914
-98.14
31.18
154.587
267.453
374.201
477.249
575.924
671.225
760.566
841.912
915.951
983.013
1044.133
1100.895
1153.846
1203.213
1249.531
1293.115
1334.135
1372.869
1409.455
1443.866
1476.362
1507.568
1538.231
1568.911
1599.887
1631.114
1662.005
1692.008
1720.634
1746.773
1770.15
1792.189
1814.194
1837.675
1861.779
1882.069
1897.645
1911.712
1933.618
1977.418
2048.498
2144.979
2258.305
2375.525
2491.476
2602.311
2701.528
2780.556
2826.511
2831.702
2798.881
2738.985
2665.48
2587.727
2508.438
2425.709
2339.216
2252.181
2170.33
2100.284
2045.85
2007.582
1984.563
1974.601
1975.062
1983.47
1996.712
2011.547
2025.502
2036.701
2043.829
2046.571
2045.286
2040.405
2032.65
2022.792
2011.155
1998.215
1984.683
1970.641
1955.728
1939.571
1921.67
1901.722
1879.861
1855.918
1829.312
1799.805
1767.362
1732.048
1694.186
1653.992
1611.469
1566.857
1520.657
1473.275
1425.127
1376.612
1327.94
1279.365
1231.205
1183.653
1136.809
1090.785
1045.71
1001.667
958.731
916.849
875.743
835.119
794.809
754.764
714.963
675.57
636.86
599.311
563.914
531.782
503.755
480.11
460.623
444.55
430.654
417.259
401.992
381.991
355.937
325
290.18
252.479
209.464
154.606
86.962
11.602
-59.493
-108.588
-126.503
-114.754
-80.837
-36.286
11.733
62.47
112.338
153.032
175.691
172.885
148.255
119.083
104.756
119.364
165.019
229.331
294.994
349.452
388.047
414.61
437.36
461.566
488.698
517.776
546.075
572.289
596.565
619.082
640.16
659.804
677.726
693.787
707.984
720.337
730.898
739.817
747.347
753.753
759.33
764.338
768.92
773.199
777.281
781.18
784.875
788.288
791.259
793.674
795.467
796.554
796.86
796.273
794.597
791.638
787.193
781.033
772.972
762.85
750.533
735.98
719.222
700.369
679.616
657.145
633.113
607.7
581.1
553.535
525.273
496.591
467.786
439.218
411.296
384.451
359.088
335.555
314.142
295.051
278.44
264.454
253.179
244.663
238.988
236.205
236.353
239.477
245.507
254.255
265.506
278.997
294.272
310.831
328.432
346.812
365.703
385.2
404.225
421.675
438.513
454.948
473.001
494.995
517.693
538.971
555.873
564.781
569.8
574.09
580.012
591.505
606.016
620.822
635.03
645.676
653.375
661.373
670.364
679.576
685.526
680.636
661.231
634.144
613.212
614.687
649.944
712.825
784.04
844.899
881.052
892.896
893.545
893.115
897.965
907.171
913.366
912.699
904.202
889.611
872.736
855.57
839.309
824.697
811.549
799.934
789.696
780.125
770.992
762.21
753.537
745.065
736.914
729.151
722.141
716.312
711.812
708.669
706.8
705.973
706.024
706.78
707.963
709.324
710.639
711.719
712.446
712.673
712.223
711.004
708.967
705.925
701.72
696.467
690.206
682.986
675.213
666.104
654.918
642.99
630.785
620.618
615.23
611.713
608.148
601.641
588.186
571.381
554.268
538.929
528.796
521.406
514.254
506.764
497.395
487
476.699
466.276
455.881
445.45
434.767
423.998
413.284
402.612
391.997
381.471
371.05
360.741
350.56
340.503
330.562
320.765
311.136
301.681
292.405
283.305
274.371
265.6
256.99
248.53
240.203
231.998
223.909
215.95
208.145
200.495
192.972
185.539
178.169
170.831
163.46
155.936
148.104
139.862
131.209
122.177
112.755
102.984
93.088
83.346
73.988
65.065
56.188
47.78
41.592
38.77
39.362
39.492
30.958
8.537
-27.889
-70.427
-103.872
-118.578
-113.491
-96.736
-83.87
-84.439
-99.812
-125.328
-151.819
-174.117
-191.671
-205.714
-218.779
-231.854
-244.513
-256.551
-267.864
-278.57
-288.969
-299.173
-309.184
-319.085
-329.006
-339.027
-349.169
-359.484
-370.025
-380.896
-392.396
-404.802
-418.166
-432.383
-447.273
-462.596
-478.001
-493.23
-507.737
-520.498
-532.142
-543.843
-555.087
-566.585
-575.763
-578.165
-577.505
-577.63
-584.514
-607.368
-640.126
-671.525
-691.739
-686.953
-657.623
-613.359
-559.68
-504.449
-449.439
-389.122
-321.798
-248.368
-172.639
-102.018
-42.87
4.028
42.712
74.829
98.206
102.65
71.316
-3.473
-119.127
-262.373
-412.787
-560.204
-701.976
-839.213
-971.746
-1085.487
-1160.749
-1181.649
-1144.562
-1066.219
-976.04
-903.544
-865.116
-859.835
-872.837
-884.578
-884.938
-873.241
-855.739
-842.447
-837.229
-838.812
-844.253
-848.786
-849.92
-847.814
-842.818
-835.677
-827.352
-818.457
-809.733
-802.335
-797.07
-794.235
-793.992
-796.221
-800.537
-806.591
-813.908
-821.807
-829.831
-837.708
-845.174
-852.135
-858.503
-864.126
-868.963
-873.035
-876.325
-878.843
-880.602
-881.594
-881.878
-881.559
-880.73
-879.518
-878.028
-876.35
-874.609
-872.902
-871.299
-869.874
-868.66
-867.671
-866.931
-866.439
-866.179
-866.135
-866.275
-866.555
-866.944
-867.397
-867.867
-868.307
-868.66
-868.879
-868.931
-868.783
-868.415
-867.809
-866.948
-865.821
-864.427
-862.763
-860.825
-858.61
-856.112
-853.33
-850.266
-846.925
-843.312
-839.436
-835.302
-830.916
-826.287
-821.425
-816.339
-811.041
-805.539
-799.848
-793.982
-787.961
-781.804
-775.534
-769.171
-762.74
-756.266
-749.774
-743.289
-736.836
-730.439
-724.124
-717.917
-711.842
-705.924
-700.187
-694.656
-689.353
-684.3
-679.519
-675.029
-670.848
-666.992
-663.477
-660.315
-657.519
-655.098
-653.06
-651.413
-650.161
-649.306
-648.85
-648.793
-649.129
-649.855
-650.964
-652.448
-654.295
-656.493
-659.031
-661.891
-665.06
-668.52
-672.252
-676.237
-680.455
-684.884
-689.503
-694.288
-699.216
-704.265
-709.409
-714.626
-719.891
-725.183
-730.479
-735.755
-740.991
-746.166
-751.258
-756.249
-761.119
-765.851
-770.427
-774.834
-779.054
-783.077
-786.889
-790.48
-793.841
-796.963
-799.839
-802.463
-804.831
-806.939
-808.785
-810.367
-811.686
-812.743
-813.541
-814.082
-814.371
-814.413
-814.214
-813.78
-813.119
-812.237
-811.142
-809.844
-808.349
-806.668
-804.809
-802.781
-800.594
-798.257
-795.78
-793.171
-790.44
-787.596
-784.646
-781.599
-778.462
-775.243
-771.95
-768.589
-765.166
-761.687
-758.159
-754.586
-750.973
-747.324
-743.643
-739.933
-736.197
-732.438
-728.657
-724.856
-721.038
-717.203
-713.354
-709.49
-705.614
-701.724
-697.823
-693.911
-689.988
-686.054
-682.111
-678.158
-674.197
-670.229
-666.255
-662.277
-658.297
-654.317
-650.339
-646.365
-642.399
-638.443
-634.501
-630.575
-626.67
-622.789
-618.935
-615.113
-611.325
-607.577
-603.87
-600.21
-596.597
-593.036
-589.529
-586.078
-582.684
-579.349
-576.073
-572.856
-569.698
-566.598
-563.555
-560.564
-557.623
-554.728
-551.874
-549.055
-546.263
-543.491
-540.73
-537.971
-535.203
-532.415
-529.595
-526.732
-523.812
-520.823
-517.753
-514.589
-511.317
-507.926
-504.403
-500.735
-496.914
-492.927
-488.766
-484.422
-479.888
-475.157
-470.227
-465.092
-459.751
-454.203
-448.449
-442.492
-436.336
-429.987
-423.454
-416.746
-409.875
-402.857
-395.708
-388.447
-381.094
-373.674
-366.21
-358.729
-351.258
-343.824
-336.455
-329.181
-322.03
-315.029
-308.206
-301.589
-295.204
-289.08
-283.243
-277.715
-272.522
-267.684
-263.222
-259.155
-255.497
-252.254
-249.435
-247.046
-245.093
-243.586
-242.529
-241.912
-241.725
-241.952
-242.57
-243.548
-244.844
-246.394
-248.14
-250.024
-251.996
-254.022
-256.059
-258.057
-259.96
-261.708
-263.248
-264.551
-265.593
-266.341
-266.784
-266.932
-266.832
-266.591
-266.306
-266.047
-265.861
-265.761
-265.774
-265.958
-266.376
-267.08
-268.108
-269.444
-271.092
-273.125
-275.515
-278.086
-280.498
-282.19
-282.627
-281.468
-278.378
-272.931
-264.889
-254.299
-241.573
-227.628
-213.399
-199.45
-186.277
-174.481
-164.379
-155.743
-147.698
-138.538
-126.311
-109.564
-86.785
-56.109
-15.942
34.745
94.718
160.171
227.208
291.926
354.031
417.025
479.752
538.729
584.091
596.804
566.688
489.775
369.057
224.156
72.203
-71.467
-189.454
-277.617
-336.553
-370.324
-390.056
-401.404
-404.006
-395.339
-373.623
-340.769
-303.989
-271.664
-245.283
-224.583
-207.747
-191.553
-178.27
-169.426
-164.304
-162.903
-162.725
-161.365
-158.25
-152.539
-143.929
-132.797
-119.508
-104.752
-89.568
-74.989
-61.725
-50.28
-40.95
-33.754
-28.575
-25.169
-23.105
-21.87
-21.132
-20.693
-20.443
-20.385
-20.489
-20.682
-20.906
-21.078
-21.078
-20.812
-20.199
-19.166
-17.695
-15.795
-13.5
-10.881
-7.999
-4.891
-1.584
1.914
5.586
9.392
13.27
17.131
20.892
24.494
27.897
31.081
34.04
36.778
39.316
41.702
43.984
46.203
48.388
50.556
52.732
54.953
57.265
59.723
62.376
65.261
68.407
71.844
75.592
79.667
84.076
88.812
93.867
99.238
104.923
110.921
117.229
123.836
130.728
137.892
145.312
152.971
160.85
168.928
177.18
185.585
194.118
202.757
211.475
220.243
229.032
237.808
246.54
255.194
263.737
272.135
280.354
288.362
296.126
303.617
310.805
317.66
324.157
330.27
335.974
341.248
346.073
350.429
354.302
357.678
360.546
362.898
364.727
366.029
366.804
367.053
366.781
365.994
364.702
362.917
360.653
357.926
354.755
351.16
347.163
342.788
338.06
333.005
327.652
322.028
316.162
310.083
303.822
297.407
290.868
284.234
277.535
270.798
264.051
257.321
250.635
244.016
237.488
231.073
224.792
218.663
212.703
206.928
201.35
195.983
190.835
185.915
181.229
176.782
172.577
168.616
164.898
161.422
158.185
155.183
152.411
149.861
147.528
145.403
143.478
141.744
140.19
138.807
137.585
136.513
135.581
134.778
134.094
133.518
133.04
132.653
132.346
132.111
131.941
131.829
131.769
131.754
131.781
131.845
131.941
132.068
132.222
132.403
132.608
132.838
133.091
133.369
133.671
133.999
134.353
134.734
135.144
135.584
136.055
136.558
137.095
137.666
138.273
138.917
139.597
140.315
141.069
141.86
142.685
143.543
144.432
145.349
146.291
147.255
148.237
149.231
150.234
151.24
152.243
153.237
154.216
155.173
156.103
156.998
157.852
158.658
159.409
160.1
160.723
161.272
161.743
162.128
162.424
162.625
162.728
162.727
162.621
162.407
162.083
161.648
161.102
160.447
159.683
158.813
157.841
156.771
155.608
154.359
153.03
151.629
150.164
148.646
147.083
145.487
143.869
142.24
140.612
138.998
137.411
135.863
134.369
132.94
131.592
130.338
129.189
128.159
127.261
126.505
125.903
125.465
125.2
125.117
125.222
125.521
126.02
126.722
127.629
128.74
130.056
131.573
133.288
135.194
137.283
139.548
141.978
144.561
147.284
150.132
153.091
156.142
159.267
162.445
165.652
168.866
172.061
175.212
178.294
181.28
184.147
186.87
189.429
191.804
193.975
195.921
197.62
199.054
200.206
201.063
201.61
201.835
201.731
201.293
200.526
199.433
198.014
196.266
194.174
191.737
188.958
185.846
182.417
178.691
174.692
170.46
166.051
161.524
156.929
152.312
147.701
143.137
138.672
134.37
130.306
126.535
123.099
120.024
117.325
114.996
113.015
111.321
109.826
108.432
107.036
105.542
103.86
101.89
99.551
96.715
93.194
88.91
83.902
78.34
72.606
67.089
62.023
57.737
54.76
53.418
53.738
55.363
57.298
58.5
58.629
57.519
54.564
49.596
43.13
36.028
31.575
33.453
42.26
59.136
83.611
114.353
155.274
208.319
273.652
350.535
431.264
509.467
581.577
644.299
697.713
737.623
754.784
741.072
689.827
603.648
493.812
371.655
250.059
136.051
31.828
-58.097
-133.746
-194.418
-238.962
-270.098
-287.202
-290.028
-280.476
-260.342
-234.097
-206.164
-178.703
-153.146
-130.264
-110.909
-96.249
-86.403
-80.501
-77.404
-76.118
-76.052
-76.544
-76.38
-74.303
-69.688
-62.545
-53.357
-42.804
-31.464
-20.034
-9.532
-0.832
5.588
9.529
11.142
10.728
8.541
4.968
0.519
-4.447
-9.712
-15.105
-20.563
-25.969
-31.101
-35.84
-40.126
-43.888
-47.095
-49.697
-51.635
-52.919
-53.615
-53.79
-53.514
-52.822
-51.724
-50.263
-48.505
-46.541
-44.498
-42.457
-40.465
-38.57
-36.794
-35.15
-33.649
-32.266
-30.949
-29.654
-28.343
-26.986
-25.571
-24.068
-22.439
-20.636
-18.604
-16.3
-13.698
-10.771
-7.501
-3.874
0.12
4.475
9.174
14.204
19.554
25.216
31.181
37.437
43.966
50.748
57.761
64.984
72.394
79.966
87.674
95.491
103.391
111.347
119.335
127.327
135.293
143.203
151.026
158.729
166.281
173.652
180.809
187.722
194.361
200.699
206.707
212.362
217.637
222.51
226.961
230.969
234.518
237.593
240.179
242.268
243.85
244.919
245.472
245.506
245.023
244.026
242.521
240.516
238.02
235.048
231.612
227.73
223.42
218.7
213.594
208.122
202.308
196.178
189.757
183.072
176.149
169.018
161.704
154.238
146.645
138.955
131.195
123.391
115.571
107.759
99.981
92.259
84.618
77.078
69.659
62.38
55.26
48.313
41.555
34.999
28.655
22.534
16.645
10.994
5.588
0.429
-4.478
-9.132
-13.531
-17.677
-21.57
-25.213
-28.61
-31.764
-34.68
-37.364
-39.822
-42.062
-44.089
-45.912
-47.537
-48.974
-50.229
-51.31
-52.226
-52.984
-53.592
-54.058
-54.389
-54.592
-54.674
-54.643
-54.504
-54.263
-53.927
-53.501
-52.989
-52.398
-51.732
-50.996
-50.195
-49.333
-48.415
-47.444
-46.426
-45.365
-44.264
-43.128
-41.96
-40.765
-39.546
-38.308
-37.054
-35.79
-34.518
-33.245
-31.974
-30.71
-29.458
-28.222
-27.007
-25.818
-24.659
-23.535
-22.45
-21.41
-20.421
-19.49
-18.621
-17.822
-17.093
-16.438
-15.865
-15.365
-14.936
-14.579
-14.287
-14.059
-13.917
-13.869
-13.913
-14.098
-14.45
-14.96
-15.652
-16.528
-17.517
-18.584
-19.728
-20.762
-21.519
-22.164
-22.71
-23.04
-23.551
-23.647
-22.538
-21.355
-20.503
-21.942
-28.903
-40.252
-53.709
-64.498
-65.792
-55.885
-37.791
-19.045
-8.408
-10.912
-25.02
-42.941
-57.51
-63.704
-61.221
-55.211
-49.246
-45.433
-44.379
-44.062
-43.517
-42.803
-41.822
-40.911
-40.178
-39.323
-38.248
-36.991
-35.528
-33.865
-32.034
-30.055
-27.969
-25.839
-23.696
-21.534
-19.367
-17.213
-15.092
-13.026
-11.033
-9.129
-7.332
-5.666
-4.152
-2.807
-1.648
-0.688
0.058
0.572
0.841
0.852
0.597
0.067
-0.743
-1.839
-3.22
-4.882
-6.816
-9.015
-11.473
-14.192
-17.175
-20.418
-23.912
-27.641
-31.587
-35.732
-40.051
-44.508
-49.052
-53.633
-58.208
-62.743
-67.2
-71.538
-75.702
-79.625
-83.247
-86.518
-89.403
-91.884
-93.944
-95.582
-96.809
-97.654
-98.189
-98.505
-98.694
-98.856
-99.088
-99.469
-100.139
-101.304
-103.048
-105.36
-108.079
-110.844
-113.366
-115.461
-116.84
-117.133
-116.126
-113.796
-110.628
-107.608
-105.48
-104.73
-105.721
-108.661
-113.665
-120.476
-127.78
-133.442
-135.451
-131.887
-121.14
-101.885
-72.716
-32.648
18.051
77.96
145.181
216.088
285.884
350.333
405.377
450.089
486.147
511.888
522.683
510.495
465.859
387.538
280.558
153.33
18.821
-113.157
-232.659
-326.681
-388.744
-417.298
-417.714
-403.827
-385.072
-366.114
-348.116
-327.61
-304.804
-282.066
-260.905
-243.9
-231.652
-223.149
-217.896
-214.306
-210.136
-204.485
-197.229
-188.425
-178.635
-168.136
-156.698
-144.881
-133.948
-124.67
-117.455
-112.406
-109.154
-107.535
-107.705
-109.436
-112.17
-115.409
-118.63
-121.532
-124.113
-126.315
-128.005
-129.103
-129.529
-129.232
-128.249
-126.606
-124.299
-121.353
-117.794
-113.697
-109.2
-104.474
-99.704
-95.022
-90.504
-86.197
-82.136
-78.359
-74.909
-71.811
-69.053
-66.623
-64.512
-62.713
-61.225
-60.022
-59.052
-58.245
-57.526
-56.843
-56.162
-55.455
-54.693
-53.851
-52.903
-51.831
-50.629
-49.283
-47.772
-46.077
-44.173
-42.046
-39.694
-37.111
-34.294
-31.231
-27.905
-24.308
-20.44
-16.296
-11.883
-7.209
-2.293
2.832
8.121
13.546
19.083
24.721
30.463
36.308
42.256
48.311
54.461
60.697
67.016
73.402
79.845
86.36
92.968
99.722
106.689
113.894
121.34
129.011
136.843
144.771
152.708
160.535
168.162
175.511
182.5
189.08
195.2
200.775
205.714
209.901
213.191
215.493
216.748
216.913
216.011
214.084
211.207
207.514
203.115
198.097
192.54
186.496
180.008
173.156
166.015
158.679
151.271
143.883
136.589
129.46
122.523
115.777
109.203
102.732
96.305
89.895
83.484
77.076
70.687
64.318
57.974
51.666
45.386
39.128
32.894
26.679
20.496
14.371
8.343
2.466
-3.205
-8.635
-13.796
-18.67
-23.249
-27.524
-31.493
-35.166
-38.545
-41.631
-44.425
-46.925
-49.134
-51.059
-52.712
-54.108
-55.264
-56.196
-56.918
-57.445
-57.789
-57.962
-57.975
-57.833
-57.547
-57.126
-56.582
-55.928
-55.176
-54.339
-53.43
-52.462
-51.447
-50.395
-49.316
-48.219
-47.111
-46
-44.892
-43.794
-42.71
-41.645
-40.603
-39.588
-38.603
-37.649
-36.729
-35.842
-34.99
-34.173
-33.389
-32.64
-31.923
-31.238
-30.584
-29.96
-29.365
-28.798
-28.256
-27.739
-27.245
-26.77
-26.315
-25.876
-25.452
-25.042
-24.646
-24.263
-23.894
-23.538
-23.197
-22.872
-22.565
-22.277
-22.01
-21.767
-21.55
-21.363
-21.208
-21.089
-21.008
-20.969
-20.974
-21.026
-21.127
-21.279
-21.483
-21.742
-22.054
-22.422
-22.844
-23.32
-23.85
-24.43
-25.059
-25.734
-26.451
-27.204
-27.99
-28.802
-29.634
-30.478
-31.327
-32.172
-33.004
-33.812
-34.588
-35.319
-35.993
-36.6
-37.128
-37.564
-37.899
-38.12
-38.218
-38.181
-38.002
-37.671
-37.18
-36.523
-35.693
-34.687
-33.499
-32.128
-30.574
-28.837
-26.918
-24.822
-22.553
-20.119
-17.527
-14.786
-11.908
-8.904
-5.789
-2.578
0.712
4.062
7.45
10.853
14.247
17.606
20.905
24.12
27.223
30.189
32.994
35.618
38.04
40.238
42.192
43.878
45.279
46.377
47.16
47.615
47.73
47.495
46.908
45.973
44.692
43.065
41.088
38.749
36.048
32.994
29.602
25.89
21.883
17.606
13.101
8.428
3.643
-1.199
-6.054
-10.892
-15.664
-20.311
-24.762
-28.937
-32.785
-36.275
-39.373
-42.067
-44.354
-46.248
-47.801
-49.094
-50.203
-51.217
-52.217
-53.272
-54.479
-55.922
-57.715
-60.032
-62.914
-66.28
-69.964
-73.652
-77.058
-80.031
-82.347
-83.603
-83.572
-82.271
-80.022
-77.578
-75.512
-73.926
-72.644
-71.599
-71.021
-70.702
-69.689
-66.531
-58.565
-43.951
-23.508
3.16
35.102
70.671
113.16
162.376
217.278
279.088
342.76
406.478
470.243
528.678
577.434
606.897
605.352
568.865
500.032
410.523
314.818
222.214
136.59
56.138
-20.447
-91.047
-151.995
-198.975
-230.33
-247.334
-252.271
-247.897
-236.86
-221.457
-204.046
-186.699
-170.807
-157.352
-146.576
-138.148
-131.703
-126.789
-122.95
-120.021
-117.681
-115.271
-112.579
-109.729
-106.741
-103.729
-100.658
-97.158
-93.273
-89.518
-86.134
-83.186
-80.713
-78.577
-76.753
-75.429
-74.508
-73.613
-72.517
-71.082
-69.288
-67.326
-65.332
-63.327
-61.395
-59.664
-58.202
-57.081
-56.297
-55.735
-55.334
-55.073
-54.945
-54.993
-55.231
-55.619
-56.11
-56.636
-57.096
-57.416
-57.527
-57.353
-56.866
-56.064
-54.973
-53.669
-52.212
-50.635
-48.957
-47.174
-45.274
-43.263
-41.141
-38.908
-36.581
-34.171
-31.688
-29.148
-26.548
-23.87
-21.085
-18.143
-14.998
-11.62
-7.987
-4.086
0.087
4.534
9.251
14.223
19.441
24.896
30.579
36.484
42.6
48.911
55.396
62.031
68.788
75.642
82.566
89.536
96.525
103.51
110.465
117.37
124.202
130.934
137.542
143.996
150.268
156.331
162.157
167.716
172.983
177.932
182.538
186.78
190.637
194.091
197.124
199.723
201.874
203.567
204.793
205.547
205.825
205.625
204.948
203.796
202.175
200.092
197.557
194.581
191.177
187.361
183.15
178.562
173.617
168.337
162.746
156.868
150.73
144.358
137.78
131.026
124.124
117.104
109.995
102.826
95.626
88.422
81.241
74.109
67.052
60.092
53.252
46.554
40.016
33.656
27.49
21.534
15.799
10.297
5.037
0.028
-4.725
-9.217
-13.446
-17.41
-21.109
-24.546
-27.722
-30.644
-33.316
-35.746
-37.942
-39.912
-41.668
-43.219
-44.576
-45.752
-46.759
-47.607
-48.311
-48.881
-49.33
-49.67
-49.912
-50.067
-50.146
-50.159
-50.116
-50.026
-49.897
-49.737
-49.555
-49.355
-49.145
-48.929
-48.713
-48.5
-48.295
-48.099
-47.917
-47.749
-47.596
-47.461
-47.342
-47.24
-47.154
-47.083
-47.027
-46.983
-46.951
-46.929
-46.914
-46.905
-46.901
-46.898
-46.895
-46.891
-46.882
-46.869
-46.848
-46.819
-46.781
-46.733
-46.674
-46.604
-46.522
-46.428
-46.323
-46.206
-46.078
-45.94
-45.793
-45.637
-45.475
-45.308
-45.137
-44.965
-44.793
-44.624
-44.459
-44.302
-44.154
-44.018
-43.897
-43.792
-43.708
-43.645
-43.607
-43.596
-43.615
-43.666
-43.751
-43.87
-44.027
-44.221
-44.453
-44.724
-45.033
-45.38
-45.765
-46.184
-46.637
-47.122
-47.634
-48.17
-48.727
-49.3
-49.885
-50.475
-51.065
-51.648
-52.219
-52.77
-53.294
-53.783
-54.229
-54.623
-54.958
-55.224
-55.414
-55.519
-55.53
-55.44
-55.24
-54.923
-54.482
-53.91
-53.202
-52.352
-51.356
-50.21
-48.913
-47.463
-45.859
-44.102
-42.195
-40.141
-37.944
-35.61
-33.145
-30.559
-27.861
-25.062
-22.175
-19.215
-16.196
-13.137
-10.055
-6.969
-3.899
-0.865
2.113
5.014
7.819
10.508
13.06
15.456
17.675
19.697
21.503
23.074
24.393
25.442
26.207
26.674
26.837
26.691
26.232
25.453
24.347
22.909
21.142
19.055
16.656
13.958
10.982
7.759
4.338
0.771
-2.896
-6.621
-10.372
-14.116
-17.812
-21.412
-24.866
-28.129
-31.171
-33.973
-36.507
-38.755
-40.715
-42.428
-43.986
-45.485
-47.007
-48.605
-50.302
-52.143
-54.202
-56.557
-59.282
-62.44
-66.036
-70.097
-74.733
-79.921
-85.506
-91.166
-96.286
-100.293
-102.822
-103.425
-101.603
-97.252
-90.471
-81.783
-72.47
-63.561
-55.67
-49.661
-46.13
-44.831
-45.144
-45.512
-43.052
-35.401
-20.652
3.67
39.484
87.585
148.256
218.913
293.894
368.599
438.305
500.983
558.819
609.989
650.767
673.273
662.91
612.916
521.922
393.992
247.335
98.126
-37.942
-142.668
-212.38
-248.855
-258.847
-258.324
-255.379
-252.371
-249.451
-241.791
-228.838
-213.956
-199.777
-189.115
-182.661
-178.999
-176.832
-174.817
-171.591
-166.167
-158.145
-147.709
-135.454
-122.192
-108.649
-95.398
-83.087
-72.351
-63.551
-56.85
-52.203
-49.396
-48.248
-48.593
-50.23
-52.93
-56.448
-60.512
-64.867
-69.296
-73.592
-77.603
-81.207
-84.288
-86.767
-88.561
-89.622
-89.944
-89.536
-88.428
-86.661
-84.293
-81.403
-78.118
-74.576
-70.911
-67.258
-63.705
-60.314
-57.145
-54.233
-51.616
-49.313
-47.322
-45.63
-44.225
-43.089
-42.203
-41.542
-41.055
-40.686
-40.377
-40.061
-39.691
-39.228
-38.637
-37.886
-36.95
-35.807
-34.443
-32.851
-31.018
-28.929
-26.572
-23.931
-21.001
-17.777
-14.258
-10.443
-6.335
-1.933
2.76
7.74
13.002
18.541
24.348
30.417
36.733
43.282
50.042
56.992
64.109
71.37
78.748
86.218
93.752
101.32
108.896
116.45
123.95
131.361
138.648
145.774
152.704
159.406
165.845
171.994
177.82
183.296
188.401
193.111
197.401
201.247
204.615
207.48
209.83
211.659
212.969
213.775
214.088
213.923
213.307
212.258
210.787
208.895
206.562
203.771
200.518
196.815
192.69
188.175
183.277
178.002
172.353
166.311
159.868
153.009
145.688
137.887
129.627
120.954
111.962
102.77
93.458
84.095
74.731
65.405
56.178
47.116
38.272
29.717
21.528
13.788
6.626
0.14
-5.633
-10.693
-15.099
-18.95
-22.31
-25.226
-27.748
-29.903
-31.733
-33.281
-34.566
-35.619
-36.485
-37.227
-37.946
-38.729
-39.611
-40.604
-41.676
-42.761
-43.824
-44.836
-45.764
-46.591
-47.305
-47.898
-48.385
-48.786
-49.102
-49.323
-49.422
-49.37
-49.164
-48.813
-48.339
-47.782
-47.168
-46.522
-45.874
-45.245
-44.65
-44.097
-43.582
-43.093
-42.627
-42.186
-41.772
-41.394
-41.053
-40.748
-40.476
-40.232
-40.012
-39.81
-39.62
-39.433
-39.246
-39.057
-38.867
-38.679
-38.495
-38.315
-38.141
-37.972
-37.81
-37.652
-37.498
-37.345
-37.192
-37.037
-36.879
-36.719
-36.555
-36.388
-36.218
-36.045
-35.87
-35.694
-35.519
-35.343
-35.17
-35.001
-34.836
-34.677
-34.527
-34.388
-34.262
-34.152
-34.06
-33.989
-33.94
-33.916
-33.918
-33.948
-34.007
-34.097
-34.218
-34.373
-34.563
-34.791
-35.059
-35.369
-35.722
-36.121
-36.567
-37.061
-37.604
-38.195
-38.835
-39.525
-40.262
-41.047
-41.878
-42.753
-43.668
-44.621
-45.607
-46.621
-47.658
-48.711
-49.774
-50.839
-51.901
-52.95
-53.981
-54.984
-55.951
-56.876
-57.748
-58.559
-59.299
-59.959
-60.529
-61
-61.363
-61.608
-61.727
-61.71
-61.551
-61.241
-60.774
-60.143
-59.342
-58.366
-57.211
-55.875
-54.357
-52.658
-50.779
-48.722
-46.493
-44.098
-41.544
-38.841
-35.996
-33.02
-29.927
-26.728
-23.439
-20.076
-16.654
-13.192
-9.71
-6.231
-2.776
0.633
3.974
7.224
10.359
13.358
16.202
18.869
21.343
23.603
25.629
27.403
28.908
30.128
31.05
31.663
31.955
31.922
31.566
30.887
29.888
28.567
26.917
24.936
22.629
20.005
17.077
13.866
10.398
6.715
2.873
-1.075
-5.073
-9.08
-13.063
-16.978
-20.779
-24.411
-27.805
-30.917
-33.712
-36.152
-38.207
-39.877
-41.194
-42.228
-43.092
-43.874
-44.636
-45.45
-46.389
-47.543
-49.017
-50.913
-53.297
-56.242
-59.868
-64.181
-69.085
-74.34
-79.467
-83.975
-87.5
-89.585
-89.724
-87.811
-83.941
-78.515
-72.569
-66.868
-61.788
-57.994
-55.983
-55.446
-55.739
-55.493
-52.249
-44.021
-29.234
-5.929
27.509
71.859
127.192
192.279
263.28
335.178
403.462
464.059
515.918
559.999
594.045
612.143
605.217
564.896
490.328
388.548
270.773
147.315
25.665
-87.815
-185.089
-256.864
-298.187
-310.877
-303.855
-287.907
-269.374
-250.401
-229.776
-206.96
-183.833
-162.859
-146.53
-136.011
-131.331
-131.537
-134.701
-138.702
-141.693
-142.711
-141.656
-138.481
-132.853
-124.807
-114.837
-103.943
-93.477
-84.195
-76.293
-69.913
-65.23
-62.377
-61.398
-61.991
-63.513
-65.479
-67.582
-69.597
-71.441
-73.017
-74.202
-74.964
-75.36
-75.445
-75.267
-74.83
-74.07
-72.92
-71.353
-69.375
-67.052
-64.476
-61.758
-59.015
-56.334
-53.786
-51.426
-49.284
-47.368
-45.665
-44.152
-42.806
-41.631
-40.641
-39.847
-39.247
-38.816
-38.516
-38.3
-38.112
-37.897
-37.605
-37.191
-36.622
-35.875
-34.932
-33.784
-32.427
-30.846
-29.026
-26.948
-24.595
-21.955
-19.017
-15.776
-12.23
-8.38
-4.231
0.212
4.943
9.957
15.249
20.812
26.641
32.727
39.059
45.622
52.399
59.369
66.51
73.798
81.205
88.705
96.267
103.862
111.461
119.032
126.545
133.967
141.267
148.414
155.377
162.125
168.628
174.858
180.785
186.382
191.625
196.489
200.952
204.993
208.593
211.736
214.406
216.59
218.277
219.459
220.128
220.282
219.918
219.037
217.644
215.745
213.35
210.471
207.121
203.317
199.078
194.424
189.377
183.961
178.202
172.124
165.757
159.128
152.265
145.2
137.961
130.579
123.083
115.504
107.87
100.212
92.557
84.934
77.368
69.887
62.513
55.271
48.183
41.269
34.548
28.037
21.752
15.706
9.911
4.378
-0.888
-5.879
-10.592
-15.025
-19.179
-23.054
-26.653
-29.982
-33.046
-35.851
-38.406
-40.72
-42.801
-44.662
-46.313
-47.765
-49.031
-50.123
-51.054
-51.835
-52.478
-52.996
-53.401
-53.704
-53.917
-54.051
-54.116
-54.124
-54.083
-54.004
-53.895
-53.763
-53.615
-53.458
-53.296
-53.135
-52.978
-52.829
-52.69
-52.563
-52.45
-52.351
-52.266
-52.196
-52.138
-52.091
-52.054
-52.027
-52.009
-52.001
-51.998
-51.997
-51.997
-51.994
-51.987
-51.974
-51.952
-51.918
-51.871
-51.814
-51.748
-51.674
-51.59
-51.491
-51.371
-51.231
-51.073
-50.904
-50.731
-50.557
-50.385
-50.22
-50.067
-49.933
-49.815
-49.708
-49.601
-49.488
-49.372
-49.264
-49.182
-49.129
-49.095
-49.042
-48.927
-48.729
-48.457
-48.136
-47.776
-47.36
-46.862
-46.312
-45.823
-45.443
-45.084
-44.497
-43.413
-41.778
-39.789
-37.659
-35.387
-33.003
-30.767
-29.316
-29.425
-31.358
-34.78
-39.225
-44.441
-50.14
-55.835
-60.481
-63.61
-66.347
-69.756
-73.76
-75.061
-68.137
-50.823
-26.652
-4.985
3.761
-4.515
-25.583
-49.208
-65.766
-71.249
-67.686
-60.938
-55.538
-53.056
-53.042
-53.676
-54.05
-54.271
-54.429
-54.718
-55.098
-55.295
-55.204
-54.809
-54.085
-53.063
-51.837
-50.491
-49.103
-47.712
-46.288
-44.791
-43.2
-41.5
-39.693
-37.773
-35.722
-33.535
-31.207
-28.719
-26.04
-23.109
-19.845
-16.212
-12.198
-7.816
-3.127
1.808
6.91
12.07
17.202
22.23
27.073
31.682
36.008
39.967
43.474
46.41
48.638
50.075
50.669
50.385
49.238
47.257
44.501
41.095
37.142
32.725
27.931
22.816
17.445
11.927
6.369
0.886
-4.384
-9.35
-13.929
-18.034
-21.617
-24.635
-27.084
-29.027
-30.503
-31.54
-32.2
-32.526
-32.594
-32.527
-32.401
-32.298
-32.339
-32.616
-33.25
-34.372
-36.053
-38.399
-41.545
-45.484
-50.108
-55.171
-60.197
-64.725
-68.413
-70.815
-71.44
-70.066
-66.814
-62.234
-57.371
-53.221
-50.332
-49.166
-50.279
-53.739
-58.824
-64.035
-66.952
-64.979
-56.155
-38.713
-10.769
29.09
81.303
144.856
217.363
294.67
371.399
443.46
506.93
559.161
600.571
626.958
630.99
606.678
546.569
453.695
340.774
218.144
98.214
-13.696
-119.521
-213.848
-292.282
-350.128
-380.819
-388.277
-378.225
-355.692
-328.138
-297.593
-265.584
-234.522
-204.96
-179.145
-158.775
-144.044
-134.862
-129.889
-127.258
-125.921
-124.968
-123.36
-120.512
-115.802
-108.886
-100.151
-90.303
-80.002
-69.995
-61.125
-53.892
-48.696
-45.769
-44.953
-45.964
-48.439
-51.855
-55.643
-59.402
-62.862
-65.853
-68.334
-70.243
-71.502
-72.106
-72.091
-71.487
-70.323
-68.619
-66.385
-63.677
-60.614
-57.33
-53.967
-50.654
-47.47
-44.471
-41.708
-39.219
-37.04
-35.187
-33.656
-32.431
-31.501
-30.853
-30.469
-30.321
-30.356
-30.511
-30.722
-30.918
-31.047
-31.067
-30.939
-30.631
-30.114
-29.363
-28.363
-27.104
-25.57
-23.745
-21.611
-19.151
-16.356
-13.221
-9.742
-5.921
-1.756
2.751
7.597
12.779
18.291
24.129
30.283
36.747
43.509
50.553
57.858
65.404
73.166
81.117
89.23
97.473
105.816
114.225
122.669
131.115
139.528
147.874
156.117
164.224
172.158
179.885
187.369
194.578
201.478
208.038
214.226
220.014
225.376
230.285
234.72
238.659
242.083
244.976
247.323
249.114
250.341
250.997
251.082
250.594
249.538
247.921
245.751
243.039
239.8
236.049
231.805
227.088
221.92
216.324
210.326
203.952
197.233
190.197
182.874
175.298
167.501
159.514
151.373
143.109
134.756
126.348
117.915
109.491
101.106
92.789
84.57
76.474
68.528
60.753
53.172
45.805
38.667
31.776
25.143
18.782
12.7
6.907
1.407
-3.794
-8.694
-13.293
-17.592
-21.591
-25.297
-28.713
-31.848
-34.707
-37.302
-39.641
-41.736
-43.6
-45.245
-46.684
-47.932
-49.002
-49.909
-50.667
-51.289
-51.79
-52.182
-52.477
-52.686
-52.822
-52.892
-52.907
-52.874
-52.801
-52.695
-52.56
-52.404
-52.229
-52.039
-51.839
-51.631
-51.417
-51.199
-50.978
-50.755
-50.53
-50.303
-50.073
-49.838
-49.598
-49.349
-49.089
-48.816
-48.527
-48.219
-47.89
-47.537
-47.159
-46.753
-46.319
-45.857
-45.367
-44.85
-44.307
-43.741
-43.154
-42.549
-41.932
-41.304
-40.672
-40.039
-39.41
-38.789
-38.181
-37.591
-37.024
-36.483
-35.974
-35.502
-35.071
-34.687
-34.354
-34.078
-33.864
-33.717
-33.641
-33.641
-33.721
-33.885
-34.135
-34.473
-34.902
-35.421
-36.031
-36.73
-37.517
-38.387
-39.337
-40.362
-41.456
-42.613
-43.826
-45.088
-46.391
-47.727
-49.088
-50.467
-51.854
-53.239
-54.616
-55.972
-57.3
-58.587
-59.825
-61
-62.104
-63.123
-64.048
-64.867
-65.568
-66.141
-66.575
-66.863
-66.993
-66.958
-66.751
-66.366
-65.798
-65.044
-64.1
-62.966
-61.641
-60.125
-58.422
-56.532
-54.461
-52.21
-49.786
-47.194
-44.441
-41.537
-38.489
-35.308
-32.006
-28.597
-25.095
-21.516
-17.877
-14.195
-10.492
-6.788
-3.106
0.534
4.108
7.593
10.969
14.212
17.301
20.219
22.947
25.466
27.759
29.808
31.598
33.114
34.343
35.272
35.889
36.186
36.163
35.818
35.149
34.156
32.832
31.177
29.201
26.915
24.331
21.469
18.352
15.016
11.509
7.875
4.154
0.377
-3.438
-7.262
-11.058
-14.785
-18.393
-21.849
-25.138
-28.236
-31.114
-33.761
-36.186
-38.443
-40.617
-42.762
-44.9
-47.024
-49.126
-51.234
-53.404
-55.689
-58.133
-60.742
-63.543
-66.641
-70.079
-73.745
-77.372
-80.483
-82.583
-83.38
-82.604
-79.876
-75.042
-68.277
-60.104
-51.57
-43.723
-37.169
-32.445
-30.159
-30.451
-32.847
-36.21
-38.504
-37.477
-31.331
-18.292
3.446
35.238
77.729
130.576
192.149
258.857
325.93
388.768
443.294
488.605
525.998
553.839
567.25
557.803
516.168
439.909
333.68
205.91
67.008
-73.251
-205.968
-319.452
-400.654
-442.285
-442.118
-406.307
-350.355
-288.737
-235.574
-200.363
-181.531
-173.457
-167.287
-155.495
-138.206
-119.044
-103.281
-94.775
-93.144
-96.16
-100.923
-104.959
-107.177
-107.373
-105.721
-102.538
-98.279
-93.335
-88.196
-83.68
-80.383
-78.52
-78.159
-79.088
-80.912
-83.347
-86.05
-88.579
-90.666
-92.162
-92.949
-93.023
-92.42
-91.15
-89.294
-86.978
-84.31
-81.418
-78.418
-75.39
-72.435
-69.644
-67.077
-64.777
-62.766
-61.045
-59.63
-58.545
-57.798
-57.387
-57.296
-57.498
-57.955
-58.619
-59.434
-60.344
-61.296
-62.243
-63.149
-63.982
-64.716
-65.334
-65.816
-66.139
-66.278
-66.207
-65.903
-65.343
-64.509
-63.383
-61.951
-60.2
-58.119
-55.696
-52.923
-49.79
-46.29
-42.415
-38.162
-33.53
-28.523
-23.149
-17.418
-11.341
-4.933
1.789
8.809
16.106
23.662
31.455
39.462
47.654
56.003
64.473
73.032
81.641
90.264
98.864
107.406
115.852
124.168
132.323
140.283
148.012
155.471
162.616
169.409
175.821
181.825
187.407
192.558
197.279
201.578
205.466
208.945
212.013
214.654
216.839
218.538
219.724
220.38
220.511
220.118
219.2
217.753
215.767
213.214
210.059
206.256
201.748
196.506
190.525
183.839
176.518
168.653
160.355
151.714
142.801
133.683
124.421
115.082
105.732
96.457
87.357
78.547
70.167
62.326
55.1
48.518
42.561
37.175
32.272
27.783
23.654
19.842
16.319
13.057
10.033
7.214
4.562
2.013
-0.521
-3.111
-5.809
-8.633
-11.565
-14.558
-17.54
-20.45
-23.235
-25.858
-28.299
-30.545
-32.595
-34.449
-36.112
-37.575
-38.814
-39.807
-40.537
-41.006
-41.229
-41.237
-41.073
-40.776
-40.384
-39.929
-39.433
-38.909
-38.367
-37.809
-37.232
-36.639
-36.036
-35.433
-34.841
-34.267
-33.715
-33.185
-32.677
-32.189
-31.716
-31.257
-30.809
-30.373
-29.95
-29.546
-29.164
-28.809
-28.485
-28.194
-27.936
-27.71
-27.516
-27.352
-27.214
-27.101
-27.01
-26.94
-26.888
-26.855
-26.837
-26.834
-26.845
-26.867
-26.9
-26.941
-26.99
-27.043
-27.101
-27.16
-27.221
-27.282
-27.342
-27.402
-27.46
-27.516
-27.571
-27.624
-27.675
-27.723
-27.769
-27.813
-27.856
-27.9
-27.945
-27.995
-28.052
-28.118
-28.197
-28.292
-28.406
-28.541
-28.7
-28.886
-29.102
-29.35
-29.632
-29.953
-30.313
-30.716
-31.163
-31.656
-32.196
-32.785
-33.421
-34.105
-34.836
-35.611
-36.43
-37.29
-38.189
-39.122
-40.088
-41.081
-42.097
-43.13
-44.175
-45.224
-46.269
-47.305
-48.321
-49.312
-50.268
-51.179
-52.035
-52.828
-53.547
-54.183
-54.727
-55.168
-55.497
-55.705
-55.784
-55.728
-55.532
-55.186
-54.685
-54.023
-53.194
-52.197
-51.034
-49.705
-48.212
-46.555
-44.737
-42.762
-40.635
-38.366
-35.96
-33.424
-30.761
-27.982
-25.101
-22.15
-19.147
-16.078
-12.938
-9.715
-6.412
-3.088
0.218
3.523
6.786
9.926
12.901
15.582
17.883
19.959
21.875
23.598
25.313
27.194
29.119
31.039
33.021
34.509
36.001
39.224
43.452
47.146
47.708
39.466
22.731
3.482
-12.522
-16.797
-8.119
5.498
17.755
22.287
17.644
9.444
1.281
-4.813
-8.392
-11.425
-14.694
-17.985
-21.156
-23.878
-26.136
-28.094
-29.765
-31.302
-32.908
-34.771
-37.067
-39.806
-42.976
-46.603
-50.755
-55.501
-60.873
-66.874
-73.477
-80.614
-88.242
-96.297
-104.536
-112.617
-120.077
-126.303
-130.774
-133.075
-132.812
-129.677
-123.635
-114.884
-103.915
-91.551
-78.62
-65.89
-53.87
-42.726
-32.11
-21.169
-8.799
6.424
26.309
52.953
88.038
132.515
185.22
242.938
302.724
362.325
421.946
482.818
542.455
593.496
623.085
618.144
572.915
491.306
386.774
274.401
164.313
60.869
-36.67
-127.786
-208.711
-274.565
-320.68
-345.544
-350.612
-338.579
-313.224
-279.019
-240.55
-202.515
-168.712
-141.432
-122.129
-111.309
-108.439
-112.037
-119.9
-129.318
-137.903
-144.196
-147.11
-146.089
-141.174
-132.779
-121.8
-109.584
-97.462
-86.284
-76.635
-68.783
-62.718
-58.409
-55.664
-54.099
-53.247
-52.772
-52.506
-52.405
-52.52
-52.87
-53.449
-54.263
-55.332
-56.635
-58.086
-59.611
-61.119
-62.53
-63.801
-64.872
-65.707
-66.305
-66.655
-66.75
-66.587
-66.155
-65.447
-64.493
-63.324
-61.985
-60.557
-59.089
-57.618
-56.182
-54.804
-53.512
-52.327
-51.242
-50.241
-49.307
-48.423
-47.578
-46.759
-45.933
-45.062
-44.101
-42.997
-41.708
-40.204
-38.452
-36.425
-34.103
-31.466
-28.507
-25.23
-21.634
-17.718
-13.484
-8.93
-4.062
1.107
6.565
12.299
18.294
24.537
31.01
37.695
44.576
51.636
58.855
66.217
73.7
81.279
88.929
96.622
104.328
112.018
119.66
127.223
134.673
141.98
149.111
156.036
162.725
169.148
175.275
181.08
186.536
191.619
196.306
200.576
204.411
207.794
210.711
213.148
215.096
216.544
217.488
217.923
217.847
217.258
216.16
214.558
212.457
209.867
206.801
203.271
199.293
194.887
190.071
184.869
179.304
173.4
167.186
160.688
153.934
146.955
139.779
132.438
124.96
117.377
109.717
102.009
94.281
86.561
78.875
71.248
63.704
56.267
48.957
41.797
34.804
27.997
21.393
15.006
8.85
2.936
-2.724
-8.123
-13.253
-18.11
-22.689
-26.99
-31.011
-34.755
-38.224
-41.422
-44.355
-47.03
-49.455
-51.638
-53.589
-55.317
-56.833
-58.148
-59.273
-60.216
-60.991
-61.606
-62.073
-62.401
-62.602
-62.685
-62.659
-62.535
-62.322
-62.029
-61.664
-61.237
-60.755
-60.227
-59.658
-59.057
-58.428
-57.779
-57.113
-56.437
-55.752
-55.062
-54.371
-53.68
-52.99
-52.303
-51.619
-50.94
-50.266
-49.597
-48.934
-48.278
-47.629
-46.989
-46.357
-45.734
-45.122
-44.522
-43.933
-43.357
-42.795
-42.248
-41.715
-41.198
-40.698
-40.214
-39.746
-39.296
-38.863
-38.447
-38.049
-37.669
-37.307
-36.965
-36.642
-36.34
-36.058
-35.799
-35.562
-35.348
-35.157
-34.99
-34.847
-34.727
-34.629
-34.554
-34.501
-34.468
-34.455
-34.461
-34.484
-34.522
-34.576
-34.643
-34.722
-34.812
-34.913
-35.022
-35.141
-35.267
-35.401
-35.542
-35.689
-35.843
-36.004
-36.17
-36.343
-36.521
-36.706
-36.897
-37.095
-37.3
-37.514
-37.737
-37.969
-38.212
-38.467
-38.735
-39.016
-39.312
-39.623
-39.95
-40.293
-40.652
-41.027
-41.417
-41.821
-42.238
-42.665
-43.1
-43.54
-43.981
-44.42
-44.853
-45.274
-45.68
-46.064
-46.421
-46.745
-47.029
-47.265
-47.446
-47.564
-47.611
-47.579
-47.46
-47.245
-46.926
-46.494
-45.942
-45.262
-44.448
-43.492
-42.389
-41.135
-39.725
-38.156
-36.428
-34.537
-32.484
-30.273
-27.906
-25.389
-22.728
-19.928
-17
-13.954
-10.802
-7.556
-4.23
-0.835
2.61
6.085
9.567
13.031
16.454
19.811
23.077
26.224
29.23
32.073
34.737
37.207
39.463
41.483
43.246
44.729
45.915
46.794
47.357
47.605
47.542
47.176
46.517
45.572
44.341
42.818
40.996
38.865
36.427
33.689
30.673
27.421
23.973
20.371
16.635
12.752
8.73
4.6
0.412
-3.755
-7.832
-11.793
-15.57
-19.028
-22.129
-24.906
-27.552
-30.466
-33.823
-37.525
-41.453
-45.453
-49.297
-52.793
-55.395
-56.157
-54.768
-51.581
-47.161
-42.317
-37.658
-33.387
-30.183
-29.228
-30.854
-34.502
-39.237
-43.918
-48.022
-51.734
-54.997
-57.267
-58.525
-59.636
-60.712
-60.538
-57.756
-51.271
-42.959
-37.378
-35.387
-31.746
-15.634
24.347
92.121
181.616
279.176
371.581
450.809
513.88
562.219
596.281
614.042
613.104
590.751
545.982
480.661
398.549
304.393
203.414
100.631
0.853
-90.865
-169.958
-233.118
-278.718
-306.634
-317.657
-313.12
-295.373
-267.966
-234.863
-200.038
-166.606
-136.68
-112.278
-95.081
-85.601
-83.317
-86.913
-94.345
-103.877
-114.077
-123.058
-129.197
-131.667
-130.105
-124.804
-116.661
-106.413
-94.898
-83.382
-72.791
-63.632
-56.244
-50.566
-46.353
-43.501
-41.742
-40.622
-39.887
-39.385
-39.042
-38.956
-39.169
-39.638
-40.345
-41.247
-42.29
-43.45
-44.67
-45.866
-46.969
-47.896
-48.6
-49.084
-49.336
-49.349
-49.116
-48.616
-47.869
-46.922
-45.834
-44.685
-43.53
-42.39
-41.292
-40.254
-39.297
-38.448
-37.713
-37.066
-36.491
-35.969
-35.485
-35.03
-34.572
-34.061
-33.444
-32.662
-31.669
-30.435
-28.931
-27.13
-25.012
-22.557
-19.759
-16.62
-13.141
-9.321
-5.159
-0.653
4.19
9.355
14.826
20.587
26.62
32.906
39.426
46.157
53.078
60.168
67.403
74.762
82.219
89.746
97.312
104.885
112.434
119.924
127.323
134.597
141.713
148.639
155.343
161.797
167.971
173.837
179.369
184.542
189.332
193.719
197.681
201.202
204.266
206.859
208.971
210.592
211.717
212.341
212.463
212.083
211.206
209.836
207.981
205.651
202.86
199.622
195.954
191.874
187.404
182.565
177.381
171.878
166.081
160.016
153.712
147.195
140.495
133.638
126.653
119.569
112.413
105.213
97.995
90.786
83.611
76.494
69.458
62.524
55.713
49.043
42.532
36.194
30.044
24.094
18.354
12.832
7.537
2.472
-2.357
-6.949
-11.302
-15.418
-19.298
-22.944
-26.362
-29.555
-32.529
-35.292
-37.85
-40.21
-42.383
-44.376
-46.198
-47.859
-49.369
-50.736
-51.971
-53.081
-54.076
-54.964
-55.753
-56.449
-57.06
-57.591
-58.047
-58.435
-58.756
-59.016
-59.217
-59.361
-59.45
-59.486
-59.47
-59.402
-59.283
-59.114
-58.895
-58.627
-58.309
-57.943
-57.527
-57.063
-56.551
-55.99
-55.383
-54.729
-54.03
-53.286
-52.501
-51.674
-50.81
-49.911
-48.979
-48.019
-47.034
-46.028
-45.007
-43.974
-42.935
-41.897
-40.863
-39.841
-38.836
-37.854
-36.901
-35.981
-35.101
-34.263
-33.473
-32.735
-32.051
-31.426
-30.86
-30.357
-29.917
-29.543
-29.234
-28.99
-28.811
-28.695
-28.642
-28.65
-28.715
-28.837
-29.011
-29.236
-29.506
-29.82
-30.173
-30.561
-30.979
-31.423
-31.888
-32.37
-32.865
-33.368
-33.875
-34.382
-34.886
-35.385
-35.875
-36.356
-36.824
-37.28
-37.723
-38.152
-38.569
-38.974
-39.368
-39.754
-40.134
-40.511
-40.887
-41.265
-41.649
-42.04
-42.443
-42.859
-43.29
-43.74
-44.209
-44.702
-45.218
-45.759
-46.327
-46.922
-47.545
-48.194
-48.87
-49.57
-50.293
-51.036
-51.796
-52.568
-53.348
-54.131
-54.911
-55.68
-56.431
-57.156
-57.846
-58.49
-59.08
-59.603
-60.052
-60.414
-60.681
-60.843
-60.891
-60.815
-60.608
-60.262
-59.771
-59.127
-58.325
-57.36
-56.229
-54.931
-53.462
-51.823
-50.013
-48.035
-45.893
-43.589
-41.13
-38.523
-35.775
-32.896
-29.899
-26.796
-23.603
-20.337
-17.016
-13.662
-10.294
-6.935
-3.607
-0.333
2.865
5.965
8.946
11.787
14.468
16.968
19.266
21.344
23.182
24.764
26.074
27.095
27.811
28.211
28.288
28.039
27.459
26.541
25.277
23.662
21.703
19.413
16.804
13.894
10.705
7.271
3.646
-0.114
-3.953
-7.824
-11.696
-15.535
-19.298
-22.932
-26.383
-29.607
-32.589
-35.322
-37.791
-39.981
-41.9
-43.59
-45.149
-46.694
-48.307
-50.048
-51.949
-54.027
-56.341
-58.967
-61.961
-65.373
-69.209
-73.414
-78.017
-83.078
-88.498
-94.045
-99.257
-103.47
-106.204
-107.138
-105.869
-102.086
-95.725
-86.941
-76.503
-65.614
-55.161
-45.897
-38.481
-33.022
-29.221
-26.285
-22.316
-15.029
-2.501
17.426
46.792
86.661
137.393
197.078
260.992
324.837
385.502
442.692
498.1
549.596
589.861
606.191
585.987
525.251
430.526
317.595
203.283
98.1
5.597
-75.896
-147.434
-207.1
-252.225
-280.62
-292.798
-291.837
-281.369
-265.281
-247.259
-230.335
-216.494
-206.539
-200.296
-196.872
-195.189
-194.078
-192.124
-188.014
-181.124
-171.436
-159.36
-145.633
-130.931
-115.85
-101.084
-87.281
-74.836
-63.954
-54.699
-47.016
-40.85
-36.141
-32.774
-30.615
-29.523
-29.367
-30.024
-31.363
-33.259
-35.604
-38.302
-41.261
-44.385
-47.544
-50.577
-53.337
-55.721
-57.662
-59.125
-60.087
-60.543
-60.509
-60.031
-59.177
-58.007
-56.558
-54.853
-52.926
-50.825
-48.624
-46.427
-44.31
-42.328
-40.515
-38.89
-37.463
-36.239
-35.202
-34.314
-33.53
-32.81
-32.124
-31.453
-30.769
-30.031
-29.189
-28.186
-26.974
-25.52
-23.794
-21.772
-19.433
-16.76
-13.749
-10.406
-6.737
-2.743
1.573
6.212
11.169
16.435
21.998
27.842
33.955
40.32
46.922
53.74
60.753
67.941
75.283
82.759
90.345
98.015
105.741
113.492
121.239
128.952
136.598
144.145
151.561
158.814
165.873
172.71
179.293
185.594
191.585
197.24
202.532
207.438
211.936
216.005
219.627
222.786
225.466
227.656
229.346
230.527
231.196
231.35
230.987
230.112
228.729
226.844
224.469
221.613
218.292
214.521
210.317
205.7
200.691
195.313
189.589
183.545
177.206
170.599
163.753
156.695
149.455
142.061
134.543
126.93
119.25
111.533
103.806
96.097
88.431
80.834
73.331
65.943
58.692
51.597
44.676
37.946
31.421
25.113
19.033
13.192
7.595
2.25
-2.838
-7.668
-12.238
-16.546
-20.595
-24.388
-27.927
-31.219
-34.268
-37.084
-39.672
-42.044
-44.207
-46.172
-47.951
-49.554
-50.993
-52.28
-53.426
-54.443
-55.342
-56.136
-56.833
-57.446
-57.982
-58.451
-58.861
-59.22
-59.533
-59.808
-60.048
-60.26
-60.447
-60.613
-60.76
-60.89
-61.006
-61.108
-61.197
-61.273
-61.335
-61.383
-61.416
-61.433
-61.431
-61.408
-61.363
-61.293
-61.196
-61.068
-60.907
-60.709
-60.473
-60.196
-59.876
-59.511
-59.1
-58.642
-58.136
-57.582
-56.981
-56.334
-55.641
-54.905
-54.127
-53.31
-52.457
-51.57
-50.654
-49.711
-48.747
-47.766
-46.771
-45.767
-44.76
-43.753
-42.752
-41.762
-40.788
-39.835
-38.908
-38.013
-37.156
-36.341
-35.573
-34.857
-34.198
-33.601
-33.069
-32.605
-32.214
-31.898
-31.66
-31.502
-31.426
-31.432
-31.523
-31.697
-31.955
-32.296
-32.718
-33.221
-33.801
-34.457
-35.185
-35.982
-36.843
-37.764
-38.741
-39.767
-40.837
-41.945
-43.083
-44.244
-45.422
-46.608
-47.795
-48.973
-50.134
-51.271
-52.373
-53.433
-54.439
-55.384
-56.258
-57.052
-57.756
-58.364
-58.864
-59.251
-59.515
-59.65
-59.649
-59.505
-59.214
-58.769
-58.167
-57.405
-56.481
-55.393
-54.141
-52.726
-51.151
-49.418
-47.532
-45.499
-43.325
-41.017
-38.584
-36.036
-33.383
-30.639
-27.815
-24.928
-21.994
-19.033
-16.062
-13.102
-10.171
-7.291
-4.481
-1.761
0.853
3.344
5.695
7.886
9.899
11.715
13.321
14.701
15.843
16.735
17.365
17.729
17.831
17.669
17.24
16.539
15.547
14.26
12.683
10.82
8.685
6.293
3.662
0.83
-2.15
-5.23
-8.362
-11.509
-14.649
-17.739
-20.728
-23.555
-26.144
-28.448
-30.442
-32.095
-33.394
-34.347
-34.978
-35.348
-35.55
-35.674
-35.812
-36.061
-36.503
-37.24
-38.37
-40.029
-42.414
-45.589
-49.491
-53.944
-58.608
-63.172
-67.43
-71.044
-73.487
-74.429
-73.841
-72.106
-70.098
-68.455
-67.352
-66.91
-67.425
-69.136
-71.786
-74.227
-74.364
-70.207
-60.517
-44.335
-20.387
12.767
56.002
109.203
170.559
237.443
307.838
378.338
444.448
502.657
548.284
579.224
595.54
592.71
567.612
517.114
438.858
340.462
230.719
118.136
11.838
-85.582
-171.594
-242.382
-296.501
-332.109
-349.294
-350.856
-339.253
-317.373
-288.942
-257.547
-226.649
-198.863
-175.288
-156.032
-141.227
-131.044
-124.928
-121.74
-119.899
-117.836
-114.852
-110.907
-105.842
-99.296
-91.295
-82.238
-73.007
-64.794
-58.189
-53.269
-50.074
-48.614
-48.813
-50.479
-53.106
-55.96
-58.591
-60.804
-62.515
-63.743
-64.442
-64.52
-63.968
-62.826
-61.14
-58.945
-56.254
-53.075
-49.477
-45.584
-41.57
-37.608
-33.805
-30.227
-26.911
-23.865
-21.111
-18.661
-16.506
-14.646
-13.079
-11.797
-10.805
-10.094
-9.628
-9.358
-9.212
-9.114
-9.011
-8.86
-8.627
-8.291
-7.826
-7.216
-6.454
-5.528
-4.424
-3.122
-1.601
0.16
2.174
4.45
6.993
9.806
12.89
16.248
19.88
23.786
27.966
32.419
37.146
42.145
47.411
52.933
58.7
64.698
70.91
77.317
83.899
90.634
97.498
104.467
111.518
118.624
125.759
132.895
140.007
147.065
154.042
160.908
167.635
174.194
180.556
186.695
192.583
198.192
203.499
208.479
213.109
217.368
221.236
224.693
227.723
230.311
232.442
234.107
235.296
236.002
236.221
235.951
235.193
233.949
232.224
230.025
227.359
224.237
220.672
216.676
212.264
207.455
202.265
196.715
190.825
184.618
178.116
171.345
164.328
157.092
149.662
142.066
134.331
126.483
118.552
110.562
102.543
94.519
86.517
78.562
70.678
62.886
55.21
47.669
40.282
33.066
26.037
19.21
12.598
6.213
0.064
-5.839
-11.489
-16.879
-22.006
-26.864
-31.451
-35.766
-39.809
-43.581
-47.084
-50.321
-53.296
-56.016
-58.487
-60.716
-62.712
-64.483
-66.04
-67.392
-68.549
-69.523
-70.324
-70.963
-71.451
-71.799
-72.016
-72.113
-72.1
-71.985
-71.778
-71.487
-71.12
-70.686
-70.191
-69.643
-69.049
-68.416
-67.751
-67.06
-66.35
-65.625
-64.891
-64.154
-63.416
-62.684
-61.959
-61.245
-60.545
-59.86
-59.192
-58.543
-57.913
-57.303
-56.714
-56.146
-55.598
-55.072
-54.567
-54.085
-53.625
-53.189
-52.777
-52.39
-52.029
-51.696
-51.391
-51.115
-50.869
-50.654
-50.47
-50.317
-50.197
-50.109
-50.053
-50.03
-50.039
-50.082
-50.158
-50.268
-50.412
-50.591
-50.806
-51.058
-51.348
-51.677
-52.045
-52.455
-52.906
-53.399
-53.935
-54.513
-55.134
-55.795
-56.496
-57.235
-58.011
-58.819
-59.659
-60.525
-61.415
-62.324
-63.249
-64.184
-65.125
-66.068
-67.006
-67.936
-68.85
-69.743
-70.609
-71.441
-72.232
-72.974
-73.659
-74.279
-74.825
-75.29
-75.665
-75.94
-76.109
-76.163
-76.093
-75.893
-75.554
-75.072
-74.44
-73.653
-72.706
-71.598
-70.326
-68.89
-67.289
-65.525
-63.6
-61.516
-59.28
-56.895
-54.367
-51.705
-48.916
-46.012
-43.003
-39.903
-36.725
-33.485
-30.202
-26.893
-23.578
-20.278
-17.012
-13.802
-10.67
-7.637
-4.723
-1.946
0.672
3.112
5.353
7.376
9.165
10.7
11.967
12.951
13.637
14.018
14.091
13.852
13.299
12.428
11.226
9.691
7.831
5.652
3.164
0.387
-2.658
-5.93
-9.37
-12.929
-16.556
-20.21
-23.867
-27.484
-31.016
-34.417
-37.627
-40.606
-43.339
-45.793
-47.942
-49.789
-51.351
-52.703
-53.964
-55.226
-56.557
-58.01
-59.614
-61.443
-63.582
-66.096
-69.062
-72.49
-76.382
-80.833
-85.819
-91.175
-96.634
-101.659
-105.675
-108.34
-109.213
-107.802
-104.052
-98.047
-90.167
-81.491
-72.866
-64.821
-58.195
-53.529
-50.51
-48.57
-46.419
-41.655
-32.297
-16.619
7.585
42.003
87.062
142.336
206.34
274.859
343.435
408.917
466.271
512.765
546.864
562.098
554.471
520.868
458.314
374.326
277.422
174.223
74.199
-21.388
-111.755
-190.269
-255.465
-302.029
-323.755
-324.083
-304.022
-270.001
-235.411
-206.895
-191.847
-191.242
-196.644
-202.883
-204.185
-198.386
-189.398
-178.777
-167.86
-157.35
-145.626
-132.491
-118.7
-104.795
-91.827
-80.604
-71.255
-63.871
-58.5
-54.949
-53.03
-52.595
-53.432
-55.292
-57.95
-61.106
-64.414
-67.658
-70.682
-73.364
-75.654
-77.477
-78.76
-79.463
-79.552
-79.013
-77.866
-76.131
-73.834
-71.053
-67.895
-64.508
-61.086
-57.764
-54.626
-51.732
-49.103
-46.76
-44.728
-43.006
-41.586
-40.459
-39.613
-39.039
-38.735
-38.668
-38.794
-39.049
-39.348
-39.625
-39.834
-39.932
-39.89
-39.68
-39.277
-38.665
-37.837
-36.78
-35.478
-33.911
-32.056
-29.897
-27.425
-24.633
-21.52
-18.086
-14.329
-10.251
-5.854
-1.142
3.881
9.211
14.842
20.768
26.976
33.45
40.172
47.12
54.273
61.605
69.091
76.701
84.408
92.183
99.996
107.818
115.616
123.362
131.022
138.566
145.963
153.181
160.189
166.957
173.455
179.653
185.525
191.044
196.186
200.926
205.245
209.123
212.543
215.49
217.951
219.915
221.375
222.325
222.762
222.685
222.098
221.005
219.414
217.332
214.773
211.748
208.274
204.365
200.042
195.322
190.228
184.781
179.005
172.924
166.565
159.952
153.115
146.08
138.875
131.53
124.072
116.53
108.933
101.308
93.681
86.08
78.53
71.054
63.676
56.418
49.3
42.341
35.557
28.964
22.577
16.407
10.465
4.761
-0.699
-5.909
-10.862
-15.556
-19.989
-24.159
-28.066
-31.712
-35.1
-38.232
-41.114
-43.751
-46.15
-48.318
-50.264
-51.996
-53.525
-54.859
-56.009
-56.987
-57.802
-58.465
-58.988
-59.382
-59.655
-59.82
-59.886
-59.861
-59.756
-59.577
-59.333
-59.031
-58.679
-58.282
-57.846
-57.378
-56.883
-56.366
-55.832
-55.285
-54.73
-54.17
-53.608
-53.048
-52.491
-51.941
-51.398
-50.866
-50.343
-49.832
-49.333
-48.846
-48.37
-47.905
-47.45
-47.006
-46.569
-46.141
-45.721
-45.307
-44.9
-44.499
-44.104
-43.715
-43.332
-42.956
-42.586
-42.223
-41.868
-41.52
-41.179
-40.847
-40.524
-40.21
-39.906
-39.613
-39.33
-39.06
-38.802
-38.559
-38.331
-38.12
-37.928
-37.757
-37.609
-37.487
-37.393
-37.331
-37.302
-37.308
-37.353
-37.437
-37.563
-37.732
-37.944
-38.202
-38.504
-38.851
-39.242
-39.676
-40.152
-40.668
-41.222
-41.81
-42.429
-43.077
-43.748
-44.439
-45.145
-45.86
-46.578
-47.293
-47.999
-48.687
-49.349
-49.975
-50.557
-51.085
-51.55
-51.942
-52.25
-52.465
-52.579
-52.581
-52.463
-52.218
-51.838
-51.314
-50.643
-49.818
-48.836
-47.694
-46.39
-44.922
-43.293
-41.503
-39.556
-37.457
-35.209
-32.82
-30.297
-27.651
-24.893
-22.033
-19.085
-16.066
-12.994
-9.891
-6.775
-3.669
-0.593
2.428
5.372
8.217
10.944
13.536
15.972
18.232
20.296
22.144
23.76
25.127
26.231
27.057
27.592
27.831
27.777
27.428
26.785
25.842
24.588
23.019
21.14
18.958
16.481
13.729
10.725
7.507
4.132
0.651
-2.889
-6.453
-10.013
-13.53
-16.957
-20.244
-23.333
-26.189
-28.786
-31.086
-33.065
-34.734
-36.121
-37.298
-38.36
-39.361
-40.355
-41.406
-42.575
-43.952
-45.631
-47.671
-50.152
-53.171
-56.756
-60.854
-65.265
-69.584
-73.354
-76.169
-77.593
-77.145
-74.561
-69.933
-63.722
-56.879
-50.47
-45.209
-41.734
-40.804
-42.679
-46.789
-51.841
-55.551
-55.189
-48.664
-34.058
-9.107
27.865
77.447
139.109
209.737
284.161
357.887
426.956
489.664
546.08
593.403
625.954
634.667
610.221
549.788
456.856
339.629
209.241
75.905
-51.105
-161.017
-244.946
-299.321
-324.089
-323.236
-302.921
-267.184
-221.989
-177.431
-142.151
-121.986
-116.772
-118.235
-118.754
-114.972
-107.736
-101.946
-100.611
-103.602
-108.936
-113.672
-116.324
-116.399
-113.863
-109.403
-103.627
-97.181
-91.043
-85.683
-81.249
-78.045
-76.118
-75.391
-75.78
-76.873
-78.105
-79.137
-79.787
-79.952
-79.661
-78.919
-77.691
-76.044
-74.089
-71.913
-69.592
-67.152
-64.592
-61.93
-59.216
-56.514
-53.897
-51.431
-49.151
-47.079
-45.229
-43.607
-42.217
-41.051
-40.086
-39.294
-38.651
-38.141
-37.752
-37.465
-37.257
-37.098
-36.957
-36.803
-36.614
-36.365
-36.035
-35.602
-35.047
-34.353
-33.507
-32.495
-31.302
-29.915
-28.316
-26.491
-24.429
-22.118
-19.548
-16.711
-13.599
-10.209
-6.538
-2.585
1.65
6.163
10.95
16.004
21.318
26.88
32.679
38.699
44.926
51.341
57.925
64.656
71.514
78.474
85.512
92.604
99.722
106.841
113.935
120.975
127.935
134.786
141.5
148.051
154.411
160.554
166.451
172.079
177.412
182.426
187.1
191.412
195.344
198.876
201.993
204.681
206.927
208.721
210.056
210.924
211.322
211.248
210.704
209.691
208.215
206.281
203.9
201.08
197.836
194.18
190.128
185.698
180.909
175.781
170.336
164.596
158.586
152.33
145.854
139.184
132.347
125.37
118.282
111.108
103.876
96.613
89.345
82.098
74.896
67.764
60.723
53.795
47
40.357
33.884
27.595
21.507
15.631
9.979
4.561
-0.614
-5.539
-10.21
-14.622
-18.772
-22.659
-26.284
-29.648
-32.755
-35.607
-38.211
-40.572
-42.698
-44.597
-46.277
-47.748
-49.02
-50.102
-51.006
-51.741
-52.319
-52.75
-53.045
-53.215
-53.27
-53.219
-53.073
-52.842
-52.534
-52.158
-51.723
-51.236
-50.705
-50.138
-49.541
-48.92
-48.282
-47.631
-46.973
-46.311
-45.65
-44.993
-44.342
-43.699
-43.068
-42.45
-41.845
-41.257
-40.684
-40.129
-39.593
-39.075
-38.576
-38.097
-37.638
-37.199
-36.781
-36.384
-36.009
-35.655
-35.322
-35.012
-34.722
-34.454
-34.207
-33.98
-33.773
-33.585
-33.415
-33.263
-33.128
-33.011
-32.91
-32.825
-32.756
-32.704
-32.667
-32.647
-32.642
-32.653
-32.68
-32.723
-32.782
-32.856
-32.946
-33.051
-33.171
-33.307
-33.457
-33.622
-33.801
-33.993
-34.198
-34.417
-34.649
-34.895
-35.155
-35.429
-35.718
-36.023
-36.345
-36.683
-37.038
-37.41
-37.799
-38.204
-38.625
-39.061
-39.51
-39.97
-40.439
-40.915
-41.395
-41.875
-42.352
-42.821
-43.279
-43.72
-44.14
-44.534
-44.897
-45.224
-45.508
-45.746
-45.93
-46.053
-46.11
-46.093
-45.996
-45.811
-45.531
-45.149
-44.659
-44.052
-43.325
-42.47
-41.483
-40.358
-39.092
-37.682
-36.126
-34.423
-32.573
-30.578
-28.441
-26.166
-23.759
-21.226
-18.575
-15.815
-12.956
-10.008
-6.984
-3.897
-0.761
2.409
5.595
8.777
11.936
15.05
18.1
21.062
23.916
26.639
29.211
31.617
33.836
35.851
37.642
39.191
40.48
41.497
42.229
42.666
42.797
42.618
42.129
41.334
40.24
38.845
37.143
35.129
32.8
30.167
27.241
24.036
20.569
16.863
12.954
8.895
4.734
0.514
-3.734
-7.978
-12.176
-16.272
-20.196
-23.885
-27.291
-30.373
-33.11
-35.475
-37.462
-39.081
-40.361
-41.374
-42.199
-42.911
-43.589
-44.312
-45.14
-46.198
-47.669
-49.632
-52.088
-54.902
-57.732
-60.304
-62.424
-63.783
-64.018
-62.865
-60.188
-56.39
-52.418
-49.036
-46.852
-46.336
-47.741
-51.383
-57.355
-64.575
-70.97
-74.469
-72.998
-64.765
-48.228
-21.415
17.707
68.755
128.558
193.984
261.589
330.204
402.811
479.433
555.162
621.758
664.779
670.161
633.189
554.109
440.053
306.875
167.757
37.108
-69.203
-145.924
-192.277
-213.677
-223.726
-229.333
-232.512
-232.926
-225.792
-211.282
-193.726
-176.569
-163.35
-155.305
-151.301
-150.223
-150.944
-151.861
-151.401
-148.749
-143.684
-136.514
-128.009
-118.791
-109.315
-100.243
-92.283
-85.819
-80.996
-77.714
-75.657
-74.587
-74.337
-74.697
-75.476
-76.49
-77.549
-78.501
-79.235
-79.658
-79.712
-79.363
-78.582
-77.369
-75.753
-73.787
-71.543
-69.088
-66.48
-63.767
-60.995
-58.221
-55.515
-52.941
-50.561
-48.417
-46.528
-44.91
-43.567
-42.494
-41.671
-41.069
-40.648
-40.375
-40.224
-40.169
-40.186
-40.245
-40.314
-40.365
-40.366
-40.293
-40.118
-39.818
-39.37
-38.752
-37.949
-36.945
-35.728
-34.283
-32.596
-30.653
-28.442
-25.952
-23.174
-20.098
-16.718
-13.032
-9.036
-4.734
-0.127
4.778
9.974
15.45
21.196
27.197
33.438
39.902
46.569
53.418
60.427
67.571
74.827
82.167
89.563
96.989
104.414
111.811
119.149
126.401
133.536
140.526
147.342
153.957
160.343
166.473
172.322
177.865
183.077
187.936
192.422
196.516
200.201
203.461
206.282
208.653
210.564
212.008
212.979
213.474
213.491
213.031
212.098
210.696
208.834
206.521
203.768
200.589
196.999
193.013
188.651
183.931
178.873
173.499
167.831
161.893
155.708
149.302
142.699
135.925
129.005
121.967
114.836
107.638
100.398
93.141
85.892
78.675
71.513
64.429
57.443
50.575
43.846
37.271
30.868
24.65
18.631
12.821
7.23
1.866
-3.264
-8.155
-12.804
-17.208
-21.366
-25.278
-28.946
-32.371
-35.557
-38.509
-41.232
-43.732
-46.017
-48.093
-49.97
-51.655
-53.158
-54.489
-55.657
-56.673
-57.546
-58.288
-58.909
-59.419
-59.829
-60.147
-60.384
-60.548
-60.647
-60.689
-60.681
-60.629
-60.539
-60.417
-60.268
-60.095
-59.903
-59.694
-59.472
-59.24
-58.998
-58.75
-58.496
-58.238
-57.976
-57.713
-57.447
-57.18
-56.913
-56.645
-56.377
-56.109
-55.84
-55.57
-55.3
-55.028
-54.754
-54.479
-54.203
-53.924
-53.645
-53.365
-53.085
-52.806
-52.529
-52.254
-51.983
-51.716
-51.455
-51.202
-50.957
-50.721
-50.496
-50.282
-50.081
-49.893
-49.719
-49.56
-49.415
-49.284
-49.169
-49.068
-48.982
-48.909
-48.851
-48.807
-48.776
-48.758
-48.753
-48.76
-48.78
-48.811
-48.854
-48.907
-48.972
-49.047
-49.132
-49.228
-49.334
-49.451
-49.579
-49.718
-49.869
-50.032
-50.209
-50.401
-50.609
-50.833
-51.077
-51.34
-51.626
-51.934
-52.268
-52.629
-53.017
-53.436
-53.885
-54.365
-54.878
-55.423
-56.001
-56.609
-57.249
-57.917
-58.613
-59.334
-60.077
-60.838
-61.615
-62.402
-63.195
-63.989
-64.777
-65.552
-66.309
-67.038
-67.732
-68.383
-68.982
-69.519
-69.987
-70.375
-70.676
-70.879
-70.977
-70.96
-70.821
-70.552
-70.145
-69.593
-68.892
-68.036
-67.02
-65.844
-64.503
-62.997
-61.326
-59.492
-57.497
-55.346
-53.043
-50.594
-48.007
-45.292
-42.458
-39.518
-36.484
-33.374
-30.204
-26.993
-23.762
-20.529
-17.317
-14.146
-11.036
-8.009
-5.083
-2.275
0.395
2.909
5.246
7.385
9.308
11.001
12.446
13.632
14.544
15.174
15.52
15.58
15.351
14.826
13.991
12.835
11.36
9.571
7.478
5.103
2.467
-0.398
-3.438
-6.603
-9.846
-13.125
-16.413
-19.683
-22.888
-25.976
-28.885
-31.556
-33.963
-36.085
-37.901
-39.423
-40.678
-41.723
-42.662
-43.576
-44.539
-45.637
-46.941
-48.538
-50.536
-53
-56.039
-59.802
-64.293
-69.452
-75.116
-80.904
-86.481
-91.598
-95.856
-98.842
-100.35
-100.254
-98.837
-96.821
-94.683
-92.7
-91.093
-89.931
-89.28
-89.105
-88.582
-86.192
-80.475
-70.104
-54.199
-31.915
-1.963
36.932
85.47
142.186
203.603
266.536
328.009
388.021
449.811
512.631
572.449
619.453
637.288
615.213
549.517
445.958
320.047
187.767
63.26
-44.83
-132.62
-199.893
-250.485
-287.346
-313.58
-330.157
-334.426
-325.888
-305.834
-277.653
-247.207
-218.205
-192.478
-171.347
-155.047
-143.933
-138.104
-136.453
-137.34
-139.573
-142.115
-143.925
-144.337
-142.612
-138.275
-131.594
-123.212
-113.717
-103.828
-94.386
-85.927
-78.983
-73.956
-70.84
-69.474
-69.606
-70.78
-72.474
-74.338
-76.075
-77.501
-78.589
-79.298
-79.63
-79.657
-79.437
-78.995
-78.316
-77.331
-75.98
-74.258
-72.188
-69.839
-67.303
-64.667
-62.036
-59.503
-57.122
-54.935
-52.949
-51.148
-49.525
-48.074
-46.791
-45.692
-44.783
-44.057
-43.508
-43.111
-42.826
-42.607
-42.389
-42.11
-41.727
-41.202
-40.507
-39.626
-38.538
-37.228
-35.69
-33.908
-31.867
-29.551
-26.943
-24.028
-20.802
-17.26
-13.405
-9.242
-4.778
-0.016
5.036
10.371
15.981
21.86
27.999
34.389
41.017
47.865
54.915
62.144
69.529
77.045
84.664
92.357
100.095
107.848
115.586
123.279
130.896
138.404
145.774
152.973
159.972
166.74
173.247
179.466
185.369
190.93
196.125
200.933
205.333
209.305
212.834
215.903
218.5
220.613
222.234
223.355
223.971
224.081
223.684
222.783
221.385
219.497
217.129
214.295
211.009
207.289
203.153
198.621
193.716
188.461
182.881
177.003
170.853
164.458
157.848
151.051
144.094
137.008
129.821
122.56
115.253
107.927
100.61
93.326
86.1
78.956
71.918
65.005
58.239
51.638
45.219
38.997
32.987
27.2
21.648
16.337
11.275
6.467
1.916
-2.376
-6.409
-10.185
-13.706
-16.977
-20.002
-22.787
-25.339
-27.667
-29.777
-31.678
-33.381
-34.893
-36.225
-37.387
-38.388
-39.238
-39.948
-40.525
-40.981
-41.324
-41.564
-41.71
-41.769
-41.75
-41.661
-41.509
-41.301
-41.042
-40.738
-40.394
-40.015
-39.603
-39.164
-38.699
-38.21
-37.702
-37.174
-36.629
-36.069
-35.494
-34.906
-34.305
-33.693
-33.071
-32.44
-31.801
-31.156
-30.505
-29.852
-29.196
-28.54
-27.885
-27.233
-26.585
-25.943
-25.308
-24.682
-24.066
-23.461
-22.869
-22.291
-21.728
-21.182
-20.654
-20.144
-19.654
-19.185
-18.736
-18.308
-17.903
-17.52
-17.159
-16.821
-16.507
-16.215
-15.945
-15.698
-15.473
-15.268
-15.085
-14.921
-14.775
-14.648
-14.538
-14.445
-14.367
-14.306
-14.26
-14.23
-14.215
-14.216
-14.233
-14.267
-14.318
-14.388
-14.478
-14.589
-14.722
-14.88
-15.063
-15.273
-15.512
-15.782
-16.082
-16.414
-16.779
-17.176
-17.605
-18.067
-18.559
-19.081
-19.631
-20.207
-20.807
-21.426
-22.063
-22.713
-23.37
-24.03
-24.687
-25.335
-25.968
-26.578
-27.156
-27.696
-28.19
-28.628
-29.002
-29.303
-29.522
-29.65
-29.679
-29.599
-29.403
-29.083
-28.632
-28.043
-27.313
-26.436
-25.41
-24.233
-22.904
-21.423
-19.793
-18.018
-16.101
-14.048
-11.867
-9.566
-7.157
-4.649
-2.057
0.605
3.321
6.07
8.835
11.595
14.329
17.016
19.634
22.162
24.58
26.868
29.009
30.982
32.765
34.338
35.682
36.783
37.625
38.197
38.485
38.481
38.183
37.592
36.71
35.533
34.052
32.256
30.143
27.721
25.003
22.005
18.742
15.24
11.532
7.671
3.703
-0.333
-4.408
-8.497
-12.563
-16.552
-20.399
-24.043
-27.434
-30.542
-33.346
-35.828
-37.984
-39.822
-41.373
-42.705
-43.897
-45.016
-46.132
-47.31
-48.596
-50.1
-51.994
-54.346
-57.132
-60.199
-63.209
-65.891
-68.086
-69.529
-69.893
-69.006
-66.847
-63.862
-60.971
-58.858
-57.959
-58.576
-60.789
-64.576
-69.629
-74.741
-78.006
-77.674
-72.141
-60.188
-40.981
-13.636
22.4
66.809
118.504
176.042
236.515
295.844
350.555
397.966
439.211
477.885
513.372
539.602
544.265
514.873
449.123
355.379
248.594
141.197
37.59
-62.62
-158.674
-241.841
-300.525
-327.433
-323.177
-299.735
-270.903
-245.465
-227.177
-213.31
-200.732
-188.983
-178.75
-171.748
-168.269
-166.901
-165.648
-162.531
-156.78
-148.514
-138.185
-126.5
-114.123
-101.678
-89.923
-79.526
-70.808
-63.866
-58.626
-54.936
-52.663
-51.656
-51.745
-52.718
-54.35
-56.43
-58.728
-61.036
-63.207
-65.12
-66.693
-67.888
-68.673
-69.023
-68.934
-68.374
-67.33
-65.813
-63.833
-61.422
-58.655
-55.62
-52.446
-49.281
-46.225
-43.345
-40.686
-38.261
-36.08
-34.152
-32.469
-31.027
-29.825
-28.855
-28.111
-27.587
-27.254
-27.075
-26.995
-26.94
-26.855
-26.697
-26.43
-26.032
-25.479
-24.75
-23.834
-22.721
-21.401
-19.858
-18.076
-16.035
-13.721
-11.125
-8.244
-5.079
-1.632
2.098
6.106
10.391
14.949
19.774
24.863
30.213
35.818
41.666
47.744
54.036
60.525
67.19
74.012
80.967
88.031
95.181
102.391
109.638
116.894
124.132
131.326
138.446
145.465
152.354
159.083
165.626
171.953
178.037
183.852
189.373
194.577
199.441
203.944
208.067
211.792
215.102
217.984
220.425
222.414
223.943
225.007
225.6
225.722
225.374
224.557
223.278
221.542
219.358
216.736
213.689
210.231
206.377
202.145
197.555
192.627
187.384
181.85
176.049
170.006
163.749
157.303
150.695
143.954
137.105
130.176
123.194
116.186
109.176
102.19
95.252
88.385
81.611
74.949
68.419
62.039
55.825
49.791
43.952
38.318
32.901
27.709
22.75
18.029
13.55
9.315
5.326
1.582
-1.919
-5.181
-8.209
-11.007
-13.583
-15.944
-18.099
-20.056
-21.825
-23.416
-24.839
-26.105
-27.225
-28.209
-29.067
-29.811
-30.449
-30.992
-31.447
-31.825
-32.132
-32.376
-32.565
-32.705
-32.802
-32.862
-32.89
-32.891
-32.868
-32.824
-32.762
-32.685
-32.593
-32.488
-32.371
-32.242
-32.102
-31.951
-31.788
-31.614
-31.428
-31.23
-31.018
-30.794
-30.556
-30.305
-30.041
-29.764
-29.475
-29.176
-28.868
-28.552
-28.232
-27.908
-27.584
-27.262
-26.945
-26.636
-26.337
-26.053
-25.785
-25.538
-25.316
-25.121
-24.956
-24.827
-24.734
-24.683
-24.675
-24.712
-24.799
-24.936
-25.126
-25.371
-25.672
-26.03
-26.446
-26.92
-27.453
-28.043
-28.691
-29.394
-30.152
-30.961
-31.821
-32.728
-33.68
-34.673
-35.706
-36.774
-37.874
-39.002
-40.156
-41.33
-42.522
-43.727
-44.941
-46.161
-47.382
-48.599
-49.811
-51.011
-52.196
-53.361
-54.503
-55.618
-56.701
-57.749
-58.758
-59.724
-60.643
-61.512
-62.327
-63.086
-63.783
-64.416
-64.98
-65.473
-65.892
-66.232
-66.492
-66.668
-66.758
-66.758
-66.667
-66.481
-66.198
-65.817
-65.334
-64.75
-64.064
-63.274
-62.381
-61.384
-60.286
-59.088
-57.794
-56.405
-54.924
-53.355
-51.704
-49.976
-48.177
-46.314
-44.393
-42.426
-40.422
-38.395
-36.355
-34.314
-32.286
-30.282
-28.316
-26.399
-24.54
-22.749
-21.037
-19.414
-17.896
-16.494
-15.219
-14.082
-13.094
-12.265
-11.602
-11.109
-10.782
-10.622
-10.633
-10.823
-11.204
-11.783
-12.56
-13.534
-14.699
-16.041
-17.543
-19.17
-20.879
-22.631
-24.396
-26.151
-27.883
-29.565
-31.159
-32.628
-33.932
-35.042
-35.942
-36.605
-37.016
-37.205
-37.21
-37.106
-36.984
-36.891
-36.877
-37.007
-37.333
-37.946
-38.942
-40.375
-42.33
-44.905
-48.079
-51.766
-55.761
-59.661
-63.117
-65.838
-67.409
-67.518
-66.167
-63.598
-60.416
-57.415
-55.05
-53.6
-53.476
-54.877
-57.474
-60.277
-61.56
-59.571
-53.106
-41.184
-22.651
3.6
38.063
80.078
127.781
179.117
232.194
284.835
334.113
376.355
407.954
426.254
429.755
417.348
388.229
342.496
281.836
209.631
130.205
47.957
-33.104
-108.892
-175.151
-228.283
-266.28
-288.745
-296.636
-291.665
-275.6
-250.902
-221.064
-189.637
-159.467
-132.77
-110.7
-93.808
-82.863
-77.877
-77.726
-80.959
-86.023
-91.289
-95.905
-99.348
-100.726
-99.656
-96.377
-91.335
-85.373
-79.506
-74.178
-69.597
-66.11
-63.779
-62.521
-62.195
-62.348
-62.464
-62.305
-61.768
-60.803
-59.466
-57.772
-55.722
-53.421
-50.99
-48.507
-46.026
-43.557
-41.095
-38.671
-36.34
-34.158
-32.17
-30.393
-28.831
-27.481
-26.338
-25.397
-24.642
-24.046
-23.586
-23.244
-23.004
-22.857
-22.788
-22.774
-22.79
-22.811
-22.809
-22.763
-22.654
-22.462
-22.171
-21.765
-21.232
-20.56
-19.736
-18.746
-17.578
-16.218
-14.654
-12.876
-10.875
-8.644
-6.176
-3.469
-0.52
2.671
6.103
9.774
13.683
17.822
22.188
26.771
31.563
36.554
41.732
47.082
52.592
58.244
64.02
69.904
75.874
81.911
87.992
94.096
100.196
106.271
112.3
118.262
124.132
129.888
135.503
140.952
146.224
151.291
156.115
160.662
164.896
168.797
172.375
175.618
178.483
180.974
183.14
185.018
186.648
188.034
189.09
189.787
190.204
190.264
189.668
188.344
186.39
183.776
180.816
176.979
170.406
161.413
151.774
144.246
144.152
151.462
160.803
166.915
162.31
146.157
125.66
106.419
94.364
90.85
90.554
90.122
87.383
81.564
74.857
68.338
61.938
55.764
49.514
43.105
36.848
30.857
25.092
19.572
14.323
9.343
4.624
0.147
-4.134
-8.235
-12.133
-15.818
-19.298
-22.574
-25.654
-28.543
-31.24
-33.752
-36.09
-38.265
-40.287
-42.167
-43.914
-45.539
-47.053
-48.467
-49.79
-51.034
-52.209
-53.323
-54.387
-55.407
-56.393
-57.35
-58.285
-59.202
-60.107
-61.003
-61.893
-62.778
-63.659
-64.537
-65.411
-66.281
-67.144
-67.998
-68.84
-69.667
-70.475
-71.259
-72.015
-72.739
-73.425
-74.069
-74.666
-75.212
-75.702
-76.132
-76.498
-76.797
-77.025
-77.18
-77.26
-77.265
-77.193
-77.044
-76.819
-76.521
-76.15
-75.709
-75.202
-74.632
-74.003
-73.32
-72.586
-71.808
-70.991
-70.141
-69.263
-68.363
-67.448
-66.524
-65.597
-64.673
-63.759
-62.862
-61.986
-61.138
-60.325
-59.552
-58.823
-58.145
-57.521
-56.956
-56.453
-56.014
-55.643
-55.34
-55.105
-54.941
-54.846
-54.819
-54.86
-54.967
-55.137
-55.369
-55.66
-56.007
-56.407
-56.857
-57.353
-57.892
-58.47
-59.083
-59.726
-60.396
-61.086
-61.792
-62.508
-63.23
-63.949
-64.66
-65.358
-66.034
-66.684
-67.3
-67.876
-68.406
-68.883
-69.303
-69.66
-69.947
-70.161
-70.295
-70.346
-70.31
-70.182
-69.959
-69.636
-69.211
-68.68
-68.04
-67.287
-66.419
-65.433
-64.328
-63.101
-61.753
-60.282
-58.69
-56.978
-55.147
-53.203
-51.15
-48.992
-46.734
-44.385
-41.951
-39.443
-36.87
-34.241
-31.566
-28.86
-26.134
-23.405
-20.684
-17.988
-15.328
-12.721
-10.181
-7.722
-5.354
-3.091
-0.944
1.074
2.947
4.662
6.206
7.565
8.727
9.681
10.414
10.923
11.208
11.268
11.1
10.697
10.049
9.151
8.008
6.623
5.006
3.171
1.144
-1.039
-3.326
-5.671
-8.037
-10.395
-12.727
-15.003
-17.184
-19.231
-21.101
-22.769
-24.219
-25.428
-26.38
-27.093
-27.618
-28.04
-28.467
-28.979
-29.622
-30.453
-31.532
-32.927
-34.73
-37.011
-39.788
-43.103
-47.021
-51.512
-56.468
-61.634
-66.543
-70.786
-74.042
-75.919
-76.112
-74.585
-71.442
-67.127
-62.432
-57.836
-53.683
-50.486
-48.381
-46.998
-45.659
-43.038
-37.408
-27.585
-12.506
9.287
38.825
76.454
121.865
172.675
224.879
275.387
321.902
364.521
405.245
442.885
471.918
482.066
462.499
409.303
327.812
231.603
135.022
47.01
-29.545
-96.525
-154.872
-202.814
-238.127
-258.876
-265.471
-260.517
-247.011
-228.251
-207.499
-187.523
-170.168
-156.269
-145.841
-138.347
-133.08
-129.147
-125.41
-120.761
-114.673
-107.173
-98.565
-89.325
-79.874
-70.6
-62.015
-54.654
-48.811
-44.523
-41.699
-40.167
-39.773
-40.397
-41.832
-43.781
-45.941
-48.07
-50.019
-51.726
-53.151
-54.238
-54.936
-55.234
-55.137
-54.673
-53.852
-52.635
-50.998
-48.959
-46.573
-43.946
-41.217
-38.494
-35.856
-33.366
-31.063
-28.976
-27.123
-25.495
-24.064
-22.809
-21.724
-20.828
-20.138
-19.65
-19.341
-19.172
-19.086
-19.042
-18.999
-18.915
-18.752
-18.484
-18.09
-17.56
-16.895
-16.087
-15.125
-13.988
-12.658
-11.117
-9.354
-7.359
-5.125
-2.645
0.085
3.064
6.29
9.765
13.487
17.458
21.681
26.154
30.874
35.835
41.031
46.452
52.086
57.918
63.932
70.111
76.434
82.882
89.434
96.067
102.757
109.48
116.211
122.924
129.592
136.189
142.686
149.057
155.273
161.308
167.134
172.725
178.056
183.102
187.841
192.251
196.312
200.004
203.309
206.211
208.695
210.748
212.359
213.519
214.22
214.459
214.233
213.543
212.392
210.785
208.727
206.23
203.303
199.96
196.216
192.087
187.592
182.752
177.588
172.124
166.383
160.392
154.176
147.761
141.176
134.447
127.601
120.666
113.669
106.637
99.597
92.574
85.594
78.681
71.858
65.149
58.573
52.151
45.9
39.836
33.973
28.324
22.9
17.71
12.761
8.06
3.611
-0.585
-4.525
-8.212
-11.646
-14.833
-17.776
-20.481
-22.956
-25.207
-27.244
-29.076
-30.711
-32.16
-33.433
-34.541
-35.495
-36.305
-36.983
-37.54
-37.986
-38.332
-38.587
-38.762
-38.864
-38.903
-38.885
-38.818
-38.707
-38.558
-38.376
-38.165
-37.929
-37.67
-37.391
-37.093
-36.779
-36.448
-36.101
-35.739
-35.361
-34.968
-34.559
-34.136
-33.697
-33.242
-32.774
-32.29
-31.792
-31.28
-30.754
-30.216
-29.666
-29.104
-28.534
-27.955
-27.371
-26.784
-26.196
-25.61
-25.029
-24.457
-23.897
-23.352
-22.826
-22.322
-21.844
-21.396
-20.98
-20.6
-20.259
-19.959
-19.703
-19.493
-19.328
-19.21
-19.14
-19.115
-19.137
-19.203
-19.312
-19.462
-19.651
-19.876
-20.135
-20.423
-20.738
-21.076
-21.433
-21.804
-22.186
-22.574
-22.963
-23.35
-23.73
-24.098
-24.452
-24.787
-25.099
-25.386
-25.643
-25.87
-26.063
-26.221
-26.343
-26.43
-26.482
-26.499
-26.485
-26.441
-26.37
-26.276
-26.162
-26.034
-25.895
-25.75
-25.605
-25.465
-25.335
-25.221
-25.127
-25.06
-25.025
-25.026
-25.068
-25.156
-25.293
-25.483
-25.729
-26.034
-26.4
-26.828
-27.319
-27.874
-28.492
-29.172
-29.91
-30.704
-31.549
-32.44
-33.371
-34.336
-35.327
-36.335
-37.352
-38.367
-39.371
-40.354
-41.304
-42.21
-43.06
-43.844
-44.55
-45.168
-45.687
-46.097
-46.387
-46.549
-46.575
-46.457
-46.187
-45.759
-45.167
-44.407
-43.477
-42.374
-41.095
-39.642
-38.016
-36.221
-34.261
-32.141
-29.869
-27.454
-24.904
-22.234
-19.454
-16.58
-13.627
-10.612
-7.553
-4.473
-1.39
1.675
4.699
7.663
10.544
13.322
15.979
18.498
20.861
23.052
25.053
26.847
28.42
29.756
30.842
31.664
32.208
32.47
32.448
32.141
31.548
30.667
29.488
28.012
26.248
24.198
21.874
19.291
16.471
13.455
10.298
7.051
3.763
0.468
-2.802
-6.007
-9.102
-12.045
-14.789
-17.312
-19.597
-21.611
-23.336
-24.772
-25.949
-26.955
-27.892
-28.846
-29.882
-31.039
-32.367
-33.951
-35.864
-38.189
-40.981
-44.221
-47.944
-52.245
-57.074
-62.278
-67.523
-72.204
-75.83
-78.086
-78.557
-76.946
-73.239
-67.539
-60.504
-53.249
-46.556
-41.055
-37.299
-35.238
-34.417
-34.082
-32.501
-27.448
-17.084
0.398
26.576
62.161
107.064
160.591
219.902
280.35
338.773
392.248
439.259
480.975
513.301
528.692
520.348
481.286
414.397
330.369
237.828
143.43
47.484
-51.865
-149.266
-233.098
-290.621
-315.252
-310.545
-288.491
-261.857
-237.394
-216.266
-196.069
-174.661
-152.664
-132.332
-115.974
-104.264
-96.916
-93.248
-91.834
-91.878
-92.832
-93.736
-94.236
-94.357
-93.739
-92.059
-89.451
-85.99
-82.022
-78.315
-75.163
-72.589
-70.761
-69.776
-69.597
-70.157
-71.15
-72.072
-72.668
-72.852
-72.57
-71.855
-70.714
-69.147
-67.243
-65.141
-62.939
-60.697
-58.44
-56.169
-53.915
-51.737
-49.697
-47.841
-46.191
-44.756
-43.534
-42.524
-41.719
-41.1
-40.636
-40.3
-40.07
-39.929
-39.864
-39.858
-39.889
-39.933
-39.965
-39.956
-39.885
-39.732
-39.475
-39.099
-38.589
-37.929
-37.108
-36.115
-34.933
-33.551
-31.954
-30.129
-28.064
-25.751
-23.179
-20.344
-17.24
-13.865
-10.217
-6.297
-2.106
2.353
7.076
12.056
17.286
22.757
28.458
34.375
40.495
46.8
53.272
59.894
66.644
73.499
80.438
87.435
94.468
101.51
108.537
115.521
122.436
129.256
135.954
142.503
148.876
155.049
160.995
166.689
172.108
177.228
182.03
186.49
190.591
194.314
197.642
200.561
203.057
205.118
206.734
207.898
208.605
208.851
208.635
207.959
206.825
205.24
203.21
200.745
197.856
194.556
190.859
186.781
182.34
177.556
172.448
167.038
161.349
155.405
149.23
142.849
136.287
129.57
122.725
115.777
108.754
101.681
94.584
87.49
80.423
73.408
66.469
59.627
52.903
46.318
39.888
33.632
27.564
21.697
16.043
10.614
5.417
0.461
-4.248
-8.706
-12.91
-16.857
-20.546
-23.98
-27.159
-30.086
-32.765
-35.201
-37.4
-39.367
-41.11
-42.637
-43.957
-45.079
-46.013
-46.77
-47.36
-47.796
-48.087
-48.245
-48.281
-48.205
-48.029
-47.761
-47.411
-46.989
-46.503
-45.961
-45.371
-44.741
-44.077
-43.387
-42.676
-41.949
-41.213
-40.472
-39.731
-38.993
-38.265
-37.548
-36.849
-36.168
-35.511
-34.88
-34.277
-33.703
-33.161
-32.652
-32.175
-31.732
-31.322
-30.945
-30.601
-30.289
-30.011
-29.764
-29.549
-29.364
-29.21
-29.086
-28.991
-28.924
-28.884
-28.871
-28.883
-28.92
-28.981
-29.064
-29.168
-29.291
-29.433
-29.589
-29.76
-29.941
-30.132
-30.33
-30.533
-30.739
-30.948
-31.157
-31.365
-31.573
-31.779
-31.982
-32.182
-32.38
-32.574
-32.765
-32.954
-33.14
-33.323
-33.506
-33.688
-33.871
-34.054
-34.24
-34.429
-34.622
-34.82
-35.025
-35.237
-35.458
-35.69
-35.933
-36.191
-36.463
-36.753
-37.06
-37.386
-37.732
-38.098
-38.485
-38.892
-39.318
-39.764
-40.229
-40.711
-41.209
-41.721
-42.245
-42.779
-43.321
-43.868
-44.417
-44.964
-45.508
-46.045
-46.572
-47.086
-47.584
-48.063
-48.52
-48.954
-49.36
-49.737
-50.083
-50.395
-50.672
-50.913
-51.117
-51.284
-51.412
-51.503
-51.558
-51.576
-51.561
-51.513
-51.435
-51.33
-51.2
-51.049
-50.881
-50.7
-50.509
-50.314
-50.118
-49.926
-49.743
-49.574
-49.421
-49.29
-49.185
-49.109
-49.066
-49.059
-49.09
-49.161
-49.273
-49.428
-49.624
-49.862
-50.139
-50.455
-50.805
-51.187
-51.597
-52.031
-52.482
-52.945
-53.413
-53.879
-54.335
-54.772
-55.181
-55.554
-55.88
-56.151
-56.357
-56.488
-56.535
-56.489
-56.339
-56.077
-55.694
-55.183
-54.535
-53.743
-52.802
-51.708
-50.457
-49.046
-47.473
-45.739
-43.844
-41.791
-39.582
-37.222
-34.717
-32.074
-29.301
-26.41
-23.411
-20.319
-17.147
-13.914
-10.636
-7.332
-4.021
-0.722
2.545
5.759
8.901
11.952
14.894
17.707
20.371
22.867
25.176
27.279
29.159
30.799
32.182
33.292
34.119
34.657
34.903
34.849
34.489
33.811
32.807
31.48
29.838
27.889
25.648
23.136
20.388
17.462
14.412
11.288
8.131
4.966
1.823
-1.258
-4.233
-7.051
-9.67
-12.072
-14.247
-16.169
-17.838
-19.272
-20.532
-21.744
-23.025
-24.46
-26.116
-28.018
-30.199
-32.733
-35.678
-39.099
-43.048
-47.498
-52.452
-57.976
-63.985
-70.283
-76.521
-82.081
-86.435
-89.241
-90.08
-88.632
-84.909
-79.048
-71.549
-63.371
-55.161
-47.399
-40.7
-35.179
-30.384
-25.599
-19.47
-10.18
3.621
23.215
50.172
85.427
129.158
180.851
238.027
296.45
352.317
402.832
447.79
489.328
527.378
556.448
565.293
542.401
482.281
391.158
285.247
179.003
82.462
-3.04
-82.639
-154.432
-214.966
-259.284
-280.867
-283.459
-272.331
-252.027
-229.44
-205.544
-180.569
-156.086
-131.996
-110.168
-92.852
-80.806
-74.122
-71.978
-73.223
-77.133
-83.192
-90.521
-97.637
-103.082
-106.101
-106.478
-104.408
-100.266
-94.291
-87.004
-79.398
-72.329
-66.299
-61.517
-57.83
-54.984
-52.842
-51.219
-49.825
-48.489
-47.163
-45.902
-44.877
-44.219
-43.965
-44.056
-44.436
-45.136
-46.039
-46.807
-47.344
-47.752
-47.992
-48.348
-48.238
-45.722
-41.045
-35.906
-32.983
-37.527
-49.463
-63.456
-74.331
-74.694
-63.762
-48.689
-35.012
-28.583
-30.706
-36.063
-41.291
-44.215
-44.054
-42.961
-41.987
-41.034
-40.165
-39.027
-37.466
-35.725
-33.861
-31.792
-29.505
-27.003
-24.262
-21.262
-17.985
-14.379
-10.428
-6.155
-1.565
3.345
8.565
14.084
19.887
25.947
32.244
38.762
45.482
52.386
59.454
66.665
74
81.44
88.959
96.534
104.136
111.735
119.305
126.814
134.231
141.528
148.673
155.64
162.4
168.926
175.192
181.172
186.842
192.179
197.161
201.768
205.982
209.784
213.159
216.096
218.581
220.606
222.162
223.245
223.851
223.979
223.63
222.807
221.514
219.76
217.552
214.905
211.829
208.343
204.462
200.205
195.593
190.648
185.391
179.847
174.039
167.992
161.731
155.282
148.671
141.924
135.068
128.128
121.131
114.103
107.066
100.047
93.068
86.151
79.318
72.589
65.982
59.517
53.209
47.073
41.122
35.368
29.821
24.489
19.38
14.499
9.849
5.433
1.254
-2.69
-6.398
-9.872
-13.115
-16.131
-18.924
-21.5
-23.865
-26.025
-27.99
-29.766
-31.362
-32.786
-34.049
-35.158
-36.123
-36.954
-37.659
-38.247
-38.729
-39.111
-39.405
-39.616
-39.753
-39.823
-39.833
-39.788
-39.694
-39.555
-39.377
-39.163
-38.917
-38.643
-38.344
-38.024
-37.684
-37.328
-36.957
-36.575
-36.182
-35.78
-35.37
-34.953
-34.531
-34.104
-33.674
-33.242
-32.807
-32.372
-31.936
-31.5
-31.065
-30.632
-30.199
-29.769
-29.342
-28.918
-28.5
-28.087
-27.683
-27.288
-26.904
-26.533
-26.177
-25.837
-25.515
-25.213
-24.931
-24.672
-24.436
-24.225
-24.04
-23.882
-23.753
-23.654
-23.584
-23.544
-23.535
-23.557
-23.61
-23.693
-23.807
-23.951
-24.125
-24.33
-24.564
-24.828
-25.121
-25.443
-25.791
-26.166
-26.565
-26.988
-27.431
-27.894
-28.374
-28.869
-29.378
-29.898
-30.427
-30.963
-31.504
-32.048
-32.591
-33.133
-33.671
-34.203
-34.727
-35.241
-35.746
-36.239
-36.719
-37.186
-37.638
-38.076
-38.497
-38.901
-39.287
-39.653
-40.001
-40.328
-40.634
-40.92
-41.184
-41.428
-41.652
-41.854
-42.038
-42.201
-42.346
-42.472
-42.582
-42.674
-42.752
-42.815
-42.866
-42.905
-42.934
-42.954
-42.965
-42.969
-42.967
-42.958
-42.943
-42.924
-42.899
-42.87
-42.838
-42.803
-42.766
-42.729
-42.691
-42.655
-42.621
-42.59
-42.564
-42.544
-42.531
-42.527
-42.533
-42.551
-42.583
-42.629
-42.692
-42.772
-42.87
-42.989
-43.128
-43.288
-43.47
-43.676
-43.905
-44.159
-44.439
-44.745
-45.078
-45.438
-45.826
-46.241
-46.683
-47.151
-47.643
-48.158
-48.693
-49.246
-49.814
-50.393
-50.979
-51.567
-52.152
-52.727
-53.287
-53.824
-54.331
-54.8
-55.223
-55.591
-55.898
-56.136
-56.296
-56.37
-56.351
-56.231
-56.003
-55.66
-55.194
-54.599
-53.869
-52.998
-51.981
-50.816
-49.498
-48.025
-46.397
-44.612
-42.672
-40.579
-38.336
-35.947
-33.418
-30.758
-27.975
-25.081
-22.088
-19.011
-15.865
-12.669
-9.441
-6.2
-2.965
0.243
3.403
6.496
9.502
12.404
15.181
17.814
20.283
22.568
24.651
26.514
28.139
29.509
30.608
31.423
31.948
32.178
32.105
31.72
31.012
29.971
28.601
26.907
24.896
22.583
19.987
17.142
14.102
10.92
7.644
4.318
0.971
-2.366
-5.646
-8.823
-11.845
-14.664
-17.261
-19.62
-21.713
-23.537
-25.107
-26.475
-27.757
-29.058
-30.457
-32.017
-33.764
-35.738
-38.019
-40.672
-43.765
-47.357
-51.427
-55.985
-61.097
-66.675
-72.521
-78.304
-83.434
-87.422
-89.953
-90.609
-89.061
-85.3
-79.451
-72.001
-63.868
-55.657
-47.829
-41.047
-35.529
-30.923
-26.545
-21.027
-12.53
0.362
18.977
45.078
79.912
123.747
176.064
234.261
294.033
351.803
404.666
451.818
494.261
530.303
555.276
560.628
536.711
479.884
391.99
281.273
160.737
42.665
-60.142
-137.733
-186.603
-209.698
-216.861
-218.005
-218.655
-219.473
-216.785
-208.96
-197.758
-185.466
-174.522
-165.779
-158.395
-151.772
-145.622
-139.309
-132.159
-124.391
-117.041
-111.037
-107.073
-105.113
-104.316
-104.26
-104.936
-105.835
-106.102
-105.124
-102.518
-98.51
-93.958
-89.363
-84.85
-80.613
-76.859
-73.713
-71.264
-69.364
-67.599
-65.764
-63.879
-61.993
-60.203
-58.555
-56.996
-55.502
-54.133
-52.919
-51.862
-50.967
-50.195
-49.531
-49.016
-48.661
-48.458
-48.371
-48.308
-48.188
-47.97
-47.632
-47.188
-46.684
-46.145
-45.591
-45.048
-44.526
-44.028
-43.552
-43.067
-42.541
-41.954
-41.301
-40.597
-39.858
-39.079
-38.242
-37.318
-36.262
-35.039
-33.617
-31.956
-30.026
-27.807
-25.282
-22.45
-19.315
-15.88
-12.14
-8.093
-3.732
0.941
5.921
11.2
16.763
22.598
28.687
35.01
41.545
48.271
55.168
62.217
69.401
76.697
84.083
91.535
99.028
106.533
114.024
121.472
128.846
136.117
143.255
150.232
157.02
163.592
169.92
175.979
181.742
187.186
192.288
197.025
201.378
205.329
208.859
211.956
214.605
216.797
218.522
219.774
220.549
220.845
220.66
219.998
218.862
217.256
215.191
212.674
209.718
206.336
202.544
198.36
193.802
188.892
183.651
178.101
172.267
166.174
159.848
153.315
146.602
139.737
132.747
125.66
118.503
111.305
104.091
96.887
89.718
82.609
75.581
68.658
61.859
55.205
48.712
42.398
36.277
30.363
24.668
19.201
13.972
8.987
4.252
-0.229
-4.453
-8.42
-12.13
-15.584
-18.785
-21.737
-24.446
-26.918
-29.16
-31.18
-32.988
-34.593
-36.005
-37.235
-38.292
-39.189
-39.936
-40.544
-41.024
-41.387
-41.643
-41.802
-41.875
-41.872
-41.8
-41.669
-41.486
-41.259
-40.995
-40.7
-40.379
-40.038
-39.682
-39.314
-38.938
-38.557
-38.175
-37.792
-37.411
-37.033
-36.66
-36.291
-35.927
-35.569
-35.216
-34.868
-34.525
-34.187
-33.854
-33.526
-33.201
-32.881
-32.563
-32.25
-31.939
-31.632
-31.327
-31.027
-30.729
-30.436
-30.148
-29.865
-29.588
-29.319
-29.057
-28.806
-28.564
-28.335
-28.119
-27.917
-27.731
-27.562
-27.412
-27.281
-27.171
-27.082
-27.016
-26.974
-26.954
-26.959
-26.989
-27.042
-27.12
-27.221
-27.347
-27.496
-27.668
-27.862
-28.079
-28.316
-28.574
-28.852
-29.149
-29.463
-29.794
-30.142
-30.503
-30.878
-31.265
-31.662
-32.067
-32.48
-32.898
-33.32
-33.744
-34.169
-34.593
-35.015
-35.432
-35.845
-36.252
-36.651
-37.042
-37.423
-37.794
-38.155
-38.503
-38.84
-39.163
-39.472
-39.768
-40.049
-40.314
-40.563
-40.795
-41.01
-41.206
-41.385
-41.544
-41.685
-41.807
-41.911
-41.998
-42.067
-42.121
-42.16
-42.185
-42.199
-42.202
-42.196
-42.182
-42.161
-42.136
-42.108
-42.079
-42.052
-42.027
-42.007
-41.995
-41.991
-41.997
-42.015
-42.047
-42.095
-42.159
-42.243
-42.348
-42.475
-42.625
-42.8
-43.001
-43.228
-43.48
-43.756
-44.054
-44.372
-44.709
-45.058
-45.416
-45.778
-46.141
-46.5
-46.852
-47.19
-47.508
-47.802
-48.068
-48.299
-48.487
-48.621
-48.691
-48.687
-48.603
-48.431
-48.165
-47.795
-47.313
-46.716
-46.002
-45.167
-44.204
-43.098
-41.835
-40.409
-38.829
-37.11
-35.263
-33.295
-31.219
-29.053
-26.823
-24.547
-22.229
-19.853
-17.405
-14.885
-12.308
-9.707
-7.113
-4.541
-1.985
0.564
3.101
5.625
8.137
10.665
13.244
15.88
18.534
21.125
23.57
25.818
27.838
29.622
31.161
32.424
33.369
33.958
34.169
33.978
33.351
32.223
30.514
28.199
25.318
21.979
18.307
14.39
10.288
6.049
1.72
-2.629
-6.926
-11.113
-15.146
-18.981
-22.577
-25.85
-28.693
-31.061
-32.977
-34.548
-35.938
-37.258
-38.585
-39.975
-41.461
-43.117
-45.047
-47.303
-49.909
-52.882
-56.172
-59.84
-64.074
-68.839
-73.927
-78.957
-83.29
-86.409
-88.015
-87.644
-84.758
-79.239
-71.281
-61.515
-51.078
-41.111
-32.682
-26.715
-23.969
-23.502
-22.659
-20.055
-14.441
-5.756
3.521
16.808
40.573
78.777
137.573
214.461
300.827
393.214
483.133
563.475
627.85
661.068
654.563
606.689
522.482
419.036
309.97
203.129
102.59
5.932
-85.859
-167.837
-235.476
-284.354
-313.312
-324.294
-319.53
-301.57
-273.873
-240.421
-205.186
-171.223
-140.422
-114.031
-93.352
-79.604
-72.835
-71.978
-75.478
-81.913
-90.329
-99.769
-108.745
-115.74
-119.944
-121.237
-120.023
-116.853
-112.07
-106.149
-99.947
-94.224
-89.409
-85.651
-82.781
-80.543
-78.764
-77.201
-75.487
-73.359
-70.705
-67.522
-63.943
-60.116
-56.153
-52.18
-48.363
-44.864
-41.775
-39.14
-36.933
-35.086
-33.586
-32.434
-31.619
-31.135
-30.951
-31.021
-31.318
-31.822
-32.485
-33.258
-34.067
-34.802
-35.404
-35.847
-36.131
-36.303
-36.382
-36.364
-36.251
-36.046
-35.747
-35.359
-34.865
-34.225
-33.422
-32.447
-31.303
-30.018
-28.595
-27.02
-25.266
-23.294
-21.072
-18.58
-15.798
-12.699
-9.267
-5.494
-1.38
3.055
7.801
12.85
18.199
23.845
29.781
35.99
42.456
49.158
56.075
63.182
70.453
77.857
85.363
92.945
100.575
108.228
115.878
123.497
131.054
138.522
145.871
153.071
160.094
166.907
173.483
179.793
185.81
191.511
196.872
201.869
206.482
210.692
214.482
217.836
220.739
223.181
225.15
226.639
227.642
228.156
228.18
227.715
226.764
225.333
223.43
221.064
218.248
214.995
211.32
207.241
202.777
197.946
192.77
187.271
181.474
175.404
169.085
162.543
155.806
148.899
141.851
134.687
127.434
120.119
112.766
105.402
98.051
90.736
83.482
76.308
69.237
62.287
55.478
48.825
42.344
36.049
29.951
24.063
18.391
12.945
7.731
2.752
-1.987
-6.485
-10.741
-14.755
-18.53
-22.066
-25.369
-28.443
-31.294
-33.926
-36.348
-38.566
-40.589
-42.424
-44.08
-45.564
-46.887
-48.057
-49.084
-49.975
-50.74
-51.387
-51.926
-52.365
-52.711
-52.973
-53.157
-53.27
-53.319
-53.309
-53.246
-53.134
-52.979
-52.784
-52.553
-52.29
-51.998
-51.679
-51.337
-50.973
-50.59
-50.188
-49.771
-49.339
-48.894
-48.438
-47.971
-47.495
-47.011
-46.521
-46.025
-45.524
-45.02
-44.513
-44.004
-43.495
-42.985
-42.477
-41.971
-41.467
-40.968
-40.475
-39.988
-39.509
-39.039
-38.579
-38.132
-37.697
-37.278
-36.874
-36.487
-36.118
-35.769
-35.44
-35.132
-34.846
-34.583
-34.344
-34.128
-33.935
-33.767
-33.622
-33.5
-33.401
-33.325
-33.271
-33.238
-33.226
-33.233
-33.26
-33.305
-33.367
-33.445
-33.538
-33.645
-33.764
-33.894
-34.033
-34.179
-34.332
-34.489
-34.649
-34.81
-34.971
-35.131
-35.288
-35.441
-35.588
-35.73
-35.864
-35.991
-36.109
-36.22
-36.323
-36.419
-36.509
-36.592
-36.671
-36.747
-36.82
-36.892
-36.966
-37.042
-37.122
-37.21
-37.307
-37.416
-37.539
-37.68
-37.84
-38.023
-38.232
-38.47
-38.738
-39.039
-39.377
-39.752
-40.167
-40.623
-41.121
-41.663
-42.248
-42.876
-43.547
-44.258
-45.007
-45.791
-46.607
-47.452
-48.321
-49.208
-50.109
-51.016
-51.922
-52.821
-53.704
-54.562
-55.386
-56.166
-56.893
-57.557
-58.148
-58.655
-59.067
-59.374
-59.567
-59.636
-59.57
-59.36
-58.999
-58.477
-57.79
-56.93
-55.892
-54.673
-53.271
-51.684
-49.913
-47.961
-45.828
-43.521
-41.045
-38.407
-35.618
-32.687
-29.627
-26.452
-23.18
-19.83
-16.42
-12.971
-9.506
-6.045
-2.612
0.77
4.082
7.301
10.407
13.376
16.183
18.805
21.219
23.407
25.349
27.025
28.42
29.52
30.322
30.821
31.011
30.879
30.409
29.59
28.424
26.916
25.075
22.916
20.459
17.736
14.798
11.688
8.448
5.109
1.69
-1.78
-5.251
-8.664
-11.954
-15.068
-17.983
-20.671
-23.099
-25.271
-27.203
-28.944
-30.584
-32.169
-33.731
-35.32
-36.972
-38.756
-40.778
-43.108
-45.856
-49.171
-53.042
-57.376
-61.993
-66.498
-70.561
-73.973
-76.339
-77.23
-76.576
-74.509
-71.576
-68.764
-66.541
-64.943
-64.148
-64.378
-65.547
-67.164
-67.756
-65.068
-57.697
-44.973
-26.233
-0.628
32.792
74.399
123.118
176.511
232.5
289.513
345.636
398.056
442.98
476.673
496.396
500.86
489.082
459.849
412.843
349.576
273.421
188.813
100.491
12.587
-70.862
-145.18
-206.367
-252.314
-282.723
-298.748
-302.513
-296.216
-282.346
-264.38
-245.711
-228.484
-213.775
-201.767
-192.032
-184.171
-177.68
-171.415
-164.154
-155.359
-145.009
-133.48
-121.398
-109.209
-97.281
-86.207
-76.626
-68.932
-63.303
-59.66
-57.74
-57.332
-58.222
-60.128
-62.716
-65.614
-68.497
-71.165
-73.51
-75.466
-76.989
-78.015
-78.486
-78.375
-77.656
-76.332
-74.426
-71.961
-68.996
-65.628
-61.982
-58.234
-54.544
-51.019
-47.731
-44.719
-41.997
-39.588
-37.503
-35.733
-34.276
-33.126
-32.276
-31.726
-31.459
-31.436
-31.606
-31.898
-32.239
-32.579
-32.874
-33.091
-33.202
-33.185
-33.018
-32.696
-32.203
-31.524
-30.637
-29.519
-28.149
-26.514
-24.603
-22.41
-19.929
-17.158
-14.091
-10.728
-7.067
-3.106
1.156
5.724
10.595
15.767
21.231
26.979
32.998
39.273
45.787
52.522
59.457
66.571
73.841
81.244
88.755
96.348
103.996
111.672
119.347
126.991
134.576
142.071
149.447
156.674
163.723
170.565
177.173
183.519
189.578
195.324
200.734
205.785
210.455
214.724
218.574
221.988
224.951
227.45
229.476
231.021
232.078
232.644
232.718
232.301
231.395
230.005
228.138
225.803
223.011
219.774
216.108
212.028
207.552
202.701
197.494
191.954
186.103
179.965
173.564
166.927
160.078
153.046
145.855
138.535
131.111
123.611
116.063
108.491
100.923
93.382
85.893
78.477
71.158
63.956
56.888
49.974
43.23
36.671
30.31
24.159
18.229
12.529
7.066
1.847
-3.124
-7.842
-12.307
-16.516
-20.47
-24.169
-27.617
-30.815
-33.769
-36.484
-38.965
-41.222
-43.26
-45.089
-46.718
-48.156
-49.413
-50.498
-51.422
-52.194
-52.823
-53.32
-53.694
-53.953
-54.107
-54.164
-54.133
-54.021
-53.837
-53.586
-53.275
-52.912
-52.502
-52.05
-51.563
-51.045
-50.502
-49.937
-49.357
-48.764
-48.162
-47.555
-46.944
-46.333
-45.722
-45.114
-44.51
-43.91
-43.316
-42.728
-42.148
-41.575
-41.012
-40.458
-39.916
-39.384
-38.865
-38.359
-37.867
-37.39
-36.929
-36.485
-36.059
-35.652
-35.265
-34.899
-34.554
-34.23
-33.928
-33.648
-33.388
-33.15
-32.933
-32.737
-32.562
-32.407
-32.274
-32.163
-32.073
-32.004
-31.958
-31.933
-31.929
-31.946
-31.984
-32.041
-32.117
-32.211
-32.323
-32.452
-32.596
-32.754
-32.926
-33.11
-33.304
-33.507
-33.719
-33.939
-34.165
-34.398
-34.637
-34.883
-35.136
-35.396
-35.665
-35.942
-36.228
-36.525
-36.831
-37.149
-37.478
-37.82
-38.175
-38.544
-38.929
-39.33
-39.749
-40.186
-40.643
-41.119
-41.615
-42.133
-42.671
-43.231
-43.812
-44.415
-45.038
-45.681
-46.342
-47.02
-47.712
-48.416
-49.128
-49.845
-50.56
-51.27
-51.969
-52.652
-53.311
-53.942
-54.536
-55.086
-55.587
-56.03
-56.408
-56.713
-56.938
-57.075
-57.116
-57.055
-56.885
-56.599
-56.191
-55.656
-54.99
-54.188
-53.247
-52.165
-50.938
-49.568
-48.054
-46.399
-44.605
-42.677
-40.62
-38.441
-36.149
-33.753
-31.266
-28.698
-26.067
-23.387
-20.676
-17.951
-15.229
-12.531
-9.875
-7.28
-4.763
-2.342
-0.035
2.139
4.16
6.01
7.669
9.121
10.35
11.34
12.079
12.556
12.771
12.717
12.394
11.794
10.905
9.722
8.249
6.49
4.458
2.17
-0.351
-3.068
-5.932
-8.901
-11.933
-14.997
-18.075
-21.136
-24.145
-27.063
-29.832
-32.412
-34.781
-36.912
-38.778
-40.387
-41.764
-42.964
-44.086
-45.189
-46.302
-47.466
-48.707
-50.081
-51.663
-53.51
-55.66
-58.171
-61.123
-64.534
-68.321
-72.226
-75.817
-78.667
-80.456
-80.879
-79.551
-76.267
-71.146
-64.647
-57.711
-51.222
-45.564
-41.069
-38.258
-37.283
-37.739
-38.567
-37.676
-32.948
-23.176
-7.02
17.399
51.576
96.345
150.262
208.941
268.159
325.889
383.555
444.053
506.212
562.148
596.962
595.646
551.656
469.822
366.043
257.545
155.302
62.918
-22.425
-102.202
-174.009
-233.651
-276.869
-302.74
-313.065
-310.662
-298.845
-280.837
-260.094
-239.89
-222.228
-207.786
-196.605
-188.43
-181.9
-175.555
-168.92
-160.715
-152.62
-147.314
-142.132
-135.745
-125.392
-107.129
-85.687
-65.212
-48.431
-39.276
-35.154
-33.246
-32.992
-32.858
-33.458
-35.609
-38.766
-42.721
-47.191
-51.811
-56.519
-61.19
-65.616
-69.629
-73.106
-75.992
-78.217
-79.719
-80.472
-80.456
-79.71
-78.325
-76.392
-74.004
-71.281
-68.327
-65.247
-62.173
-59.205
-56.416
-53.876
-51.617
-49.652
-47.997
-46.652
-45.596
-44.812
-44.264
-43.909
-43.711
-43.624
-43.597
-43.578
-43.502
-43.314
-42.977
-42.455
-41.721
-40.758
-39.543
-38.063
-36.315
-34.291
-31.983
-29.387
-26.492
-23.292
-19.788
-15.981
-11.874
-7.474
-2.783
2.194
7.452
12.983
18.781
24.838
31.146
37.694
44.469
51.452
58.625
65.967
73.457
81.07
88.782
96.565
104.395
112.243
120.083
127.886
135.623
143.266
150.784
158.147
165.327
172.295
179.021
185.479
191.641
197.482
202.979
208.109
212.849
217.18
221.083
224.542
227.541
230.067
232.108
233.655
234.702
235.243
235.276
234.801
233.819
232.334
230.353
227.885
224.94
221.531
217.672
213.38
208.674
203.576
198.107
192.291
186.154
179.722
173.023
166.085
158.937
151.608
144.128
136.526
128.832
121.076
113.286
105.49
97.718
89.997
82.352
74.81
67.394
60.128
53.033
46.129
39.436
32.971
26.748
20.783
15.086
9.667
4.536
-0.304
-4.847
-9.092
-13.039
-16.689
-20.046
-23.116
-25.905
-28.419
-30.67
-32.666
-34.418
-35.938
-37.238
-38.331
-39.23
-39.949
-40.501
-40.9
-41.161
-41.296
-41.319
-41.245
-41.085
-40.854
-40.563
-40.225
-39.851
-39.451
-39.037
-38.615
-38.196
-37.785
-37.389
-37.013
-36.661
-36.335
-36.038
-35.77
-35.532
-35.324
-35.143
-34.988
-34.857
-34.748
-34.657
-34.581
-34.518
-34.464
-34.415
-34.37
-34.323
-34.273
-34.216
-34.148
-34.068
-33.972
-33.857
-33.721
-33.562
-33.377
-33.165
-32.925
-32.656
-32.357
-32.028
-31.671
-31.285
-30.874
-30.439
-29.983
-29.509
-29.022
-28.524
-28.021
-27.516
-27.014
-26.52
-26.037
-25.57
-25.122
-24.697
-24.298
-23.929
-23.594
-23.294
-23.033
-22.814
-22.638
-22.508
-22.426
-22.394
-22.412
-22.483
-22.608
-22.786
-23.02
-23.31
-23.656
-24.058
-24.515
-25.027
-25.591
-26.207
-26.871
-27.581
-28.333
-29.124
-29.95
-30.81
-31.699
-32.614
-33.553
-34.513
-35.49
-36.482
-37.485
-38.496
-39.513
-40.532
-41.55
-42.564
-43.571
-44.568
-45.552
-46.52
-47.468
-48.391
-49.285
-50.145
-50.965
-51.741
-52.465
-53.132
-53.735
-54.27
-54.734
-55.123
-55.434
-55.663
-55.808
-55.867
-55.837
-55.714
-55.49
-55.159
-54.713
-54.148
-53.46
-52.646
-51.703
-50.627
-49.418
-48.08
-46.614
-45.019
-43.289
-41.412
-39.388
-37.225
-34.938
-32.552
-30.089
-27.564
-25.006
-22.448
-19.913
-17.415
-14.954
-12.509
-10.074
-7.657
-5.279
-2.98
-0.779
1.324
3.335
5.266
7.134
8.943
10.724
12.53
14.377
16.254
18.111
19.846
21.389
22.7
23.758
24.566
25.109
25.347
25.243
24.765
23.874
22.544
20.711
18.278
15.211
11.525
7.302
2.698
-2.165
-7.209
-12.361
-17.572
-22.771
-27.868
-32.791
-37.487
-41.896
-45.963
-49.592
-52.661
-55.133
-57.028
-58.438
-59.517
-60.363
-61.053
-61.687
-62.364
-63.196
-64.303
-65.741
-67.565
-69.881
-72.726
-76.068
-79.76
-83.423
-86.629
-89.028
-90.202
-89.684
-87.233
-82.896
-77.066
-70.633
-64.542
-59.389
-55.726
-54.201
-55.004
-57.608
-60.815
-62.528
-60.28
-52.187
-36.577
-11.421
24.869
72.813
131.911
199.101
269.083
337.4
400.598
457.814
510.306
556.333
590.208
601.474
578.73
516.956
418.453
294.029
159.356
28.599
-85.156
-173.404
-233.985
-269.019
-286.356
-293.915
-295.479
-291.578
-279.329
-257.574
-228.883
-197.306
-167.113
-140.912
-119.575
-103.452
-92.818
-87.514
-86.772
-89.369
-94.236
-100.372
-106.648
-112.165
-115.966
-117.441
-116.657
-114.004
-109.928
-105.028
-100.042
-95.466
-91.746
-89.165
-87.64
-86.96
-86.853
-86.952
-86.869
-86.386
-85.385
-83.814
-81.741
-79.24
-76.383
-73.286
-70.061
-66.782
-63.492
-60.226
-57.005
-53.88
-50.922
-48.178
-45.684
-43.46
-41.509
-39.833
-38.43
-37.286
-36.375
-35.677
-35.174
-34.852
-34.705
-34.714
-34.858
-35.111
-35.444
-35.828
-36.236
-36.639
-37.013
-37.332
-37.576
-37.723
-37.756
-37.652
-37.389
-36.946
-36.299
-35.426
-34.309
-32.928
-31.265
-29.306
-27.039
-24.455
-21.545
-18.303
-14.725
-10.807
-6.551
-1.957
2.969
8.222
13.792
19.67
25.839
32.285
38.99
45.932
53.091
60.441
67.956
75.609
83.371
91.211
99.099
107.003
114.89
122.725
130.477
138.111
145.594
152.892
159.973
166.805
173.357
179.601
185.507
191.05
196.204
200.947
205.257
209.115
212.504
215.409
217.817
219.719
221.106
221.974
222.319
222.143
221.446
220.235
218.518
216.302
213.602
210.43
206.804
202.741
198.262
193.388
188.143
182.553
176.641
170.437
163.967
157.26
150.345
143.251
136.007
128.643
121.188
113.669
106.117
98.557
91.017
83.522
76.097
68.767
61.552
54.474
47.553
40.806
34.25
27.901
21.771
15.872
10.214
4.806
-0.346
-5.237
-9.862
-14.219
-18.309
-22.13
-25.687
-28.98
-32.014
-34.794
-37.326
-39.616
-41.67
-43.498
-45.107
-46.505
-47.702
-48.707
-49.53
-50.179
-50.665
-50.998
-51.189
-51.246
-51.18
-51.002
-50.72
-50.344
-49.884
-49.348
-48.746
-48.085
-47.374
-46.619
-45.828
-45.006
-44.161
-43.298
-42.421
-41.537
-40.649
-39.762
-38.88
-38.008
-37.15
-36.308
-35.488
-34.691
-33.923
-33.185
-32.481
-31.814
-31.185
-30.597
-30.052
-29.551
-29.094
-28.683
-28.317
-27.997
-27.722
-27.492
-27.305
-27.16
-27.057
-26.994
-26.97
-26.983
-27.034
-27.119
-27.239
-27.39
-27.573
-27.785
-28.023
-28.287
-28.574
-28.88
-29.204
-29.542
-29.891
-30.248
-30.609
-30.973
-31.334
-31.69
-32.039
-32.378
-32.704
-33.016
-33.313
-33.592
-33.853
-34.096
-34.32
-34.526
-34.713
-34.882
-35.034
-35.169
-35.287
-35.391
-35.479
-35.555
-35.617
-35.669
-35.711
-35.746
-35.775
-35.801
-35.827
-35.855
-35.889
-35.932
-35.988
-36.059
-36.149
-36.263
-36.402
-36.57
-36.77
-37.005
-37.275
-37.584
-37.932
-38.319
-38.745
-39.209
-39.712
-40.25
-40.823
-41.426
-42.058
-42.715
-43.394
-44.089
-44.797
-45.511
-46.226
-46.935
-47.631
-48.306
-48.951
-49.559
-50.119
-50.624
-51.063
-51.426
-51.705
-51.889
-51.969
-51.935
-51.778
-51.489
-51.061
-50.485
-49.755
-48.866
-47.813
-46.593
-45.202
-43.64
-41.907
-40.004
-37.935
-35.702
-33.312
-30.77
-28.087
-25.271
-22.335
-19.291
-16.155
-12.946
-9.682
-6.383
-3.071
0.233
3.506
6.726
9.87
12.918
15.848
18.641
21.273
23.72
25.959
27.97
29.734
31.233
32.45
33.368
33.977
34.273
34.252
33.911
33.241
32.225
30.855
29.136
27.073
24.678
21.97
18.968
15.706
12.233
8.597
4.843
1.006
-2.894
-6.826
-10.744
-14.592
-18.299
-21.812
-25.108
-28.155
-30.922
-33.41
-35.626
-37.616
-39.464
-41.213
-42.903
-44.579
-46.276
-48.059
-50.013
-52.203
-54.734
-57.75
-61.266
-65.218
-69.435
-73.546
-77.23
-80.238
-82.219
-82.761
-81.632
-78.88
-74.966
-70.774
-67.013
-63.985
-61.841
-60.885
-61.41
-63.15
-64.997
-64.998
-61.129
-52.048
-36.947
-14.677
16.469
57.498
108.156
166.977
230.472
295.39
360.459
422.488
479.19
528.525
563.371
579.34
572.196
537.101
478.151
400.519
310.334
216.571
122.368
30.075
-56.374
-134.407
-199.691
-248.743
-281.415
-298.748
-302.664
-295.366
-278.923
-255.752
-228.727
-200.73
-173.615
-148.621
-126.915
-109.394
-96.821
-89.485
-86.828
-87.737
-91.344
-96.679
-102.465
-107.695
-111.322
-112.598
-111.499
-108.391
-103.697
-98.098
-92.457
-87.332
-83.233
-80.496
-79.036
-78.664
-79.115
-79.953
-80.73
-81.196
-81.188
-80.647
-79.647
-78.235
-76.47
-74.466
-72.326
-70.124
-67.903
-65.68
-63.463
-61.291
-59.219
-57.306
-55.593
-54.098
-52.824
-51.768
-50.92
-50.269
-49.792
-49.458
-49.245
-49.134
-49.111
-49.161
-49.268
-49.404
-49.544
-49.659
-49.721
-49.707
-49.595
-49.366
-49.002
-48.488
-47.809
-46.953
-45.906
-44.653
-43.181
-41.473
-39.517
-37.303
-34.821
-32.061
-29.02
-25.693
-22.078
-18.175
-13.986
-9.513
-4.762
0.261
5.549
11.09
16.874
22.887
29.114
35.539
42.144
48.91
55.816
62.84
69.959
77.149
84.386
91.643
98.895
106.114
113.275
120.349
127.309
134.128
140.779
147.236
153.471
159.46
165.178
170.601
175.706
180.474
184.885
188.919
192.562
195.798
198.614
200.999
202.943
204.439
205.482
206.067
206.193
205.859
205.07
203.828
202.14
200.015
197.462
194.493
191.123
187.366
183.24
178.762
173.952
168.832
163.423
157.748
151.832
145.699
139.376
132.886
126.258
119.517
112.69
105.801
98.878
91.944
85.025
78.144
71.325
64.588
57.956
51.449
45.084
38.881
32.854
27.02
21.39
15.977
10.791
5.841
1.134
-3.324
-7.529
-11.477
-15.168
-18.6
-21.776
-24.698
-27.37
-29.797
-31.987
-33.946
-35.683
-37.209
-38.533
-39.666
-40.619
-41.404
-42.034
-42.52
-42.876
-43.115
-43.248
-43.289
-43.25
-43.143
-42.98
-42.774
-42.533
-42.27
-41.993
-41.713
-41.437
-41.174
-40.932
-40.718
-40.538
-40.397
-40.301
-40.253
-40.256
-40.312
-40.423
-40.587
-40.806
-41.077
-41.399
-41.769
-42.184
-42.64
-43.133
-43.658
-44.21
-44.784
-45.374
-45.974
-46.58
-47.184
-47.782
-48.367
-48.936
-49.482
-50
-50.486
-50.935
-51.342
-51.702
-52.012
-52.268
-52.465
-52.601
-52.673
-52.678
-52.616
-52.485
-52.285
-52.017
-51.681
-51.278
-50.811
-50.282
-49.695
-49.054
-48.362
-47.625
-46.847
-46.034
-45.191
-44.323
-43.437
-42.537
-41.629
-40.718
-39.81
-38.91
-38.023
-37.154
-36.309
-35.493
-34.711
-33.968
-33.269
-32.62
-32.024
-31.486
-31.011
-30.602
-30.262
-29.995
-29.802
-29.685
-29.647
-29.686
-29.804
-29.999
-30.27
-30.616
-31.032
-31.518
-32.069
-32.682
-33.353
-34.078
-34.852
-35.67
-36.529
-37.421
-38.343
-39.287
-40.249
-41.221
-42.197
-43.169
-44.131
-45.074
-45.99
-46.872
-47.711
-48.498
-49.224
-49.88
-50.459
-50.95
-51.348
-51.642
-51.826
-51.894
-51.839
-51.657
-51.34
-50.886
-50.291
-49.551
-48.666
-47.632
-46.449
-45.116
-43.635
-42.008
-40.236
-38.321
-36.269
-34.083
-31.769
-29.334
-26.786
-24.134
-21.387
-18.557
-15.656
-12.697
-9.696
-6.666
-3.626
-0.592
2.416
5.378
8.275
11.088
13.797
16.382
18.825
21.111
23.224
25.151
26.877
28.388
29.67
30.712
31.5
32.028
32.285
32.262
31.957
31.372
30.51
29.374
27.963
26.27
24.293
22.037
19.508
16.72
13.69
10.443
7.019
3.469
-0.155
-3.801
-7.43
-11.016
-14.52
-17.903
-21.114
-24.092
-26.794
-29.192
-31.253
-32.951
-34.291
-35.305
-36.067
-36.692
-37.27
-37.86
-38.526
-39.331
-40.358
-41.7
-43.455
-45.685
-48.463
-51.915
-56.068
-60.829
-65.948
-70.934
-75.286
-78.643
-80.569
-80.54
-78.415
-74.315
-68.749
-62.884
-57.576
-53.213
-50.419
-49.756
-51.059
-53.717
-56.146
-55.657
-50.288
-38.48
-18.185
12.448
54.851
108.578
170.201
235.642
301.361
366.999
435.49
505.417
571.373
622.669
643.31
624.891
566.76
474.171
359.317
232.943
103.247
-19.352
-123.492
-201.046
-247.609
-267.31
-272.508
-271.964
-269.84
-265.61
-254.059
-234.546
-210.857
-187.017
-167.012
-152.288
-142.103
-136.112
-134.098
-135.013
-137.127
-138.727
-138.885
-137.498
-134.865
-131.001
-125.516
-118.505
-110.807
-103.474
-97.214
-92.215
-88.309
-85.374
-83.554
-82.915
-83.191
-83.889
-84.541
-84.868
-84.81
-84.403
-83.614
-82.381
-80.694
-78.611
-76.242
-73.69
-71.011
-68.225
-65.35
-62.424
-59.507
-56.678
-54.007
-51.555
-49.357
-47.432
-45.789
-44.434
-43.368
-42.577
-42.035
-41.708
-41.566
-41.588
-41.757
-42.052
-42.443
-42.896
-43.377
-43.854
-44.299
-44.689
-44.996
-45.195
-45.263
-45.182
-44.932
-44.499
-43.865
-43.011
-41.919
-40.573
-38.958
-37.061
-34.872
-32.379
-29.576
-26.456
-23.017
-19.258
-15.179
-10.782
-6.07
-1.05
4.271
9.884
15.778
21.941
28.357
35.01
41.883
48.954
56.204
63.608
71.143
78.783
86.502
94.273
102.067
109.856
117.611
125.303
132.903
140.381
147.709
154.859
161.803
168.512
174.963
181.128
186.986
192.512
197.685
202.486
206.895
210.895
214.471
217.608
220.293
222.515
224.267
225.541
226.331
226.637
226.456
225.792
224.647
223.029
220.946
218.407
215.427
212.018
208.198
203.984
199.394
194.451
189.174
183.588
177.716
171.583
165.214
158.634
151.869
144.946
137.891
130.73
123.489
116.195
108.873
101.548
94.246
86.99
79.805
72.712
65.734
58.891
52.201
45.682
39.35
33.219
27.302
21.61
16.152
10.937
5.97
1.257
-3.201
-7.4
-11.34
-15.022
-18.447
-21.62
-24.542
-27.219
-29.657
-31.861
-33.837
-35.593
-37.137
-38.478
-39.623
-40.583
-41.367
-41.985
-42.449
-42.769
-42.955
-43.019
-42.972
-42.824
-42.586
-42.267
-41.877
-41.426
-40.923
-40.374
-39.79
-39.176
-38.54
-37.888
-37.226
-36.559
-35.893
-35.233
-34.583
-33.947
-33.329
-32.733
-32.162
-31.62
-31.11
-30.634
-30.193
-29.79
-29.426
-29.101
-28.814
-28.567
-28.357
-28.183
-28.045
-27.94
-27.866
-27.82
-27.8
-27.803
-27.828
-27.87
-27.926
-27.995
-28.073
-28.158
-28.246
-28.335
-28.423
-28.507
-28.585
-28.655
-28.714
-28.76
-28.791
-28.807
-28.804
-28.783
-28.742
-28.682
-28.603
-28.504
-28.389
-28.257
-28.112
-27.956
-27.791
-27.622
-27.451
-27.282
-27.12
-26.967
-26.829
-26.709
-26.612
-26.541
-26.5
-26.494
-26.524
-26.596
-26.71
-26.871
-27.081
-27.34
-27.65
-28.012
-28.426
-28.893
-29.41
-29.976
-30.589
-31.247
-31.944
-32.677
-33.439
-34.226
-35.028
-35.84
-36.652
-37.456
-38.243
-39.002
-39.724
-40.4
-41.02
-41.574
-42.053
-42.447
-42.747
-42.944
-43.03
-42.996
-42.835
-42.541
-42.106
-41.527
-40.799
-39.919
-38.883
-37.69
-36.34
-34.834
-33.173
-31.362
-29.403
-27.305
-25.074
-22.721
-20.258
-17.695
-15.048
-12.334
-9.569
-6.77
-3.958
-1.15
1.635
4.376
7.054
9.653
12.153
14.538
16.789
18.886
20.813
22.551
24.082
25.391
26.462
27.28
27.835
28.124
28.142
27.884
27.345
26.513
25.383
23.958
22.244
20.25
17.992
15.491
12.784
9.922
6.954
3.92
0.855
-2.222
-5.286
-8.304
-11.239
-14.048
-16.696
-19.165
-21.442
-23.503
-25.344
-26.99
-28.506
-29.998
-31.561
-33.252
-35.099
-37.128
-39.377
-41.908
-44.784
-48.047
-51.716
-55.814
-60.414
-65.531
-71.044
-76.66
-81.88
-86.164
-89.113
-90.364
-89.477
-86.236
-80.778
-73.585
-65.649
-58.027
-51.358
-46.201
-43.202
-42.521
-43.636
-45.384
-45.698
-42.203
-33.135
-16.88
8.475
44.364
91.244
148.573
213.328
280.494
345.969
406.381
460.858
510.402
552.61
581.842
588.391
561.61
498.15
400.743
277.632
142.189
5.249
-122.036
-226.547
-301.754
-345.351
-361.261
-361.467
-353.837
-341.527
-324.798
-300.073
-267.588
-231.157
-194.68
-162.539
-136.997
-118.484
-107.07
-101.929
-101.64
-104.611
-109.147
-113.666
-117.09
-118.587
-117.632
-114.215
-108.786
-102.159
-95.299
-89.174
-84.361
-81.13
-79.561
-79.506
-80.709
-82.807
-85.314
-87.699
-89.635
-90.98
-91.671
-91.74
-91.179
-89.941
-88.052
-85.608
-82.7
-79.436
-75.927
-72.245
-68.479
-64.75
-61.154
-57.772
-54.653
-51.797
-49.2
-46.869
-44.816
-43.068
-41.637
-40.514
-39.681
-39.109
-38.754
-38.577
-38.536
-38.576
-38.654
-38.731
-38.78
-38.786
-38.745
-38.641
-38.459
-38.178
-37.777
-37.236
-36.539
-35.669
-34.612
-33.352
-31.877
-30.18
-28.251
-26.082
-23.662
-20.98
-18.027
-14.794
-11.275
-7.468
-3.371
1.015
5.684
10.631
15.846
21.32
27.042
32.998
39.171
45.547
52.106
58.83
65.703
72.7
79.793
86.967
94.206
101.488
108.797
116.097
123.343
130.52
137.611
144.556
151.3
157.794
163.98
169.854
175.437
180.674
185.491
189.993
194.311
198.332
202.045
205.463
208.237
211.249
215.355
219.304
222.713
223.296
218.319
210.802
202.76
197.192
198.223
202.216
206.091
207.745
203.691
196.447
188.563
180.621
174.188
168.391
162.099
155.561
148.655
141.488
134.323
127.037
119.538
111.897
104.153
96.322
88.436
80.533
72.647
64.826
57.123
49.552
42.128
34.875
27.815
20.968
14.354
7.985
1.874
-3.965
-9.518
-14.776
-19.731
-24.377
-28.711
-32.731
-36.437
-39.83
-42.917
-45.701
-48.191
-50.397
-52.329
-53.998
-55.417
-56.6
-57.561
-58.314
-58.875
-59.258
-59.478
-59.551
-59.49
-59.31
-59.024
-58.646
-58.188
-57.661
-57.079
-56.45
-55.786
-55.096
-54.39
-53.674
-52.959
-52.249
-51.55
-50.869
-50.209
-49.573
-48.963
-48.381
-47.827
-47.302
-46.804
-46.332
-45.884
-45.458
-45.051
-44.661
-44.285
-43.92
-43.562
-43.211
-42.862
-42.515
-42.167
-41.817
-41.465
-41.109
-40.749
-40.385
-40.018
-39.646
-39.27
-38.891
-38.51
-38.126
-37.741
-37.356
-36.971
-36.59
-36.211
-35.839
-35.473
-35.117
-34.771
-34.439
-34.121
-33.82
-33.538
-33.276
-33.038
-32.824
-32.635
-32.474
-32.341
-32.237
-32.162
-32.117
-32.1
-32.113
-32.155
-32.224
-32.321
-32.444
-32.594
-32.769
-32.968
-33.192
-33.44
-33.71
-34.004
-34.32
-34.659
-35.021
-35.406
-35.813
-36.243
-36.696
-37.173
-37.672
-38.196
-38.742
-39.311
-39.903
-40.518
-41.154
-41.811
-42.488
-43.185
-43.899
-44.63
-45.375
-46.133
-46.9
-47.676
-48.456
-49.237
-50.016
-50.788
-51.548
-52.291
-53.012
-53.703
-54.358
-54.97
-55.532
-56.037
-56.476
-56.842
-57.128
-57.324
-57.425
-57.421
-57.306
-57.074
-56.717
-56.229
-55.607
-54.845
-53.941
-52.892
-51.695
-50.35
-48.857
-47.216
-45.43
-43.502
-41.436
-39.238
-36.916
-34.476
-31.931
-29.29
-26.567
-23.777
-20.936
-18.062
-15.172
-12.285
-9.42
-6.599
-3.84
-1.162
1.416
3.874
6.194
8.356
10.339
12.126
13.7
15.042
16.139
16.976
17.541
17.83
17.838
17.561
16.994
16.125
14.947
13.463
11.678
9.601
7.247
4.634
1.795
-1.221
-4.369
-7.606
-10.894
-14.21
-17.527
-20.804
-24.003
-27.069
-29.955
-32.637
-35.091
-37.291
-39.226
-40.908
-42.386
-43.754
-45.098
-46.472
-47.906
-49.422
-51.061
-52.887
-54.966
-57.365
-60.125
-63.293
-66.957
-71.125
-75.667
-80.32
-84.626
-88.101
-90.408
-91.151
-89.848
-86.371
-80.901
-73.949
-66.512
-59.379
-52.917
-47.722
-44.504
-43.233
-43.288
-43.251
-40.8
-34.103
-21.89
-2.415
26.221
65.032
114.076
171.887
235.547
302.26
369.155
432.272
486.886
528.386
552.903
558.119
543.143
507.616
452.108
379.014
292.548
198.095
101.259
7.156
-79.592
-154.773
-214.902
-258.19
-284.822
-296.419
-295.266
-283.904
-265.07
-241.615
-216.506
-191.884
-168.855
-147.958
-129.56
-114.104
-101.912
-93.075
-87.201
-84.001
-83.376
-85.129
-88.765
-93.316
-97.826
-101.508
-103.987
-105.129
-104.835
-103.14
-100.36
-97.163
-94.121
-91.655
-89.92
-88.784
-88.125
-87.822
-87.654
-87.313
-86.575
-85.307
-83.488
-81.246
-78.684
-75.883
-72.937
-69.933
-66.945
-64.04
-61.269
-58.664
-56.254
-54.06
-52.099
-50.384
-48.918
-47.693
-46.69
-45.876
-45.228
-44.725
-44.348
-44.084
-43.918
-43.83
-43.798
-43.802
-43.819
-43.828
-43.803
-43.72
-43.557
-43.293
-42.912
-42.4
-41.741
-40.917
-39.91
-38.702
-37.278
-35.622
-33.72
-31.558
-29.125
-26.414
-23.419
-20.137
-16.565
-12.703
-8.551
-4.112
0.61
5.61
10.88
16.412
22.196
28.22
34.47
40.93
47.584
54.412
61.395
68.509
75.732
83.039
90.405
97.803
105.207
112.588
119.92
127.173
134.319
141.331
148.179
154.837
161.278
167.475
173.404
179.041
184.363
189.349
193.978
198.233
202.096
205.552
208.584
211.182
213.334
215.031
216.266
217.033
217.331
217.158
216.517
215.411
213.846
211.83
209.373
206.488
203.188
199.489
195.409
190.966
186.182
181.077
175.676
170.002
164.08
157.935
151.594
145.082
138.425
131.651
124.785
117.853
110.881
103.895
96.919
89.977
83.093
76.289
69.587
63.005
56.564
50.279
44.166
38.24
32.512
26.993
21.693
16.618
11.775
7.168
2.799
-1.331
-5.222
-8.877
-12.298
-15.489
-18.457
-21.206
-23.744
-26.079
-28.218
-30.17
-31.944
-33.55
-34.998
-36.296
-37.456
-38.487
-39.4
-40.204
-40.909
-41.523
-42.056
-42.516
-42.91
-43.245
-43.528
-43.765
-43.962
-44.122
-44.249
-44.348
-44.42
-44.467
-44.49
-44.49
-44.467
-44.421
-44.352
-44.259
-44.141
-43.998
-43.829
-43.632
-43.408
-43.154
-42.87
-42.556
-42.209
-41.831
-41.42
-40.977
-40.501
-39.994
-39.455
-38.886
-38.288
-37.663
-37.011
-36.337
-35.641
-34.927
-34.198
-33.457
-32.709
-31.956
-31.204
-30.456
-29.718
-28.993
-28.286
-27.602
-26.943
-26.315
-25.72
-25.163
-24.645
-24.171
-23.742
-23.361
-23.03
-22.75
-22.523
-22.349
-22.229
-22.163
-22.15
-22.19
-22.283
-22.426
-22.619
-22.858
-23.143
-23.47
-23.837
-24.239
-24.675
-25.138
-25.627
-26.136
-26.662
-27.199
-27.743
-28.292
-28.839
-29.382
-29.917
-30.441
-30.95
-31.441
-31.913
-32.362
-32.787
-33.185
-33.556
-33.899
-34.213
-34.497
-34.752
-34.979
-35.178
-35.35
-35.498
-35.622
-35.725
-35.81
-35.879
-35.935
-35.982
-36.023
-36.061
-36.101
-36.146
-36.201
-36.269
-36.353
-36.457
-36.583
-36.735
-36.914
-37.122
-37.36
-37.63
-37.931
-38.264
-38.628
-39.022
-39.444
-39.892
-40.363
-40.853
-41.358
-41.872
-42.389
-42.904
-43.409
-43.897
-44.361
-44.793
-45.184
-45.525
-45.807
-46.021
-46.157
-46.205
-46.157
-46.002
-45.733
-45.34
-44.817
-44.157
-43.354
-42.402
-41.297
-40.035
-38.614
-37.033
-35.291
-33.389
-31.33
-29.117
-26.756
-24.255
-21.624
-18.874
-16.018
-13.071
-10.047
-6.963
-3.837
-0.687
2.469
5.611
8.722
11.779
14.762
17.648
20.411
23.032
25.49
27.764
29.833
31.676
33.272
34.607
35.666
36.435
36.896
37.025
36.804
36.227
35.292
34.007
32.382
30.429
28.168
25.638
22.882
19.947
16.883
13.724
10.506
7.277
4.094
1.027
-1.864
-4.546
-7.001
-9.228
-11.236
-13.026
-14.636
-16.146
-17.643
-19.257
-21.108
-23.274
-25.849
-28.907
-32.502
-36.769
-41.832
-47.63
-54.105
-61.152
-68.565
-76.381
-84.649
-93.015
-101.085
-108.62
-115.102
-120.222
-123.938
-125.543
-124.317
-120.233
-113.131
-102.899
-90.516
-76.572
-60.989
-44.776
-27.47
-7.802
13.178
35.694
59.076
82.257
109.691
144.615
190.566
250.256
316.601
384.226
448.351
503.059
551.508
591.471
614.555
614.663
581.457
513.173
420.2
312.861
203.363
99.557
1.582
-88.696
-168.396
-234.239
-282.048
-310.956
-322.619
-319.358
-304.287
-280.584
-251.585
-220.823
-190.833
-162.963
-138.198
-117.322
-100.891
-89.228
-81.895
-77.861
-76.398
-77.139
-79.448
-82.411
-85.162
-86.831
-87.069
-86.13
-84.247
-81.577
-78.516
-75.63
-73.331
-72.038
-71.916
-72.758
-74.353
-76.453
-78.702
-80.734
-82.308
-83.239
-83.442
-82.946
-81.74
-79.869
-77.439
-74.585
-71.461
-68.171
-64.783
-61.358
-57.975
-54.716
-51.652
-48.814
-46.2
-43.812
-41.659
-39.758
-38.138
-36.796
-35.713
-34.864
-34.211
-33.723
-33.379
-33.142
-32.973
-32.837
-32.702
-32.549
-32.374
-32.165
-31.906
-31.579
-31.161
-30.633
-29.982
-29.192
-28.248
-27.134
-25.835
-24.34
-22.64
-20.727
-18.59
-16.219
-13.603
-10.731
-7.598
-4.199
-0.53
3.411
7.624
12.105
16.848
21.847
27.092
32.573
38.279
44.196
50.309
56.601
63.053
69.645
76.357
83.163
90.041
96.965
103.908
110.844
117.745
124.584
131.333
137.964
144.45
150.763
156.877
162.764
168.4
173.759
178.817
183.552
187.941
191.965
195.604
198.842
201.664
204.055
206.005
207.505
208.546
209.124
209.236
208.881
208.062
206.782
205.047
202.867
200.252
197.214
193.769
189.933
185.722
181.158
176.261
171.051
165.554
159.792
153.79
147.575
141.173
134.609
127.912
121.109
114.226
107.29
100.33
93.37
86.437
79.556
72.75
66.044
59.458
53.013
46.728
40.619
34.702
28.99
23.495
18.228
13.196
8.406
3.864
-0.428
-4.466
-8.251
-11.782
-15.062
-18.093
-20.879
-23.426
-25.74
-27.826
-29.694
-31.351
-32.806
-34.07
-35.153
-36.066
-36.82
-37.427
-37.899
-38.248
-38.486
-38.624
-38.673
-38.644
-38.547
-38.391
-38.184
-37.935
-37.651
-37.338
-37.003
-36.651
-36.286
-35.913
-35.536
-35.157
-34.781
-34.408
-34.043
-33.687
-33.341
-33.008
-32.688
-32.382
-32.092
-31.817
-31.558
-31.313
-31.083
-30.865
-30.66
-30.466
-30.28
-30.103
-29.933
-29.768
-29.608
-29.451
-29.299
-29.149
-29.003
-28.861
-28.722
-28.588
-28.459
-28.336
-28.219
-28.11
-28.009
-27.916
-27.833
-27.758
-27.693
-27.636
-27.589
-27.55
-27.519
-27.496
-27.481
-27.473
-27.473
-27.481
-27.496
-27.518
-27.548
-27.586
-27.631
-27.684
-27.745
-27.814
-27.89
-27.972
-28.061
-28.155
-28.253
-28.356
-28.461
-28.569
-28.677
-28.786
-28.895
-29.003
-29.109
-29.215
-29.319
-29.422
-29.525
-29.627
-29.73
-29.835
-29.942
-30.051
-30.165
-30.282
-30.405
-30.534
-30.669
-30.811
-30.961
-31.118
-31.283
-31.456
-31.638
-31.83
-32.03
-32.241
-32.461
-32.692
-32.934
-33.186
-33.45
-33.725
-34.012
-34.31
-34.618
-34.937
-35.266
-35.603
-35.947
-36.298
-36.653
-37.011
-37.37
-37.728
-38.084
-38.434
-38.777
-39.112
-39.434
-39.744
-40.038
-40.316
-40.575
-40.813
-41.03
-41.224
-41.393
-41.536
-41.653
-41.742
-41.802
-41.832
-41.833
-41.803
-41.743
-41.652
-41.531
-41.379
-41.199
-40.992
-40.757
-40.498
-40.217
-39.915
-39.596
-39.263
-38.918
-38.566
-38.21
-37.854
-37.503
-37.159
-36.828
-36.514
-36.22
-35.951
-35.711
-35.502
-35.328
-35.193
-35.1
-35.051
-35.049
-35.096
-35.194
-35.345
-35.55
-35.809
-36.123
-36.492
-36.915
-37.391
-37.917
-38.493
-39.115
-39.78
-40.483
-41.22
-41.986
-42.773
-43.577
-44.387
-45.198
-46
-46.784
-47.542
-48.262
-48.937
-49.555
-50.109
-50.588
-50.984
-51.286
-51.486
-51.575
-51.546
-51.39
-51.101
-50.67
-50.094
-49.365
-48.481
-47.437
-46.23
-44.857
-43.318
-41.612
-39.741
-37.706
-35.511
-33.161
-30.663
-28.025
-25.258
-22.373
-19.384
-16.306
-13.156
-9.95
-6.709
-3.451
-0.195
3.039
6.23
9.359
12.408
15.355
18.182
20.868
23.393
25.738
27.882
29.808
31.498
32.933
34.1
34.988
35.589
35.894
35.893
35.572
34.921
33.942
32.637
31.016
29.092
26.883
24.419
21.75
18.923
15.982
12.965
9.894
6.794
3.701
0.655
-2.294
-5.105
-7.76
-10.248
-12.552
-14.664
-16.594
-18.389
-20.152
-21.981
-23.94
-26.068
-28.363
-30.839
-33.55
-36.549
-39.891
-43.616
-47.705
-52.163
-57.072
-62.394
-67.952
-73.411
-78.2
-81.8
-83.924
-84.231
-82.296
-78.017
-71.541
-63.391
-54.639
-46.123
-38.222
-31.484
-26.487
-23.179
-21.044
-18.779
-14.158
-5.448
8.452
29.112
58.259
96.9
145.501
202.061
261.977
321.701
378.323
431.65
484.735
536.701
583.022
613.576
612.74
572.434
493.564
386.619
271.078
160.901
62.486
-22.969
-99.051
-166.062
-220.908
-260.968
-284.512
-292.577
-288.027
-273.916
-253.45
-229.359
-204.172
-179.958
-157.706
-137.953
-121.255
-107.663
-97.06
-89.561
-84.777
-82.25
-81.893
-83.228
-85.371
-87.83
-90.128
-91.571
-92.005
-91.432
-89.722
-87.233
-84.611
-82.164
-80.16
-78.904
-78.313
-78.239
-78.618
-79.139
-79.427
-79.318
-78.685
-77.456
-75.724
-73.57
-71.044
-68.273
-65.368
-62.4
-59.441
-56.539
-53.723
-51.051
-48.569
-46.302
-44.279
-42.506
-40.98
-39.695
-38.633
-37.762
-37.06
-36.505
-36.08
-35.774
-35.567
-35.441
-35.376
-35.347
-35.333
-35.31
-35.253
-35.139
-34.95
-34.667
-34.277
-33.766
-33.119
-32.318
-31.347
-30.189
-28.828
-27.248
-25.436
-23.377
-21.062
-18.483
-15.633
-12.51
-9.109
-5.43
-1.473
2.762
7.269
12.046
17.085
22.378
27.917
33.688
39.678
45.874
52.258
58.812
65.518
72.355
79.301
86.334
93.431
100.567
107.717
114.855
121.955
128.99
135.933
142.758
149.437
155.945
162.255
168.343
174.185
179.758
185.038
190.007
194.642
198.927
202.845
206.379
209.517
212.245
214.553
216.433
217.877
218.88
219.439
219.552
219.219
218.441
217.222
215.567
213.483
210.979
208.067
204.757
201.064
197.004
192.593
187.85
182.794
177.447
171.829
165.964
159.875
153.586
147.121
140.505
133.762
126.918
119.997
113.021
106.016
99.004
92.007
85.046
78.143
71.319
64.591
57.979
51.5
45.17
39.005
33.019
27.224
21.633
16.254
11.097
6.17
1.477
-2.976
-7.185
-11.151
-14.871
-18.348
-21.584
-24.582
-27.348
-29.886
-32.204
-34.309
-36.209
-37.911
-39.425
-40.759
-41.923
-42.926
-43.777
-44.486
-45.064
-45.519
-45.861
-46.101
-46.247
-46.31
-46.298
-46.221
-46.086
-45.902
-45.677
-45.419
-45.134
-44.829
-44.51
-44.181
-43.848
-43.514
-43.183
-42.856
-42.535
-42.222
-41.918
-41.624
-41.34
-41.065
-40.801
-40.546
-40.301
-40.066
-39.839
-39.621
-39.411
-39.208
-39.013
-38.825
-38.642
-38.466
-38.296
-38.131
-37.971
-37.815
-37.664
-37.517
-37.374
-37.234
-37.098
-36.965
-36.836
-36.713
-36.594
-36.482
-36.377
-36.282
-36.196
-36.123
-36.062
-36.016
-35.986
-35.973
-35.978
-36.002
-36.047
-36.113
-36.2
-36.309
-36.441
-36.594
-36.77
-36.967
-37.186
-37.426
-37.686
-37.965
-38.263
-38.58
-38.914
-39.264
-39.631
-40.014
-40.411
-40.821
-41.244
-41.678
-42.123
-42.576
-43.037
-43.504
-43.976
-44.451
-44.928
-45.405
-45.88
-46.354
-46.823
-47.287
-47.745
-48.195
-48.636
-49.067
-49.488
-49.897
-50.294
-50.678
-51.049
-51.406
-51.748
-52.076
-52.387
-52.683
-52.961
-53.222
-53.464
-53.688
-53.892
-54.076
-54.241
-54.385
-54.51
-54.615
-54.7
-54.767
-54.815
-54.846
-54.861
-54.86
-54.846
-54.82
-54.784
-54.739
-54.689
-54.634
-54.578
-54.522
-54.47
-54.422
-54.382
-54.352
-54.335
-54.334
-54.352
-54.391
-54.455
-54.547
-54.668
-54.823
-55.011
-55.237
-55.501
-55.805
-56.15
-56.536
-56.964
-57.433
-57.942
-58.489
-59.073
-59.691
-60.34
-61.015
-61.711
-62.426
-63.153
-63.886
-64.62
-65.348
-66.064
-66.761
-67.43
-68.064
-68.654
-69.19
-69.665
-70.069
-70.392
-70.627
-70.764
-70.794
-70.711
-70.507
-70.174
-69.706
-69.097
-68.343
-67.439
-66.384
-65.174
-63.811
-62.295
-60.627
-58.813
-56.856
-54.763
-52.54
-50.193
-47.731
-45.164
-42.503
-39.759
-36.947
-34.082
-31.183
-28.269
-25.361
-22.478
-19.642
-16.874
-14.194
-11.619
-9.166
-6.852
-4.696
-2.716
-0.927
0.655
2.016
3.147
4.035
4.674
5.058
5.185
5.058
4.675
4.029
3.111
1.906
0.407
-1.38
-3.453
-5.805
-8.425
-11.295
-14.381
-17.63
-20.994
-24.428
-27.889
-31.338
-34.718
-37.956
-40.979
-43.712
-46.102
-48.129
-49.766
-50.989
-51.796
-52.187
-52.218
-52.021
-51.72
-51.444
-51.329
-51.462
-52.013
-53.244
-55.3
-58.215
-61.853
-65.835
-69.862
-73.829
-77.5
-80.571
-82.885
-84.339
-85.344
-86.915
-89.769
-94.172
-100.191
-107.551
-115.814
-124.58
-132.528
-137.394
-137.163
-130.186
-115.361
-92.389
-60.896
-20.153
29.667
87.427
151.841
220.161
288.589
354.318
414.063
467.018
516.49
563
603.829
630.38
627.501
584.828
500.569
382.786
247.727
111.848
-12.076
-116.912
-198.916
-258.447
-299.852
-326.387
-342.253
-349.074
-343.959
-326.877
-299.426
-264.644
-228.232
-193.857
-163.14
-137.75
-118.76
-106.381
-100.489
-100.148
-103.548
-109.334
-116.38
-123.045
-127.937
-130.344
-129.925
-126.995
-122.445
-116.904
-111.002
-105.673
-101.5
-98.759
-97.585
-97.741
-98.797
-100.419
-102.208
-103.708
-104.68
-104.996
-104.58
-103.463
-101.657
-99.185
-96.149
-92.686
-88.936
-85.004
-80.964
-76.882
-72.849
-68.965
-65.307
-61.916
-58.792
-55.936
-53.363
-51.094
-49.163
-47.568
-46.292
-45.311
-44.584
-44.083
-43.779
-43.632
-43.594
-43.625
-43.689
-43.762
-43.836
-43.896
-43.922
-43.891
-43.777
-43.56
-43.22
-42.738
-42.093
-41.267
-40.238
-38.992
-37.515
-35.793
-33.813
-31.559
-29.017
-26.174
-23.021
-19.551
-15.757
-11.636
-7.188
-2.415
2.677
8.081
13.789
19.789
26.069
32.615
39.41
46.438
53.679
61.112
68.716
76.468
84.343
92.314
100.356
108.438
116.533
124.61
132.637
140.584
148.419
156.11
163.626
170.937
178.013
184.822
191.337
197.529
203.372
208.839
213.908
218.555
222.761
226.508
229.78
232.563
234.846
236.618
237.873
238.604
238.807
238.481
237.625
236.244
234.342
231.927
229.011
225.607
221.731
217.403
212.645
207.482
201.938
196.04
189.819
183.303
176.526
169.52
162.315
154.947
147.451
139.862
132.219
124.557
116.909
109.31
101.791
94.384
87.122
80.033
73.138
66.463
60.03
53.862
47.989
42.429
37.191
32.278
27.688
23.411
19.442
15.759
12.324
9.104
6.058
