Name,Criss Capps
Date of Birth,"Feb 5, 1952"
Recorded Date,2023-07-25 09:50:58 -0400
Classification,Poor Recording
Symptoms,
Software Version,1.90
Device,"Watch5,4"
Sample Rate,512.844 hertz


Lead,Lead I
Unit,µV

349.094
342.706
335.803
328.436
320.648
312.467
303.915
295.012
285.785
276.263
266.47
256.425
246.16
235.713
225.128
214.461
203.768
193.103
182.53
172.107
161.886
151.923
142.256
132.91
123.928
115.358
107.261
99.723
92.794
86.498
80.861
75.876
71.499
67.659
64.212
60.998
57.924
54.925
51.986
49.168
46.501
44.032
41.834
39.899
38.232
36.871
35.784
34.979
34.554
34.647
35.526
37.521
40.782
45.361
51.231
58.166
65.928
74.195
82.496
90.475
97.831
104.255
109.57
113.592
115.997
116.438
114.443
109.433
101.057
89.091
73.385
54.054
31.301
5.465
-22.861
-53.171
-85.077
-118.205
-152.319
-187.207
-222.515
-257.89
-292.922
-327.072
-359.935
-391.19
-420.517
-447.799
-473.017
-496.254
-517.808
-537.931
-556.749
-574.352
-590.741
-605.867
-619.759
-632.422
-643.842
-654.099
-663.248
-671.325
-678.409
-684.495
-689.522
-693.395
-695.934
-696.971
-696.421
-694.23
-690.385
-684.921
-677.865
-669.277
-659.261
-647.895
-635.25
-621.397
-606.386
-590.289
-573.202
-555.227
-536.481
-517.09
-497.161
-476.796
-456.095
-435.143
-414.018
-392.786
-371.496
-350.195
-328.937
-307.774
-286.759
-265.944
-245.371
-225.081
-205.113
-185.501
-166.27
-147.437
-129.014
-111.008
-93.425
-76.264
-59.523
-43.195
-27.272
-11.742
3.408
18.193
32.629
46.736
60.532
74.037
87.27
100.25
112.994
125.517
137.835
149.959
161.897
173.656
185.243
196.66
207.912
218.998
229.917
240.668
251.246
261.646
271.861
281.88
291.691
301.282
310.638
319.745
328.587
337.149
345.413
353.365
360.988
368.265
375.183
381.725
387.878
393.628
398.964
403.876
408.356
412.398
415.998
419.153
421.864
424.133
425.964
427.363
428.339
428.901
429.062
428.836
428.239
427.288
426.003
424.403
422.51
420.346
417.935
415.3
412.465
409.454
406.291
402.999
399.603
396.125
392.588
389.012
385.419
381.825
378.249
374.705
371.206
367.764
364.386
361.08
357.849
354.697
351.622
348.621
345.689
342.818
339.997
337.214
334.453
331.695
328.922
326.111
323.239
320.279
317.206
313.991
310.605
307.02
303.204
299.128
294.762
290.077
285.044
279.636
273.827
267.593
260.914
253.77
246.145
238.026
229.404
220.273
210.63
200.476
189.816
178.66
167.02
154.915
142.366
129.4
116.049
102.347
88.334
74.054
59.554
44.886
30.104
15.267
0.435
-14.328
-28.958
-43.388
-57.55
-71.375
-84.796
-97.743
-110.152
-121.956
-133.093
-143.505
-153.134
-161.928
-169.838
-176.821
-182.838
-187.855
-191.843
-194.78
-196.65
-197.442
-197.153
-195.785
-193.348
-189.859
-185.341
-179.823
-173.342
-165.94
-157.667
-148.576
-138.728
-128.188
-117.026
-105.315
-93.135
-80.564
-67.687
-54.589
-41.354
-28.069
-14.819
-1.689
11.239
23.884
36.17
48.022
59.369
70.145
80.289
89.743
98.457
106.384
113.485
119.724
125.076
129.517
133.033
135.615
137.261
137.975
137.766
136.65
134.649
131.79
128.106
123.632
118.412
112.49
105.914
98.737
91.01
82.791
74.132
65.092
55.725
46.085
36.228
26.204
16.063
5.855
-4.377
-14.59
-24.743
-34.802
-44.733
-54.506
-64.096
-73.48
-82.64
-91.56
-100.228
-108.635
-116.775
-124.645
-132.246
-139.58
-146.651
-153.468
-160.038
-166.372
-172.481
-178.376
-184.069
-189.57
-194.89
-200.037
-205.017
-209.835
-214.494
-218.993
-223.329
-227.497
-231.488
-235.29
-238.89
-242.27
-245.41
-248.287
-250.877
-253.153
-255.086
-256.645
-257.8
-258.517
-258.764
-258.507
-257.713
-256.349
-254.384
-251.786
-248.525
-244.575
-239.911
-234.511
-228.358
-221.436
-213.737
-205.257
-195.995
-185.958
-175.158
-163.612
-151.343
-138.381
-124.762
-110.526
-95.72
-80.396
-64.611
-48.427
-31.911
-15.131
1.84
18.924
36.045
53.122
70.076
86.825
103.287
119.383
135.033
150.158
164.686
178.542
191.66
203.976
215.431
225.973
235.555
244.136
251.683
258.172
263.583
267.908
271.144
273.297
274.383
274.424
273.45
271.5
268.62
264.862
260.284
254.95
248.931
242.3
235.136
227.518
219.531
211.26
202.791
194.212
185.608
177.066
168.668
160.495
152.625
145.131
138.082
131.542
125.567
120.21
115.514
111.517
108.249
105.731
103.976
102.989
102.766
103.296
104.557
106.521
109.152
112.406
116.232
120.575
125.37
130.549
136.04
141.766
147.646
153.597
159.534
165.371
171.021
176.396
181.412
185.984
190.029
193.47
196.229
198.235
199.42
199.721
199.08
197.446
194.775
191.026
186.169
180.18
173.04
164.742
155.283
144.668
132.91
120.029
106.053
91.014
74.952
57.914
39.952
21.122
1.487
-18.885
-39.926
-61.559
-83.71
-106.297
-129.24
-152.456
-175.861
-199.37
-222.9
-246.365
-269.683
-292.77
-315.546
-337.933
-359.854
-381.236
-402.01
-422.111
-441.476
-460.049
-477.777
-494.612
-510.512
-525.438
-539.36
-552.251
-564.091
-574.864
-584.563
-593.185
-600.733
-607.216
-612.651
-617.057
-620.463
-622.899
-624.403
-625.018
-624.791
-623.774
-622.025
-619.603
-616.572
-613.001
-608.959
-604.519
-599.756
-594.745
-589.564
-584.289
-578.998
-573.767
-568.673
-563.791
-559.192
-554.948
-551.125
-547.787
-544.994
-542.802
-541.261
-540.416
-540.307
-540.966
-542.421
-544.692
-547.791
-551.724
-556.489
-562.077
-568.472
-575.65
-583.58
-592.223
-601.537
-611.468
-621.962
-632.954
-644.379
-656.163
-668.231
-680.501
-692.891
-705.315
-717.684
-729.908
-741.897
-753.559
-764.804
-775.54
-785.679
-795.134
-803.82
-811.656
-818.565
-824.475
-829.316
-833.028
-835.553
-836.841
-836.85
-835.543
-832.891
-828.871
-823.467
-816.673
-808.485
-798.911
-787.96
-775.653
-762.014
-747.072
-730.864
-713.43
-694.817
-675.075
-654.26
-632.429
-609.645
-585.974
-561.483
-536.245
-510.33
-483.815
-456.775
-429.287
-401.426
-373.27
-344.895
-316.374
-287.781
-259.186
-230.66
-202.267
-174.071
-146.134
-118.513
-91.263
-64.435
-38.078
-12.237
13.045
37.731
61.786
85.177
107.877
129.86
151.105
171.594
191.312
210.249
228.398
245.754
262.319
278.097
293.095
307.325
320.8
333.539
345.563
356.893
367.557
377.582
386.996
395.833
404.124
411.905
419.21
426.075
432.539
438.638
444.409
449.891
455.121
460.134
464.968
469.657
474.233
478.729
483.174
487.593
492.012
496.45
500.924
505.447
510.028
514.67
519.372
524.13
528.933
533.766
538.611
543.444
548.237
552.958
557.572
562.041
566.32
570.367
574.133
577.568
580.622
583.24
585.371
586.958
587.948
588.287
587.922
586.801
584.875
582.096
578.421
573.809
568.225
561.637
554.021
545.356
535.63
524.836
512.974
500.053
486.086
471.097
455.114
438.174
420.319
401.6
382.071
361.796
340.842
319.281
297.191
274.656
251.76
228.595
205.251
181.826
158.417
135.122
112.041
89.276
66.925
45.089
23.865
3.349
-16.365
-35.189
-53.038
-69.829
-85.488
-99.946
-113.137
-125.005
-135.498
-144.572
-152.19
-158.321
-162.94
-166.032
-167.586
-167.597
-166.07
-163.013
-158.441
-152.378
-144.849
-135.89
-125.538
-113.838
-100.84
-86.598
-71.171
-54.622
-37.02
-18.434
1.06
21.385
42.461
64.207
86.54
109.376
132.63
156.217
180.054
204.057
228.144
252.232
276.242
300.096
323.717
347.032
369.969
392.459
414.437
435.839
456.607
476.687
496.026
514.578
532.302
549.161
565.121
580.157
594.246
607.374
619.529
630.708
640.912
650.148
658.429
665.772
672.2
677.742
682.43
686.301
689.396
691.76
693.443
694.495
694.973
694.936
694.443
693.558
692.346
690.872
689.203
687.406
685.546
683.689
681.899
680.238
678.764
677.534
676.6
676.01
675.808
676.032
676.715
677.884
679.561
681.761
684.491
687.756
691.551
695.866
700.685
705.985
711.737
717.907
724.453
731.329
738.481
745.852
753.378
760.991
768.618
776.182
783.604
790.799
797.682
804.166
810.161
815.578
820.327
824.32
827.47
829.692
830.901
831.02
829.971
827.682
824.084
819.115
812.716
804.833
795.417
784.426
771.824
757.579
741.667
724.07
704.776
683.781
661.086
636.701
610.641
582.929
553.596
522.678
490.22
456.27
420.887
384.132
346.074
306.786
266.347
224.839
182.351
138.971
94.795
49.92
4.444
-41.529
-87.895
-134.548
-181.381
-228.284
-275.147
-321.859
-368.311
-414.391
-459.99
-504.997
-549.305
-592.806
-635.397
-676.976
-717.442
-756.699
-794.657
-831.226
-866.322
-899.868
-931.789
-962.016
-990.485
-1017.139
-1041.925
-1064.794
-1085.707
-1104.626
-1121.523
-1136.372
-1149.157
-1159.866
-1168.494
-1175.042
-1179.517
-1181.934
-1182.311
-1180.675
-1177.058
-1171.497
-1164.035
-1154.722
-1143.61
-1130.761
-1116.237
-1100.105
-1082.439
-1063.313
-1042.805
-1020.996
-997.969
-973.808
-948.6
-922.431
-895.39
-867.565
-839.046
-809.921
-780.28
-750.21
-719.798
-689.129
-658.286
-627.352
-596.404
-565.52
-534.771
-504.23
-473.963
-444.034
-414.504
-385.43
-356.864
-328.856
-301.451
-274.69
-248.611
-223.246
-198.628
-174.78
-151.727
-129.489
-108.08
-87.515
-67.803
-48.95
-30.96
-13.832
2.438
17.855
32.43
46.175
59.104
71.236
82.59
93.188
103.056
112.219
120.707
128.551
135.782
142.435
148.546
154.154
159.297
164.014
168.349
172.342
176.039
179.483
182.72
185.796
188.759
191.654
194.532
197.438
200.42
203.525
206.799
210.286
214.028
218.067
222.441
227.187
232.337
237.922
243.97
250.504
257.544
265.107
273.204
281.843
291.026
300.751
311.011
321.793
333.079
344.847
357.068
369.708
382.729
396.085
409.726
423.596
437.635
451.777
465.95
480.079
494.086
507.887
521.395
534.524
547.181
559.276
570.716
581.408
591.259
600.179
608.077
614.865
620.458
624.776
627.74
629.277
629.322
627.81
624.689
619.908
613.426
605.21
595.233
583.479
569.938
554.61
537.506
518.643
498.052
475.771
451.847
426.34
399.315
370.85
341.029
309.946
277.702
244.404
210.166
175.11
139.36
103.048
66.306
29.271
-7.917
-45.117
-82.19
-118.994
-155.389
-191.237
-226.404
-260.757
-294.167
-326.512
-357.673
-387.538
-416.001
-442.965
-468.338
-492.04
-513.999
-534.151
-552.444
-568.835
-583.293
-595.796
-606.333
-614.902
-621.515
-626.191
-628.958
-629.855
-628.931
-626.239
-621.845
-615.82
-608.24
-599.189
-588.755
-577.032
-564.117
-550.111
-535.115
-519.236
-502.579
-485.253
-467.363
-449.016
-430.32
-411.376
-392.286
-373.148
-354.055
-335.095
-316.354
-297.91
-279.833
-262.192
-245.044
-228.443
-212.434
-197.057
-182.341
-168.314
-154.992
-142.387
-130.505
-119.345
-108.902
-99.164
-90.116
-81.737
-74.005
-66.89
-60.363
-54.39
-48.933
-43.956
-39.416
-35.272
-31.481
-27.999
-24.781
-21.783
-18.963
-16.277
-13.685
-11.146
-8.625
-6.086
-3.497
-0.828
1.946
4.849
7.899
11.114
14.506
18.085
21.856
25.824
29.988
34.347
38.896
43.629
48.538
53.611
58.838
64.204
69.695
75.296
80.988
86.753
92.574
98.43
104.302
110.17
116.013
121.812
127.546
133.195
138.742
144.169
149.457
154.591
159.557
164.342
168.935
173.326
177.508
181.475
185.225
188.754
192.064
195.157
198.035
200.704
203.169
205.44
207.523
209.429
211.168
212.751
214.19
215.497
216.686
217.768
218.757
219.667
220.51
221.299
222.049
222.77
223.475
224.177
224.886
225.612
226.365
227.153
227.982
228.857
229.781
230.754
231.775
232.841
233.944
235.077
236.229
237.386
238.532
239.65
240.72
241.719
242.625
243.413
244.055
244.524
244.791
244.828
244.602
244.085
243.246
242.052
240.473
238.478
236.036
233.116
229.686
225.718
221.181
216.047
210.289
203.881
196.801
189.026
180.537
171.32
161.36
150.649
139.18
126.95
113.961
100.216
85.724
70.496
54.549
37.899
20.569
2.585
-16.028
-35.238
-55.014
-75.32
-96.12
-117.375
-139.045
-161.088
-183.46
-206.114
-229.002
-252.076
-275.283
-298.573
-321.891
-345.185
-368.399
-391.48
-414.374
-437.027
-459.389
-481.409
-503.038
-524.229
-544.939
-565.126
-584.751
-603.779
-622.177
-639.915
-656.967
-673.309
-688.921
-703.784
-717.883
-731.206
-743.741
-755.48
-766.418
-776.553
-785.884
-794.413
-802.147
-809.093
-815.264
-820.672
-825.336
-829.274
-832.507
-835.059
-836.955
-838.221
-838.884
-838.971
-838.512
-837.533
-836.063
-834.127
-831.751
-828.959
-825.772
-822.211
-818.295
-814.039
-809.459
-804.569
-799.379
-793.901
-788.142
-782.11
-775.812
-769.25
-762.428
-755.344
-747.999
-740.389
-732.508
-724.348
-715.902
-707.157
-698.103
-688.725
-679.009
-668.939
-658.499
-647.672
-636.444
-624.799
-612.721
-600.198
-587.22
-573.776
-559.861
-545.47
-530.6
-515.254
-499.432
-483.141
-466.389
-449.184
-431.539
-413.466
-394.983
-376.107
-356.858
-337.259
-317.333
-297.107
-276.609
-255.869
-234.92
-213.793
-192.525
-171.153
-149.712
-128.243
-106.784
-85.374
-64.055
-42.863
-21.839
-1.018
19.564
39.874
59.88
79.552
98.865
117.793
136.314
154.408
172.056
189.243
205.954
222.178
237.905
253.126
267.837
282.034
295.713
308.876
321.522
333.656
345.282
356.406
367.035
377.178
386.846
396.05
404.803
413.116
421.003
428.477
435.551
442.237
448.546
454.488
460.073
465.308
470.199
474.752
478.971
482.858
486.415
489.641
492.537
495.099
497.324
499.208
500.745
501.93
502.755
503.213
503.297
502.996
502.302
501.205
499.695
497.762
495.395
492.583
489.316
485.583
481.375
476.682
471.497
465.814
459.626
452.93
445.726
438.011
429.79
421.064
411.841
402.127
391.932
381.27
370.152
358.596
346.62
334.243
321.489
308.379
294.941
281.2
267.187
252.93
238.463
223.818
209.029
194.132
179.164
164.163
149.167
134.214
119.343
104.593
90.003
75.61
61.452
47.563
33.98
20.735
7.86
-4.616
-16.664
-28.26
-39.38
-50.006
-60.118
-69.704
-78.753
-87.255
-95.207
-102.607
-109.457
-115.763
-121.535
-126.783
-131.525
-135.78
-139.57
-142.923
-145.866
-148.433
-150.658
-152.579
-154.234
-155.667
-156.919
-158.035
-159.062
-160.045
-161.03
-162.066
-163.196
-164.467
-165.923
-167.606
-169.556
-171.811
-174.405
-177.371
-180.736
-184.526
-188.76
-193.454
-198.62
-204.264
-210.388
-216.987
-224.052
-231.569
-239.519
-247.877
-256.612
-265.692
-275.075
-284.72
-294.577
-304.596
-314.723
-324.899
-335.065
-345.158
-355.116
-364.874
-374.368
-383.533
-392.307
-400.627
-408.433
-415.67
-422.281
-428.218
-433.434
-437.887
-441.542
-444.367
-446.339
-447.438
-447.655
-446.983
-445.425
-442.99
-439.694
-435.56
-430.618
-424.904
-418.461
-411.335
-403.582
-395.26
-386.432
-377.165
-367.529
-357.597
-347.443
-337.142
-326.771
-316.405
-306.119
-295.985
-286.073
-276.451
-267.182
-258.325
-249.932
-242.053
-234.727
-227.992
-221.872
-216.39
-211.556
-207.375
-203.842
-200.945
-198.663
-196.968
-195.821
-195.179
-194.99
-195.195
-195.729
-196.521
-197.495
-198.571
-199.665
-200.691
-201.56
-202.183
-202.47
-202.332
-201.681
-200.431
-198.499
-195.806
-192.277
-187.843
-182.439
-176.007
-168.497
-159.866
-150.077
-139.106
-126.932
-113.547
-98.95
-83.151
-66.169
-48.029
-28.77
-8.436
12.918
35.231
58.433
82.447
107.191
132.576
158.509
184.894
211.63
238.615
265.745
292.917
320.025
346.968
373.643
399.952
425.799
451.092
475.745
499.674
522.805
545.068
566.401
586.748
606.061
624.303
641.442
657.457
672.335
686.072
698.673
710.154
720.537
729.853
738.143
745.455
751.842
757.367
762.095
766.098
769.453
772.239
774.539
776.437
778.018
779.37
780.576
781.723
782.893
784.168
785.624
787.335
789.371
791.797
794.67
798.043
801.963
806.468
811.59
817.351
823.767
830.845
838.582
846.967
855.98
865.593
875.77
886.465
897.627
909.195
921.104
933.283
945.654
958.136
970.645
983.093
995.389
1007.443
1019.163
1030.457
1041.233
1051.404
1060.881
1069.583
1077.428
1084.341
1090.253
1095.097
1098.815
1101.357
1102.676
1102.737
1101.511
1098.978
1095.127
1089.956
1083.473
1075.693
1066.641
1056.352
1044.868
1032.239
1018.522
1003.784
988.094
971.531
954.175
936.113
917.436
898.236
878.607
858.645
838.446
818.107
797.723
777.387
757.19
737.222
717.566
698.305
679.515
661.267
643.625
626.651
610.395
594.905
580.219
566.369
553.38
541.268
530.043
519.709
510.261
501.687
493.969
487.082
480.996
475.674
471.077
467.159
463.87
461.16
458.974
457.258
455.954
455.005
454.353
453.938
453.705
453.596
453.558
453.536
453.48
453.342
453.077
452.644
452.007
451.129
449.977
448.524
446.742
444.608
442.101
439.201
435.891
432.161
428.002
423.41
418.382
412.918
407.021
400.694
393.944
386.78
379.204
371.221
362.836
354.054
344.884
335.33
325.398
315.091
304.414
293.374
281.975
270.219
258.103
245.625
232.782
219.574
205.998
192.058
177.755
163.097
148.101
132.784
117.164
101.261
85.089
68.665
52.005
35.123
18.025
0.722
-16.773
-34.433
-52.22
-70.088
-87.991
-105.877
-123.689
-141.362
-158.822
-176.013
-192.902
-209.449
-225.609
-241.315
-256.463
-270.976
-284.813
-297.935
-310.316
-321.935
-332.773
-342.882
-352.389
-361.426
-370.118
-378.517
-386.578
-394.28
-401.617
-408.58
-415.166
-421.262
-426.655
-431.187
-434.758
-437.274
-438.627
-438.525
-436.516
-432.217
-425.308
-415.635
-403.186
-387.888
-369.694
-348.692
-325.106
-299.434
-272.344
-244.354
-215.874
-187.324
-159.187
-132.252
-107.467
-85.602
-67.319
-53.096
-43.32
-38.511
-39.06
-45.059
-56.332
-72.31
-92.242
-115.606
-141.913
-170.592
-200.989
-232.067
-262.71
-292.053
-319.26
-343.583
-364.29
-380.472
-391.443
-396.894
-396.737
-391.226
-380.748
-365.455
-345.599
-321.579
-293.812
-263.079
-230.207
-195.816
-160.668
-125.581
-91.341
-58.849
-28.8
-1.542
22.626
43.566
61.249
75.466
86.143
93.332
96.995
97.337
94.676
89.256
81.553
72.198
61.709
50.62
39.367
28.141
17.18
6.705
-3.176
-12.265
-20.407
-27.484
-33.24
-37.515
-40.298
-41.599
-41.608
-40.649
-38.924
-36.6
-33.841
-30.675
-27.151
-23.335
-19.188
-14.683
-9.836
-4.68
0.66
6.058
11.485
16.949
22.515
28.313
34.409
40.841
47.672
54.907
62.529
70.514
78.775
87.203
95.725
104.285
112.844
121.381
129.843
138.161
146.267
154.079
161.52
168.518
174.986
180.852
186.059
190.562
194.335
197.368
199.641
201.139
201.852
201.768
200.88
199.185
196.677
193.352
189.218
184.287
178.577
172.111
164.913
157.009
148.429
139.205
129.369
118.954
107.994
96.522
84.573
72.186
59.395
46.24
32.754
18.972
4.928
-9.348
-23.827
-38.485
-53.3
-68.256
-83.336
-98.527
-113.819
-129.205
-144.678
-160.233
-175.865
-191.571
-207.349
-223.199
-239.122
-255.121
-271.197
-287.354
-303.595
-319.924
-336.344
-352.857
-369.466
-386.173
-402.978
-419.883
-436.89
-453.997
-471.203
-488.508
-505.906
-523.394
-540.966
-558.613
-576.326
-594.095
-611.906
-629.748
-647.606
-665.466
-683.312
-701.13
-718.904
-736.619
-754.26
-771.811
-789.258
-806.587
-823.784
-840.835
-857.727
-874.447
-890.983
-907.321
-923.448
-939.351
-955.015
-970.425
-985.566
-1000.419
-1014.968
-1029.193
-1043.074
-1056.59
-1069.72
-1082.439
-1094.724
-1106.55
-1117.89
-1128.716
-1138.999
-1148.709
-1157.814
-1166.281
-1174.076
-1181.163
-1187.505
-1193.066
-1197.808
-1201.69
-1204.676
-1206.725
-1207.799
-1207.861
-1206.875
-1204.807
-1201.624
-1197.298
-1191.804
-1185.118
-1177.224
-1168.108
-1157.762
-1146.181
-1133.369
-1119.33
-1104.078
-1087.63
-1070.01
-1051.246
-1031.374
-1010.432
-988.467
-965.53
-941.679
-916.974
-891.484
-865.279
-838.438
-811.042
-783.175
-754.926
-726.387
-697.654
-668.823
-639.993
-611.263
-582.734
-554.504
-526.672
-499.335
-472.588
-446.52
-421.221
-396.773
-373.257
-350.746
-329.311
-309.015
-289.918
-272.071
-255.521
-240.308
-226.466
-214.022
-202.997
-193.404
-185.252
-178.54
-173.264
-169.41
-166.959
-165.888
-166.164
-167.75
-170.605
-174.679
-179.921
-186.273
-193.673
-202.058
-211.36
-221.509
-232.434
-244.062
-256.32
-269.133
-282.427
-296.131
-310.169
-324.473
-338.97
-353.595
-368.281
-382.964
-397.584
-412.083
-426.407
-440.505
-454.327
-467.832
-480.977
-493.726
-506.048
-517.914
-529.3
-540.188
-550.562
-560.413
-569.733
-578.521
-586.779
-594.511
-601.728
-608.441
-614.664
-620.417
-625.716
-630.586
-635.048
-639.126
-642.847
-646.235
-649.317
-652.12
-654.667
-656.986
-659.1
-661.032
-662.805
-664.44
-665.955
-667.368
-668.693
-669.944
-671.13
-672.261
-673.339
-674.367
-675.344
-676.266
-677.126
-677.913
-678.614
-679.214
-679.693
-680.031
-680.205
-680.188
-679.954
-679.475
-678.719
-677.658
-676.258
-674.491
-672.323
-669.724
-666.666
-663.118
-659.054
-654.448
-649.275
-643.513
-637.143
-630.148
-622.512
-614.225
-605.276
-595.662
-585.378
-574.428
-562.814
-550.545
-537.632
-524.089
-509.934
-495.188
-479.875
-464.022
-447.66
-430.819
-413.535
-395.845
-377.786
-359.398
-340.721
-321.797
-302.666
-283.369
-263.947
-244.441
-224.889
-205.329
-185.799
-166.333
-146.965
-127.724
-108.639
-89.737
-71.041
-52.572
-34.348
-16.386
1.302
18.704
35.813
52.622
69.128
85.331
101.23
116.829
132.133
147.149
161.884
176.346
190.546
204.492
218.195
231.665
244.91
257.939
270.759
283.377
295.798
308.024
320.057
331.897
343.54
354.982
366.216
377.23
388.015
398.556
408.837
418.842
428.55
437.942
446.996
455.69
464
471.902
479.372
486.387
492.92
498.95
504.454
509.41
513.798
517.601
520.804
523.393
525.357
526.691
527.388
527.449
526.875
525.674
523.854
521.429
518.416
514.837
510.716
506.08
500.962
495.393
489.412
483.055
476.363
469.378
462.141
454.695
447.083
439.348
431.532
423.676
415.821
408.005
400.264
392.631
385.137
377.81
370.675
363.753
357.059
350.609
344.412
338.472
332.792
327.37
322.2
317.271
312.57
308.081
303.783
299.654
295.668
291.8
288.02
284.3
280.611
276.923
273.21
269.443
265.599
261.654
257.588
253.385
249.03
244.513
239.83
234.977
229.96
224.784
219.463
214.013
208.458
202.823
197.139
191.442
185.771
180.169
174.683
169.364
164.262
159.434
154.937
150.83
147.171
144.022
141.441
139.488
138.22
137.691
137.952
139.053
141.036
143.942
147.805
152.654
158.512
165.396
173.317
182.278
192.277
203.304
215.342
228.368
242.351
257.255
273.035
289.645
307.028
325.124
343.87
363.194
383.024
403.282
423.886
444.753
465.796
486.926
508.054
529.091
549.945
570.528
590.752
610.531
629.782
648.425
666.383
683.584
699.96
715.447
729.987
743.528
756.021
767.428
777.713
786.849
794.813
801.592
807.176
811.564
814.759
816.772
817.62
817.325
815.916
813.428
809.902
805.384
799.926
793.585
786.424
778.509
769.911
760.704
750.965
740.775
730.216
719.371
708.328
697.174
685.996
674.882
663.921
653.201
642.807
632.823
623.334
614.418
606.152
598.61
591.863
585.974
581.008
577.019
574.059
572.175
571.406
571.785
573.338
576.083
580.033
585.19
591.55
599.102
607.825
617.693
628.672
640.718
653.782
667.808
682.733
698.487
714.992
732.166
749.921
768.164
786.796
805.716
824.817
843.993
863.132
882.123
900.851
919.203
937.067
954.328
970.876
986.604
1001.407
1015.183
1027.839
1039.284
1049.436
1058.217
1065.559
1071.4
1075.686
1078.373
1079.422
1078.806
1076.504
1072.506
1066.81
1059.422
1050.357
1039.641
1027.305
1013.391
997.946
981.026
962.695
943.021
922.079
899.952
876.724
852.487
827.336
801.367
774.683
747.384
719.574
691.355
662.83
634.099
605.261
576.411
547.643
519.045
490.702
462.693
435.095
407.978
381.405
355.437
330.126
305.52
281.659
258.58
236.31
214.873
194.286
174.56
155.702
137.71
120.58
104.3
88.857
74.228
60.389
47.312
34.964
23.308
12.308
1.921
-7.894
-17.18
-25.983
-34.345
-42.311
-49.925
-57.229
-64.266
-71.075
-77.694
-84.16
-90.508
-96.769
-102.972
-109.143
-115.307
-121.483
-127.689
-133.94
-140.246
-146.616
-153.055
-159.563
-166.138
-172.776
-179.466
-186.196
-192.951
-199.711
-206.452
-213.151
-219.778
-226.302
-232.691
-238.909
-244.92
-250.684
-256.162
-261.314
-266.097
-270.47
-274.39
-277.816
-280.704
-283.014
-284.705
-285.738
-286.075
-285.68
-284.52
-282.563
-279.779
-276.143
-271.63
-266.222
-259.903
-252.661
-244.487
-235.38
-225.342
-214.381
-202.509
-189.744
-176.112
-161.643
-146.371
-130.338
-113.593
-96.187
-78.179
-59.634
-40.622
-21.218
-1.501
18.442
38.522
58.646
78.717
98.633
118.292
137.587
156.412
174.656
192.21
208.964
224.808
239.632
253.33
265.796
276.928
286.629
294.804
301.364
306.226
309.315
310.56
309.898
307.274
302.643
295.967
287.216
276.373
263.427
248.379
231.24
212.029
190.779
167.53
142.332
115.247
86.345
55.706
23.418
-10.421
-45.705
-82.321
-120.149
-159.063
-198.932
-239.617
-280.976
-322.865
-365.135
-407.637
-450.218
-492.728
-535.012
-576.922
-618.312
-659.041
-698.97
-737.963
-775.883
-812.6
-847.992
-881.943
-914.345
-945.097
-974.1
-1001.271
-1026.539
-1049.841
-1071.129
-1090.355
-1107.471
-1122.439
-1135.226
-1145.821
-1154.237
-1160.49
-1164.596
-1166.585
-1166.485
-1164.34
-1160.209
-1154.139
-1146.17
-1136.343
-1124.692
-1111.274
-1096.172
-1079.475
-1061.294
-1041.694
-1020.69
-998.303
-974.528
-949.432
-923.171
-895.849
-867.534
-838.301
-808.145
-777.209
-745.887
-714.168
-681.693
-648.16
-613.105
-576.627
-539.671
-502.645
-465.331
-428.269
-392.41
-358.84
-329.297
-303.886
-280.669
-258.619
-237.526
-216.505
-194.683
-170.71
-142.096
-108.661
-72.847
-36.161
0.496
36.073
70.164
101.685
128.396
149.968
168.045
183.702
197.828
211.024
223.06
234.258
245.656
257.404
268.871
279.595
289.056
297.045
303.863
309.571
313.99
317.114
319.008
319.756
319.52
318.354
316.182
312.981
308.748
303.513
297.362
290.366
282.581
274.067
264.884
255.097
244.781
234.013
222.873
211.44
199.789
188.004
176.172
164.379
152.715
141.259
130.075
119.229
108.785
98.808
89.364
80.514
72.308
64.796
58.023
52.027
46.842
42.492
38.995
36.359
34.59
33.685
33.637
34.43
36.043
38.448
41.61
45.489
50.038
55.205
60.932
67.158
73.818
80.844
88.165
95.709
103.403
111.175
118.952
126.663
134.235
141.597
148.679
155.415
161.743
167.602
172.937
177.7
181.845
185.336
188.144
190.245
191.624
192.271
192.184
191.367
189.833
187.601
184.695
181.146
176.995
172.289
167.081
161.43
155.398
149.054
142.474
135.734
128.905
122.058
115.262
108.585
102.098
95.868
89.952
84.416
79.324
74.75
70.773
67.457
64.857
63.02
61.983
61.774
62.419
63.916
66.241
69.384
73.329
78.083
83.685
90.121
97.332
105.24
113.716
122.638
131.905
141.368
150.838
160.181
169.284
178.115
186.743
195.156
203.292
211.048
218.218
224.692
230.456
235.477
239.785
243.45
246.506
249.12
251.607
254.111
256.691
259.276
261.536
263.293
264.484
265.044
265.06
264.513
263.253
261.209
258.273
254.184
248.684
241.297
231.282
218.181
201.696
181.671
158.348
131.849
102.194
69.52
33.865
-4.654
-45.78
-89.339
-135.091
-182.488
-230.856
-279.219
-326.242
-370.853
-412.108
-449.167
-481.6
-508.951
-530.76
-546.77
-556.692
-560.259
-557.29
-547.543
-530.912
-507.687
-478.379
-443.872
-405.41
-364.128
-321.177
-277.636
-234.263
-191.766
-150.754
-111.646
-74.887
-40.955
-10.332
16.418
38.879
56.948
70.703
80.556
87.19
91.311
93.757
95.3
96.472
97.723
99.361
101.549
104.488
108.41
113.567
120.323
128.953
139.582
152.271
166.87
183.072
200.512
218.677
237.104
255.489
273.596
291.298
308.559
325.322
341.536
357.162
372.08
386.178
399.384
411.613
422.863
433.203
442.738
451.654
460.123
468.248
476.1
483.711
491.067
498.157
504.953
511.397
517.466
523.155
528.462
533.408
538.002
542.229
546.072
549.498
552.468
554.96
556.956
558.441
559.417
559.888
559.87
559.394
558.489
557.175
555.472
553.396
550.96
548.184
545.085
541.678
537.983
534.021
529.817
525.401
520.8
516.04
511.148
506.15
501.07
495.931
490.751
485.547
480.334
475.122
469.923
464.746
459.6
454.486
449.407
444.361
439.343
434.347
429.362
424.371
419.356
414.296
409.176
403.975
398.676
393.255
387.683
381.935
375.984
369.804
363.366
356.642
349.597
342.205
334.445
326.299
317.753
308.789
299.384
289.518
279.171
268.34
257.042
245.291
233.1
220.489
207.478
194.096
180.387
166.383
152.107
137.582
122.824
107.873
92.795
77.663
62.573
47.571
32.655
17.827
3.065
-11.578
-25.954
-39.972
-53.576
-66.7
-79.368
-91.44
-102.524
-112.653
-122.22
-131.562
-141.185
-151.004
-160.062
-167.976
-175.007
-180.626
-183.89
-183.713
-178.339
-167.746
-154.024
-138.301
-120.879
-102.773
-84.977
-69.009
-57.568
-50.913
-46.612
-43.232
-39.947
-35.797
-30.494
-23.024
-11.191
5.181
24.244
44.75
65.632
86.141
106.387
125.897
143.47
158.842
172.559
184.995
196.596
207.484
217.261
225.802
233.226
239.491
244.49
248.109
250.162
250.593
249.487
246.893
242.843
237.351
230.382
221.932
212.021
200.675
187.932
173.832
158.415
141.727
123.818
104.743
84.567
63.351
41.154
18.038
-5.938
-30.701
-56.169
-82.259
-108.893
-135.992
-163.489
-191.312
-219.391
-247.658
-276.049
-304.503
-332.964
-361.374
-389.68
-417.831
-445.777
-473.475
-500.886
-527.973
-554.704
-581.048
-606.979
-632.473
-657.511
-682.077
-706.154
-729.732
-752.801
-775.353
-797.385
-818.892
-839.872
-860.326
-880.253
-899.654
-918.53
-936.883
-954.715
-972.026
-988.817
-1005.089
-1020.84
-1036.07
-1050.779
-1064.963
-1078.623
-1091.756
-1104.36
-1116.433
-1127.973
-1138.977
-1149.441
-1159.363
-1168.74
-1177.566
-1185.838
-1193.552
-1200.703
-1207.286
-1213.296
-1218.729
-1223.579
-1227.841
-1231.509
-1234.576
-1237.039
-1238.891
-1240.128
-1240.745
-1240.739
-1240.107
-1238.848
-1236.962
-1234.45
-1231.313
-1227.554
-1223.18
-1218.194
-1212.605
-1206.42
-1199.647
-1192.299
-1184.386
-1175.924
-1166.927
-1157.412
-1147.398
-1136.905
-1125.955
-1114.573
-1102.783
-1090.613
-1078.094
-1065.255
-1052.132
-1038.762
-1025.183
-1011.436
-997.562
-983.606
-969.613
-955.628
-941.699
-927.87
-914.185
-900.69
-887.429
-874.442
-861.771
-849.452
-837.52
-826.012
-814.959
-804.389
-794.326
-784.792
-775.801
-767.368
-759.502
-752.207
-745.485
-739.331
-733.737
-728.691
-724.179
-720.181
-716.67
-713.615
-710.981
-708.731
-706.821
-705.206
-703.836
-702.659
-701.622
-700.676
-699.77
-698.85
-697.866
-696.77
-695.517
-694.07
-692.384
-690.416
-688.125
-685.481
-682.455
-679.023
-675.163
-670.854
-666.088
-660.874
-655.223
-649.151
-642.674
-635.803
-628.556
-620.963
-613.052
-604.858
-596.406
-587.709
-578.809
-569.773
-560.668
-551.577
-542.535
-533.518
-524.527
-515.585
-506.694
-497.861
-489.065
-480.237
-471.387
-462.593
-453.923
-445.467
-437.234
-429.145
-421.138
-413.141
-405.141
-397.221
-389.394
-381.597
-373.837
-366.145
-358.581
-351.292
-344.211
-337.052
-329.567
-321.498
-312.683
-303.103
-292.676
-281.283
-268.785
-254.975
-239.727
-223.018
-204.701
-184.551
-162.333
-137.714
-110.654
-81.423
-50.226
-17.256
17.356
53.612
91.42
130.595
171.001
212.509
255.022
298.517
342.829
387.673
432.764
477.752
522.49
567.076
611.528
655.821
699.909
743.656
786.99
829.918
872.356
914.146
955.134
995.131
1034.033
1071.828
1108.486
1143.993
1178.259
1211.093
1242.349
1271.916
1299.684
1325.572
1349.482
1371.285
1390.921
1408.395
1423.707
1436.872
1447.886
1456.715
1463.347
1467.789
1470.062
1470.204
1468.255
1464.253
1458.25
1450.311
1440.506
1428.921
1415.629
1400.694
1384.187
1366.187
1346.778
1326.054
1304.109
1281.03
1256.917
1231.872
1206.001
1179.409
1152.197
1124.461
1096.3
1067.81
1039.085
1010.213
981.282
952.374
923.569
894.945
866.574
838.524
810.859
783.639
756.917
730.743
705.161
680.208
655.918
632.315
609.422
587.255
565.826
545.138
525.192
505.983
487.501
469.732
452.658
436.252
420.488
405.333
390.756
376.72
363.19
350.128
337.496
325.257
313.373
301.808
290.526
279.492
268.673
258.037
247.555
237.199
226.946
216.774
206.666
196.606
186.583
176.591
166.626
156.686
146.775
136.901
127.073
117.306
107.618
98.028
88.561
79.244
70.106
61.176
52.488
44.074
35.967
28.202
20.809
13.821
7.268
1.178
-4.422
-9.509
-14.06
-18.057
-21.486
-24.334
-26.594
-28.263
-29.341
-29.834
-29.751
-29.106
-27.919
-26.213
-24.015
-21.358
-18.28
-14.821
-11.028
-6.951
-2.643
1.838
6.431
11.074
15.698
20.238
24.623
28.784
32.65
36.15
39.214
41.774
43.761
45.11
45.756
45.639
44.7
42.886
40.146
36.433
31.706
25.93
19.073
11.108
2.017
-8.214
-19.596
-32.128
-45.808
-60.624
-76.559
-93.592
-111.69
-130.82
-150.938
-171.998
-193.945
-216.723
-240.267
-264.509
-289.379
-314.801
-340.694
-366.978
-393.566
-420.372
-447.305
-474.277
-501.194
-527.965
-554.499
-580.703
-606.487
-631.764
-656.445
-680.446
-703.686
-726.085
-747.569
-768.066
-787.51
-805.836
-822.989
-838.916
-853.569
-866.907
-878.893
-889.497
-898.694
-906.464
-912.792
-917.672
-921.098
-923.075
-923.61
-922.716
-920.412
-916.722
-911.675
-905.305
-897.651
-888.754
-878.661
-867.423
-855.095
-841.731
-827.393
-812.142
-796.043
-779.16
-761.56
-743.311
-724.48
-705.135
-685.343
-665.169
-644.68
-623.937
-603.004
-581.938
-560.799
-539.641
-518.517
-497.477
-476.566
-455.829
-435.305
-415.029
-395.033
-375.345
-355.986
-336.976
-318.328
-300.052
-282.15
-264.625
-247.469
-230.675
-214.229
-198.112
-182.304
-166.777
-151.505
-136.455
-121.593
-106.883
-92.288
-77.768
-63.284
-48.796
-34.262
-19.643
-4.898
10.012
25.123
40.472
56.094
72.019
88.275
104.888
121.879
139.265
157.058
175.269
193.898
212.946
232.405
252.264
272.504
293.102
314.03
335.254
356.735
378.43
400.289
422.261
444.288
466.312
488.27
510.096
531.724
553.085
574.11
594.729
614.871
634.466
653.446
671.743
689.293
706.033
721.903
736.848
750.817
763.762
775.64
786.416
796.056
804.535
811.834
817.938
822.839
826.538
829.037
830.35
830.492
829.487
827.362
824.152
819.895
814.633
808.413
801.285
793.302
784.52
774.998
764.794
753.971
742.59
730.711
718.398
705.709
692.703
679.437
665.966
652.34
638.607
624.812
610.995
597.193
583.436
569.751
556.16
542.68
529.322
516.094
502.999
490.033
477.191
464.461
451.83
439.279
426.788
414.333
401.888
389.426
376.915
364.325
351.625
338.782
325.764
312.539
299.077
285.347
271.322
256.976
242.286
227.229
211.789
195.952
179.706
163.047
145.971
128.482
110.586
92.296
73.628
54.603
35.247
15.589
-4.335
-24.49
-44.832
-65.317
-85.897
-106.522
-127.139
-147.693
-168.128
-188.387
-208.41
-228.141
-247.518
-266.483
-284.979
-302.946
-320.328
-337.069
-353.116
-368.416
-382.92
-396.581
-409.353
-421.198
-432.077
-441.958
-450.809
-458.608
-465.331
-470.963
-475.492
-478.909
-481.211
-482.398
-482.475
-481.451
-479.338
-476.152
-471.911
-466.636
-460.353
-453.086
-444.866
-435.722
-425.686
-414.791
-403.073
-390.568
-377.314
-363.347
-348.708
-333.437
-317.573
-301.156
-284.229
-266.831
-249.002
-230.785
-212.217
-193.339
-174.19
-154.809
-135.232
-115.496
-95.638
-75.693
-55.695
-35.68
-15.681
4.268
24.134
43.881
63.474
82.879
102.058
120.974
139.59
157.865
175.759
193.23
210.238
226.738
242.688
258.041
272.755
286.783
300.08
312.602
324.302
335.136
345.061
354.034
362.013
368.958
374.831
379.594
383.213
385.656
386.892
386.895
385.642
383.113
379.293
374.17
367.74
360
350.956
340.619
329.004
316.134
302.036
286.747
270.305
252.758
234.159
214.567
194.046
172.667
150.506
127.645
104.168
80.167
55.735
30.97
5.974
-19.152
-44.3
-69.362
-94.23
-118.794
-142.942
-166.563
-189.549
-211.79
-233.179
-253.614
-272.993
-291.22
-308.202
-323.852
-338.085
-350.827
-362.005
-371.554
-379.418
-385.546
-389.894
-392.428
-393.121
-391.954
-388.918
-384.009
-377.236
-368.613
-358.163
-345.918
-331.918
-316.209
-298.848
-279.897
-259.427
-237.515
-214.247
-189.713
-164.009
-137.237
-109.505
-80.922
-51.602
-21.664
8.775
39.59
70.66
101.86
133.065
164.15
194.992
225.469
255.46
284.849
313.523
341.371
368.29
394.179
418.944
442.497
464.755
485.644
505.095
523.048
539.452
554.262
567.444
578.972
588.83
597.008
603.51
608.344
611.529
613.091
613.066
611.498
608.436
603.942
598.081
590.927
582.561
573.07
562.549
551.094
538.809
525.802
512.184
498.068
483.571
468.812
453.912
438.991
424.171
409.573
395.316
381.519
368.296
355.758
344.014
333.166
323.312
314.546
306.955
300.619
295.614
292.007
289.86
289.227
290.154
292.678
296.831
302.633
310.098
319.232
330.03
342.481
356.565
372.254
389.512
408.295
428.55
450.219
473.232
497.517
522.99
549.564
577.144
605.631
634.92
664.903
695.466
726.495
757.871
789.472
821.177
852.86
884.398
915.664
946.536
976.889
1006.603
1035.559
1063.64
1090.736
1116.739
1141.546
1165.058
1187.186
1207.843
1226.95
1244.437
1260.239
1274.302
1286.58
1297.034
1305.639
1312.375
1317.234
1320.218
1321.337
1320.612
1318.072
1313.756
1307.713
1299.999
1290.678
1279.825
1267.522
1253.856
1238.923
1222.825
1205.669
1187.566
1168.63
1148.982
1128.74
1108.027
1086.965
1065.676
1044.283
1022.903
1001.654
980.649
959.995
939.795
920.145
901.135
882.846
865.351
848.714
832.991
818.229
804.463
791.72
780.017
769.361
759.747
751.164
743.586
736.981
731.305
726.508
722.528
719.297
716.741
714.777
713.318
712.272
711.544
711.033
710.64
710.262
709.797
709.143
708.203
706.879
705.08
702.72
699.718
695.999
691.498
686.155
679.919
672.749
664.612
655.484
645.351
634.209
622.063
608.928
594.831
579.804
563.893
547.15
529.638
511.427
492.594
473.223
453.404
433.234
412.811
392.239
371.623
351.071
330.691
310.588
290.867
271.63
252.975
234.993
217.772
201.39
185.922
171.43
157.971
145.593
134.334
124.224
115.282
107.518
100.932
95.515
91.248
88.101
86.036
85.004
84.95
85.808
87.504
89.957
93.08
96.777
100.949
105.491
110.294
115.247
120.235
125.144
129.86
134.269
138.26
141.724
144.558
146.661
147.938
148.301
147.666
145.957
143.103
139.043
133.719
127.084
119.097
109.724
98.939
86.725
73.071
57.974
41.439
23.477
4.109
-16.641
-38.739
-62.146
-86.816
-112.699
-139.74
-167.877
-197.047
-227.183
-258.217
-290.078
-322.694
-355.994
-389.907
-424.361
-459.289
-494.62
-530.29
-566.232
-602.384
-638.685
-675.076
-711.5
-747.902
-784.228
-820.429
-856.455
-892.261
-927.802
-963.036
-997.923
-1032.427
-1066.511
-1100.144
-1133.295
-1165.935
-1198.039
-1229.582
-1260.541
-1290.894
-1320.62
-1349.698
-1378.108
-1405.827
-1432.835
-1459.108
-1484.624
-1509.359
-1533.288
-1556.385
-1578.626
-1599.985
-1620.435
-1639.952
-1658.512
-1676.089
-1692.663
-1708.213
-1722.718
-1736.162
-1748.53
-1759.809
-1769.988
-1779.059
-1787.015
-1793.853
-1799.573
-1804.175
-1807.664
-1810.046
-1811.334
-1811.54
-1810.683
-1808.785
-1805.873
-1801.979
-1797.138
-1791.392
-1784.787
-1777.372
-1769.202
-1760.336
-1750.835
-1740.766
-1730.195
-1719.194
-1707.832
-1696.183
-1684.319
-1672.312
-1660.234
-1648.155
-1636.143
-1624.263
-1612.58
-1601.155
-1590.044
-1579.303
-1568.982
-1559.128
-1549.783
-1540.988
-1532.774
-1525.17
-1518.198
-1511.874
-1506.208
-1501.203
-1496.856
-1493.154
-1490.08
-1487.61
-1485.713
-1484.35
-1483.478
-1483.047
-1483.005
-1483.292
-1483.848
-1484.607
-1485.502
-1486.468
-1487.434
-1488.334
-1489.102
-1489.672
-1489.982
-1489.972
-1489.585
-1488.767
-1487.469
-1485.645
-1483.255
-1480.263
-1476.639
-1472.359
-1467.405
-1461.767
-1455.439
-1448.424
-1440.734
-1432.386
-1423.404
-1413.822
-1403.678
-1393.02
-1381.9
-1370.377
-1358.515
-1346.384
-1334.057
-1321.608
-1309.115
-1296.658
-1284.316
-1272.165
-1260.283
-1248.742
-1237.613
-1226.961
-1216.847
-1207.327
-1198.451
-1190.262
-1182.796
-1176.081
-1170.139
-1164.982
-1160.613
-1157.029
-1154.215
-1152.149
-1150.798
-1150.121
-1150.067
-1150.578
-1151.583
-1153.008
-1154.766
-1156.765
-1158.904
-1161.078
-1163.174
-1165.077
-1166.666
-1167.819
-1168.413
-1168.324
-1167.429
-1165.606
-1162.738
-1158.71
-1153.414
-1146.745
-1138.607
-1128.91
-1117.573
-1104.524
-1089.698
-1073.043
-1054.513
-1034.077
-1011.71
-987.402
-961.15
-932.965
-902.866
-870.886
-837.066
-801.46
-764.131
-725.153
-684.608
-642.591
-599.201
-554.547
-508.746
-461.92
-414.195
-365.704
-316.581
-266.963
-216.989
-166.798
-116.527
-66.312
-16.288
33.415
82.673
131.362
179.369
226.584
272.903
318.231
362.478
405.563
447.411
487.955
527.135
564.9
601.207
636.019
669.31
701.058
731.253
759.888
786.966
812.497
836.496
858.984
879.988
899.541
917.679
934.443
949.874
964.021
976.929
988.649
999.228
1008.718
1017.164
1024.616
1031.118
1036.715
1041.448
1045.355
1048.476
1050.844
1052.492
1053.449
1053.744
1053.4
1052.441
1050.886
1048.752
1046.055
1042.807
1039.018
1034.698
1029.852
1024.486
1018.602
1012.204
1005.291
997.864
989.922
981.464
972.49
962.998
952.99
942.467
931.432
919.888
907.843
895.305
882.283
868.791
854.843
840.455
825.646
810.434
794.843
778.895
762.614
746.027
729.162
712.046
694.71
677.183
659.497
641.683
623.774
605.802
587.801
569.803
551.843
533.952
516.165
498.514
481.033
463.754
446.708
429.926
413.438
397.273
381.459
366.022
350.989
336.384
322.231
308.552
295.37
282.705
270.577
259.005
248.007
237.599
227.798
218.619
210.075
202.179
194.943
188.376
182.489
177.288
172.779
168.969
165.858
163.45
161.743
160.735
160.422
160.797
161.854
163.581
165.968
169
172.662
176.936
181.801
187.237
193.219
199.721
206.715
214.173
222.063
230.354
239.012
248.003
257.293
266.846
276.628
286.605
296.74
307.002
317.358
327.776
338.227
348.684
359.12
369.513
379.842
390.087
400.235
410.271
420.184
429.969
439.619
449.133
458.513
467.761
476.886
485.896
494.803
503.622
512.368
521.061
529.721
538.367
547.022
555.708
564.447
573.263
582.175
591.205
600.372
609.692
619.181
628.851
638.712
648.769
659.027
669.485
680.139
690.983
702.006
713.195
724.531
735.995
747.562
759.207
770.899
782.606
794.293
805.922
817.456
828.853
840.071
851.066
861.796
872.216
882.283
891.953
901.184
909.935
918.168
925.846
932.935
939.404
945.225
950.374
954.832
958.582
961.613
963.918
965.493
966.341
966.466
965.878
964.593
962.626
960
956.741
952.876
948.438
943.461
937.981
932.04
925.677
918.938
911.866
904.507
896.909
889.118
881.182
873.147
865.061
856.968
848.913
840.937
833.08
825.38
817.871
810.585
803.55
796.791
790.329
784.182
778.363
772.881
767.743
762.95
758.499
754.385
750.597
747.121
743.94
741.032
738.373
735.933
733.682
731.583
729.6
727.691
725.813
723.92
721.965
719.898
717.669
715.227
712.52
709.496
706.104
702.293
698.013
693.217
687.858
681.893
675.282
667.985
659.968
651.202
641.659
631.317
620.159
608.171
595.345
581.679
567.176
551.843
535.695
518.753
501.041
482.593
463.446
443.645
423.239
402.283
380.839
358.971
336.75
314.248
291.543
268.716
245.849
223.026
200.334
177.86
155.691
133.913
112.612
91.871
71.774
52.399
33.821
16.114
-0.655
-16.423
-31.131
-44.728
-57.166
-68.405
-78.414
-87.166
-94.642
-100.834
-105.737
-109.357
-111.709
-112.811
-112.693
-111.39
-108.944
-105.403
-100.821
-95.258
-88.778
-81.45
-73.345
-64.539
-55.108
-45.133
-34.694
-23.87
-12.743
-1.392
10.104
21.667
33.224
44.702
56.032
67.15
77.994
88.509
98.643
108.352
117.596
126.343
134.565
142.243
149.364
155.918
161.907
167.335
172.213
176.557
180.388
183.733
186.621
189.085
191.162
192.892
194.316
195.476
196.416
197.181
197.815
198.362
198.866
199.37
199.915
200.54
201.283
202.179
203.259
204.552
206.083
207.871
209.934
212.282
214.923
217.856
221.08
224.585
228.358
232.381
236.63
241.079
245.697
250.449
255.297
260.201
265.116
270
274.804
279.481
283.984
288.263
292.269
295.955
299.271
302.17
304.607
306.536
307.914
308.699
308.852
308.337
307.121
305.175
302.472
298.992
294.717
289.635
283.739
277.027
269.501
261.168
252.041
242.138
231.479
220.091
208.005
195.252
181.872
167.903
153.39
138.375
122.908
107.036
90.809
74.28
57.501
40.526
23.408
6.203
-11.036
-28.254
-45.398
-62.415
-79.254
-95.868
-112.209
-128.235
-143.904
-159.18
-174.031
-188.427
-202.343
-215.76
-228.661
-241.034
-252.872
-264.173
-274.937
-285.169
-294.878
-304.075
-312.774
-320.993
-328.75
-336.069
-342.973
-349.486
-355.637
-361.454
-366.967
-372.207
-377.205
-381.993
-386.604
-391.068
-395.418
-399.682
-403.889
-408.066
-412.236
-416.421
-420.642
-424.913
-429.248
-433.656
-438.144
-442.714
-447.366
-452.095
-456.895
-461.756
-466.665
-471.608
-476.569
-481.529
-486.469
-491.369
-496.207
-500.961
-505.61
-510.13
-514.5
-518.698
-522.703
-526.496
-530.058
-533.372
-536.424
-539.201
-541.695
-543.898
-545.808
-547.423
-548.747
-549.789
-550.558
-551.071
-551.346
-551.406
-551.279
-550.995
-550.588
-550.096
-549.559
-549.019
-548.52
-548.11
-547.837
-547.748
-547.893
-548.321
-549.083
-550.228
-551.802
-553.852
-556.425
-559.561
-563.301
-567.682
-572.738
-578.499
-584.99
-592.233
-600.245
-609.039
-618.622
-628.996
-640.157
-652.096
-664.799
-678.247
-692.412
-707.265
-722.77
-738.883
-755.561
-772.751
-790.399
-808.444
-826.825
-845.475
-864.325
-883.302
-902.334
-921.344
-940.256
-958.992
-977.474
-995.626
-1013.368
-1030.626
-1047.326
-1063.394
-1078.76
-1093.357
-1107.121
-1119.99
-1131.906
-1142.817
-1152.672
-1161.427
-1169.041
-1175.478
-1180.707
-1184.701
-1187.441
-1188.911
-1189.1
-1188.002
-1185.618
-1181.953
-1177.017
-1170.825
-1163.396
-1154.753
-1144.926
-1133.945
-1121.847
-1108.671
-1094.458
-1079.254
-1063.105
-1046.061
-1028.173
-1009.493
-990.075
-969.972
-949.239
-927.93
-906.101
-883.805
-861.098
-838.032
-814.661
-791.037
-767.21
-743.229
-719.142
-694.994
-670.829
-646.687
-622.607
-598.624
-574.772
-551.081
-527.58
-504.294
-481.246
-458.456
-435.942
-413.72
-391.803
-370.201
-348.925
-327.98
-307.373
-287.109
-267.19
-247.62
-228.398
-209.528
-191.007
-172.835
-155.01
-137.53
-120.392
-103.593
-87.128
-70.995
-55.19
-39.709
-24.551
-9.713
4.807
19.009
32.893
46.459
59.707
72.635
85.24
97.522
109.476
121.099
132.389
143.342
153.954
164.224
174.15
183.73
192.965
201.858
210.412
218.632
226.525
234.099
241.364
248.331
255.014
261.429
267.591
273.521
279.24
284.771
290.142
295.381
300.517
305.584
310.615
315.646
320.713
325.854
331.108
336.513
342.109
347.935
354.029
360.429
367.172
374.29
381.816
389.777
398.198
407.1
416.498
426.405
436.827
447.766
459.218
471.175
483.622
496.539
509.899
523.669
537.811
552.279
567.021
581.98
597.093
612.291
627.501
642.646
657.642
672.404
686.845
700.873
714.396
727.319
739.548
750.99
761.552
771.145
779.68
787.075
793.252
798.139
801.668
803.781
804.424
803.552
801.13
797.129
791.53
784.324
775.511
765.101
753.116
739.586
724.551
708.064
690.183
670.978
650.526
628.915
606.236
582.591
558.086
532.834
506.95
480.555
453.772
426.727
399.545
372.35
345.267
318.417
291.918
265.883
240.421
215.635
191.621
168.469
146.261
125.07
104.96
85.988
68.198
51.627
36.3
22.232
9.43
-2.111
-12.405
-21.475
-29.355
-36.083
-41.71
-46.29
-49.888
-52.573
-54.418
-55.504
-55.912
-55.729
-55.04
-53.935
-52.501
-50.826
-48.996
-47.093
-45.198
-43.39
-41.739
-40.316
-39.183
-38.398
-38.012
-38.07
-38.612
-39.668
-41.264
-43.418
-46.141
-49.438
-53.306
-57.738
-62.718
-68.228
-74.24
-80.725
-87.647
-94.967
-102.642
-110.625
-118.869
-127.323
-135.938
-144.661
-153.442
-162.229
-170.974
-179.626
-188.14
-196.471
-204.577
-212.417
-219.955
-227.158
-233.994
-240.436
-246.461
-252.049
-257.182
-261.846
-266.029
-269.725
-272.927
-275.634
-277.844
-279.56
-280.787
-281.532
-281.802
-281.608
-280.959
-279.868
-278.345
-276.403
-274.052
-271.302
-268.165
-264.65
-260.764
-256.514
-251.908
-246.949
-241.643
-235.992
-229.998
-223.661
-216.984
-209.965
-202.604
-194.901
-186.858
-178.474
-169.753
-160.698
-151.313
-141.605
-131.583
-121.255
-110.634
-99.734
-88.571
-77.165
-65.536
-53.71
-41.714
-29.579
-17.338
-5.027
7.313
19.64
31.909
44.073
56.082
67.883
79.424
90.65
101.505
111.933
121.879
131.286
140.101
148.272
155.751
162.49
168.446
173.582
177.863
181.26
183.748
185.308
185.927
185.598
184.319
182.095
178.936
174.859
169.889
164.053
157.39
149.938
141.748
132.871
123.365
113.294
102.727
91.733
80.39
68.775
56.97
45.056
33.119
21.242
9.508
-2
-13.202
-24.02
-34.38
-44.212
-53.45
-62.036
-69.913
-77.033
-83.353
-88.837
-93.456
-97.186
-100.01
-101.918
-102.908
-102.983
-102.153
-100.434
-97.849
-94.424
-90.195
-85.201
-79.484
-73.093
-66.08
-58.501
-50.414
-41.879
-32.96
-23.72
-14.223
-4.533
5.286
15.173
25.069
34.917
44.663
54.258
63.654
72.809
81.684
90.245
98.461
106.305
113.755
120.792
127.4
133.569
139.29
144.558
149.372
153.732
157.642
161.107
164.134
166.732
168.912
170.684
172.062
173.058
173.685
173.955
173.881
173.474
172.745
171.7
170.346
168.689
166.729
164.466
161.899
159.023
155.834
152.324
148.485
144.309
139.787
134.908
129.664
124.045
118.045
111.657
104.878
97.703
90.135
82.176
73.831
65.115
56.037
46.603
36.827
26.726
16.324
5.656
-5.249
-16.375
-27.675
-39.069
-50.483
-61.832
-73.059
-84.163
-95.093
-105.727
-116.038
-126.089
-135.909
-145.539
-154.93
-163.85
-172.18
-180.029
-187.176
-192.935
-197.095
-199.811
-200.962
-201.159
-199.231
-191.211
-177.723
-162.455
-151.172
-155.04
-173.943
-196.539
-211.727
-203.715
-170.766
-128.031
-87.288
-61.022
-52.069
-49.238
-45.489
-36.273
-19.997
-1.305
17.504
36.534
55.518
75.045
95.242
115.404
135.25
154.816
174.023
192.781
211.063
228.847
246.148
263.036
279.509
295.479
310.894
325.725
339.941
353.531
366.479
378.773
390.423
401.461
411.924
421.861
431.319
440.345
448.986
457.271
465.249
472.995
480.591
488.145
495.743
503.429
511.243
519.217
527.336
535.572
543.848
552
559.902
567.449
574.561
581.273
587.58
593.41
598.695
603.324
607.312
610.871
614.189
617.373
620.572
623.845
627.461
632.103
637.992
644.917
652.662
660.651
668.786
677.807
687.858
698.379
709.463
721.409
734.569
750.087
767.492
784.33
799.022
810.561
817.373
818.096
810.995
793.448
765.254
728.769
685.542
636.764
583.895
527.966
470.827
415.252
362.082
310.258
259.283
209.006
159.51
111.503
65.047
19.404
-25.368
-68.438
-109.213
-147.258
-182.532
-215.604
-246.901
-276.454
-304.391
-330.918
-356.23
-380.651
-404.374
-427.347
-449.498
-470.779
-491.164
-510.701
-529.409
-547.184
-563.891
-579.373
-593.447
-606.023
-617.061
-626.528
-634.42
-640.749
-645.545
-648.896
-650.927
-651.744
-651.432
-650.062
-647.695
-644.429
-640.373
-635.637
-630.328
-624.541
-618.357
-611.863
-605.134
-598.234
-591.217
-584.127
-576.994
-569.855
-562.753
-555.728
-548.82
-542.062
-535.485
-529.114
-522.973
-517.078
-511.437
-506.051
-500.915
-496.019
-491.351
-486.894
-482.627
-478.527
-474.568
-470.721
-466.956
-463.239
-459.536
-455.81
-452.024
-448.138
-444.113
-439.909
-435.484
-430.801
-425.817
-420.494
-414.791
-408.67
-402.09
-395.015
-387.408
-379.234
-370.46
-361.058
-351.001
-340.264
-328.832
-316.691
-303.83
-290.245
-275.935
-260.905
-245.162
-228.72
-211.596
-193.814
-175.398
-156.382
-136.8
-116.694
-96.108
-75.091
-53.695
-31.976
-9.996
12.182
34.491
56.861
79.219
101.491
123.601
145.472
167.03
188.2
208.91
229.088
248.669
267.588
285.785
303.205
319.794
335.504
350.289
364.109
376.931
388.725
399.471
409.152
417.76
425.293
431.756
437.158
441.517
444.852
447.191
448.568
449.021
448.594
447.338
445.309
442.566
439.174
435.198
430.705
425.76
420.427
414.77
408.845
402.708
396.406
389.985
383.488
376.956
370.431
363.949
357.548
351.264
345.127
339.166
333.398
327.826
322.446
317.24
312.182
307.238
302.375
297.556
292.747
287.907
283.004
278.012
272.889
267.584
262.025
256.12
249.792
242.991
235.692
227.893
219.631
210.976
202.012
192.838
183.519
174.081
164.496
154.677
144.532
133.959
122.917
111.435
99.532
87.214
74.46
61.227
47.399
32.807
17.243
0.45
-17.725
-37.326
-58.247
-80.231
-102.937
-125.944
-148.913
-171.601
-193.781
-215.252
-235.806
-255.223
-273.214
-289.44
-303.483
-314.844
-323.147
-328.156
-329.837
-328.359
-324.042
-317.346
-308.664
-298.32
-286.591
-273.692
-259.829
-245.197
-230.024
-214.564
-199.167
-184.283
-170.291
-157.493
-146.036
-135.912
-126.995
-119.039
-111.835
-105.215
-99.061
-93.327
-87.995
-83.078
-78.598
-74.59
-71.021
-67.786
-64.793
-61.956
-59.256
-56.735
-54.488
-52.653
-51.357
-50.71
-50.789
-51.625
-53.22
-55.544
-58.537
-62.114
-66.209
-70.777
-75.774
-81.167
-86.904
-92.918
-99.131
-105.457
-111.804
-118.077
-124.185
-130.045
-135.584
-140.739
-145.456
-149.695
-153.412
-156.565
-159.111
-161.002
-162.195
-162.649
-162.324
-161.182
-159.192
-156.33
-152.579
-147.927
-142.37
-135.906
-128.54
-120.281
-111.143
-101.144
-90.309
-78.664
-66.24
-53.075
-39.21
-24.69
-9.564
6.114
22.286
38.895
55.878
73.171
90.71
108.428
126.259
144.132
161.978
179.726
197.303
214.634
231.644
248.259
264.403
280.005
294.992
309.294
322.846
335.58
347.435
358.351
368.271
377.139
384.906
391.526
396.955
401.158
404.101
405.76
406.112
405.144
402.847
399.216
394.254
387.968
380.374
371.488
361.336
349.949
337.363
323.62
308.766
292.855
275.944
258.096
239.378
219.861
199.62
178.733
157.282
135.352
113.03
90.406
67.569
44.613
21.63
-1.29
-24.054
-46.575
-68.767
-90.546
-111.834
-132.556
-152.642
-172.028
-190.655
-208.468
-225.421
-241.473
-256.589
-270.742
-283.911
-296.083
-307.25
-317.413
-326.578
-334.76
-341.976
-348.254
-353.625
-358.127
-361.802
-364.699
-366.871
-368.374
-369.271
-369.624
-369.502
-368.972
-368.104
-366.967
-365.631
-364.162
-362.626
-361.086
-359.6
-358.224
-357.008
-355.998
-355.233
-354.749
-354.574
-354.729
-355.232
-356.09
-357.306
-358.877
-360.792
-363.035
-365.584
-368.411
-371.483
-374.762
-378.204
-381.762
-385.384
-389.013
-392.59
-396.054
-399.342
-402.386
-405.123
-407.484
-409.406
-410.825
-411.677
-411.905
-411.451
-410.265
-408.297
-405.505
-401.85
-397.302
-391.833
-385.423
-378.059
-369.734
-360.447
-350.205
-339.02
-326.911
-313.902
-300.025
-285.316
-269.815
-253.572
-236.636
-219.065
-200.918
-182.261
-163.159
-143.684
-123.907
-103.903
-83.746
-63.513
-43.278
-23.118
-3.107
16.681
36.176
55.309
74.011
92.221
109.878
126.926
143.312
158.991
173.918
188.055
201.37
213.834
225.423
236.12
245.912
254.79
262.751
269.797
275.934
281.173
285.53
289.023
291.677
293.517
294.574
294.881
294.475
293.392
291.673
289.362
286.5
283.135
279.311
275.076
270.478
265.564
260.384
254.983
249.411
243.712
237.933
232.119
226.313
220.556
214.888
209.348
203.972
198.794
193.846
189.157
184.755
180.664
176.905
173.499
170.463
167.812
165.559
163.715
162.288
161.286
160.712
160.571
160.862
161.586
162.74
164.32
166.32
168.734
171.553
174.766
178.364
182.332
186.658
191.326
196.32
201.622
207.213
213.074
219.185
225.524
232.069
238.8
245.692
252.723
259.869
267.106
274.41
281.755
289.117
296.469
303.786
311.04
318.203
325.25
332.151
338.879
345.404
351.696
357.727
363.466
368.883
373.946
378.626
382.891
386.71
390.055
392.896
395.203
396.95
398.109
398.654
398.56
397.804
396.364
394.219
391.35
387.74
383.375
378.243
372.332
365.636
358.15
349.872
340.801
330.943
320.303
308.891
296.72
283.809
270.177
255.849
240.854
225.224
208.996
192.211
174.912
157.147
138.968
120.427
101.583
82.495
63.227
43.842
24.408
4.994
-14.332
-33.497
-52.432
-71.065
-89.325
-107.142
-124.447
-141.172
-157.252
-172.621
-187.218
-200.984
-213.861
-225.798
-236.745
-246.657
-255.495
-263.225
-269.818
-275.25
-279.506
-282.575
-284.454
-285.145
-284.659
-283.012
-280.228
-276.337
-271.378
-265.392
-258.431
-250.551
-241.814
-232.287
-222.042
-211.154
-199.704
-187.777
-175.458
-162.838
-150.009
-137.066
-124.103
-111.218
-98.509
-86.071
-74.002
-62.395
-51.342
-40.933
-31.251
-22.379
-14.39
-7.355
-1.336
3.61
7.435
10.098
11.567
11.819
10.84
8.626
5.181
0.519
-5.335
-12.349
-20.481
-29.679
-39.885
-51.031
-63.039
-75.825
-89.297
-103.356
-117.893
-132.797
-147.948
-163.222
-178.49
-193.619
-208.475
-222.921
-236.82
-250.034
-262.427
-273.865
-284.216
-293.354
-301.159
-307.514
-312.313
-315.455
-316.851
-316.421
-314.093
-309.81
-303.521
-295.192
-284.798
-272.325
-257.776
-241.162
-222.509
-201.856
-179.256
-154.773
-128.486
-100.483
-70.87
-39.758
-7.274
26.446
61.257
97.005
133.527
170.652
208.207
246.01
283.878
321.624
359.062
396.006
432.271
467.676
502.044
535.201
566.984
597.234
625.8
652.542
677.327
700.035
720.557
738.795
754.664
768.093
779.023
787.412
793.228
796.458
797.098
795.165
790.684
783.7
774.267
762.456
748.351
732.046
713.65
693.281
671.068
647.147
621.664
594.769
566.619
537.373
507.197
476.255
444.715
412.741
380.501
348.157
315.871
283.798
252.091
220.895
190.349
160.586
131.73
103.897
77.194
51.717
27.555
4.784
-16.53
-36.332
-54.577
-71.236
-86.288
-99.724
-111.548
-121.773
-130.423
-137.534
-143.146
-147.312
-150.09
-151.547
-151.754
-150.79
-148.738
-145.685
-141.721
-136.94
-131.437
-125.307
-118.649
-111.556
-104.125
-96.45
-88.623
-80.733
-72.868
-65.111
-57.541
-50.234
-43.26
-36.684
-30.563
-24.949
-19.886
-15.413
-11.559
-8.349
-5.801
-3.926
-2.728
-2.207
-2.357
-3.167
-4.618
-6.691
-9.359
-12.595
-16.366
-20.639
-25.377
-30.545
-36.103
-42.013
-48.238
-54.737
-61.471
-68.4
-75.485
-82.688
-89.97
-97.298
-104.635
-111.952
-119.22
-126.416
-133.516
-140.504
-147.364
-154.083
-160.652
-167.065
-173.317
-179.408
-185.338
-191.11
-196.73
-202.205
-207.543
-212.751
-217.834
-222.799
-227.647
-232.381
-236.998
-241.493
-245.86
-250.09
-254.175
-258.104
-261.866
-265.445
-268.824
-271.986
-274.91
-277.571
-279.941
-281.989
-283.679
-284.976
-285.843
-286.242
-286.134
-285.476
-284.226
-282.343
-279.786
-276.512
-272.481
-267.651
-261.986
-255.456
-248.037
-239.711
-230.469
-220.31
-209.243
-197.291
-184.483
-170.849
-156.426
-141.255
-125.386
-108.872
-91.769
-74.132
-56.023
-37.522
-18.723
0.267
19.337
38.37
57.242
75.819
93.956
111.512
128.356
144.376
159.447
173.433
186.182
197.519
207.305
215.44
221.837
226.422
229.136
229.953
228.911
226.121
221.69
215.677
208.074
198.821
187.889
175.263
160.948
144.95
127.195
107.594
86.102
62.725
37.464
10.263
-19.052
-50.779
-85.133
-122.159
-161.744
-203.657
-247.666
-293.49
-340.772
-389.047
-437.684
-486.083
-533.771
-580.361
-625.469
-668.619
-709.174
-746.367
-779.585
-808.422
-832.642
-852.139
-866.818
-876.704
-881.986
-883.069
-880.543
-874.91
-866.52
-855.628
-842.496
-827.477
-811.073
-793.858
-776.265
-758.613
-741.145
-724.057
-707.564
-691.773
-676.645
-661.969
-647.429
-632.824
-618.092
-603.247
-588.321
-573.307
-558.146
-542.789
-527.286
-511.708
-496.124
-480.599
-465.173
-449.943
-435.085
-420.849
-407.507
-395.263
-384.247
-374.548
-366.24
-359.384
-354.033
-350.197
-347.834
-346.909
-347.396
-349.275
-352.527
-357.106
-362.931
-369.905
-377.922
-386.882
-396.688
-407.243
-418.44
-430.176
-442.352
-454.877
-467.667
-480.625
-493.644
-506.615
-519.423
-531.957
-544.109
-555.766
-566.819
-577.161
-586.695
-595.329
-602.977
-609.559
-614.998
-619.225
-622.177
-623.798
-624.04
-622.859
-620.221
-616.099
-610.474
-603.338
-594.688
-584.53
-572.878
-559.755
-545.19
-529.221
-511.89
-493.247
-473.347
-452.255
-430.038
-406.772
-382.536
-357.412
-331.489
-304.856
-277.608
-249.839
-221.643
-193.114
-164.346
-135.433
-106.467
-77.538
-48.732
-20.134
8.175
36.118
63.624
90.624
117.059
142.872
168.015
192.445
216.128
239.033
261.14
282.434
302.907
322.556
341.387
359.411
376.645
393.111
408.837
423.854
438.198
451.909
465.029
477.605
489.682
501.311
512.542
523.427
534.017
544.364
554.519
564.532
574.452
584.324
594.192
604.097
614.075
624.158
634.374
644.747
655.295
666.031
676.962
688.091
699.415
710.926
722.611
734.452
746.428
758.512
770.674
782.881
795.098
807.285
819.401
831.402
843.245
854.882
866.266
877.348
888.078
898.408
908.286
917.664
926.492
934.723
942.309
949.207
955.373
960.767
965.354
969.097
971.968
973.939
974.987
975.092
974.238
972.413
969.607
965.816
961.038
955.272
948.521
940.793
932.094
922.435
911.827
900.284
887.822
874.458
860.212
845.103
829.154
812.39
794.837
776.522
757.475
737.726
717.308
696.253
674.595
652.369
629.611
606.355
582.639
558.497
533.968
509.087
483.891
458.417
432.704
406.789
380.71
354.508
328.223
301.896
275.57
249.289
223.099
197.045
171.176
145.541
120.189
95.172
70.539
46.342
22.632
-0.541
-23.125
-45.071
-66.33
-86.853
-106.593
-125.504
-143.538
-160.653
-176.804
-191.949
-206.049
-219.064
-230.958
-241.697
-251.247
-259.58
-266.67
-272.492
-277.028
-280.261
-282.18
-282.779
-282.054
-280.008
-276.65
-271.991
-266.049
-258.847
-250.414
-240.78
-229.984
-218.068
-205.078
-191.065
-176.084
-160.196
-143.465
-125.959
-107.751
-88.918
-69.539
-49.701
-29.49
-8.998
11.68
32.448
53.205
73.85
94.279
114.387
134.069
153.219
171.731
189.502
206.428
222.408
237.343
251.138
263.7
274.941
284.777
293.126
299.915
305.073
308.535
310.242
310.143
308.191
304.348
298.582
290.869
281.194
269.548
255.933
240.358
222.841
203.409
182.097
158.952
134.025
107.38
79.087
49.224
17.877
-14.859
-48.886
-84.096
-120.377
-157.613
-195.681
-234.456
-273.808
-313.606
-353.713
-393.993
-434.309
-474.522
-514.494
-554.086
-593.163
-631.589
-669.232
-705.965
-741.661
-776.201
-809.471
-841.36
-871.767
-900.595
-927.758
-953.174
-976.773
-998.49
-1018.271
-1036.07
-1051.85
-1065.581
-1077.245
-1086.829
-1094.33
-1099.755
-1103.117
-1104.437
-1103.746
-1101.078
-1096.479
-1089.996
-1081.688
-1071.616
-1059.849
-1046.46
-1031.525
-1015.131
-997.364
-978.318
-958.089
-936.771
-914.461
-891.257
-867.261
-842.572
-817.291
-791.516
-765.342
-738.871
-712.2
-685.426
-658.647
-631.948
-605.412
-579.12
-553.147
-527.579
-502.5
-477.984
-454.105
-430.931
-408.523
-386.95
-366.276
-346.545
-327.801
-310.074
-293.39
-277.793
-263.317
-250.004
-237.898
-226.982
-217.245
-208.664
-201.196
-194.879
-189.753
-185.795
-183.002
-181.355
-180.761
-181.348
-183.263
-186.221
-190.027
-194.447
-199.121
-204.378
-210.681
-217.811
-225.619
-234.639
-245.11
-257.703
-273.293
-290.901
-309.407
-328.747
-348.583
-368.176
-387.217
-404.469
-418.508
-430.419
-441.33
-451.386
-461.139
-470.874
-480.504
-491.01
-503.435
-516.844
-530.366
-543.643
-555.983
-567.33
-577.813
-586.828
-593.817
-599.072
-602.807
-605.157
-606.408
-606.395
-604.92
-602.077
-597.913
-592.372
-585.447
-577.083
-567.209
-555.898
-543.224
-529.226
-513.971
-497.482
-479.786
-460.94
-440.998
-420.023
-398.085
-375.25
-351.59
-327.18
-302.093
-276.412
-250.22
-223.596
-196.621
-169.377
-141.942
-114.407
-86.862
-59.392
-32.081
-5.007
21.758
48.142
74.078
99.506
124.37
148.621
172.216
195.118
217.294
238.72
259.374
279.248
298.334
316.635
334.156
350.91
366.913
382.188
396.762
410.666
423.934
436.604
448.717
460.318
471.452
482.167
492.512
502.539
512.298
521.84
531.213
540.466
549.643
558.789
567.941
577.136
586.405
595.775
605.268
614.901
624.686
634.631
644.737
654.999
665.41
675.955
686.615
697.368
708.185
719.036
729.887
740.701
751.437
762.055
772.511
782.76
792.757
802.455
811.808
820.77
829.294
837.339
844.86
851.82
858.181
863.91
868.977
873.355
877.023
879.963
882.161
883.609
884.302
884.239
883.426
881.872
879.589
876.594
872.909
868.556
863.564
857.96
851.778
845.049
837.808
830.092
821.936
813.379
804.458
795.21
785.672
775.881
765.872
755.676
745.328
734.854
724.283
713.638
702.941
692.21
681.464
670.714
659.971
649.245
638.541
627.863
617.213
606.59
595.992
585.417
574.861
564.319
553.787
543.26
532.733
522.202
511.663
501.113
490.549
479.97
469.373
458.758
448.126
437.478
426.818
416.151
405.483
394.82
384.174
373.553
362.97
352.439
341.971
331.583
321.288
311.101
301.038
291.113
281.339
271.731
262.3
253.056
244.007
235.16
226.517
218.08
209.848
201.817
193.981
186.334
178.864
171.561
164.413
157.405
150.521
143.745
137.06
130.447
123.885
117.355
110.837
104.311
97.755
91.152
84.481
77.727
70.872
63.903
56.806
49.572
42.193
34.664
26.983
19.152
11.175
3.062
-5.175
-13.519
-21.95
-30.446
-38.98
-47.525
-56.049
-64.52
-72.904
-81.165
-89.266
-97.171
-104.84
-112.237
-119.322
-126.057
-132.406
-138.332
-143.801
-148.778
-153.234
-157.137
-160.462
-163.184
-165.282
-166.736
-167.531
-167.655
-167.101
-165.863
-163.94
-161.337
-158.061
-154.122
-149.535
-144.319
-138.493
-132.082
-125.112
-117.61
-109.607
-101.134
-92.225
-82.913
-73.233
-63.223
-52.918
-42.356
-31.573
-20.607
-9.494
1.73
13.027
24.364
35.705
47.016
58.265
69.42
80.45
91.325
102.018
112.501
122.749
132.739
142.447
151.852
160.933
169.672
178.05
186.05
193.654
200.846
207.611
213.931
219.794
225.183
230.086
234.488
238.376
241.738
244.561
246.835
248.548
249.69
250.254
250.23
249.612
248.393
246.57
244.138
241.097
237.445
233.184
228.317
222.849
216.786
210.138
202.915
195.131
186.801
177.943
168.575
158.722
148.406
137.654
126.495
114.959
103.078
90.885
78.417
65.708
52.797
39.72
26.518
13.227
-0.111
-13.458
-26.774
-40.02
-53.158
-66.149
-78.955
-91.541
-103.873
-115.915
-127.638
-139.013
-150.011
-160.609
-170.784
-180.518
-189.793
-198.597
-206.917
-214.747
-222.081
-228.917
-235.255
-241.099
-246.453
-251.326
-255.726
-259.665
-263.155
-266.21
-268.846
-271.08
-272.93
-274.416
-275.558
-276.38
-276.904
-277.156
-277.16
-276.942
-276.53
-275.949
-275.228
-274.392
-273.469
-272.484
-271.462
-270.429
-269.407
-268.419
-267.486
-266.627
-265.86
-265.201
-264.664
-264.265
-264.015
-263.925
-264.006
-264.269
-264.722
-265.375
-266.236
-267.31
-268.606
-270.126
-271.873
-273.85
-276.057
-278.493
-281.154
-284.034
-287.129
-290.43
-293.933
-297.623
-301.482
-305.491
-309.631
-313.883
-318.234
-322.666
-327.15
-331.679
-336.279
-340.96
-345.729
-350.576
-355.451
-360.316
-365.177
-369.948
-374.446
-378.552
-382.202
-385.379
-388.174
-390.685
-392.87
-394.985
-397.774
-401.423
-405.544
-410.132
-414.689
-420.097
-429.584
-442.421
-455.143
-461.878
-452.213
-424.926
-387.189
-351.25
-337.089
-353.134
-396.67
-455.304
-503.911
-526.547
-516.205
-478.727
-435.732
-402.596
-387.696
-387.843
-389.082
-385.635
-381.577
-388.22
-415.755
-460.11
-502.809
-522.837
-509.859
-470.824
-427.17
-399.089
-395.007
-410.686
-432.733
-450.691
-461.178
-465.549
-468.208
-471.395
-474.874
-478.261
-481.09
-483.497
-486.032
-488.826
-491.79
-494.92
-498.19
-501.535
-504.848
-507.979
-510.808
-513.297
-515.46
-517.278
-518.714
-519.731
-520.298
-520.395
-520.001
-519.086
-517.617
-515.566
-512.902
-509.599
-505.637
-500.995
-495.657
-489.616
-482.851
-475.343
-467.104
-458.146
-448.477
-438.119
-427.056
-415.261
-402.769
-389.62
-375.759
-361.155
-345.787
-329.615
-312.717
-295.222
-277.105
-258.298
-239.104
-219.878
-200.472
-180.948
-161.411
-141.228
-122.28
-106.399
-91.089
-75.63
-55.395
-24.835
9.801
44.33
72.553
85.971
92.013
96.972
105.141
123.649
147.325
170.93
193.275
211.165
226.399
241.307
255.435
269.082
282.086
293.977
305.043
315.494
325.275
334.403
342.841
350.537
357.444
363.501
368.737
373.228
376.96
379.868
382.263
384.521
386.466
388.145
389.662
390.319
392.138
397.091
402.441
407.379
406.848
394.79
377.979
360.94
350.394
355.561
368.332
381.835
391.367
389.136
380.737
371.838
363.706
359.796
358.113
356.089
354.218
352.173
350.13
348.61
347.271
345.837
344.395
342.958
341.489
339.989
338.471
336.94
335.44
334.026
332.671
331.351
330.072
328.83
327.625
326.461
325.33
324.23
323.167
322.15
321.185
320.283
319.453
318.707
318.054
317.501
317.056
316.723
316.503
316.395
316.392
316.489
316.679
316.951
317.289
317.68
318.119
318.61
319.156
319.745
320.372
321.054
321.821
322.695
323.663
324.655
325.606
326.511
327.318
327.882
328.011
327.531
326.374
324.63
322.353
319.405
315.91
312.459
309.516
307.231
305.495
303.676
303.246
307.854
318.617
333.37
343.298
335.518
305.658
260.439
217.826
199.224
213.368
252.418
296.088
324.941
330.643
318.665
305.449
300.088
301.518
302.353
285.503
245.957
196.675
153.572
139.762
167.181
219.354
273.428
305.73
298.825
263.561
222.003
190.824
184.245
200.156
225.739
254.516
281.635
306.145
332.276
360.814
390.873
422.315
454.076
485.711
517.624
549.674
581.46
612.695
642.9
671.594
698.422
723.03
745.217
764.957
782.403
797.868
811.612
823.788
834.503
843.775
851.589
857.991
862.994
866.604
868.926
870.044
870.03
868.991
866.95
863.866
859.665
854.183
847.266
838.834
828.828
817.231
804.082
789.419
773.317
755.903
737.274
717.522
696.747
675.018
652.419
629.055
605.018
580.402
555.327
529.899
504.239
478.502
452.792
427.188
401.768
376.558
351.552
326.734
302.015
277.284
252.5
227.636
202.721
177.874
153.186
128.758
104.72
81.105
57.974
35.439
13.532
-7.689
-28.085
-47.518
-65.703
-82.235
-96.88
-109.477
-119.916
-128.317
-134.814
-139.57
-142.943
-145.228
-146.716
-147.812
-148.808
-149.937
-151.533
-153.89
-157.433
-162.817
-170.494
-180.795
-194.067
-210.366
-229.69
-252.049
-277.102
-304.432
-333.633
-364.102
-395.287
-426.808
-458.226
-489.157
-519.22
-547.782
-574.342
-598.543
-619.946
-638.306
-653.423
-665.007
-673.094
-677.937
-679.805
-679.19
-676.65
-672.516
-667.123
-660.775
-653.66
-646.109
-638.42
-630.746
-623.314
-616.327
-609.986
-604.615
-600.385
-597.242
-595.093
-593.687
-592.668
-591.842
-591.044
-590.094
-588.943
-587.518
-585.749
-583.679
-581.335
-578.689
-575.691
-572.212
-568.14
-563.48
-558.278
-552.636
-546.72
-540.639
-534.481
-528.365
-522.346
-516.457
-510.722
-505.108
-499.564
-494.079
-488.655
-483.317
-478.104
-473.031
-468.092
-463.28
-458.574
-453.95
-449.385
-444.841
-440.284
-435.692
-431.048
-426.348
-421.598
-416.792
-411.921
-406.977
-401.943
-396.802
-391.536
-386.12
-380.528
-374.737
-368.728
-362.481
-355.984
-349.223
-342.183
-334.852
-327.218
-319.268
-310.991
-302.374
-293.404
-284.072
-274.369
-264.289
-253.829
-242.986
-231.76
-220.156
-208.176
-195.827
-183.117
-170.052
-156.643
-142.899
-128.833
-114.457
-99.786
-84.835
-69.622
-54.165
-38.484
-22.599
-6.527
9.712
26.102
42.626
59.268
76.013
92.847
109.756
126.728
143.75
160.809
177.896
195.001
212.115
229.23
246.342
263.443
280.529
297.597
314.643
331.662
348.652
365.608
382.527
399.403
416.232
433.008
449.724
466.373
482.945
499.43
515.816
532.088
548.232
564.228
580.058
595.699
611.128
626.319
641.246
655.878
670.186
684.138
697.7
710.838
723.518
735.702
747.354
758.437
768.915
778.75
787.907
796.351
804.05
810.971
817.084
822.362
826.78
830.314
832.944
834.654
835.427
835.253
834.123
832.033
828.979
824.963
819.991
814.068
807.206
799.417
790.718
781.128
770.668
759.36
747.231
734.308
720.621
706.201
691.08
675.292
658.87
641.85
624.266
606.153
587.546
568.478
548.98
529.087
508.827
488.231
467.327
446.144
424.707
403.043
381.175
359.129
336.928
314.592
292.142
269.597
246.977
224.301
201.589
178.86
156.133
133.427
110.763
88.162
65.643
43.224
20.922
-1.249
-23.271
-45.121
-66.774
-88.204
-109.39
-130.307
-150.933
-171.239
-191.202
-210.802
-230.027
-248.87
-267.316
-285.348
-302.937
-320.059
-336.7
-352.863
-368.564
-383.813
-398.622
-413.001
-426.971
-440.558
-453.789
-466.676
-479.217
-491.404
-503.245
-514.768
-526.036
-537.123
-548.071
-558.88
-569.497
-579.854
-589.95
-599.858
-609.684
-619.504
-629.341
-639.163
-649.071
-659.357
-670.119
-681.126
-691.772
-701.378
-709.801
-717.635
-725.618
-733.987
-743.066
-753.668
-767.425
-786.342
-811.186
-840.849
-873.284
-907.133
-941.407
-974.851
-1005.319
-1029.927
-1047.213
-1058.193
-1065.449
-1070.985
-1075.965
-1081.302
-1088.332
-1099.192
-1115.141
-1135.489
-1158.14
-1181.252
-1203.791
-1225.235
-1245.14
-1262.523
-1276.565
-1287.302
-1295.447
-1301.7
-1306.369
-1309.398
-1310.527
-1309.713
-1307.038
-1302.466
-1295.851
-1287.016
-1275.859
-1262.399
-1246.758
-1229.039
-1209.288
-1187.529
-1163.768
-1138.032
-1110.384
-1080.889
-1049.625
-1016.668
-982.099
-946.003
-908.472
-869.606
-829.507
-788.276
-746.013
-702.817
-658.797
-614.075
-568.781
-523.047
-476.996
-430.748
-384.418
-338.123
-291.975
-246.086
-200.559
-155.494
-110.985
-67.125
-24.001
18.305
59.718
100.17
139.6
177.955
215.184
251.243
286.094
319.705
352.047
383.1
412.843
441.262
468.348
494.093
518.494
541.553
563.271
583.655
602.712
620.455
636.894
652.044
665.921
678.541
689.923
700.085
709.047
716.828
723.45
728.934
733.302
736.575
738.776
739.927
740.051
739.171
737.308
734.488
730.733
726.068
720.52
714.116
706.885
698.858
690.069
680.553
670.348
659.493
648.031
636.004
623.46
610.445
597.009
583.203
569.08
554.691
540.092
525.336
510.478
495.571
480.668
465.82
451.08
436.497
422.117
407.988
394.153
380.656
367.535
354.828
342.57
330.79
319.517
308.771
298.572
288.931
279.858
271.355
263.418
256.039
249.205
242.897
237.091
231.756
226.859
222.36
218.216
214.382
210.806
207.438
204.222
201.104
198.027
194.935
191.771
188.48
185.007
181.296
177.295
172.951
168.214
163.037
157.374
151.182
144.422
137.059
129.062
120.404
111.064
101.023
90.272
78.804
66.619
53.723
40.128
25.851
10.916
-4.648
-20.807
-37.522
-54.751
-72.446
-90.557
-109.034
-127.821
-146.863
-166.104
-185.487
-204.953
-224.444
-243.903
-263.271
-282.49
-301.503
-320.255
-338.691
-356.756
-374.399
-391.57
-408.221
-424.307
-439.785
-454.616
-468.763
-482.193
-494.879
-506.794
-517.919
-528.238
-537.737
-546.408
-554.248
-561.255
-567.431
-572.779
-577.306
-581.02
-583.931
-586.048
-587.383
-587.948
-587.755
-586.817
-585.147
-582.759
-579.667
-575.885
-571.427
-566.31
-560.549
-554.161
-547.162
-539.572
-531.408
-522.691
-513.44
-503.676
-493.419
-482.691
-471.513
-459.907
-447.893
-435.494
-422.733
-409.632
-396.216
-382.512
-368.546
-354.349
-339.951
-325.388
-310.697
-295.918
-281.093
-266.27
-251.496
-236.825
-222.31
-208.009
-193.98
-180.285
-166.986
-154.145
-141.826
-130.092
-119.005
-108.628
-99.021
-90.244
-82.354
-75.408
-69.459
-64.558
-60.753
-58.09
-56.61
-56.352
-57.35
-59.631
-63.222
-68.14
-74.399
-82.006
-90.962
-101.258
-112.883
-125.815
-140.026
-155.479
-172.133
-189.935
-208.83
-228.754
-249.636
-271.403
-293.973
-317.262
-341.181
-365.639
-390.542
-415.791
-441.289
-466.935
-492.63
-518.272
-543.762
-569
-593.886
-618.325
-642.221
-665.483
-688.019
-709.745
-730.579
-750.442
-769.262
-786.971
-803.508
-818.817
-832.85
-845.563
-856.922
-866.897
-875.466
-882.613
-888.33
-892.613
-895.466
-896.896
-896.918
-895.55
-892.815
-888.74
-883.355
-876.694
-868.792
-859.689
-849.426
-838.044
-825.587
-812.103
-797.637
-782.237
-765.952
-748.831
-730.924
-712.279
-692.948
-672.977
-652.416
-631.312
-609.711
-587.659
-565.201
-542.381
-519.241
-495.824
-472.171
-448.323
-424.32
-400.203
-376.011
-351.784
-327.564
-303.39
-279.306
-255.355
-231.579
-208.026
-184.742
-161.775
-139.172
-116.985
-95.264
-74.059
-53.422
-33.405
-14.059
4.565
22.415
39.442
55.595
70.827
85.092
98.346
110.549
121.661
131.651
140.486
148.143
154.599
159.839
163.854
166.638
168.194
168.531
167.663
165.613
162.412
158.096
152.71
146.307
138.944
130.689
121.613
111.795
101.319
90.276
78.761
66.873
54.717
42.401
30.035
17.732
5.607
-6.224
-17.647
-28.548
-38.814
-48.337
-57.011
-64.735
-71.412
-76.953
-81.272
-84.293
-85.946
-86.171
-84.913
-82.129
-77.786
-71.857
-64.329
-55.196
-44.461
-32.137
-18.247
-2.82
14.103
32.477
52.245
73.347
95.712
119.267
143.929
169.614
196.233
223.692
251.897
280.753
310.163
340.032
370.266
400.772
431.462
462.249
493.052
523.795
554.406
584.82
614.978
644.827
674.324
703.429
732.111
760.346
788.115
815.407
842.215
868.54
894.386
919.763
944.686
969.171
993.241
1016.921
1040.238
1063.219
1085.894
1108.293
1130.442
1152.37
1174.102
1195.658
1217.059
1238.318
1259.448
1280.452
1301.333
1322.083
1342.693
1363.144
1383.411
1403.465
1423.268
1442.777
1461.945
1480.717
1499.035
1516.838
1534.058
1550.629
1566.478
1581.533
1595.719
1608.963
1621.191
1632.33
1642.309
1651.062
1658.523
1664.635
1669.342
1672.598
1674.357
1674.586
1673.255
1670.341
1665.833
1659.725
1652.021
1642.736
1631.892
1619.522
1605.67
1590.388
1573.736
1555.783
1536.606
1516.291
1494.928
1472.617
1449.46
1425.567
1401.051
1376.03
1350.625
1324.958
1299.15
1273.323
1247.597
1222.089
1196.914
1172.18
1147.992
1124.452
1101.656
1079.696
1058.659
1038.622
1019.66
1001.837
985.209
969.823
955.716
942.914
931.435
921.289
912.474
904.983
898.801
893.904
890.259
887.826
886.559
886.401
887.293
889.166
891.948
895.567
899.949
905.019
910.699
916.915
923.597
930.677
938.09
945.766
953.633
961.623
969.672
977.716
985.684
993.5
1001.085
1008.372
1015.31
1021.855
1027.975
1033.64
1038.828
1043.533
1047.765
1051.536
1054.856
1057.721
1060.101
1061.988
1063.406
1064.4
1065.054
1065.425
1065.529
1065.379
1064.973
1064.271
1063.21
1061.644
1059.376
1056.259
1052.183
1047.129
1041.195
1034.446
1026.93
1018.636
1009.362
998.951
987.365
974.49
960.374
945.193
928.974
912.115
895.465
879.541
864.688
851.123
838.026
824.072
808.881
791.984
772.185
751.356
731.17
710.364
692.051
672.97
644.94
611.989
575.469
546.676
550.579
587.521
649.363
713.671
733.238
687.003
570.016
389.786
186.207
-11.168
-180.472
-298.446
-366.115
-387.838
-371.946
-339.324
-305.963
-287.526
-294.813
-329.816
-387.115
-453.582
-518.26
-571.817
-612.771
-648.668
-684.464
-723.649
-766.1
-807.137
-843.984
-878.196
-912.48
-946.317
-979.435
-1007.169
-1021.832
-1027.483
-1030.536
-1037.929
-1062.573
-1102.398
-1144.974
-1182.007
-1200.441
-1197.234
-1185.12
-1171.621
-1164.268
-1168.385
-1176.606
-1184.335
-1190.24
-1191.46
-1190.411
-1189.212
-1187.254
-1185.003
-1182.391
-1178.978
-1175.122
-1171.118
-1166.932
-1162.646
-1158.407
-1154.258
-1150.217
-1146.332
-1142.601
-1139.014
-1135.635
-1132.512
-1129.651
-1127.07
-1124.779
-1122.778
-1121.075
-1119.673
-1118.554
-1117.699
-1117.087
-1116.689
-1116.479
-1116.426
-1116.494
-1116.647
-1116.847
-1117.054
-1117.229
-1117.332
-1117.323
-1117.164
-1116.817
-1116.246
-1115.417
-1114.297
-1112.855
-1111.06
-1108.885
-1106.302
-1103.29
-1099.826
-1095.892
-1091.475
-1086.566
-1081.16
-1075.257
-1068.86
-1061.979
-1054.626
-1046.817
-1038.574
-1029.922
-1020.887
-1011.501
-1001.799
-991.817
-981.594
-971.172
-960.595
-949.905
-939.147
-928.366
-917.608
-906.916
-896.336
-885.91
-875.68
-865.688
-855.973
-846.572
-837.521
-828.854
-820.601
-812.791
-805.448
-798.595
-792.248
-786.423
-781.129
-776.37
-772.15
-768.462
-765.301
-762.652
-760.499
-758.82
-757.59
-756.78
-756.356
-756.282
-756.518
-757.019
-757.742
-758.635
-759.649
-760.729
-761.821
-762.868
-763.811
-764.592
-765.149
-765.422
-765.35
-764.87
-763.921
-762.441
-760.369
-757.645
-754.212
-750.013
-744.995
-739.106
-732.3
-724.533
-715.765
-705.959
-695.086
-683.118
-670.033
-655.815
-640.451
-623.936
-606.268
-587.454
-567.504
-546.435
-524.271
-501.041
-476.78
-451.53
-425.34
-398.262
-370.358
-341.693
-312.34
-282.379
-251.892
-220.972
-189.714
-158.217
-126.587
-94.932
-63.364
-31.998
-0.95
29.663
59.722
89.107
117.7
145.383
172.039
197.554
221.817
244.72
266.157
286.032
304.25
320.724
335.374
348.125
358.912
367.677
374.371
378.954
381.394
381.673
379.778
375.711
369.483
361.116
350.642
338.106
323.561
307.072
288.713
268.566
246.725
223.29
198.369
172.078
144.541
115.885
86.246
55.763
24.577
-7.163
-39.312
-71.718
-104.233
-136.707
-168.992
-200.941
-232.411
-263.261
-293.357
-322.567
-350.766
-377.835
-403.664
-428.15
-451.197
-472.721
-492.645
-510.903
-527.437
-542.201
-555.159
-566.282
-575.554
-582.968
-588.526
-592.239
-594.13
-594.229
-592.575
-589.216
-584.205
-577.607
-569.488
-559.925
-548.997
-536.789
-523.389
-508.889
-493.386
-476.975
-459.756
-441.828
-423.291
-404.244
-384.783
-365.005
-345
-324.859
-304.665
-284.501
-264.441
-244.558
-224.916
-205.576
-186.593
-168.014
-149.883
-132.235
-115.1
-98.5
-82.453
-66.969
-52.053
-37.703
-23.912
-10.67
2.042
14.243
25.96
37.222
48.06
58.511
68.612
78.403
87.924
97.217
106.323
115.284
124.14
132.928
141.685
150.444
159.237
168.092
177.033
186.082
195.255
204.565
214.022
223.629
233.385
243.287
253.323
263.48
273.739
284.078
294.469
304.883
315.285
325.639
335.905
346.039
355.998
365.735
375.203
384.353
393.136
401.505
409.412
416.812
423.662
429.92
435.548
440.512
444.781
448.328
451.13
453.169
454.431
454.908
454.597
453.499
451.62
448.971
445.57
441.438
436.6
431.086
424.93
418.17
410.846
403.004
394.69
385.954
376.848
367.424
357.737
347.843
337.796
327.651
317.462
307.281
297.159
287.142
277.276
267.603
258.159
248.98
240.095
231.529
223.304
215.435
207.935
200.812
194.067
187.699
181.702
176.068
170.783
165.83
161.19
156.841
152.759
148.917
145.285
141.835
138.534
135.351
132.253
129.207
126.182
123.145
120.066
116.917
113.67
110.302
106.79
103.115
99.264
95.222
90.983
86.541
81.896
77.052
72.016
66.798
61.413
55.879
50.217
44.45
38.604
32.707
26.79
20.883
15.02
9.235
3.563
-1.962
-7.303
-12.424
-17.291
-21.868
-26.121
-30.015
-33.52
-36.604
-39.238
-41.395
-43.051
-44.185
-44.777
-44.811
-44.276
-43.164
-41.468
-39.188
-36.326
-32.888
-28.882
-24.321
-19.221
-13.599
-7.476
-0.875
6.178
13.656
21.53
29.769
38.341
47.211
56.345
65.707
75.258
84.962
94.778
104.667
114.588
124.499
134.361
144.132
153.772
163.24
172.5
181.513
190.245
198.663
206.735
214.434
221.734
228.609
235.04
241.009
246.499
251.497
255.992
259.977
263.446
266.402
268.843
270.761
272.156
273.031
273.393
273.262
272.65
271.548
269.985
268.02
265.705
263.102
260.239
257.084
253.657
250.052
246.258
242.168
237.706
232.784
227.418
221.813
216.052
209.973
203.788
198.202
193.392
189.169
185.638
182.093
179.855
183.188
191.273
200.171
203.529
189.256
157.837
121.464
92.198
87.178
107.816
137.804
164.508
174.385
164.777
147.813
131.013
119.397
114.58
111.58
108.051
104.141
99.635
95.24
91.126
86.593
81.403
75.645
69.277
62.246
54.558
46.226
37.296
27.871
17.981
7.566
-3.396
-14.899
-26.945
-39.524
-52.634
-66.282
-80.461
-95.149
-110.328
-125.977
-142.073
-158.595
-175.516
-192.809
-210.445
-228.396
-246.632
-265.122
-283.838
-302.75
-321.828
-341.044
-360.37
-379.778
-399.242
-418.738
-438.239
-457.724
-477.168
-496.549
-515.845
-535.032
-554.087
-572.986
-591.705
-610.217
-628.496
-646.517
-664.252
-681.674
-698.757
-715.473
-731.795
-747.695
-763.145
-778.115
-792.575
-806.496
-819.846
-832.592
-844.696
-856.126
-866.856
-876.86
-886.113
-894.585
-902.236
-909.04
-914.982
-920.027
-924.111
-927.157
-929.089
-929.88
-929.561
-928.14
-925.595
-921.983
-917.461
-912.243
-906.516
-900.323
-893.54
-886.094
-878.052
-869.158
-858.704
-846.248
-831.791
-815.61
-798.622
-779.479
-754.582
-723.616
-689.351
-660.74
-651.54
-665.85
-697.161
-729.446
-739.265
-715.203
-660.209
-585.655
-512.741
-455.774
-420.833
-414.071
-431.418
-469.099
-520.975
-565.985
-588.185
-574.167
-517.72
-440.31
-368.281
-323.733
-323.623
-356.879
-399.833
-435.401
-449.021
-442.514
-429.689
-417.807
-411.925
-412.862
-415.589
-418.489
-421.936
-425.679
-430.449
-436.386
-442.736
-449.214
-455.811
-462.343
-468.692
-474.879
-480.899
-486.768
-492.558
-498.25
-503.746
-509.003
-513.99
-518.668
-523.022
-527.031
-530.674
-533.951
-536.882
-539.495
-541.82
-543.869
-545.655
-547.188
-548.477
-549.568
-550.496
-551.273
-551.914
-552.415
-552.737
-552.837
-552.643
-552.026
-550.859
-549.01
-546.342
-542.78
-538.266
-532.788
-526.356
-518.913
-510.455
-500.98
-490.423
-478.834
-466.363
-453.212
-439.749
-426.363
-413.24
-400.742
-389.48
-379.75
-371.59
-364.45
-357.102
-348.912
-340.038
-330.392
-319.317
-306.424
-291.824
-276.842
-264.379
-253.628
-239.666
-219.118
-191.519
-165.336
-154.328
-162.787
-182.119
-186.452
-145.537
-45.025
112.039
295.846
468.07
604.937
692.801
744.239
785.387
831.59
895.353
974.618
1055.491
1131.812
1199.578
1257.786
1310.841
1359.502
1402.186
1438.681
1468.269
1490.835
1507.604
1519.432
1526.902
1531.049
1532.705
1532.225
1529.973
1526.186
1521.037
1515.019
1508.552
1501.829
1494.994
1488.031
1480.938
1473.801
1466.529
1458.895
1450.607
1441.27
1430.679
1418.841
1405.731
1391.348
1375.668
1358.58
1340.091
1320.325
1299.382
1277.387
1254.461
1230.686
1206.248
1181.42
1156.479
1131.736
1107.425
1083.685
1060.662
1038.489
1017.278
997.143
978.149
960.304
943.642
928.207
914.038
901.179
889.635
879.376
870.37
862.581
855.973
850.52
846.187
842.934
840.727
839.538
839.341
840.113
841.82
844.415
847.846
852.058
856.996
862.604
868.822
875.588
882.842
890.529
898.596
906.99
915.663
924.563
933.643
942.855
952.156
961.502
970.851
980.166
989.411
998.555
1007.566
1016.417
1025.082
1033.538
1041.763
1049.738
1057.444
1064.865
1071.987
1078.797
1085.288
1091.453
1097.29
1102.797
1107.976
1112.83
1117.365
1121.588
1125.509
1129.133
1132.472
1135.535
1138.332
1140.875
1143.176
1145.247
1147.102
1148.755
1150.22
1151.511
1152.645
1153.636
1154.5
1155.252
1155.909
1156.486
1156.999
1157.463
1157.893
1158.302
1158.704
1159.11
1159.529
1159.968
1160.433
1160.927
1161.45
1162.002
1162.579
1163.175
1163.78
1164.385
1164.977
1165.539
1166.055
1166.503
1166.862
1167.106
1167.211
1167.147
1166.886
1166.396
1165.646
1164.601
1163.227
1161.485
1159.339
1156.749
1153.675
1150.078
1145.916
1141.151
1135.745
1129.66
1122.862
1115.317
1106.995
1097.867
1087.909
1077.098
1065.416
1052.849
1039.386
1025.023
1009.76
993.602
976.56
958.65
939.891
920.309
899.933
878.793
856.924
834.366
811.159
787.348
762.981
738.113
712.799
687.101
661.083
634.811
608.353
581.781
555.164
528.573
502.079
475.755
449.672
423.899
398.506
373.563
349.134
325.282
302.064
279.532
257.729
236.697
216.466
197.06
178.496
160.783
143.93
127.942
112.822
98.57
85.187
72.672
61.02
50.224
40.267
31.119
22.743
15.088
8.098
1.71
-4.139
-9.511
-14.467
-19.066
-23.363
-27.399
-31.231
-34.923
-38.555
-42.229
-46.027
-50.006
-54.195
-58.6
-63.18
-67.866
-72.573
-77.201
-81.686
-86.004
-90.185
-94.324
-98.525
-102.906
-107.525
-112.37
-117.44
-122.744
-128.32
-134.236
-140.634
-147.714
-155.713
-164.917
-175.513
-187.581
-201.051
-215.701
-231.214
-247.177
-263.269
-279.266
-294.973
-310.234
-324.866
-338.657
-351.352
-362.67
-372.242
-379.625
-384.461
-386.467
-385.619
-382.168
-376.413
-368.72
-359.412
-348.717
-336.913
-324.379
-311.36
-297.867
-284.31
-271.592
-260.194
-250.355
-242.519
-236.26
-232.999
-236.737
-246.424
-258.071
-265.301
-256.415
-232.024
-203.611
-182.676
-185.571
-213.287
-250.415
-285.002
-304.091
-305.469
-300.719
-296.98
-299.138
-308.715
-321.084
-334.188
-348.386
-363.554
-380.179
-398.413
-417.651
-437.87
-459.882
-484.182
-510.489
-538.599
-568.111
-597.785
-626.749
-653.628
-675.484
-690.044
-696.419
-694.135
-684.424
-670.536
-654.719
-639.677
-630.785
-632.771
-648.703
-681.31
-727.97
-780.541
-836.915
-896.604
-959.429
-1032.285
-1108.735
-1173.386
-1216.659
-1224.313
-1197.881
-1150.534
-1084.358
-1006.986
-920.837
-831.832
-768.758
-754.961
-805.094
-910.573
-1028.051
-1113.782
-1137.381
-1095.828
-1018.945
-942.628
-892.337
-875.62
-881.052
-891.246
-895.137
-889.421
-876.625
-861.674
-846.474
-830.615
-813.624
-795.082
-775.453
-755.714
-736.452
-717.951
-700.464
-684.132
-668.987
-655.06
-642.358
-630.909
-620.829
-612.266
-605.332
-600.121
-596.722
-595.22
-595.696
-598.228
-602.876
-609.686
-618.712
-630.04
-643.77
-659.976
-678.7
-699.932
-723.615
-749.714
-778.165
-808.773
-841.296
-875.556
-911.4
-948.769
-987.742
-1028.279
-1070.45
-1114.816
-1161.751
-1211.041
-1262.363
-1315.126
-1370.066
-1429.794
-1495.677
-1565.601
-1630.398
-1677.763
-1699.937
-1698.373
-1693.078
-1709.55
-1764.612
-1863.995
-1984.645
-2093.259
-2168.029
-2194.629
-2186.608
-2171.65
-2166.189
-2183.252
-2219.738
-2260.315
-2297.585
-2326.357
-2345.738
-2360.814
-2373.171
-2382.509
-2389.042
-2391.929
-2390.961
-2386.858
-2379.938
-2370.279
-2358.107
-2343.626
-2326.914
-2308.097
-2287.352
-2264.745
-2240.375
-2214.376
-2186.737
-2157.43
-2126.528
-2094.124
-2060.383
-2025.498
-1989.536
-1952.558
-1914.655
-1875.773
-1835.847
-1794.765
-1752.236
-1708.09
-1662.368
-1615.183
-1566.846
-1517.819
-1468.432
-1419.006
-1369.896
-1321.32
-1273.55
-1226.824
-1181.209
-1136.945
-1094.386
-1053.935
-1016.234
-981.826
-950.925
-923.704
-900.182
-880.016
-862.921
-848.529
-836.218
-825.607
-816.381
-808.233
-801.148
-795.017
-789.562
-784.539
-779.468
-773.759
-767.012
-758.673
-748.189
-735.561
-720.746
-703.737
-685.103
-665.224
-644.684
-624.666
-605.57
-587.145
-569.262
-551.415
-533
-514.007
-493.258
-468.365
-438.343
-402.906
-362.589
-319.554
-275.387
-230.768
-188.28
-153.022
-129.882
-122.776
-133.607
-159.147
-194.047
-237.84
-290
-349.18
-417.807
-486.336
-537.409
-557.718
-529.55
-450.667
-338.502
-210.96
-90.112
11.653
97.703
170.358
230.927
277.279
303.058
307.923
296.613
275.076
250.457
227.027
206.909
193.29
188.276
192.04
203.663
220.666
239.765
259.111
277.598
293.755
306.893
316.735
323.08
326.589
328.126
327.93
326.16
322.979
318.269
312.013
304.26
294.862
283.859
271.607
258.462
244.847
231.206
217.959
205.714
195.221
187.26
182.434
181.056
183.263
189.174
198.907
212.481
229.84
250.661
274.454
300.927
329.838
360.93
393.865
428.017
462.586
496.831
530.237
562.518
593.489
622.86
650.291
675.524
698.348
718.795
736.99
752.819
766.155
776.944
785.233
791.358
795.771
798.773
800.473
800.822
799.785
797.546
794.414
790.733
786.896
783.128
779.624
776.745
774.798
774.011
774.526
776.248
779.043
782.943
788.108
794.839
803.375
813.695
825.634
838.896
853.058
867.807
882.851
897.803
912.369
926.308
939.429
951.716
963.157
973.622
982.896
990.641
996.555
1000.532
1002.576
1002.81
1001.475
998.734
994.737
989.679
983.685
976.842
969.209
960.738
951.364
941.098
929.998
918.197
905.832
892.948
879.543
865.571
850.933
835.569
819.434
802.455
784.601
765.877
746.305
725.969
704.973
683.392
661.29
638.714
615.703
592.32
568.641
544.741
520.713
496.651
472.656
448.843
425.324
402.195
379.544
357.451
335.985
315.219
295.217
276.036
257.729
240.359
223.99
208.698
194.548
181.59
169.855
159.364
150.124
142.145
135.429
129.97
125.763
122.814
121.149
120.822
121.899
124.446
128.51
134.093
141.194
149.817
159.991
171.828
185.406
200.7
217.635
236.056
255.79
276.834
299.085
322.086
345.493
369.137
393.067
418.041
444.821
473.202
502.696
533.154
563.895
593.713
621.085
642.87
655.398
659.482
657.072
647.199
632.211
610.218
579.922
554.843
545.456
561.978
613.106
686.241
771.636
863.711
954.284
1049.412
1144.515
1222.859
1271.658
1271.62
1220.21
1135.169
1033.081
935.343
853.391
783.637
726.247
681.664
651.933
643.709
658.28
691.655
739.534
795.983
854.87
912.211
964.088
1007.199
1040.5
1064.571
1080.569
1090.715
1097.94
1104.102
1110.789
1119.075
1128.748
1139.366
1150.437
1160.983
1169.919
1176.736
1181.182
1183.385
1183.999
1183.436
1181.945
1179.807
1177.151
1174.057
1170.585
1166.703
1162.341
1157.478
1152.107
1146.246
1139.948
1133.166
1125.798
1117.676
1108.551
1098.256
1086.699
1073.816
1059.599
1044.056
1027.192
1009.057
989.725
969.246
947.655
924.971
901.194
876.358
850.523
823.765
796.182
767.862
738.881
709.317
679.247
648.74
617.865
586.678
555.223
523.558
491.753
459.883
428.028
396.269
364.681
333.341
302.327
271.714
241.567
211.95
182.916
154.52
126.812
99.838
73.639
48.253
23.714
0.051
-22.71
-44.547
-65.444
-85.389
-104.373
-122.393
-139.448
-155.542
-170.681
-184.877
-198.142
-210.494
-221.949
-232.528
-242.256
-251.16
-259.269
-266.614
-273.225
-279.131
-284.365
-288.97
-292.979
-296.425
-299.335
-301.726
-303.622
-305.065
-306.063
-306.596
-306.648
-306.198
-305.253
-303.873
-302.073
-299.794
-297.078
-294.047
-290.797
-287.431
-283.959
-280.212
-276.131
-271.881
-267.286
-261.713
-255.01
-247.361
-238.678
-229.609
-218.965
-202.856
-182.016
-160.056
-142.764
-141.186
-154.935
-172.877
-184.018
-172.727
-137.657
-93.72
-52.477
-26.296
-17.676
-15.555
-13.064
-5.647
8.165
23.796
39.067
54.091
68.653
83.366
98.343
112.923
126.895
140.338
153.218
165.453
176.962
187.715
197.786
207.19
215.797
223.424
229.914
235.238
239.541
242.853
244.984
246.106
246.853
247.352
247.437
247.206
245.975
245.115
248.598
255.462
262.181
262.696
245.787
212.58
174.324
142.368
132.787
146.109
167.337
184.928
186.246
169.552
146.169
122.934
104.683
92.723
82.478
71.994
61.439
50.699
40.51
31.046
21.711
12.35
3.082
-6.096
-15.205
-24.212
-33.09
-41.781
-50.181
-58.268
-66.098
-73.699
-81.076
-88.248
-95.223
-102.022
-108.676
-115.204
-121.617
-127.928
-134.152
-140.304
-146.4
-152.455
-158.482
-164.491
-170.494
-176.501
-182.519
-188.554
-194.612
-200.695
-206.805
-212.94
-219.099
-225.277
-231.468
-237.666
-243.86
-250.041
-256.196
-262.311
-268.372
-274.364
-280.27
-286.075
-291.763
-297.316
-302.721
-307.963
-313.028
-317.902
-322.574
-327.032
-331.266
-335.267
-339.026
-342.537
-345.793
-348.79
-351.525
-353.995
-356.201
-358.143
-359.821
-361.237
-362.396
-363.3
-363.955
-364.365
-364.537
-364.479
-364.196
-363.699
-362.995
-362.095
-361.006
-359.739
-358.302
-356.707
-354.961
-353.075
-351.059
-348.921
-346.674
-344.325
-341.887
-339.369
-336.783
-334.138
-331.447
-328.719
-325.967
-323.201
-320.434
-317.678
-314.946
-312.252
-309.608
-307.031
-304.534
-302.134
-299.845
-297.683
-295.664
-293.805
-292.12
-290.627
-289.34
-288.277
-287.451
-286.878
-286.57
-286.542
-286.804
-287.365
-288.234
-289.417
-290.919
-292.742
-294.888
-297.354
-300.137
-303.233
-306.632
-310.326
-314.301
-318.543
-323.035
-327.756
-332.686
-337.802
-343.078
-348.487
-354.001
-359.591
-365.227
-370.876
-376.508
-382.088
-387.585
-392.965
-398.195
-403.245
-408.082
-412.679
-417.006
-421.037
-424.75
-428.121
-431.132
-433.764
-436.004
-437.838
-439.257
-440.254
-440.826
-440.972
-440.693
-439.994
-438.884
-437.372
-435.472
-433.197
-430.565
-427.595
-424.306
-420.72
-416.86
-412.748
-408.41
-403.871
-399.156
-394.289
-389.295
-384.199
-379.023
-373.789
-368.518
-363.228
-357.936
-352.66
-347.412
-342.207
-337.055
-331.965
-326.945
-322
-317.133
-312.347
-307.64
-303.009
-298.452
-293.96
-289.529
-285.149
-280.811
-276.505
-272.221
-267.947
-263.672
-259.385
-255.073
-250.727
-246.334
-241.887
-237.376
-232.795
-228.139
-223.405
-218.591
-213.698
-208.728
-203.684
-198.574
-193.404
-188.184
-182.924
-177.639
-172.343
-167.053
-161.788
-156.569
-151.419
-146.361
-141.422
-136.628
-132.007
-127.588
-123.402
-119.478
-115.849
-112.547
-109.603
-107.05
-104.921
-103.247
-102.057
-101.382
-101.248
-101.681
-102.705
-104.339
-106.604
-109.516
-113.089
-117.333
-122.258
-127.87
-134.171
-141.162
-148.839
-157.196
-166.223
-175.907
-186.231
-197.177
-208.723
-220.843
-233.508
-246.689
-260.351
-274.456
-288.965
-303.836
-319.023
-334.479
-350.154
-365.999
-381.96
-397.986
-414.022
-430.016
-445.915
-461.665
-477.215
-492.514
-507.511
-522.159
-536.409
-550.218
-563.542
-576.342
-588.579
-600.219
-611.23
-621.583
-631.251
-640.213
-648.446
-655.935
-662.665
-668.626
-673.808
-678.208
-681.824
-684.657
-686.713
-687.999
-688.524
-688.301
-687.343
-685.667
-683.288
-680.225
-676.496
-672.121
-667.118
-661.509
-655.311
-648.544
-641.225
-633.37
-624.996
-616.113
-606.735
-596.871
-586.526
-575.708
-564.418
-552.659
-540.43
-527.728
-514.549
-500.887
-486.735
-472.083
-456.922
-441.24
-425.025
-408.264
-390.945
-373.054
-354.581
-335.514
-315.842
-295.559
-274.655
-253.128
-230.975
-208.195
-184.792
-160.773
-136.148
-110.933
-85.146
-58.811
-31.957
-4.617
23.171
51.363
79.912
108.766
137.868
167.157
196.568
226.032
255.479
284.833
314.018
342.955
371.566
399.77
427.487
454.638
481.144
506.929
531.918
556.039
579.221
601.401
622.516
642.51
661.33
678.932
695.276
710.33
724.067
736.469
747.525
757.234
765.599
772.635
778.364
782.815
786.026
788.042
788.918
788.713
787.494
785.333
782.307
778.5
773.995
768.882
763.254
757.202
750.823
744.211
737.461
730.669
723.928
717.328
710.96
704.906
699.244
694.05
689.402
685.374
682.034
679.439
677.634
676.658
676.552
677.34
679.004
681.502
684.792
688.848
693.676
699.299
705.69
712.852
720.894
729.946
740.071
751.272
763.426
776.297
789.779
803.59
816.928
829.244
840.548
850.903
860.74
868.939
872.273
869.457
862.719
861.03
876.944
916.907
977.474
1038.56
1074.671
1070.631
1023.728
956.64
900.975
876.218
892.996
937.541
984.325
1018.498
1029.245
1019.506
1001.753
982.019
965.006
951.347
937.392
921.149
899.7
874.098
849.252
831.165
829.512
845.091
869.672
892.687
897.401
873.66
820.814
741.758
647.041
554.038
481.623
446.78
462.188
519.525
594.503
658.308
674.836
632.512
541.233
421.019
312.65
238.119
202.884
203.413
210.917
210.796
198.445
172.233
150.55
136.73
123.992
108.374
73.484
18.196
-42.043
-97.127
-131.472
-139.653
-136.49
-131.78
-132.733
-142.21
-150.15
-153.175
-158.991
-177.865
-218.176
-275.323
-328.482
-354.95
-344.686
-305.215
-259.33
-229.047
-223.104
-236.558
-255.143
-267.596
-270.397
-265.295
-257.115
-248.284
-238.606
-227.718
-215.194
-201.284
-186.66
-171.532
-155.887
-139.81
-123.359
-106.55
-89.352
-71.686
-53.504
-34.854
-15.83
3.508
23.122
42.977
63.033
83.244
103.565
123.966
144.428
164.929
185.446
205.955
226.434
246.859
267.209
287.463
307.599
327.594
347.427
367.072
386.507
405.705
424.638
443.277
461.591
479.544
497.097
514.208
530.833
546.933
562.47
577.405
591.69
605.275
618.109
630.15
641.342
651.593
660.787
668.827
675.642
681.203
685.5
688.49
690.187
690.743
690.366
689.185
687.226
684.381
680.474
675.458
669.061
660.451
648.926
634.382
617.108
597.755
575.469
547.575
512.77
473.49
439.003
421.156
427.905
458.345
495.225
517.067
504.323
443.639
346.314
233.071
130.518
70.559
60.065
90.578
141.147
177.06
182.121
155.268
107.426
60.962
24.499
-1.593
-23.799
-53.486
-87.033
-119.373
-143.971
-152.133
-151.745
-150.024
-151.677
-163.917
-181.558
-199.366
-216.136
-228.555
-238.396
-248.019
-257.018
-265.818
-274.35
-282.185
-289.708
-297.244
-304.781
-312.369
-320.091
-327.981
-336.062
-344.367
-352.886
-361.596
-370.542
-379.764
-389.261
-399.042
-409.104
-419.436
-430.028
-440.861
-451.899
-463.102
-474.424
-485.805
-497.181
-508.475
-519.607
-530.493
-541.052
-551.196
-560.837
-569.891
-578.275
-585.915
-592.741
-598.682
-603.668
-607.627
-610.482
-612.155
-612.575
-611.666
-609.357
-605.576
-600.251
-593.331
-584.768
-574.521
-562.559
-548.831
-533.298
-515.951
-496.789
-475.846
-453.203
-428.97
-403.286
-376.344
-348.333
-319.447
-289.903
-259.881
-229.546
-199.018
-168.378
-137.758
-107.261
-76.979
-47.034
-17.41
12.032
41.462
71.155
101.388
132.229
163.851
196.617
230.575
265.648
301.372
336.657
370.986
404.46
437.057
468.887
500.216
530.949
561.896
595.164
631.438
670.394
711.294
751.599
788.545
820.156
843.084
852.71
846.3
821.899
778.492
718.814
646.485
564.869
479.123
394.638
314.936
243.625
183.857
135.255
96.489
65.66
38.985
13.67
-11.39
-37.78
-67.171
-99.568
-134.705
-171.403
-206.805
-239.066
-267.181
-289.797
-305.843
-314.505
-314.786
-306.734
-291.601
-270.659
-245.719
-218.463
-189.586
-160.248
-131.902
-104.408
-76.643
-46.996
-12.404
26.904
66.569
106.7
148.907
196.006
255.507
321.189
375.855
404.507
388.914
327.697
238.475
136.324
37.644
-50.481
-135.252
-221.035
-310.664
-404.923
-500.743
-595.691
-685.879
-767.787
-840.04
-906.212
-973.889
-1044.49
-1106.498
-1137.451
-1117.379
-1039.088
-913.758
-764.607
-609.437
-462.12
-334.907
-240.041
-192.812
-199.722
-253.26
-334.01
-419.938
-497.703
-563.528
-621.926
-677.692
-730.408
-777.119
-814.339
-841.231
-860.581
-876.826
-893.364
-911.404
-931.254
-952.793
-975.741
-999.975
-1024.461
-1046.975
-1065.965
-1081.175
-1092.598
-1100.324
-1103.682
-1101.155
-1092.423
-1079.008
-1062.947
-1045.483
-1027.461
-1009.809
-994.516
-984.565
-981.449
-984.061
-990.027
-997.846
-1006.35
-1014.249
-1020.003
-1020.627
-1015.824
-1009.797
-1003.75
-995.919
-981.468
-950.06
-902.52
-850.409
-805.167
-781.877
-780.839
-787.277
-790.522
-779.224
-751.47
-717.76
-683.989
-655.843
-637.926
-626.928
-618.697
-604.553
-571.867
-515.135
-437.759
-356.516
-294.795
-269.586
-285.236
-325.989
-366.069
-380.565
-354.467
-292.728
-212.401
-135.83
-80.098
-48.38
-34.585
-26.734
-15.537
1.513
23.237
45.987
67.659
88.373
108.429
128.161
147.337
165.291
181.692
196.464
209.534
220.883
230.51
238.432
244.717
249.409
252.485
253.884
253.562
251.497
247.671
242.068
234.669
225.458
214.436
201.612
187.001
170.618
152.485
132.629
111.085
87.896
63.111
36.785
8.977
-20.245
-50.812
-82.645
-115.663
-149.779
-184.901
-220.933
-257.774
-295.319
-333.458
-372.08
-411.069
-450.309
-489.681
-529.065
-568.339
-607.38
-646.066
-684.275
-721.883
-758.77
-794.816
-829.903
-863.918
-896.752
-928.3
-958.462
-987.145
-1014.259
-1039.723
-1063.461
-1085.405
-1105.49
-1123.661
-1139.87
-1154.077
-1166.252
-1176.372
-1184.424
-1190.401
-1194.31
-1196.164
-1195.986
-1193.803
-1189.651
-1183.572
-1175.614
-1165.836
-1154.3
-1141.074
-1126.234
-1109.863
-1092.049
-1072.887
-1052.475
-1030.912
-1008.3
-984.742
-960.342
-935.206
-909.44
-883.148
-856.434
-829.404
-802.162
-774.81
-747.449
-720.168
-693.053
-666.187
-639.642
-613.482
-587.763
-562.525
-537.809
-513.655
-490.095
-467.157
-444.864
-423.237
-402.294
-382.058
-362.535
-343.714
-325.574
-308.08
-291.191
-274.864
-259.043
-243.663
-228.663
-213.98
-199.566
-185.389
-171.397
-157.525
-143.691
-129.787
-115.733
-101.495
-87.032
-72.312
-57.349
-42.174
-26.887
-11.664
3.391
18.235
32.872
47.381
61.826
76.251
90.719
105.295
120.046
135.078
150.449
166.165
182.338
199.139
216.855
235.928
256.63
279.044
303.172
328.871
355.933
384.141
413.135
442.446
471.675
500.441
528.459
555.572
581.477
605.771
627.947
647.326
663.436
676.044
684.997
690.29
692.066
690.536
686.139
679.534
671.248
661.708
651.252
640.059
628.431
616.771
605.523
595.225
586.298
579
573.562
570.149
568.772
569.363
571.661
575.206
579.666
584.827
590.532
596.739
603.357
610.23
617.23
624.22
631.077
637.718
644.044
649.948
655.402
660.428
665.126
669.69
674.236
678.81
683.434
688.076
692.702
697.289
701.773
706.064
710.089
713.789
717.117
720.049
722.539
724.522
725.927
726.669
726.678
725.905
724.303
721.837
718.483
714.224
709.059
703.007
696.076
688.272
679.598
670.054
659.645
648.381
636.271
623.323
609.553
594.984
579.64
563.553
546.758
529.288
511.18
492.475
473.214
453.443
433.207
412.553
391.532
370.195
348.597
326.791
304.833
282.775
260.67
238.574
216.538
194.614
172.855
151.313
130.038
109.088
88.518
68.383
48.739
29.644
11.15
-6.689
-23.821
-40.198
-55.775
-70.506
-84.347
-97.256
-109.193
-120.123
-130.013
-138.835
-146.566
-153.189
-158.692
-163.071
-166.323
-168.453
-169.467
-169.372
-168.18
-165.906
-162.568
-158.187
-152.793
-146.417
-139.097
-130.88
-121.817
-111.963
-101.382
-90.133
-78.274
-65.863
-52.957
-39.611
-25.88
-11.823
2.509
17.057
31.749
46.503
61.235
75.862
90.316
104.539
118.48
132.087
145.335
158.244
170.834
183.108
195.04
206.545
217.517
227.916
237.663
246.601
254.68
261.935
268.424
274.375
280.052
285.518
291.106
297.563
304.942
312.793
321.139
329.444
338.702
352.384
369.703
387.062
398.55
393.19
369.385
334.91
302.069
290.201
307.269
349.133
402.285
444.954
464.915
454.964
421.004
378.033
333.746
303.242
290.894
292.363
309.85
331.458
349.861
365.117
371.887
375.965
382.911
392.934
409.394
431.046
455.256
481.642
508.645
535.398
562.274
588.889
613.879
636.07
655.051
671.902
689.382
707.897
723.865
734.098
737.239
740.326
757.865
797.258
857.9
921.051
951.113
921.169
816.397
649.713
466.688
314.448
228.793
217.683
253.129
301.005
338.846
362.279
388.15
428.202
477.168
522.115
542.624
531.68
501.763
465.602
437.629
423.54
415.232
407.898
398.424
385.658
373.681
363.99
355.635
347.965
339.994
331.454
322.945
314.84
307.152
299.981
293.467
287.694
282.65
278.078
273.57
268.849
263.83
258.505
252.937
247.159
241.041
234.789
229.096
224.079
219.375
214.997
210.466
206.912
207.669
211.89
216.296
215
197.746
164.049
121.268
81.354
63.313
73.764
108.585
155.582
191.949
205.175
191.091
155.321
116.528
86.957
74.527
80.351
94.38
109.636
122.13
130.254
136.84
143.301
148.021
147.483
140.853
128.879
110.449
87.821
58.782
19.654
-20.067
-51.794
-65.432
-49.323
-11.086
39.602
94.971
143.9
186.959
224.809
255.2
279.732
297.646
307.363
303.357
276.868
222.944
146.108
70.35
25.628
31.604
93.008
183.786
267.038
318.67
324.874
299.101
267.78
246.398
246.724
266.107
291.298
316.136
336.106
350.364
363.469
376.837
390.315
404.215
417.704
430.602
443.565
456.677
469.731
482.564
494.645
505.117
513.486
519.747
524.067
527.29
529.146
527.438
521.585
513.586
510.329
523.723
561.295
619.055
679.867
714.761
697.601
623.276
507.665
388.832
313.718
309.168
383.361
516.425
663.377
784.985
848.014
842.503
787.329
708.649
635.363
576.937
523.935
462.755
380.92
293.498
229.181
208.082
241.849
308.388
369.127
400.713
389.067
344.673
293.318
248.79
219.633
204.315
192.268
178.663
160.538
137.378
112.924
88.907
66.119
44.381
21.088
-5.131
-34.223
-66.294
-100.249
-136.8
-179.705
-228.285
-278.862
-325.086
-356.005
-370.443
-377.816
-392.305
-430.797
-498.459
-585.231
-671.536
-739.129
-778.793
-792.305
-794.327
-796.217
-803.572
-819.105
-834.922
-845.323
-848.753
-842.358
-828.135
-808.017
-781.623
-749.909
-713.496
-672.624
-628.279
-581.463
-532.861
-483.327
-433.85
-385.256
-338.136
-293.122
-251.059
-212.682
-178.755
-149.541
-124.341
-102.666
-84.627
-70.695
-61.324
-56.392
-55.866
-61.174
-74.659
-98.33
-131.193
-167.784
-205.455
-244.817
-289.349
-346.739
-411.682
-468.112
-500.471
-491.438
-442.822
-374.547
-303.751
-249.236
-218.56
-205.091
-207.584
-224.292
-253.15
-296.29
-350.192
-408.638
-467.912
-523.13
-569.02
-602.462
-621.357
-625.972
-620.745
-610.68
-598.536
-586.414
-576.212
-569.555
-568.544
-573.877
-583.377
-594.033
-604.031
-612.437
-619.103
-624.02
-626.29
-625.383
-621.975
-617.242
-612.25
-607.702
-603.789
-600.759
-599.383
-600.313
-603.925
-610.375
-619.478
-631.201
-645.65
-662.729
-682.33
-704.219
-727.969
-753.315
-780.049
-807.769
-836.056
-864.256
-891.443
-917.012
-940.543
-961.597
-979.912
-995.046
-1006.469
-1014.015
-1017.614
-1017.241
-1012.98
-1004.718
-992.327
-975.984
-955.95
-932.651
-906.659
-878.181
-847.296
-814.22
-779.185
-742.684
-705.339
-667.501
-629.487
-591.69
-554.571
-518.828
-485.088
-453.64
-424.673
-398.284
-374.601
-354.079
-337.163
-324.094
-315.001
-309.774
-308.237
-310.335
-315.896
-324.558
-335.78
-348.811
-363.052
-378.172
-393.885
-409.921
-425.885
-441.204
-455.448
-468.376
-479.834
-489.765
-498.094
-504.724
-509.759
-513.44
-516.094
-518.102
-519.615
-520.672
-521.356
-521.776
-522.164
-522.736
-523.511
-524.396
-525.283
-526.052
-526.64
-526.911
-526.51
-525.155
-522.667
-519.003
-514.416
-509.091
-503.086
-496.433
-489.077
-481.054
-472.563
-463.792
-454.874
-445.98
-437.257
-428.992
-421.685
-415.594
-410.76
-407.011
-403.879
-401.045
-398.361
-395.659
-392.82
-389.687
-386.024
-381.698
-376.685
-370.862
-364.08
-356.054
-346.331
-334.699
-321.14
-305.8
-289.037
-271.059
-251.961
-231.871
-210.902
-189.231
-167.045
-144.382
-121.203
-97.538
-73.41
-49.133
-25.142
-1.356
22.31
46.023
70.142
94.308
117.975
141.296
164.367
186.573
207.569
226.533
242.376
255.879
268.001
278.676
288.14
297.011
305.468
314.616
325.75
337.701
349.268
360.209
369.883
377.93
384.363
388.161
388.258
385.533
380.816
374.45
367.119
358.897
349.689
340.133
330.834
321.572
312.199
302.647
292.689
282.543
272.494
262.57
252.863
243.59
234.894
226.926
219.866
213.736
208.506
204.137
200.495
197.423
194.851
192.774
191.251
190.371
190.162
190.577
191.572
193.153
195.404
198.476
202.432
207.245
212.929
219.693
228.042
238.443
250.862
264.712
279.251
294.109
309.572
326.064
343.39
361.329
380.215
401.209
425.931
454.935
486.814
519.137
550.036
577.859
600.909
616.864
622.786
617.271
601.48
578.203
549.906
518.444
485.304
452.295
421.916
395.682
373.34
353.354
334.476
316.354
299.017
282.419
265.968
249.153
232.138
215.677
200.325
186.062
172.649
159.761
147.321
135.485
124.238
113.386
102.74
92.171
81.663
71.317
61.191
51.264
41.584
32.239
23.397
15.324
8.213
2.173
-2.682
-6.264
-8.507
-9.335
-8.753
-6.845
-3.634
0.9
6.829
14.327
23.468
34.218
46.516
60.219
75.258
91.74
109.573
128.431
148.128
168.513
189.931
213.388
239.342
267.52
297.419
328.267
359.387
390.504
420.069
445.079
463.468
474.298
478.403
478.375
476.18
473.294
472.993
479.989
498.677
530.637
572.213
618.839
668.724
726.54
800.865
891.625
989.377
1075.137
1125.726
1132.133
1099.492
1041.398
981.809
940.456
925.557
942.386
982.359
1027.617
1067.653
1092.397
1100.311
1101.361
1100.883
1101.527
1106.325
1113.268
1118.83
1123.956
1125.016
1117.929
1109.912
1104.962
1109.363
1131.865
1164.659
1200.797
1235.473
1260.99
1282.02
1303.355
1325.456
1350.79
1376.99
1401.066
1422.685
1440.54
1453.621
1461.457
1463.14
1457.904
1445.371
1425.563
1398.794
1365.697
1327.432
1284.851
1238.322
1188.666
1136.809
1082.942
1027.097
969.069
907.995
844.324
779.812
715.415
652.056
591.456
535.306
486.28
447.754
420.794
404.88
399.671
403.813
415.318
431.792
448.674
460.939
465.439
459.552
441.444
411.161
369.246
317.486
260.032
200.711
142.485
88.663
41.348
1.115
-31.827
-58.723
-82.211
-104.017
-125.429
-147.946
-172.111
-197.977
-225.577
-254.133
-282.534
-310.515
-338.115
-365.346
-392.603
-420.046
-447.503
-475.143
-503.119
-530.862
-557.588
-583.257
-608.338
-633.506
-660.233
-687.544
-711.663
-733.279
-754.645
-780.22
-821.053
-876.607
-935.295
-983.395
-995.942
-961.294
-891.028
-804.541
-736.835
-715.602
-743.445
-808.789
-884.277
-945.242
-982.528
-998.069
-1003.599
-1007.019
-1009.187
-1008.386
-1000.118
-983.651
-962.12
-937.552
-911.825
-886.399
-861.272
-836.589
-812.581
-788.443
-763.081
-736.006
-706.997
-676.053
-643.495
-609.423
-573.801
-536.841
-498.792
-459.805
-419.991
-379.347
-337.815
-295.44
-252.334
-208.629
-164.484
-120.036
-75.402
-30.711
13.909
58.326
102.403
146.012
189.021
231.303
272.727
313.16
352.476
390.564
427.328
462.688
496.576
528.926
559.673
588.761
616.139
641.762
665.598
687.617
707.797
726.126
742.597
757.212
769.98
780.914
790.032
797.356
802.911
806.729
808.845
809.296
808.125
805.375
801.091
795.319
788.108
779.506
769.561
758.322
745.837
732.152
717.315
701.371
684.365
666.337
647.331
627.384
606.537
584.826
562.287
538.955
514.866
490.052
464.548
438.387
411.604
384.234
356.309
327.867
298.944
269.577
239.806
209.671
179.214
148.479
117.511
86.356
55.063
23.681
-7.741
-39.149
-70.493
-101.719
-132.773
-163.604
-194.156
-224.378
-254.217
-283.621
-312.542
-340.932
-368.745
-395.939
-422.476
-448.318
-473.435
-497.799
-521.388
-544.182
-566.169
-587.341
-607.695
-627.233
-645.963
-663.898
-681.057
-697.462
-713.143
-728.13
-742.461
-756.177
-769.321
-781.94
-794.085
-805.807
-817.159
-828.196
-838.974
-849.548
-859.973
-870.302
-880.589
-890.882
-901.228
-911.672
-922.253
-933.006
-943.963
-955.148
-966.581
-978.277
-990.244
-1002.484
-1014.994
-1027.762
-1040.773
-1054.004
-1067.426
-1081.005
-1094.7
-1108.466
-1122.253
-1136.003
-1149.658
-1163.154
-1176.421
-1189.39
-1201.985
-1214.132
-1225.753
-1236.769
-1247.102
-1256.672
-1265.402
-1273.217
-1280.042
-1285.806
-1290.442
-1293.885
-1296.077
-1296.962
-1296.493
-1294.625
-1291.321
-1286.55
-1280.286
-1272.512
-1263.216
-1252.395
-1240.05
-1226.191
-1210.835
-1194.006
-1175.735
-1156.06
-1135.026
-1112.686
-1089.098
-1064.326
-1038.444
-1011.527
-983.657
-954.922
-925.414
-895.228
-864.462
-833.22
-801.603
-769.718
-737.67
-705.567
-673.514
-641.617
-609.981
-578.708
-547.899
-517.652
-488.061
-459.218
-431.209
-404.118
-378.024
-352.998
-329.108
-306.416
-284.975
-264.834
-246.034
-228.608
-212.583
-197.978
-184.803
-173.062
-162.75
-153.857
-146.363
-140.242
-135.464
-131.989
-129.773
-128.766
-128.915
-130.161
-132.439
-135.684
-139.825
-144.79
-150.502
-156.883
-163.856
-171.339
-179.253
-187.516
-196.049
-204.773
-213.61
-222.486
-231.33
-240.072
-248.648
-256.997
-265.065
-272.8
-280.158
-287.098
-293.587
-299.596
-305.103
-310.09
-314.546
-318.463
-321.84
-324.68
-326.989
-328.78
-330.067
-330.869
-331.21
-331.115
-330.615
-329.74
-328.526
-327.01
-325.231
-323.228
-321.041
-318.712
-316.281
-313.787
-311.267
-308.757
-306.293
-303.907
-301.629
-299.484
-297.496
-295.68
-294.05
-292.616
-291.381
-290.345
-289.501
-288.841
-288.354
-288.025
-287.843
-287.787
-287.829
-287.937
-288.071
-288.189
-288.25
-288.206
-288.005
-287.598
-286.931
-285.958
-284.638
-282.924
-280.763
-278.094
-274.84
-270.934
-266.329
-260.982
-254.869
-247.965
-240.225
-231.608
-222.115
-211.733
-200.445
-188.223
-174.978
-160.625
-145.151
-128.58
-110.879
-91.993
-71.851
-50.308
-27.267
-2.755
23.288
50.94
79.839
109.618
140.544
172.508
205.182
239.215
272.78
304.48
337.888
374.133
417.659
473.732
535.233
597.027
652.052
689.923
715.622
734.371
750.81
773.449
799.283
824.891
850.243
874.393
902.703
939.383
984.123
1035.717
1090.502
1145.351
1199.186
1250.093
1295.286
1333.132
1362.979
1385.703
1403.933
1419.422
1432.862
1445.112
1457.014
1469.163
1482
1495.172
1507.485
1518.215
1527.117
1534.063
1539.181
1542.488
1543.849
1543.319
1541.103
1537.315
1532.012
1525.166
1516.641
1506.38
1494.412
1480.778
1465.553
1448.8
1430.538
1410.803
1389.652
1367.119
1343.227
1318.015
1291.505
1263.73
1234.817
1204.882
1173.977
1142.253
1109.896
1076.991
1043.678
1010.087
976.074
941.521
906.56
870.95
834.14
796.288
757.711
718.219
678.777
638.872
594.968
547.926
501.339
460.44
437.509
435.962
444.298
447.609
423.942
360.406
272.007
182.721
117.461
95.867
108.737
132.61
149.739
144.891
119.771
89.051
60.579
39.801
27.824
19.376
12.615
7.891
4.888
4.347
6.493
10.594
16.325
23.659
32.471
42.674
54.309
67.414
81.917
97.743
114.874
133.242
152.438
172.011
192.011
212.265
232.536
253.35
272.651
288.472
303.377
318.048
337.219
366.558
399.433
431.431
456.046
464.362
464.125
461.931
462.378
473.119
488.93
504.413
518.341
527.322
533.234
538.596
542.987
546.861
550.3
553.011
555.431
557.865
560.064
561.713
562.644
562.178
559.044
552.484
542.564
530.188
517.081
502.946
484.79
460.707
432.661
409.691
404.455
424.902
467.039
510.52
530.287
505.67
431.036
327.313
225.796
160.87
157.603
211.792
302.935
401.681
481.853
537.293
574.537
605.485
638.404
673.584
707.574
736.34
759.807
779.767
797.205
813.167
827.903
841.165
853.124
863.542
871.23
875.257
875.305
871.359
863.948
853.76
841.132
826.381
809.908
791.967
772.78
752.548
731.265
708.837
685.266
660.526
634.731
608.217
581.147
553.541
525.298
496.12
465.824
434.39
401.799
368.026
333.055
296.858
259.5
221.166
181.982
142.019
101.274
59.639
17.104
-26.243
-70.271
-114.777
-159.604
-204.658
-249.818
-294.937
-339.893
-384.58
-428.94
-472.978
-516.655
-559.898
-602.613
-644.688
-686.031
-726.582
-766.275
-805.052
-842.853
-879.616
-915.291
-949.84
-983.212
-1015.344
-1046.165
-1075.588
-1103.54
-1129.955
-1154.768
-1177.914
-1199.336
-1218.978
-1236.796
-1252.752
-1266.813
-1278.943
-1289.115
-1297.307
-1303.505
-1307.705
-1309.909
-1310.127
-1308.379
-1304.695
-1299.114
-1291.685
-1282.462
-1271.509
-1258.896
-1244.701
-1229.011
-1211.917
-1193.516
-1173.908
-1153.201
-1131.506
-1108.94
-1085.622
-1061.671
-1037.21
-1012.362
-987.254
-962.007
-936.744
-911.58
-886.63
-862.004
-837.805
-814.134
-791.083
-768.736
-747.172
-726.461
-706.662
-687.827
-669.999
-653.207
-637.473
-622.808
-609.213
-596.68
-585.192
-574.722
-565.237
-556.696
-549.052
-542.25
-536.23
-530.928
-526.274
-522.196
-518.617
-515.458
-512.636
-510.072
-507.685
-505.397
-503.127
-500.799
-498.339
-495.677
-492.747
-489.486
-485.837
-481.746
-477.167
-472.062
-466.405
-460.175
-453.356
-445.935
-437.902
-429.257
-420.009
-410.171
-399.762
-388.804
-377.324
-365.359
-352.958
-340.176
-327.063
-313.665
-300.02
-286.163
-272.147
-258.042
-243.921
-229.845
-215.871
-202.05
-188.437
-175.104
-162.106
-149.463
-137.198
-125.343
-113.925
-102.995
-92.62
-82.799
-73.499
-64.689
-56.166
-47.654
-39.027
-30.223
-21.238
-12.261
-3.41
5.432
13.88
20.98
26.672
31.611
36.366
42.557
49.764
53.8
54.794
56.192
63.019
87.209
130.246
179.575
220.568
229.11
192.764
123.592
41.572
-20.263
-35.139
-2.92
62.565
134.347
187.468
216.549
227.538
232.474
240.476
251.478
261.957
268.768
272.03
273.757
275.393
277.79
281.056
285.549
291.818
299.631
308.017
316.122
323.538
330.293
336.695
342.775
348.359
353.385
357.934
362.145
366.088
369.705
372.831
375.341
377.188
378.373
378.924
378.853
378.144
376.786
374.767
372.084
368.745
364.762
360.148
354.918
