Name,Criss Capps
Date of Birth,"Feb 5, 1952"
Recorded Date,2025-06-24 12:09:01 -0400
Classification,Poor Recording
Symptoms,
Software Version,1.90
Device,"Watch5,4"
Sample Rate,512.844 hertz


Lead,Lead I
Unit,µV

-25.412
-26.242
-26.902
-27.364
-27.627
-27.719
-27.661
-27.472
-27.178
-26.803
-26.359
-25.851
-25.287
-24.671
-24.023
-23.367
-22.718
-22.087
-21.477
-20.888
-20.32
-19.772
-19.238
-18.709
-18.178
-17.641
-17.096
-16.54
-15.969
-15.376
-14.753
-14.093
-13.39
-12.64
-11.838
-10.981
-10.068
-9.098
-8.071
-6.99
-5.854
-4.664
-3.419
-2.121
-0.769
0.634
2.088
3.591
5.141
6.734
8.368
10.04
11.745
13.48
15.241
17.025
18.826
20.641
22.465
24.294
26.123
27.947
29.761
31.561
33.342
35.099
36.827
38.522
40.179
41.794
43.363
44.88
46.343
47.747
49.089
50.364
51.57
52.703
53.76
54.737
55.632
56.442
57.165
57.798
58.34
58.789
59.142
59.4
59.561
59.623
59.588
59.453
59.22
58.888
58.458
57.931
57.308
56.591
55.781
54.88
53.891
52.816
51.658
50.42
49.107
47.721
46.266
44.747
43.168
41.534
39.85
38.122
36.353
34.551
32.72
30.867
28.998
27.118
25.234
23.351
21.477
19.616
17.774
15.959
14.174
12.427
10.721
9.063
7.456
5.907
4.417
2.993
1.637
0.352
-0.86
-1.994
-3.051
-4.027
-4.922
-5.735
-6.465
-7.112
-7.677
-8.16
-8.562
-8.886
-9.131
-9.302
-9.399
-9.427
-9.387
-9.282
-9.117
-8.896
-8.621
-8.297
-7.928
-7.518
-7.073
-6.596
-6.092
-5.565
-5.021
-4.462
-3.895
-3.324
-2.752
-2.184
-1.624
-1.077
-0.546
-0.035
0.451
0.91
1.338
1.731
2.086
2.401
2.672
2.896
3.072
3.196
3.265
3.279
3.234
3.13
2.965
2.737
2.445
2.089
1.668
1.181
0.628
0.01
-0.674
-1.423
-2.235
-3.11
-4.046
-5.041
-6.092
-7.197
-8.354
-9.558
-10.807
-12.097
-13.425
-14.785
-16.172
-17.583
-19.011
-20.451
-21.896
-23.341
-24.778
-26.201
-27.604
-28.98
-30.322
-31.622
-32.875
-34.072
-35.207
-36.271
-37.259
-38.163
-38.976
-39.691
-40.305
-40.811
-41.204
-41.481
-41.638
-41.67
-41.576
-41.353
-40.998
-40.51
-39.888
-39.133
-38.244
-37.225
-36.076
-34.802
-33.407
-31.896
-30.274
-28.547
-26.72
-24.799
-22.788
-20.695
-18.525
-16.285
-13.982
-11.625
-9.222
-6.782
-4.315
-1.828
0.671
3.176
5.682
8.184
10.676
13.155
15.616
18.053
20.455
22.811
25.114
27.356
29.536
31.653
33.71
35.715
37.677
39.608
41.516
43.407
45.278
47.125
48.947
50.743
52.523
54.302
56.089
57.898
59.739
61.622
63.545
65.488
67.416
69.289
71.069
72.737
74.278
75.669
76.913
78.046
79.111
80.189
81.358
82.642
84.092
85.791
87.731
89.865
92.08
94.11
95.741
96.858
97.263
96.796
95.513
93.567
91.352
89.583
88.864
89.735
92.867
98.792
107.747
119.745
134.363
150.735
167.993
185.105
200.758
213.661
222.639
226.765
225.524
218.795
206.701
189.807
169.158
146.099
122.18
98.904
77.641
59.607
45.723
36.44
31.71
31.07
33.753
38.869
45.435
52.434
58.962
64.426
68.566
71.37
72.989
73.669
73.713
73.484
73.352
73.518
74
74.74
75.607
76.468
77.211
77.697
77.777
77.394
76.556
75.306
73.732
71.903
69.871
67.707
65.467
63.186
60.893
58.597
56.288
53.973
51.649
49.311
46.956
44.577
42.157
39.686
37.15
34.529
31.809
28.971
26
22.896
19.655
16.283
12.788
9.18
5.469
1.673
-2.195
-6.118
-10.082
-14.071
-18.069
-22.057
-26.015
-29.924
-33.764
-37.518
-41.171
-44.706
-48.109
-51.367
-54.468
-57.403
-60.162
-62.732
-65.106
-67.275
-69.23
-70.966
-72.479
-73.765
-74.823
-75.651
-76.254
-76.634
-76.797
-76.75
-76.502
-76.064
-75.448
-74.666
-73.733
-72.664
-71.474
-70.181
-68.802
-67.353
-65.855
-64.327
-62.789
-61.263
-59.768
-58.325
-56.952
-55.671
-54.499
-53.456
-52.557
-51.82
-51.26
-50.896
-50.75
-50.837
-51.17
-51.755
-52.596
-53.695
-55.051
-56.658
-58.501
-60.565
-62.835
-65.299
-67.95
-70.775
-73.753
-76.857
-80.052
-83.316
-86.641
-90.02
-93.448
-96.923
-100.44
-104.01
-107.67
-111.447
-115.357
-119.411
-123.608
-127.959
-132.508
-137.299
-142.343
-147.621
-153.053
-158.516
-163.907
-169.134
-174.068
-178.559
-182.532
-185.959
-188.93
-191.763
-194.676
-197.725
-201.099
-204.543
-207.607
-210.44
-212.651
-214.304
-215.765
-215.487
-212.268
-204.603
-190.902
-172.761
-151.987
-130.368
-110.114
-91.168
-73.59
-58.25
-45.485
-36.128
-30.614
-28.607
-29.917
-34.227
-41.021
-49.607
-59.114
-68.858
-78.44
-87.521
-95.726
-102.657
-107.939
-111.534
-113.707
-114.707
-114.747
-114.078
-112.997
-111.838
-110.963
-110.561
-110.613
-111.051
-111.777
-112.664
-113.583
-114.429
-115.106
-115.556
-115.789
-115.839
-115.759
-115.636
-115.562
-115.585
-115.728
-116.005
-116.42
-116.985
-117.704
-118.542
-119.441
-120.357
-121.263
-122.157
-123.047
-123.924
-124.777
-125.604
-126.405
-127.191
-127.964
-128.707
-129.394
-129.998
-130.503
-130.908
-131.216
-131.423
-131.516
-131.477
-131.296
-130.975
-130.517
-129.925
-129.205
-128.364
-127.426
-126.435
-125.435
-124.475
-123.601
-122.84
-122.235
-121.835
-121.656
-121.72
-122.007
-122.432
-122.935
-123.456
-123.891
-124.177
-124.318
-124.283
-124.135
-124.087
-124.207
-124.486
-125.005
-125.303
-124.791
-123.465
-120.852
-117.102
-112.736
-106.494
-97.595
-85.146
-68.041
-48.004
-26.805
-5.888
13.019
30.365
46.736
62.174
77.089
91.149
104.083
116.05
126.988
136.862
145.611
153.041
159.018
163.466
166.283
167.411
166.835
164.571
160.69
155.299
148.525
140.525
131.469
121.535
110.908
99.78
88.35
76.794
65.253
53.859
42.735
32.009
21.825
12.317
3.595
-4.248
-11.139
-17.032
-21.899
-25.744
-28.61
-30.559
-31.669
-32.011
-31.64
-30.623
-29.045
-27.004
-24.615
-21.99
-19.225
-16.428
-13.714
-11.181
-8.917
-6.975
-5.366
-4.088
-3.13
-2.477
-2.124
-2.039
-2.154
-2.399
-2.704
-3.006
-3.261
-3.394
-3.275
-2.792
-1.884
-0.542
1.154
3.099
5.219
7.403
9.459
11.217
12.605
13.633
14.454
15.37
16.658
18.57
21.489
25.187
28.541
30.607
30.578
29.006
28.498
30.421
33.632
33.707
23.075
-3.81
-47.188
-101.35
-155.85
-200.61
-230.14
-244.299
-247.116
-243.955
-238.25
-231.894
-226.32
-222.09
-220.458
-221.809
-224.338
-226.66
-227.361
-226.026
-224.167
-222.665
-221.976
-222.119
-222.328
-222.353
-222.179
-221.792
-221.428
-221.181
-221.033
-221.045
-221.15
-221.2
-221.212
-221.188
-221.083
-220.895
-220.557
-219.966
-219.118
-218.033
-216.674
-215.023
-213.067
-210.774
-208.174
-205.306
-202.189
-198.843
-195.297
-191.57
-187.695
-183.709
-179.64
-175.518
-171.368
-167.204
-163.045
-158.904
-154.79
-150.716
-146.686
-142.702
-138.769
-134.894
-131.082
-127.344
-123.686
-120.118
-116.65
-113.291
-110.049
-106.934
-103.955
-101.123
-98.454
-95.96
-93.653
-91.538
-89.62
-87.906
-86.407
-85.134
-84.1
-83.292
-82.688
-82.306
-82.16
-82.274
-82.688
-83.368
-84.26
-85.374
-86.72
-88.262
-89.97
-91.741
-93.412
-94.997
-96.573
-98.185
-99.92
-101.855
-104.031
-106.629
-109.931
-114.001
-118.789
-124.155
-129.824
-135.617
-141.429
-147.025
-152.078
-156.386
-159.875
-162.663
-165.063
-167.265
-169.363
-171.498
-173.849
-176.589
-179.821
-183.464
-187.285
-191.12
-194.89
-198.537
-202.02
-205.254
-208.167
-210.773
-213.159
-215.395
-217.515
-219.52
-221.391
-223.131
-224.757
-226.272
-227.668
-228.933
-230.061
-231.056
-231.935
-232.708
-233.382
-233.958
-234.436
-234.816
-235.102
-235.296
-235.4
-235.417
-235.345
-235.184
-234.936
-234.598
-234.173
-233.657
-233.051
-232.351
-231.556
-230.667
-229.683
-228.604
-227.431
-226.164
-224.8
-223.34
-221.785
-220.135
-218.389
-216.548
-214.613
-212.586
-210.468
-208.261
-205.969
-203.593
-201.136
-198.603
-195.997
-193.323
-190.585
-187.788
-184.938
-182.04
-179.102
-176.129
-173.128
-170.106
-167.069
-164.026
-160.983
-157.948
-154.927
-151.928
-148.959
-146.027
-143.138
-140.3
-137.52
-134.804
-132.158
-129.59
-127.103
-124.704
-122.398
-120.19
-118.083
-116.081
-114.188
-112.406
-110.738
-109.186
-107.75
-106.433
-105.234
-104.153
-103.189
-102.342
-101.609
-100.99
-100.48
-100.078
-99.78
-99.582
-99.481
-99.471
-99.548
-99.706
-99.941
-100.246
-100.615
-101.041
-101.519
-102.041
-102.601
-103.192
-103.805
-104.435
-105.074
-105.715
-106.351
-106.974
-107.577
-108.153
-108.696
-109.199
-109.654
-110.057
-110.401
-110.679
-110.888
-111.021
-111.075
-111.043
-110.923
-110.711
-110.404
-109.999
-109.494
-108.887
-108.178
-107.366
-106.452
-105.435
-104.316
-103.098
-101.783
-100.373
-98.871
-97.281
-95.608
-93.856
-92.031
-90.137
-88.182
-86.172
-84.114
-82.015
-79.883
-77.725
-75.549
-73.363
-71.177
-68.998
-66.835
-64.696
-62.59
-60.525
-58.511
-56.553
-54.66
-52.84
-51.098
-49.442
-47.877
-46.41
-45.045
-43.788
-42.643
-41.613
-40.702
-39.912
-39.245
-38.703
-38.284
-37.989
-37.817
-37.766
-37.834
-38.018
-38.315
-38.721
-39.232
-39.842
-40.547
-41.34
-42.214
-43.162
-44.178
-45.253
-46.379
-47.55
-48.759
-49.997
-51.259
-52.535
-53.82
-55.106
-56.385
-57.65
-58.895
-60.112
-61.295
-62.439
-63.539
-64.59
-65.591
-66.537
-67.427
-68.259
-69.033
-69.746
-70.397
-70.986
-71.51
-71.97
-72.364
-72.695
-72.964
-73.173
-73.327
-73.428
-73.481
-73.488
-73.451
-73.372
-73.254
-73.098
-72.903
-72.674
-72.416
-72.136
-71.846
-71.553
-71.261
-70.975
-70.696
-70.421
-70.147
-69.861
-69.549
-69.201
-68.813
-68.387
-67.932
-67.45
-66.943
-66.408
-65.837
-65.23
-64.589
-63.909
-63.188
-62.429
-61.651
-60.904
-60.247
-59.723
-59.368
-59.198
-59.22
-59.461
-59.914
-60.545
-61.305
-62.096
-62.844
-63.52
-64.067
-64.436
-64.635
-64.682
-64.661
-64.768
-65.143
-65.896
-67.19
-69.061
-71.399
-74.009
-76.52
-78.454
-79.375
-78.823
-76.277
-71.345
-63.85
-53.879
-41.804
-28.503
-15.29
-3.371
6.198
13.512
19.524
24.309
26.886
23.877
11.229
-12.657
-46.953
-86.356
-123.638
-153.755
-173.205
-182.822
-186.397
-186.428
-185.218
-183.081
-178.558
-171.673
-162.995
-153.637
-145.323
-138.816
-134.36
-132.168
-132.002
-133.484
-136.101
-139.077
-141.852
-144.143
-145.699
-146.329
-145.931
-144.465
-142.136
-139.406
-136.642
-134.114
-132.146
-131.005
-130.841
-131.866
-133.743
-135.433
-136.499
-136.713
-136.17
-135.924
-135.049
-130.952
-121.246
-103.083
-76.733
-45.662
-13.114
17.404
44.336
68.363
89.471
107.493
121.963
131.968
137.456
138.874
136.605
131.219
123.339
113.667
103.013
91.926
80.771
69.89
59.732
50.917
43.845
38.524
34.764
32.357
31.067
30.652
30.7
30.547
29.717
28.018
25.399
21.938
17.756
12.944
7.716
2.433
-2.671
-7.464
-11.882
-15.969
-19.762
-23.259
-26.523
-29.65
-32.699
-35.724
-38.752
-41.757
-44.733
-47.684
-50.589
-53.419
-56.121
-58.614
-60.819
-62.682
-64.137
-65.131
-65.658
-65.799
-65.71
-65.592
-65.617
-65.882
-66.421
-67.26
-68.303
-69.128
-69.056
-67.4
-63.469
-57.076
-48.591
-37.689
-23.884
-6.706
14.876
39.763
65.143
88.439
106.399
118.315
126.456
132.895
140.123
149.049
158.333
167.116
174.821
181.477
187.919
194.374
200.574
206.111
210.471
213.519
215.342
215.971
215.569
214.323
212.494
210.579
208.975
207.868
207.379
207.499
208.102
209.125
210.398
211.502
212.046
211.621
209.767
206.222
200.801
193.3
183.664
172.018
158.553
143.689
128.02
112.019
96.148
80.819
66.299
52.843
40.649
29.672
19.675
10.386
1.514
-7.095
-15.442
-23.554
-31.386
-38.689
-44.978
-49.539
-51.644
-50.726
-46.415
-38.473
-26.789
-11.493
6.896
27.52
49.422
71.665
93.491
114.316
133.573
150.886
166.226
179.782
191.886
202.945
213.191
222.761
231.865
240.602
248.912
256.669
263.633
269.505
274.13
277.411
279.234
279.598
278.58
276.302
272.955
268.794
264.056
258.961
253.751
248.574
243.488
238.572
233.951
229.688
225.79
222.248
218.945
215.851
213.138
210.886
209.076
207.767
207.069
207.17
208.457
211.165
215.175
220.381
226.684
233.827
241.49
249.166
256.066
261.565
265.424
267.49
267.719
266.244
263.262
259.195
254.755
250.546
246.917
244.119
242.271
241.388
241.465
242.353
243.725
245.32
246.981
248.607
250.178
251.695
253.135
254.536
255.977
257.486
259.067
260.705
262.371
264.083
265.874
267.738
269.663
271.65
273.638
275.563
277.351
278.824
279.822
280.231
279.96
279.031
277.674
276.208
274.943
274.319
274.754
276.64
280.398
286.2
293.809
302.768
312.554
322.445
331.696
339.483
344.792
346.904
345.546
340.694
332.549
321.56
308.249
293.326
277.767
262.302
247.402
233.417
220.461
208.516
197.557
187.401
177.76
168.538
159.727
151.364
143.606
136.554
130.271
124.869
120.384
116.771
113.994
111.948
110.513
109.714
109.552
110.029
111.287
113.367
116.17
119.637
123.576
127.571
131.282
134.331
136.116
136.229
134.464
130.619
124.811
117.469
108.929
99.647
90.334
81.549
73.778
67.512
62.832
59.556
57.571
56.61
56.259
56.157
55.8
54.695
52.681
49.709
45.73
40.808
34.993
28.407
21.41
14.313
7.254
0.359
-6.307
-12.704
-18.701
-24.286
-29.625
-34.82
-39.924
-44.979
-49.949
-54.831
-59.687
-64.505
-69.202
-73.725
-78.022
-82.063
-85.866
-89.424
-92.705
-95.702
-98.411
-100.831
-102.969
-104.819
-106.364
-107.595
-108.505
-109.093
-109.363
-109.317
-108.961
-108.301
-107.346
-106.108
-104.601
-102.84
-100.84
-98.62
-96.197
-93.59
-90.821
-87.911
-84.883
-81.758
-78.56
-75.309
-72.028
-68.742
-65.472
-62.24
-59.07
-55.982
-52.998
-50.138
-47.422
-44.869
-42.496
-40.321
-38.359
-36.624
-35.129
-33.886
-32.904
-32.193
-31.758
-31.606
-31.74
-32.162
-32.873
-33.873
-35.159
-36.727
-38.574
-40.692
-43.074
-45.712
-48.596
-51.715
-55.058
-58.611
-62.361
-66.295
-70.398
-74.655
-79.05
-83.568
-88.191
-92.905
-97.692
-102.538
-107.424
-112.337
-117.259
-122.176
-127.074
-131.937
-136.752
-141.506
-146.187
-150.783
-155.282
-159.675
-163.952
-168.104
-172.123
-176.003
-179.736
-183.318
-186.743
-190.009
-193.111
-196.049
-198.819
-201.422
-203.857
-206.125
-208.227
-210.165
-211.941
-213.558
-215.02
-216.329
-217.491
-218.51
-219.391
-220.139
-220.76
-221.259
-221.643
-221.917
-222.088
-222.161
-222.145
-222.044
-221.866
-221.616
-221.303
-220.931
-220.507
-220.037
-219.528
-218.985
-218.413
-217.819
-217.207
-216.582
-215.949
-215.312
-214.675
-214.041
-213.415
-212.799
-212.196
-211.608
-211.036
-210.483
-209.949
-209.435
-208.942
-208.469
-208.016
-207.582
-207.166
-206.767
-206.382
-206.009
-205.645
-205.288
-204.934
-204.58
-204.222
-203.856
-203.477
-203.082
-202.666
-202.224
-201.752
-201.246
-200.7
-200.111
-199.474
-198.785
-198.04
-197.236
-196.368
-195.434
-194.431
-193.356
-192.208
-190.984
-189.683
-188.303
-186.845
-185.308
-183.692
-181.998
-180.226
-178.379
-176.459
-174.466
-172.405
-170.278
-168.089
-165.841
-163.539
-161.186
-158.787
-156.346
-153.868
-151.358
-148.82
-146.26
-143.68
-141.088
-138.485
-135.876
-133.266
-130.657
-128.053
-125.456
-122.87
-120.295
-117.734
-115.187
-112.657
-110.142
-107.644
-105.16
-102.692
-100.237
-97.793
-95.358
-92.93
-90.505
-88.081
-85.653
-83.218
-80.772
-78.311
-75.829
-73.323
-70.787
-68.219
-65.612
-62.963
-60.268
-57.522
-54.723
-51.866
-48.95
-45.972
-42.93
-39.822
-36.647
-33.406
-30.097
-26.723
-23.283
-19.78
-16.217
-12.596
-8.92
-5.195
-1.425
2.385
6.228
10.099
13.991
17.895
21.805
25.711
29.606
33.481
37.326
41.132
44.889
48.589
52.222
55.777
59.246
62.619
65.887
69.042
72.075
74.978
77.743
80.362
82.829
85.137
87.281
89.255
91.054
92.675
94.113
95.367
96.434
97.312
98.001
98.501
98.813
98.937
98.876
98.633
98.21
97.613
96.844
95.91
94.817
93.571
92.178
90.647
88.984
87.198
85.297
83.289
81.185
78.991
76.72
74.379
71.979
69.529
67.04
64.52
61.98
59.429
56.877
54.331
51.801
49.296
46.824
44.393
42.01
39.684
37.42
35.227
33.11
31.075
29.126
27.267
25.503
23.837
22.272
20.81
19.452
18.2
17.056
16.019
15.09
14.267
13.549
12.932
12.414
11.992
11.661
11.418
11.256
11.172
11.162
11.218
11.338
11.513
11.737
12.003
12.304
12.633
12.979
13.335
13.693
14.045
14.386
14.707
15.005
15.273
15.506
15.701
15.853
15.957
16.007
15.999
15.928
15.793
15.593
15.327
14.993
14.594
14.133
13.611
13.03
12.389
11.681
10.905
10.061
9.152
8.184
7.16
6.088
4.982
3.867
2.765
1.694
0.665
-0.32
-1.253
-2.123
-2.917
-3.619
-4.222
-4.725
-5.117
-5.379
-5.496
-5.471
-5.331
-5.134
-4.932
-4.756
-4.64
-4.615
-4.71
-4.926
-5.223
-5.501
-5.652
-5.6
-5.286
-4.639
-3.621
-2.273
-0.726
0.775
1.956
2.642
2.681
1.881
0.166
-2.334
-5.258
-7.939
-9.64
-9.815
-7.835
-2.914
5.524
17.828
33.663
51.798
71.4
91.968
113.192
135.298
156.53
173.635
183.642
183.262
172.496
154.533
132.095
108.067
82.907
54.581
23.214
-8.869
-37.344
-56.856
-64.669
-61.945
-51.972
-38.442
-24.996
-12.889
-2.207
6.259
13.375
19.275
23.342
26.179
27.202
26.049
23.23
18.87
13.671
8.458
3.749
-0.088
-2.993
-5.043
-6.353
-7.09
-7.383
-7.423
-7.498
-7.747
-8.208
-8.904
-9.769
-10.746
-11.817
-12.9
-13.887
-14.732
-15.413
-15.93
-16.317
-16.585
-16.736
-16.795
-16.79
-16.743
-16.681
-16.61
-16.523
-16.422
-16.307
-16.181
-16.046
-15.9
-15.736
-15.555
-15.359
-15.153
-14.94
-14.72
-14.493
-14.258
-14.013
-13.756
-13.485
-13.199
-12.894
-12.571
-12.226
-11.861
-11.475
-11.068
-10.639
-10.186
-9.706
-9.197
-8.657
-8.083
-7.474
-6.826
-6.14
-5.413
-4.645
-3.836
-2.986
-2.093
-1.158
-0.181
0.839
1.902
3.008
4.154
5.342
6.568
7.831
9.13
10.46
11.819
13.204
14.61
16.036
17.475
18.924
20.379
21.835
23.286
24.728
26.156
27.564
28.946
30.297
31.613
32.889
34.119
35.299
36.425
37.492
38.497
39.437
40.306
41.103
41.825
42.469
43.034
43.518
43.92
44.24
44.478
44.635
44.712
44.71
44.632
44.48
44.257
43.967
43.613
43.201
42.734
42.218
41.659
41.062
40.433
39.778
39.102
38.412
37.715
37.015
36.32
35.635
34.966
34.318
33.698
33.111
32.562
32.055
31.595
31.187
30.832
30.536
30.3
30.127
30.018
29.976
30
30.092
30.252
30.479
30.772
31.13
31.55
32.032
32.572
33.167
33.815
34.513
35.257
36.045
36.873
37.738
38.637
39.566
40.522
41.502
42.502
43.519
44.55
45.591
46.64
47.694
48.75
49.807
50.863
51.915
52.963
54.004
55.036
56.06
57.072
58.074
59.063
60.039
61.004
61.956
62.895
63.822
64.737
65.638
66.526
67.398
68.252
69.087
69.9
70.69
71.455
72.192
72.9
73.578
74.226
74.842
75.425
75.974
76.484
76.953
77.378
77.755
78.082
78.355
78.573
78.732
78.834
78.877
78.861
78.782
78.632
78.407
78.105
77.724
77.268
76.742
76.151
75.505
74.819
74.109
73.389
72.674
71.966
71.269
70.584
69.917
69.275
68.665
68.085
67.525
66.975
66.42
65.847
65.239
64.561
63.776
62.842
61.719
60.384
58.824
57.037
55.019
52.759
50.276
47.613
44.854
42.11
39.491
37.071
34.922
33.133
31.723
30.675
29.953
29.403
28.869
28.236
27.406
26.369
25.319
24.539
24.258
24.826
26.614
29.99
35.371
42.947
52.485
63.49
75.514
88.016
100.24
111.308
120.127
125.648
127.675
126.327
121.092
111.861
98.114
79.539
58.229
35.96
14.693
-3.382
-18.868
-32.113
-43.4
-53.89
-62.86
-69.711
-74.549
-77.069
-77.98
-78.29
-78.316
-78.265
-78.153
-77.801
-77.208
-76.46
-75.447
-73.921
-71.77
-68.988
-65.661
-62.01
-58.195
-54.29
-50.422
-46.742
-43.351
-40.327
-37.689
-35.383
-33.366
-31.599
-30.045
-28.679
-27.463
-26.349
-25.283
-24.205
-23.07
-21.857
-20.544
-19.116
-17.566
-15.884
-14.08
-12.18
-10.206
-8.177
-6.112
-4.018
-1.913
0.18
2.237
4.23
6.141
7.961
9.68
11.293
12.796
14.188
15.475
16.669
17.778
18.808
19.765
20.653
21.479
22.25
22.974
23.658
24.308
24.929
25.527
26.108
26.677
27.238
27.793
28.347
28.903
29.464
30.036
30.623
31.23
31.86
32.519
33.211
33.94
34.709
35.521
36.38
37.288
38.248
39.261
40.331
41.459
42.647
43.895
45.206
46.581
48.019
49.521
51.087
52.718
54.413
56.17
57.99
59.869
61.807
63.799
65.845
67.938
70.077
72.256
74.47
76.713
78.98
81.265
83.56
85.858
88.152
90.434
92.695
94.929
97.126
99.278
101.376
103.411
105.374
107.257
109.051
110.747
112.337
113.813
115.166
116.389
117.475
118.417
119.209
119.846
120.323
120.636
120.781
120.756
120.559
120.19
119.649
118.937
118.055
117.007
115.797
114.429
112.909
111.243
109.438
107.503
105.445
103.275
101.001
98.635
96.187
93.668
91.09
88.465
85.805
83.122
80.427
77.734
75.053
72.397
69.778
67.206
64.692
62.246
59.878
57.597
55.411
53.328
51.354
49.496
47.759
46.148
44.665
43.314
42.097
41.014
40.067
39.254
38.575
38.027
37.607
37.313
37.141
37.086
37.143
37.306
37.571
37.931
38.379
38.909
39.513
40.186
40.92
41.707
42.541
43.415
44.322
45.255
46.208
47.174
48.149
49.125
50.099
51.064
52.018
52.954
53.871
54.763
55.629
56.466
57.272
58.044
58.781
59.483
60.147
60.775
61.364
61.916
62.43
62.907
63.347
63.751
64.121
64.456
64.759
65.03
65.27
65.482
65.665
65.822
65.954
66.061
66.146
66.209
66.251
66.272
66.275
66.26
66.226
66.175
66.108
66.024
65.923
65.807
65.674
65.525
65.36
65.178
64.98
64.764
64.531
64.279
64.01
63.721
63.412
63.084
62.734
62.363
61.969
61.552
61.112
60.647
60.157
59.64
59.097
58.526
57.927
57.298
56.639
55.95
55.229
54.476
53.69
52.871
52.017
51.128
50.204
49.243
48.246
47.21
46.137
45.024
43.872
42.679
41.446
40.172
38.856
37.497
36.095
34.65
33.161
31.628
30.051
28.428
26.761
25.048
23.29
21.487
19.639
17.746
15.808
13.825
11.797
9.726
7.612
5.455
3.255
1.015
-1.267
-3.588
-5.947
-8.344
-10.778
-13.246
-15.749
-18.284
-20.849
-23.444
-26.067
-28.717
-31.39
-34.087
-36.804
-39.541
-42.295
-45.064
-47.847
-50.643
-53.448
-56.261
-59.081
-61.906
-64.735
-67.565
-70.395
-73.224
-76.05
-78.872
-81.688
-84.498
-87.301
-90.095
-92.879
-95.653
-98.416
-101.167
-103.905
-106.63
-109.342
-112.04
-114.724
-117.393
-120.047
-122.686
-125.31
-127.918
-130.511
-133.088
-135.649
-138.195
-140.725
-143.24
-145.738
-148.22
-150.686
-153.134
-155.566
-157.98
-160.376
-162.752
-165.109
-167.445
-169.76
-172.052
-174.319
-176.561
-178.776
-180.962
-183.117
-185.239
-187.328
-189.38
-191.394
-193.368
-195.301
-197.188
-199.03
-200.823
-202.566
-204.254
-205.887
-207.462
-208.976
-210.428
-211.816
-213.136
-214.388
-215.569
-216.679
-217.716
-218.679
-219.566
-220.377
-221.113
-221.772
-222.355
-222.863
-223.297
-223.659
-223.95
-224.173
-224.331
-224.426
-224.46
-224.439
-224.364
-224.241
-224.072
-223.864
-223.621
-223.35
-223.058
-222.751
-222.437
-222.122
-221.813
-221.519
-221.244
-220.995
-220.775
-220.592
-220.452
-220.361
-220.325
-220.349
-220.437
-220.596
-220.831
-221.144
-221.539
-222.014
-222.569
-223.208
-223.934
-224.754
-225.671
-226.683
-227.789
-228.986
-230.27
-231.634
-233.064
-234.538
-236.036
-237.542
-239.041
-240.521
-241.966
-243.348
-244.646
-245.839
-246.908
-247.846
-248.651
-249.312
-249.838
-250.243
-250.543
-250.774
-250.967
-251.151
-251.355
-251.608
-251.936
-252.379
-252.994
-253.804
-254.786
-255.867
-256.921
-257.844
-258.55
-258.905
-258.731
-257.909
-256.458
-254.558
-252.521
-250.564
-248.87
-247.712
-247.32
-247.818
-248.726
-248.868
-247.515
-244.285
-239.382
-233.874
-226.67
-215.576
-199.212
-175.377
-145.052
-111.661
-76.688
-43.083
-13.442
11.437
28.294
34.264
29.044
12.231
-14.787
-47.759
-83.017
-115.632
-139.37
-151.819
-152.915
-145.438
-135.483
-126.773
-120.764
-117.247
-114.091
-110.661
-107.574
-105.528
-105.54
-107.736
-111.475
-116.22
-121.352
-126.338
-130.992
-135.193
-138.881
-142.138
-145.051
-147.684
-150.135
-152.494
-154.778
-156.975
-159.046
-160.919
-162.548
-163.916
-165.019
-165.882
-166.528
-166.991
-167.307
-167.525
-167.729
-167.974
-168.29
-168.665
-169.022
-169.28
-169.39
-169.289
-168.879
-168.096
-166.929
-165.459
-163.932
-162.567
-161.48
-160.73
-160.323
-160.167
-159.98
-159.216
-157.109
-152.893
-145.964
-135.865
-122.209
-104.751
-83.639
-59.438
-33.038
-5.508
22.181
49.131
74.338
96.884
116.203
132.06
144.572
154.137
161.117
165.908
169.087
171.175
172.512
173.294
173.486
172.883
171.309
168.606
164.578
159.141
152.362
144.394
135.493
126.015
116.319
106.653
97.242
88.247
79.617
71.27
63.159
55.121
47.376
40.686
35.537
32.196
30.195
28.239
26.257
25.64
29.111
40.274
60.744
89.585
124.218
160.146
193.294
221.417
242.929
258.769
271.57
283.084
295.26
308.566
321.71
334.303
346.124
357.181
368.261
379.519
390.62
401.34
411.217
419.748
426.764
432.2
436.048
438.498
439.642
439.403
437.85
435.118
431.231
426.196
419.875
411.979
402.44
391.339
378.753
364.903
350.072
334.574
318.972
303.88
289.757
277.051
266.078
256.902
249.502
243.69
239.041
235.191
231.845
228.659
225.398
221.95
218.248
214.393
210.604
206.983
203.558
200.344
197.294
194.366
191.535
188.708
185.762
182.637
179.32
175.834
172.248
168.624
165.01
161.46
158.047
154.844
151.927
149.371
147.222
145.504
144.237
143.423
143.043
143.059
143.422
144.058
144.898
145.855
146.815
147.712
148.511
149.198
149.816
150.406
151.005
151.742
152.799
154.234
156.034
158.125
160.175
161.856
162.867
162.671
161.219
159.24
157.35
156.288
155.695
153.454
148.943
143.096
139.47
144.837
163.009
194.79
237.777
284.968
331.131
372.341
404.744
426.809
436.049
430.295
410.41
379.465
343.333
308.859
280.689
260.162
245.325
232.661
219.658
205.794
192.347
181.353
173.795
169.473
167.401
166.061
164.461
162.118
158.812
154.673
149.855
144.483
138.78
133.009
127.416
122.229
117.523
113.234
109.266
105.5
101.824
98.119
94.272
90.205
85.947
81.636
77.418
73.415
69.73
66.45
63.643
61.362
59.585
58.178
56.99
55.882
54.776
53.706
52.818
52.319
52.469
53.61
56.141
60.484
66.924
75.529
86.077
98.092
111.014
124.144
136.551
147.175
155.01
159.151
159.041
154.451
145.217
131.499
113.895
93.248
70.58
47.043
23.589
1.076
-19.545
-37.672
-53.117
-65.892
-76.273
-84.676
-91.413
-96.901
-101.748
-106.34
-110.85
-115.341
-119.686
-123.719
-127.367
-130.487
-132.844
-134.323
-134.904
-134.638
-133.702
-132.302
-130.608
-128.802
-127.066
-125.52
-124.237
-123.266
-122.603
-122.227
-122.113
-122.221
-122.498
-122.913
-123.437
-124.033
-124.659
-125.256
-125.75
-126.098
-126.271
-126.249
-126.024
-125.59
-124.945
-124.107
-123.102
-121.955
-120.688
-119.318
-117.862
-116.34
-114.783
-113.219
-111.681
-110.193
-108.768
-107.42
-106.158
-104.985
-103.904
-102.911
-101.998
-101.157
-100.385
-99.68
-99.038
-98.456
-97.926
-97.443
-97
-96.591
-96.211
-95.854
-95.514
-95.188
-94.87
-94.558
-94.248
-93.938
-93.622
-93.295
-92.953
-92.591
-92.204
-91.787
-91.335
-90.843
-90.307
-89.725
-89.091
-88.404
-87.66
-86.857
-85.991
-85.06
-84.062
-82.996
-81.859
-80.651
-79.37
-78.015
-76.586
-75.083
-73.506
-71.856
-70.133
-68.338
-66.473
-64.54
-62.54
-60.476
-58.35
-56.167
-53.928
-51.638
-49.301
-46.921
-44.503
-42.051
-39.571
-37.069
-34.549
-32.019
-29.483
-26.948
-24.422
-21.909
-19.418
-16.955
-14.527
-12.14
-9.803
-7.521
-5.302
-3.152
-1.077
0.916
2.821
4.632
6.344
7.951
9.449
10.833
12.099
13.244
14.263
15.155
15.917
16.548
17.046
17.411
17.642
17.742
17.71
17.549
17.261
16.85
16.319
15.672
14.914
14.05
13.086
12.027
10.881
9.653
8.352
6.983
5.554
4.074
2.55
0.989
-0.6
-2.209
-3.83
-5.456
-7.079
-8.69
-10.283
-11.849
-13.381
-14.873
-16.318
-17.709
-19.04
-20.306
-21.503
-22.624
-23.667
-24.627
-25.502
-26.289
-26.985
-27.589
-28.099
-28.515
-28.836
-29.063
-29.195
-29.234
-29.181
-29.037
-28.805
-28.486
-28.082
-27.597
-27.034
-26.396
-25.686
-24.908
-24.067
-23.167
-22.211
-21.206
-20.155
-19.062
-17.934
-16.775
-15.589
-14.38
-13.155
-11.917
-10.67
-9.419
-8.169
-6.922
-5.684
-4.457
-3.245
-2.052
-0.88
0.266
1.385
2.474
3.53
4.55
5.533
6.476
7.378
8.237
9.051
9.819
10.54
11.214
11.84
12.417
12.946
13.425
13.857
14.24
14.575
14.863
15.103
15.298
15.447
15.55
15.61
15.626
15.599
15.53
15.419
15.268
15.076
14.845
14.574
14.266
13.919
13.536
13.115
12.659
12.168
11.641
11.081
10.486
9.859
9.198
8.505
7.78
7.023
6.235
5.415
4.565
3.684
2.774
1.835
0.868
-0.128
-1.15
-2.198
-3.27
-4.366
-5.484
-6.623
-7.779
-8.952
-10.14
-11.34
-12.549
-13.766
-14.988
-16.212
-17.435
-18.656
-19.871
-21.077
-22.272
-23.452
-24.616
-25.76
-26.882
-27.979
-29.049
-30.09
-31.099
-32.074
-33.014
-33.917
-34.782
-35.608
-36.394
-37.14
-37.846
-38.512
-39.138
-39.727
-40.278
-40.795
-41.278
-41.731
-42.156
-42.555
-42.934
-43.293
-43.639
-43.973
-44.302
-44.628
-44.956
-45.291
-45.637
-45.998
-46.38
-46.786
-47.22
-47.687
-48.19
-48.734
-49.321
-49.955
-50.639
-51.374
-52.163
-53.008
-53.909
-54.867
-55.883
-56.956
-58.085
-59.268
-60.505
-61.792
-63.127
-64.507
-65.927
-67.383
-68.87
-70.385
-71.92
-73.471
-75.031
-76.594
-78.153
-79.703
-81.236
-82.746
-84.225
-85.666
-87.064
-88.411
-89.7
-90.927
-92.083
-93.165
-94.166
-95.082
-95.908
-96.64
-97.275
-97.809
-98.24
-98.565
-98.783
-98.893
-98.895
-98.789
-98.576
-98.258
-97.837
-97.314
-96.694
-95.98
-95.175
-94.284
-93.311
-92.262
-91.142
-89.956
-88.712
-87.415
-86.073
-84.692
-83.278
-81.839
-80.382
-78.913
-77.439
-75.966
-74.501
-73.05
-71.621
-70.218
-68.849
-67.519
-66.232
-64.995
-63.811
-62.684
-61.617
-60.611
-59.671
-58.798
-57.994
-57.26
-56.599
-56.011
-55.5
-55.065
-54.705
-54.419
-54.204
-54.059
-53.981
-53.963
-54.003
-54.093
-54.23
-54.41
-54.627
-54.877
-55.153
-55.447
-55.753
-56.064
-56.374
-56.674
-56.955
-57.211
-57.44
-57.643
-57.819
-57.964
-58.074
-58.141
-58.161
-58.127
-58.025
-57.833
-57.532
-57.101
-56.528
-55.812
-54.944
-53.916
-52.715
-51.33
-49.757
-48.006
-46.075
-43.957
-41.654
-39.179
-36.571
-33.897
-31.214
-28.575
-26.026
-23.616
-21.382
-19.336
-17.446
-15.629
-13.79
-11.851
-9.746
-7.389
-4.738
-1.839
1.193
4.134
6.739
8.863
10.38
11.112
11.014
10.256
9.193
8.453
8.739
10.612
14.653
21.481
31.597
45.29
62.487
82.661
104.682
127.02
148.109
166.659
182.608
196.584
208.603
217.491
219.322
209.621
186.25
149.685
105.694
62.121
24.577
-2.751
-20.639
-33.021
-41.636
-47.643
-49.869
-44.694
-32.184
-15.023
3.453
18.203
27.577
33.493
37.256
40.738
44.392
46.412
46.094
43.329
38.384
32.564
26.891
21.92
18.025
15.216
13.366
12.35
12.031
12.228
12.675
13.085
13.276
13.175
12.797
12.212
11.485
10.67
9.857
9.152
8.615
8.267
8.103
8.089
8.198
8.42
8.73
9.102
9.513
9.945
10.39
10.852
11.332
11.828
12.342
12.87
13.414
13.979
14.565
15.169
15.79
16.425
17.072
17.729
18.398
19.077
19.77
20.474
21.19
21.917
22.653
23.399
24.153
24.911
25.67
26.43
27.188
27.944
28.698
29.447
30.19
30.926
31.654
32.371
33.075
33.763
34.431
35.078
35.7
36.296
36.862
37.396
37.896
38.36
38.785
39.168
39.508
39.801
40.046
40.239
40.379
40.463
40.49
40.457
40.364
40.208
39.99
39.707
39.36
38.948
38.47
37.928
37.322
36.652
35.919
35.127
34.276
33.369
32.409
31.399
30.342
29.242
28.103
26.929
25.725
24.495
23.243
21.976
20.697
19.413
18.128
16.849
15.581
14.329
13.098
11.895
10.723
9.589
8.497
7.451
6.457
5.518
4.639
3.823
3.072
2.391
1.782
1.246
0.786
0.403
0.099
-0.127
-0.273
-0.34
-0.329
-0.239
-0.074
0.167
0.481
0.865
1.318
1.836
2.416
3.055
3.749
4.496
5.29
6.128
7.006
7.919
8.864
9.837
10.832
11.847
12.878
13.921
14.972
16.028
17.087
18.144
19.196
20.241
21.275
22.297
23.303
24.292
25.261
26.209
27.133
28.034
28.91
29.759
30.581
31.376
32.142
32.879
33.586
34.263
34.911
35.528
36.116
36.675
37.204
37.703
38.173
38.614
39.023
39.401
39.745
40.055
40.33
40.569
40.772
40.939
41.071
41.168
41.233
41.265
41.265
41.232
41.168
41.071
40.942
40.779
40.583
40.355
40.095
39.807
39.492
39.153
38.789
38.399
37.984
37.548
37.094
36.629
36.161
35.702
35.266
34.874
34.544
34.294
34.14
34.093
34.163
34.36
34.689
35.161
35.776
36.53
37.415
38.422
39.531
40.725
41.974
43.235
44.47
45.638
46.697
47.611
48.351
48.897
49.242
49.383
49.332
49.112
48.75
48.283
47.757
47.213
46.707
46.315
46.113
46.193
46.669
47.648
49.238
51.526
54.559
58.328
62.755
67.734
73.142
78.853
84.751
90.704
96.608
102.57
108.913
115.892
123.748
132.292
140.857
149.499
158.455
168.053
179.16
190.531
199.441
203.381
199.162
186.31
167.357
144.78
121.69
99.634
77.916
56.407
35.335
15.523
-1.623
-15.584
-26.553
-34.948
-41.314
-46.015
-49.43
-52.175
-54.7
-57.197
-59.675
-61.964
-63.917
-65.47
-66.472
-66.66
-65.873
-64.074
-61.329
-57.843
-53.826
-49.465
-44.978
-40.584
-36.436
-32.628
-29.199
-26.129
-23.397
-20.993
-18.888
-17.052
-15.466
-14.117
-12.999
-12.102
-11.383
-10.763
-10.16
-9.509
-8.768
-7.921
-6.961
-5.885
-4.698
-3.416
-2.058
-0.648
0.802
2.288
3.82
5.401
7.016
8.623
10.17
11.617
12.937
14.115
15.14
15.997
16.679
17.189
17.541
17.744
17.804
17.715
17.468
17.052
16.468
15.728
14.849
13.849
12.737
11.526
10.227
8.856
7.424
5.938
4.398
2.808
1.174
-0.494
-2.181
-3.876
-5.569
-7.248
-8.906
-10.533
-12.118
-13.654
-15.133
-16.547
-17.89
-19.151
-20.319
-21.385
-22.341
-23.177
-23.888
-24.465
-24.901
-25.192
-25.333
-25.321
-25.153
-24.827
-24.341
-23.695
-22.889
-21.924
-20.803
-19.529
-18.106
-16.54
-14.837
-13.005
-11.052
-8.988
-6.823
-4.567
-2.234
0.166
2.617
5.108
7.624
10.15
12.671
15.171
17.636
20.05
22.398
24.663
26.831
28.887
30.819
32.611
34.252
35.729
37.031
38.149
39.073
39.795
40.308
40.606
40.686
40.545
40.181
39.594
38.785
37.759
36.519
35.072
33.424
31.584
29.563
27.372
25.023
22.53
19.909
17.173
14.341
11.43
8.456
5.439
2.396
-0.652
-3.688
-6.693
-9.647
-12.533
-15.332
-18.028
-20.603
-23.041
-25.327
-27.448
-29.39
-31.142
-32.692
-34.033
-35.156
-36.055
-36.725
-37.163
-37.368
-37.34
-37.08
-36.591
-35.878
-34.947
-33.806
-32.463
-30.928
-29.214
-27.331
-25.294
-23.117
-20.814
-18.403
-15.898
-13.317
-10.676
-7.993
-5.286
-2.571
0.135
2.814
5.449
8.026
10.528
12.942
15.252
17.446
19.512
21.438
23.215
24.834
26.286
27.567
28.669
29.59
30.325
30.875
31.238
31.415
31.407
31.219
30.854
30.317
29.614
28.751
27.736
26.578
25.284
23.866
22.331
20.692
18.958
17.141
15.25
13.299
11.297
9.255
7.185
5.098
3.003
0.911
-1.168
-3.226
-5.253
-7.241
-9.183
-11.071
-12.899
-14.662
-16.354
-17.97
-19.507
-20.962
-22.331
-23.613
-24.807
-25.912
-26.926
-27.852
-28.688
-29.438
-30.101
-30.682
-31.182
-31.604
-31.952
-32.23
-32.441
-32.59
-32.681
-32.719
-32.709
-32.656
-32.566
-32.442
-32.292
-32.12
-31.93
-31.73
-31.523
-31.315
-31.11
-30.915
-30.733
-30.569
-30.427
-30.313
-30.23
-30.183
-30.174
-30.208
-30.287
-30.415
-30.595
-30.828
-31.117
-31.464
-31.869
-32.335
-32.861
-33.447
-34.095
-34.802
-35.569
-36.393
-37.273
-38.207
-39.192
-40.226
-41.305
-42.425
-43.584
-44.776
-45.998
-47.244
-48.509
-49.789
-51.077
-52.368
-53.657
-54.938
-56.204
-57.45
-58.669
-59.856
-61.004
-62.109
-63.164
-64.164
-65.104
-65.979
-66.785
-67.517
-68.172
-68.747
-69.239
-69.645
-69.965
-70.195
-70.337
-70.388
-70.351
-70.225
-70.012
-69.714
-69.333
-68.872
-68.333
-67.721
-67.04
-66.294
-65.488
-64.626
-63.714
-62.758
-61.762
-60.734
-59.678
-58.601
-57.508
-56.406
-55.3
-54.196
-53.098
-52.011
-50.941
-49.891
-48.865
-47.867
-46.899
-45.963
-45.061
-44.196
-43.366
-42.574
-41.817
-41.095
-40.407
-39.75
-39.122
-38.52
-37.941
-37.38
-36.836
-36.302
-35.775
-35.25
-34.722
-34.185
-33.635
-33.066
-32.473
-31.849
-31.19
-30.491
-29.748
-28.955
-28.109
-27.207
-26.245
-25.22
-24.131
-22.975
-21.751
-20.458
-19.098
-17.67
-16.177
-14.621
-13.005
-11.334
-9.61
-7.841
-6.029
-4.182
-2.305
-0.404
1.515
3.444
5.375
7.301
9.212
11.1
12.955
14.768
16.529
18.231
19.865
21.425
22.902
24.292
25.589
26.788
27.886
28.877
29.756
30.522
31.17
31.701
32.115
32.412
32.593
32.662
32.623
32.481
32.239
31.899
31.457
30.915
30.278
29.552
28.745
27.864
26.92
25.932
24.926
23.93
22.962
22.035
21.156
20.333
19.583
18.924
18.369
17.923
17.589
17.377
17.306
17.381
17.592
17.897
18.234
18.547
18.801
18.966
19.003
18.888
18.625
18.255
17.874
17.585
17.442
17.491
17.801
18.389
19.21
20.164
21.04
21.635
21.848
21.575
20.682
19.162
17.179
15.078
13.432
12.829
13.741
16.682
22.182
30.655
42.32
57.049
74.345
93.242
112.391
130.369
146.043
159.329
170.676
179.812
185.187
183.35
171.097
147.995
115.915
79.178
42.091
6.446
-26.175
-54.307
-76.708
-91.247
-97.203
-95.864
-88.472
-76.391
-61.684
-46.127
-32.031
-22.376
-17.771
-17.024
-18.726
-20.626
-22.002
-23.813
-26.251
-29.428
-33.061
-36.035
-37.872
-38.61
-38.354
-37.487
-36.415
-35.393
-34.616
-34.25
-34.332
-34.807
-35.614
-36.64
-37.74
-38.775
-39.653
-40.32
-40.764
-41.009
-41.066
-40.95
-40.682
-40.289
-39.793
-39.209
-38.547
-37.815
-37.03
-36.219
-35.402
-34.594
-33.804
-33.037
-32.294
-31.577
-30.887
-30.219
-29.572
-28.947
-28.344
-27.764
-27.208
-26.675
-26.16
-25.66
-25.169
-24.684
-24.205
-23.728
-23.253
-22.779
-22.308
-21.841
-21.378
-20.919
-20.463
-20.007
-19.552
-19.097
-18.64
-18.181
-17.72
-17.258
-16.793
-16.329
-15.864
-15.4
-14.936
-14.474
-14.015
-13.558
-13.104
-12.655
-12.212
-11.775
-11.347
-10.927
-10.519
-10.124
-9.743
-9.377
-9.029
-8.7
-8.392
-8.106
-7.843
-7.606
-7.395
-7.213
-7.06
-6.937
-6.846
-6.788
-6.763
-6.772
-6.816
-6.895
-7.009
-7.157
-7.341
-7.56
-7.814
-8.102
-8.424
-8.78
-9.168
-9.589
-10.041
-10.523
-11.035
-11.574
-12.141
-12.733
-13.349
-13.988
-14.648
-15.328
-16.028
-16.744
-17.476
-18.223
-18.983
-19.754
-20.535
-21.326
-22.124
-22.928
-23.738
-24.552
-25.369
-26.189
-27.01
-27.831
-28.651
-29.47
-30.286
-31.098
-31.905
-32.706
-33.501
-34.288
-35.066
-35.835
-36.593
-37.339
-38.073
-38.791
-39.494
-40.179
-40.846
-41.492
-42.116
-42.717
-43.293
-43.842
-44.363
-44.853
-45.311
-45.733
-46.118
-46.464
-46.766
-47.023
-47.232
-47.39
-47.494
-47.543
-47.533
-47.462
-47.328
-47.128
-46.86
-46.522
-46.111
-45.626
-45.064
-44.425
-43.707
-42.912
-42.037
-41.085
-40.053
-38.944
-37.758
-36.495
-35.156
-33.743
-32.257
-30.7
-29.075
-27.387
-25.638
-23.835
-21.982
-20.086
-18.152
-16.185
-14.191
-12.176
-10.144
-8.1
-6.049
-3.995
-1.943
0.101
2.13
4.138
6.121
8.073
9.991
11.871
13.708
15.501
17.247
18.946
20.593
22.181
23.7
25.144
26.508
27.792
28.997
30.123
31.176
32.166
33.114
34.04
34.959
35.877
36.792
37.706
38.625
39.557
40.516
41.502
42.51
43.542
44.605
45.703
46.822
47.92
48.929
49.78
50.429
50.84
50.979
50.83
50.399
49.718
48.87
47.962
47.061
46.246
45.603
45.117
44.733
44.348
43.74
42.732
41.22
39.012
35.953
32.137
27.804
23.431
19.785
17.475
17.042
19.164
24.383
32.943
44.767
59.25
75.373
92.155
108.418
122.815
134.102
141.037
143.121
140.356
132.414
119.553
101.703
78.933
53.504
27.422
2.89
-17.668
-34.755
-49.04
-61.168
-72.531
-82.663
-91.182
-98.366
-104.177
-109.362
-114.539
-119.71
-124.868
-129.755
-134.033
-137.502
-139.92
-141.092
-140.961
-139.531
-136.869
-133.114
-128.442
-123.061
-117.231
-111.174
-105.041
-98.944
-92.961
-87.162
-81.629
-76.431
-71.597
-67.152
-63.129
-59.569
-56.535
-54.07
-52.17
-50.813
-49.95
-49.516
-49.469
-49.772
-50.372
-51.221
-52.261
-53.424
-54.674
-55.985
-57.327
-58.668
-59.956
-61.148
-62.226
-63.188
-64.044
-64.815
-65.51
-66.134
-66.714
-67.275
-67.85
-68.481
-69.187
-69.974
-70.853
-71.833
-72.928
-74.152
-75.503
-76.969
-78.538
-80.194
-81.927
-83.726
-85.566
-87.422
-89.265
-91.064
-92.796
-94.447
-95.997
-97.432
-98.736
-99.897
-100.906
-101.762
-102.457
-102.985
-103.342
-103.519
-103.516
-103.332
-102.967
-102.423
-101.7
-100.799
-99.719
-98.465
-97.035
-95.432
-93.657
-91.712
-89.598
-87.32
-84.883
-82.293
-79.556
-76.681
-73.674
-70.545
-67.303
-63.957
-60.516
-56.991
-53.391
-49.728
-46.014
-42.258
-38.473
-34.672
-30.866
-27.067
-23.288
-19.541
-15.838
-12.191
-8.612
-5.113
-1.706
1.597
4.786
7.849
10.775
13.556
16.18
18.639
20.926
23.032
24.951
26.677
28.205
29.531
30.653
31.567
32.273
32.77
33.059
33.141
33.02
32.699
32.183
31.476
30.587
29.522
28.289
26.898
25.359
23.682
21.879
19.961
17.941
15.831
13.646
11.397
9.1
6.767
4.414
2.053
-0.301
-2.635
-4.935
-7.189
-9.383
-11.507
-13.548
-15.495
-17.339
-19.071
-20.681
-22.162
-23.508
-24.712
-25.769
-26.675
-27.427
-28.023
-28.46
-28.74
-28.861
-28.825
-28.633
-28.289
-27.795
-27.155
-26.374
-25.455
-24.405
-23.23
-21.935
-20.526
-19.011
-17.396
-15.688
-13.894
-12.021
-10.076
-8.065
-5.996
-3.875
-1.707
0.501
2.743
5.015
7.312
9.627
11.959
14.302
16.654
19.01
21.369
23.727
26.082
28.433
30.776
33.111
35.436
37.75
40.05
42.336
44.606
46.859
49.095
51.311
53.507
55.682
57.834
59.961
62.063
64.138
66.185
68.201
70.185
72.136
74.052
75.93
77.769
79.566
81.321
83.03
84.693
86.306
87.869
89.38
90.838
92.241
93.588
94.88
96.117
97.297
98.423
99.494
100.512
101.479
102.397
103.267
104.093
104.878
105.624
106.336
107.016
107.669
108.3
108.911
109.508
110.095
110.677
111.257
111.84
112.432
113.036
113.656
114.296
114.961
115.653
116.376
117.133
117.926
118.757
119.628
120.538
121.489
122.481
123.513
124.584
125.692
126.834
128.009
129.214
130.444
131.696
132.965
134.247
135.538
136.831
138.123
139.407
140.678
141.931
143.16
144.358
145.521
146.642
147.715
148.736
149.698
150.595
151.424
152.179
152.854
153.446
153.95
154.363
154.68
154.898
155.014
155.026
154.93
154.724
154.407
153.976
153.43
152.767
151.987
151.087
150.068
148.927
147.665
146.279
144.771
143.138
141.381
139.498
137.491
135.358
133.1
130.718
128.21
125.578
122.822
119.943
116.943
113.821
110.581
107.224
103.752
100.167
96.473
92.672
88.768
84.766
80.669
76.482
72.211
67.861
63.438
58.949
54.402
49.804
45.163
40.488
35.788
31.073
26.352
21.636
16.934
12.258
7.618
3.024
-1.511
-5.978
-10.364
-14.659
-18.851
-22.931
-26.887
-30.71
-34.39
-37.918
-41.285
-44.483
-47.504
-50.342
-52.99
-55.441
-57.692
-59.737
-61.574
-63.198
-64.609
-65.806
-66.788
-67.558
-68.116
-68.465
-68.609
-68.551
-68.297
-67.851
-67.22
-66.411
-65.43
-64.286
-62.988
-61.545
-59.968
-58.267
-56.452
-54.534
-52.524
-50.434
-48.274
-46.055
-43.79
-41.488
-39.162
-36.823
-34.483
-32.153
-29.844
-27.568
-25.334
-23.153
-21.032
-18.98
-17.002
-15.105
-13.292
-11.568
-9.937
-8.403
-6.97
-5.641
-4.419
-3.304
-2.296
-1.392
-0.588
0.121
0.745
1.291
1.767
2.175
2.515
2.792
3.013
3.187
3.324
3.437
3.54
3.654
3.809
4.026
4.32
4.7
5.163
5.712
6.355
7.103
7.97
8.973
10.114
11.401
12.848
14.456
16.22
18.121
20.105
22.133
24.184
26.242
28.313
30.403
32.498
34.57
36.622
38.68
40.807
43.107
45.652
48.497
51.734
55.497
59.883
64.88
70.331
75.897
81.237
86.118
90.301
93.578
95.908
97.41
98.442
99.74
102.103
106.212
112.797
122.405
135.239
151.401
170.703
192.32
215.262
238.125
258.753
275.678
287.955
294.973
297.684
296.182
288.977
274.755
250.642
215.098
171.061
122.941
78.106
44.594
25.096
19.367
23.817
32.107
41.245
50.411
59.849
71.494
85.621
100.963
116.342
130.244
141.637
150.466
156.973
161.461
164.327
166.015
166.86
167.319
168.045
169.382
171.418
174.178
177.49
181.113
184.916
188.672
192.037
194.871
197.161
198.938
200.368
201.585
202.644
203.662
204.779
206.066
207.577
209.334
211.306
213.504
215.951
218.633
221.532
224.605
227.788
231.04
234.326
237.614
240.893
244.148
247.369
250.562
253.734
256.885
260.012
263.092
266.091
268.983
271.747
274.371
276.86
279.221
281.456
283.576
285.58
287.463
289.222
290.846
292.318
293.633
294.79
295.807
296.728
297.605
298.512
299.503
300.584
301.722
302.831
303.817
304.623
305.17
305.347
305.14
304.635
304.029
303.659
303.798
304.539
305.965
308.13
310.859
313.818
316.454
317.95
317.628
315.049
309.804
301.531
290.124
275.684
258.641
239.802
219.903
199.527
179.311
159.994
142.276
126.746
113.721
103.13
94.846
88.852
85.098
83.313
83.043
83.728
84.833
86.081
87.298
88.054
87.733
85.813
81.888
75.768
67.473
56.88
43.82
28.521
11.555
-6.367
-24.396
-41.844
-58.224
-72.918
-85.338
-95.245
-102.668
-107.88
-111.421
-113.776
-115.397
-116.893
-118.79
-121.421
-125.004
-129.555
-134.913
-140.919
-147.341
-153.839
-160.151
-166.107
-171.585
-176.567
-181.081
-185.151
-188.854
-192.309
-195.591
-198.739
-201.762
-204.636
-207.346
-209.896
-212.282
-214.497
-216.544
-218.433
-220.189
-221.84
-223.411
-224.915
-226.361
-227.752
-229.097
-230.401
-231.673
-232.916
-234.135
-235.33
-236.505
-237.665
-238.813
-239.952
-241.08
-242.201
-243.314
-244.425
-245.536
-246.652
-247.773
-248.902
-250.04
-251.19
-252.353
-253.53
-254.722
-255.929
-257.155
-258.401
-259.67
-260.963
-262.284
-263.634
-265.016
-266.43
-267.878
-269.362
-270.88
-272.434
-274.024
-275.651
-277.317
-279.022
-280.767
-282.553
-284.379
-286.247
-288.157
-290.105
-292.087
-294.102
-296.147
-298.222
-300.33
-302.471
-304.64
-306.834
-309.047
-311.27
-313.493
-315.699
-317.866
-319.976
-322.011
-323.955
-325.8
-327.528
-329.126
-330.583
-331.882
-333.015
-333.979
-334.773
-335.402
-335.885
-336.239
-336.487
-336.665
-336.798
-336.922
-337.074
-337.281
-337.579
-337.99
-338.529
-339.237
-340.115
-341.117
-342.18
-343.18
-343.983
-344.518
-344.665
-344.259
-343.269
-341.731
-339.751
-337.612
-335.499
-333.492
-331.782
-330.532
-329.657
-328.923
-327.894
-325.905
-322.439
-317.018
-308.976
-297.758
-283.46
-266.817
-248.713
-229.847
-209.874
-188.078
-165.115
-143.296
-126.39
-117.791
-118.892
-128.913
-145.57
-166.898
-191.24
-216.672
-240.801
-260.747
-274.633
-282.75
-287.652
-292.468
-299.18
-308.001
-317.385
-325.837
-332.879
-338.844
-344.566
-350.366
-355.952
-360.829
-364.494
-366.785
-367.749
-367.394
-365.762
-362.916
-358.949
-354.039
-348.399
-342.207
-335.617
-328.784
-321.839
-314.907
-308.099
-301.505
-295.2
-289.237
-283.651
-278.455
-273.657
-269.275
-265.337
-261.882
-258.926
-256.444
-254.391
-252.709
-251.333
-250.205
-249.262
-248.426
-247.615
-246.773
-245.867
-244.883
-243.817
-242.648
-241.343
-239.858
-238.167
-236.262
-234.15
-231.842
-229.35
-226.694
-223.902
-221.022
-218.108
-215.195
-212.301
-209.431
-206.587
-203.776
-201.01
-198.304
-195.661
-193.08
-190.559
-188.094
-185.682
-183.315
-180.976
-178.637
-176.27
-173.854
-171.374
-168.826
-166.203
-163.502
-160.716
-157.844
-154.886
-151.843
-148.715
-145.5
-142.193
-138.795
-135.306
-131.735
-128.089
-124.376
-120.599
-116.759
-112.858
-108.9
-104.894
-100.846
-96.763
-92.654
-88.534
-84.422
-80.346
-76.329
-72.386
-68.533
-64.779
-61.14
-57.634
-54.273
-51.064
-48.009
-45.097
-42.321
-39.674
-37.136
-34.675
-32.249
-29.803
-27.295
-24.697
-21.973
-19.091
-16.01
-12.682
-9.076
-5.184
-1.002
3.458
8.183
13.167
18.379
23.761
29.251
34.772
40.264
45.701
51.02
56.12
60.879
65.132
68.748
71.657
73.81
75.164
75.746
75.658
75.112
74.473
74.137
74.441
75.608
77.768
80.949
85.032
89.8
94.793
99.28
102.549
103.999
103.616
102.303
101.145
101.216
102.558
103.359
102.525
100.509
100.26
109.166
134.077
178.382
242.113
318.539
398.431
474.34
539.313
589.85
625.256
645.279
652.076
650.099
644.828
642.247
646.71
658.901
676.535
695.542
711.888
723.824
731.659
737.488
744.366
753.629
764.206
772.524
771.854
755.963
722.211
671.3
608.702
541.913
476.515
416.79
365.685
325.199
297.706
285.353
286.544
296.356
307.97
312.412
305.463
287.939
263.496
240.348
223.409
213.728
210.809
209.903
208.102
204.864
199.627
194.26
189.94
186.478
184.079
182.118
179.981
177.691
175.165
172.424
169.597
166.661
163.568
160.323
156.945
153.465
149.928
146.356
142.729
139.045
135.327
131.614
127.961
124.399
120.928
117.553
114.289
111.164
108.227
105.5
102.977
100.656
98.532
96.618
94.949
93.535
92.368
91.432
90.698
90.151
89.789
89.592
89.53
89.564
89.641
89.731
89.825
89.906
89.961
89.97
89.906
89.755
89.519
89.196
88.789
88.295
87.709
87.039
86.299
85.506
84.682
83.838
82.98
82.113
81.243
80.373
79.507
78.645
77.781
76.912
76.038
75.157
74.27
73.374
72.464
71.533
70.579
69.596
68.582
67.536
66.455
65.338
64.187
63.003
61.788
60.545
59.276
57.982
56.664
55.326
53.968
52.595
51.208
49.812
48.41
47.007
45.608
44.219
42.844
41.491
40.163
38.868
37.61
36.397
35.234
34.127
33.081
32.103
31.198
30.37
29.625
28.967
28.399
27.924
27.545
27.264
27.082
27.001
27.021
27.143
27.364
27.686
28.106
28.623
29.234
29.936
30.725
31.598
32.549
33.575
34.669
35.826
37.04
38.306
39.616
40.964
42.343
43.747
45.169
46.602
48.038
49.472
50.897
52.305
53.693
55.052
56.378
57.666
58.909
60.105
61.248
62.333
63.358
64.318
65.211
66.035
66.786
67.463
68.064
68.589
69.036
69.405
69.696
69.909
70.044
70.102
70.083
69.988
69.82
69.579
69.269
68.889
68.444
67.936
67.366
66.737
66.052
65.313
64.522
63.682
62.796
61.865
60.892
59.88
58.831
57.747
56.63
55.482
54.305
53.101
51.87
50.614
49.333
48.03
46.705
45.358
43.991
42.604
41.198
39.773
38.329
36.865
35.38
33.873
32.341
30.783
29.198
27.583
25.937
24.259
22.55
20.809
19.037
17.232
15.396
13.526
11.623
9.687
7.716
5.711
3.672
1.6
-0.502
-2.632
-4.787
-6.966
-9.172
-11.407
-13.674
-15.971
-18.297
-20.649
-23.02
-25.404
-27.787
-30.149
-32.474
-34.747
-36.951
-39.081
-41.122
-43.065
-44.897
-46.603
-48.169
-49.596
-50.886
-52.045
-53.085
-54.017
-54.864
-55.678
-56.508
-57.404
-58.411
-59.553
-60.864
-62.399
-64.18
-66.207
-68.445
-70.78
-73.11
-75.361
-77.425
-79.172
-80.511
-81.375
-81.821
-82.057
-82.281
-82.642
-83.289
-84.366
-85.945
-87.982
-90.188
-92.026
-92.892
-92.193
-89.353
-83.746
-74.839
-62.364
-46.305
-26.987
-5.158
18.3
42.069
64.039
82.633
96.72
105.495
109.769
109.468
102.855
88.522
63.647
26.701
-19.372
-70.346
-119.318
-158.368
-184.318
-196.51
-197.451
-192.818
-185.722
-177.584
-168.714
-157.498
-143.996
-129.689
-116.09
-105.224
-98.135
-94.682
-94.522
-97.042
-101.437
-106.985
-112.897
-118.259
-122.49
-125.369
-126.833
-127.027
-126.246
-124.788
-123.024
-121.421
-120.251
-119.599
-119.487
-119.81
-120.429
-121.238
-122.095
-122.829
-123.356
-123.645
-123.688
-123.525
-123.187
-122.685
-122.046
-121.299
-120.456
-119.535
-118.547
-117.502
-116.419
-115.318
-114.212
-113.112
-112.024
-110.95
-109.896
-108.863
-107.848
-106.854
-105.884
-104.94
-104.03
-103.157
-102.321
-101.522
-100.757
-100.027
-99.331
-98.668
-98.039
-97.443
-96.882
-96.359
-95.877
-95.435
-95.036
-94.676
-94.355
-94.071
-93.822
-93.607
-93.421
-93.263
-93.13
-93.02
-92.93
-92.858
-92.799
-92.749
-92.705
-92.663
-92.618
-92.567
-92.505
-92.427
-92.33
-92.21
-92.064
-91.888
-91.678
-91.432
-91.146
-90.819
-90.447
-90.028
-89.561
-89.043
-88.475
-87.855
-87.183
-86.46
-85.685
-84.861
-83.988
-83.068
-82.103
-81.097
-80.051
-78.968
-77.853
-76.708
-75.538
-74.346
-73.138
-71.917
-70.689
-69.458
-68.228
-67.004
-65.791
-64.593
-63.414
-62.26
-61.133
-60.038
-58.978
-57.957
-56.977
-56.043
-55.155
-54.317
-53.53
-52.795
-52.113
-51.485
-50.911
-50.391
-49.924
-49.509
-49.145
-48.829
-48.559
-48.334
-48.149
-48.003
-47.891
-47.811
-47.758
-47.728
-47.719
-47.725
-47.742
-47.767
-47.794
-47.82
-47.841
-47.852
-47.85
-47.831
-47.791
-47.727
-47.635
-47.513
-47.356
-47.163
-46.931
-46.657
-46.34
-45.977
-45.568
-45.111
-44.606
-44.052
-43.451
-42.801
-42.104
-41.36
-40.571
-39.739
-38.863
-37.948
-36.993
-36.003
-34.98
-33.927
-32.848
-31.745
-30.622
-29.483
-28.332
-27.173
-26.009
-24.845
-23.684
-22.532
-21.392
-20.271
-19.175
-18.108
-17.077
-16.085
-15.139
-14.242
-13.398
-12.611
-11.882
-11.214
-10.608
-10.068
-9.596
-9.194
-8.863
-8.604
-8.42
-8.309
-8.271
-8.303
-8.402
-8.565
-8.787
-9.069
-9.411
-9.811
-10.263
-10.763
-11.302
-11.87
-12.455
-13.042
-13.609
-14.138
-14.611
-15.013
-15.331
-15.555
-15.674
-15.674
-15.543
-15.271
-14.855
-14.299
-13.611
-12.799
-11.874
-10.851
-9.756
-8.623
-7.489
-6.389
-5.351
-4.39
-3.529
-2.806
-2.235
-1.796
-1.43
-1.026
-0.482
0.262
1.28
2.679
4.534
6.856
9.539
12.347
15.085
17.66
19.997
21.991
23.552
24.737
25.859
27.483
30.153
34.244
40.05
47.943
58.371
71.554
87.305
104.962
123.685
142.808
161.594
178.956
193.616
204.298
210.284
211.848
208.944
201
187.314
166.755
140.364
111.258
82.584
57.911
38.286
22.075
7.979
-5.694
-19.234
-30.972
-40.125
-46.177
-49.128
-50.187
-50.105
-49.231
-48.004
-46.458
-44.575
-42.541
-40.411
-38.106
-35.598
-32.798
-29.573
-25.958
-22.066
-18.005
-13.917
-9.936
-6.153
-2.682
0.349
2.889
4.94
6.534
7.739
8.607
9.173
9.487
9.622
9.645
9.625
9.626
9.679
9.807
10.033
10.366
10.808
11.353
11.983
12.672
13.398
14.142
14.885
15.613
16.304
16.934
17.48
17.919
18.236
18.425
18.484
18.412
18.216
17.904
17.488
16.988
16.416
15.787
15.111
14.401
13.669
12.928
12.192
11.474
10.786
10.139
9.545
9.013
8.554
8.175
7.884
7.688
7.593
7.606
7.735
7.987
8.368
8.884
9.541
10.342
11.293
12.396
13.652
15.064
16.632
18.354
20.232
22.262
24.442
26.771
29.243
31.855
34.601
37.476
40.474
43.587
46.808
50.129
53.54
57.032
60.595
64.219
67.891
71.6
75.335
79.081
82.827
86.558
90.261
93.922
97.526
101.059
104.507
107.854
111.088
114.193
117.157
119.966
122.606
125.067
127.334
129.398
131.247
132.872
134.263
135.412
136.312
136.957
137.341
137.461
137.314
136.898
136.214
135.263
134.046
132.569
130.836
128.854
126.632
124.178
121.503
118.621
115.543
112.286
108.864
105.296
101.597
97.788
93.887
89.914
85.89
81.836
77.773
73.723
69.705
65.743
61.856
58.065
54.39
50.849
47.462
44.245
41.214
38.385
35.77
33.384
31.235
29.334
27.689
26.305
25.188
24.34
23.761
23.451
23.407
23.625
24.097
24.817
25.774
26.959
28.357
29.957
31.743
33.699
35.808
38.052
40.412
42.871
45.407
48.002
50.637
53.291
55.947
58.586
61.189
63.741
66.224
68.624
70.927
73.117
75.183
77.114
78.899
80.53
82
83.303
84.435
85.396
86.186
86.806
87.261
87.552
87.686
87.668
87.508
87.213
86.794
86.257
85.614
84.879
84.069
83.199
82.281
81.322
80.328
79.31
78.278
77.24
76.201
75.162
74.132
73.126
72.161
71.254
70.411
69.631
68.914
68.256
67.663
67.148
66.717
66.367
66.103
65.931
65.86
65.908
66.069
66.312
66.611
66.937
67.272
67.613
67.951
68.272
68.559
68.789
68.945
69.025
69.01
68.874
68.588
68.114
67.446
66.611
65.63
64.521
63.298
61.956
60.505
58.96
57.334
55.64
53.883
52.064
50.197
48.311
46.435
44.602
42.827
41.095
39.399
37.738
36.114
34.536
33.009
31.525
30.088
28.71
27.403
26.18
25.045
23.993
23.021
22.12
21.294
20.555
19.911
19.366
18.923
18.583
18.347
18.223
18.208
18.293
18.47
18.731
19.068
19.477
19.954
20.491
21.08
21.712
22.376
23.066
23.771
24.482
25.19
25.884
26.556
27.2
27.81
28.38
28.904
29.377
29.794
30.152
30.446
30.675
30.834
30.923
30.939
30.882
30.754
30.554
30.284
29.945
29.54
29.072
28.544
27.959
27.32
26.633
25.902
25.129
24.321
23.482
22.615
21.726
20.819
19.897
18.966
18.027
17.086
16.146
15.208
14.276
13.352
12.438
11.536
10.647
9.772
8.912
8.067
7.239
6.427
5.631
4.851
4.088
3.34
2.607
1.89
1.186
0.496
-0.181
-0.846
-1.499
-2.141
-2.771
-3.391
-3.999
-4.596
-5.181
-5.753
-6.311
-6.856
-7.386
-7.9
-8.398
-8.878
-9.338
-9.778
-10.196
-10.591
-10.96
-11.304
-11.619
-11.907
-12.168
-12.4
-12.604
-12.781
-12.932
-13.057
-13.159
-13.238
-13.297
-13.336
-13.36
-13.371
-13.373
-13.371
-13.369
-13.372
-13.388
-13.422
-13.479
-13.565
-13.685
-13.843
-14.046
-14.295
-14.596
-14.953
-15.369
-15.851
-16.402
-17.028
-17.73
-18.51
-19.37
-20.311
-21.332
-22.43
-23.602
-24.848
-26.168
-27.568
-29.05
-30.611
-32.249
-33.957
-35.729
-37.56
-39.432
-41.325
-43.217
-45.086
-46.919
-48.716
-50.468
-52.165
-53.792
-55.325
-56.756
-58.089
-59.32
-60.436
-61.43
-62.295
-63.06
-63.783
-64.52
-65.319
-66.203
-67.182
-68.298
-69.576
-71.011
-72.569
-74.139
-75.595
-76.876
-77.924
-78.649
-79.018
-79.009
-78.671
-78.229
-77.927
-77.952
-78.495
-79.712
-81.656
-84.273
-87.286
-90.154
-92.222
-92.819
-91.317
-87.053
-79.435
-68.136
-53.054
-34.721
-14.432
6.61
27.189
46.4
64.427
80.899
94.331
102.709
102.788
91.644
68.692
34.478
-9.315
-59.058
-110.974
-160.258
-200.504
-227.296
-239.05
-237.179
-226.884
-213.636
-200.474
-188.627
-177.198
-164.697
-151.385
-138.362
-127.058
-118.943
-114.299
-112.624
-113.369
-115.85
-119.416
-123.556
-127.588
-130.822
-132.929
-133.835
-133.603
-132.434
-130.553
-128.167
-125.608
-123.254
-121.283
-119.752
-118.624
-117.765
-117.072
-116.48
-115.872
-115.123
-114.17
-112.985
-111.581
-110.014
-108.314
-106.499
-104.59
-102.609
-100.573
-98.501
-96.407
-94.301
-92.19
-90.081
-87.977
-85.884
-83.801
-81.728
-79.661
-77.593
-75.52
-73.441
-71.357
-69.269
-67.176
-65.076
-62.965
-60.842
-58.704
-56.551
-54.382
-52.196
-49.992
-47.774
-45.543
-43.305
-41.062
-38.817
-36.571
-34.328
-32.091
-29.865
-27.651
-25.456
-23.282
-21.136
-19.022
-16.947
-14.914
-12.93
-10.999
-9.126
-7.316
-5.573
-3.902
-2.307
-0.791
0.64
1.983
3.235
4.392
5.453
6.414
7.273
8.029
8.68
9.226
9.666
10
10.228
10.352
10.373
10.294
10.115
9.841
9.474
9.018
8.478
7.856
7.158
6.389
5.553
4.656
3.703
2.699
1.649
0.559
-0.565
-1.718
-2.895
-4.09
-5.298
-6.513
-7.731
-8.945
-10.15
-11.343
-12.518
-13.67
-14.795
-15.888
-16.947
-17.967
-18.945
-19.877
-20.761
-21.595
-22.374
-23.098
-23.765
-24.372
-24.918
-25.402
-25.823
-26.18
-26.471
-26.696
-26.854
-26.945
-26.969
-26.925
-26.813
-26.633
-26.386
-26.072
-25.692
-25.247
-24.738
-24.165
-23.531
-22.835
-22.081
-21.269
-20.401
-19.48
-18.508
-17.487
-16.419
-15.307
-14.154
-12.962
-11.734
-10.472
-9.18
-7.86
-6.514
-5.147
-3.761
-2.359
-0.945
0.477
1.903
3.331
4.755
6.173
7.581
8.975
10.352
11.709
13.042
14.346
15.619
16.857
18.056
19.213
20.326
21.39
22.405
23.367
24.275
25.126
25.92
26.654
27.325
27.932
28.473
28.945
29.345
29.673
29.926
30.106
30.21
30.242
30.201
30.091
29.915
29.674
29.37
29.005
28.579
28.096
27.56
26.972
26.338
25.66
24.945
24.201
23.434
22.65
21.849
21.028
20.189
19.338
18.481
17.625
16.777
15.95
15.158
14.428
13.782
13.238
12.806
12.483
12.274
12.183
12.219
12.395
12.712
13.159
13.732
14.43
15.25
16.187
17.204
18.238
19.228
20.127
20.901
21.545
22.038
22.346
22.471
22.433
22.297
22.183
22.17
22.298
22.643
23.265
24.175
25.38
26.779
28.158
29.366
30.261
30.66
30.516
29.948
29.202
28.715
29.014
30.544
33.797
39.342
47.539
58.416
71.629
86.49
102.22
118.033
132.888
145.465
154.54
159.127
158.927
154.345
145.31
131.663
113.23
89.451
61.811
33.213
6.435
-15.069
-30.35
-41.218
-49.323
-56.844
-64.565
-71.225
-76.258
-79.577
-81.615
-83.487
-85.674
-88.109
-90.63
-92.989
-95.06
-96.725
-97.741
-97.939
-97.298
-95.917
-94.005
-91.751
-89.282
-86.735
-84.27
-82.003
-80.01
-78.32
-76.897
-75.705
-74.715
-73.887
-73.188
-72.594
-72.065
-71.563
-71.04
-70.435
-69.71
-68.842
-67.811
-66.609
-65.231
-63.675
-61.957
-60.103
-58.134
-56.071
-53.93
-51.722
-49.468
-47.191
-44.92
-42.683
-40.5
-38.383
-36.345
-34.392
-32.528
-30.755
-29.067
-27.454
-25.909
-24.425
-22.998
-21.625
-20.3
-19.015
-17.764
-16.538
-15.331
-14.139
-12.955
-11.772
-10.588
-9.397
-8.196
-6.984
-5.758
-4.514
-3.25
-1.962
-0.647
0.697
2.073
3.483
4.928
6.411
7.931
9.488
11.082
12.713
14.381
16.083
17.818
19.586
21.384
23.21
25.063
26.939
28.836
30.752
32.683
34.628
36.583
38.545
40.511
42.477
44.441
46.399
48.347
50.282
52.2
54.098
55.972
57.818
59.633
61.413
63.154
64.853
66.505
68.107
69.656
71.149
72.58
73.947
75.247
76.475
77.629
78.704
79.698
80.606
81.426
82.153
82.786
83.322
83.756
84.088
84.315
84.434
84.444
84.344
84.132
83.808
83.371
82.822
82.161
81.388
80.505
79.514
78.416
77.214
75.911
74.511
73.016
71.432
69.762
68.012
66.187
64.292
62.334
60.319
58.253
56.145
54.001
51.828
49.635
47.429
45.218
43.011
40.814
38.638
36.489
34.375
32.304
30.285
28.324
26.43
24.608
22.866
21.211
19.648
18.183
16.822
15.57
14.432
13.412
12.513
11.74
11.095
10.581
10.2
9.954
9.842
9.866
10.026
10.32
10.747
11.306
11.994
12.808
13.745
14.8
15.969
17.247
18.628
20.107
21.675
23.328
25.057
26.854
28.712
30.623
32.577
34.566
36.582
38.613
40.652
42.689
44.713
46.715
48.686
50.615
52.494
54.312
56.061
57.731
59.315
60.803
62.189
63.465
64.624
65.66
66.568
67.342
67.98
68.477
68.831
69.041
69.105
69.022
68.794
68.422
67.908
67.254
66.465
65.544
64.496
63.327
62.043
60.652
59.16
57.577
55.91
54.168
52.361
50.499
48.592
46.649
44.681
42.698
40.71
38.727
36.76
34.818
32.91
31.046
29.232
27.478
25.791
24.176
22.641
21.191
19.831
18.564
17.394
16.324
15.356
14.491
13.731
13.075
12.524
12.075
11.726
11.477
11.323
11.261
11.288
11.4
11.59
11.856
12.191
12.59
13.046
13.556
14.112
14.708
15.34
16.001
16.687
17.392
18.111
18.84
19.576
20.314
21.05
21.782
22.508
23.224
23.928
24.619
25.296
25.958
26.604
27.233
27.845
28.441
29.02
29.584
30.132
30.667
31.188
31.698
32.198
32.69
33.175
33.654
34.13
34.604
35.077
35.55
36.024
36.501
36.979
37.461
37.944
38.428
38.914
39.399
39.883
40.362
40.836
41.302
41.758
42.2
42.625
43.031
43.415
43.773
44.101
44.398
44.657
44.877
45.053
45.18
45.254
45.27
45.225
45.112
44.929
44.67
44.332
43.911
43.403
42.805
42.113
41.326
40.439
39.452
38.362
37.167
35.867
34.462
32.951
31.335
29.616
27.795
25.875
23.855
21.74
19.53
17.228
14.84
12.368
9.817
7.195
4.507
1.763
-1.031
-3.866
-6.737
-9.635
-12.555
-15.491
-18.437
-21.388
-24.338
-27.283
-30.218
-33.14
-36.045
-38.929
-41.79
-44.626
-47.431
-50.202
-52.933
-55.619
-58.254
-60.83
-63.339
-65.772
-68.123
-70.382
-72.539
-74.578
-76.491
-78.277
-79.937
-81.492
-82.963
-84.367
-85.738
-87.113
-88.504
-89.906
-91.286
-92.572
-93.715
-94.703
-95.506
-96.118
-96.628
-97.173
-97.973
-99.33
-101.449
-104.446
-108.442
-113.427
-119.18
-125.372
-131.494
-136.865
-140.94
-143.229
-143.202
-140.62
-135.566
-128.293
-119.346
-109.529
-99.623
-90.569
-83.473
-79.125
-77.996
-80.335
-86.083
-94.965
-106.559
-120.085
-134.473
-148.728
-162.019
-173.769
-183.587
-191.122
-196.188
-198.834
-199.378
-198.415
-196.535
-194.079
-191.338
-188.607
-186.108
-184.153
-182.881
-181.959
-180.96
-179.555
-177.369
-174.168
-169.738
-163.52
-155.107
-144.525
-131.834
-117.304
-101.047
-82.566
-61.976
-40.032
-17.83
2.782
21.746
40.48
59.988
81.918
105.38
127.559
147.535
163.678
175.164
182.238
181.595
169.797
145.084
105.941
55.553
0.549
-52.772
-96.81
-126.333
-141.022
-142.485
-135.205
-124.599
-113.079
-101.542
-89.664
-76.43
-62.647
-50.107
-40.51
-35.313
-34.784
-38.422
-45.594
-55.276
-66.296
-77.461
-87.563
-95.802
-101.837
-105.478
-106.652
-105.616
-102.856
-99.085
-95.168
-91.653
-88.792
-86.801
-85.828
-85.872
-86.801
-88.261
-89.765
-91.033
-91.955
-92.452
-92.472
-91.95
-90.867
-89.352
-87.581
-85.64
-83.493
-81.011
-78.118
-74.878
-71.415
-67.786
-64.007
-60.149
-56.384
-53.021
-50.395
-48.232
-46.065
-44.023
-41.956
-40.534
-40.481
-40.221
-38.614
-34.229
-25.54
-14.339
-2.235
9.561
19.281
27.42
34.482
40.189
44.941
48.602
51.046
52.761
54.05
55.136
56.301
57.737
59.464
61.395
63.369
65.074
66.273
66.91
66.951
66.41
65.385
63.911
61.983
59.672
57.043
54.118
50.913
47.33
43.233
38.63
33.67
28.579
23.532
18.642
14.034
9.933
6.616
4.244
2.767
1.952
1.612
1.633
1.888
2.21
2.353
2.126
1.539
0.755
-0.096
-0.932
-1.711
-2.41
-2.95
-3.278
-3.449
-3.567
-3.725
-3.979
-4.327
-4.741
-5.211
-5.711
-6.206
-6.664
-7.054
-7.362
-7.596
-7.766
-7.879
-7.941
-7.941
-7.871
-7.728
-7.505
-7.206
-6.84
-6.419
-5.965
-5.501
-5.041
-4.597
-4.179
-3.787
-3.427
-3.1
-2.802
-2.534
-2.3
-2.102
-1.946
-1.833
-1.763
-1.734
-1.742
-1.785
-1.859
-1.961
-2.09
-2.244
-2.423
-2.627
-2.857
-3.115
-3.4
-3.712
-4.048
-4.409
-4.791
-5.195
-5.616
-6.054
-6.507
-6.973
-7.452
-7.943
-8.443
-8.952
-9.468
-9.99
-10.515
-11.043
-11.572
-12.101
-12.629
-13.156
-13.681
-14.203
-14.723
-15.239
-15.752
-16.262
-16.766
-17.265
-17.758
-18.245
-18.726
-19.201
-19.671
-20.136
-20.599
-21.062
-21.524
-21.988
-22.454
-22.924
-23.396
-23.87
-24.345
-24.821
-25.295
-25.769
-26.245
-26.721
-27.2
-27.679
-28.158
-28.635
-29.11
-29.578
-30.033
-30.47
-30.886
-31.282
-31.662
-32.027
-32.374
-32.698
-32.994
-33.256
-33.473
-33.632
-33.71
-33.686
-33.545
-33.282
-32.901
-32.402
-31.783
-31.037
-30.151
-29.125
-27.965
-26.676
-25.26
-23.722
-22.076
-20.35
-18.605
-16.901
-15.278
-13.767
-12.381
-11.128
-10.031
-9.125
-8.409
-7.848
-7.374
-6.881
-6.294
-5.56
-4.588
-3.282
-1.583
0.512
2.858
5.184
7.265
8.897
9.891
10.222
10.005
9.484
9.174
9.709
11.693
15.798
22.602
32.315
44.82
59.641
75.922
92.72
108.974
123.342
134.487
141.317
143.103
139.64
131.07
117.601
99.745
78.407
54.702
29.883
5.021
-19.187
-42.108
-63.061
-81.576
-97.366
-110.418
-121.027
-129.415
-135.67
-140.029
-142.822
-144.406
-145.189
-145.355
-144.859
-143.714
-141.941
-139.496
-136.337
-132.344
-127.339
-121.334
-114.469
-106.896
-98.811
-90.373
-81.71
-73.001
-64.439
-56.155
-48.239
-40.752
-33.743
-27.278
-21.413
-16.169
-11.538
-7.479
-3.947
-0.898
1.724
3.969
5.888
7.533
8.941
10.146
11.194
12.142
13.067
14.053
15.158
16.422
17.873
19.519
21.364
23.401
25.606
27.952
30.417
32.98
35.631
38.357
41.134
43.926
46.687
49.37
51.945
54.391
56.693
58.844
60.84
62.684
64.393
65.986
67.479
68.886
70.214
71.475
72.687
73.871
75.053
76.256
77.496
78.788
80.143
81.574
83.088
84.691
86.382
88.16
90.029
91.989
94.047
96.206
98.465
100.826
103.288
105.853
108.522
111.294
114.169
117.148
120.229
123.412
126.699
130.086
133.571
137.152
140.821
144.576
148.409
152.313
156.281
160.304
164.373
168.478
172.612
176.761
180.917
185.067
189.198
193.3
197.359
201.362
205.297
209.149
212.906
216.554
220.079
223.469
226.711
229.79
232.696
235.416
237.939
240.254
242.351
244.222
245.859
247.254
248.401
249.296
249.935
250.314
250.434
250.293
249.892
249.235
248.324
247.165
245.763
244.124
242.259
240.175
237.883
235.394
232.72
229.875
226.871
223.724
220.448
217.059
213.571
210.001
206.365
202.679
198.958
195.218
191.474
187.741
184.034
180.365
176.749
173.197
169.72
166.33
163.035
159.844
156.764
153.803
150.964
148.252
145.671
143.222
140.907
138.725
136.675
134.755
132.963
131.294
129.743
128.306
126.976
125.747
124.611
123.561
122.588
121.684
120.841
120.051
119.303
118.591
117.904
117.236
116.577
115.92
115.257
114.581
113.886
113.164
112.411
111.621
110.789
109.911
108.982
108.001
106.964
105.869
104.715
103.5
102.223
100.886
99.487
98.028
96.51
94.935
93.304
91.62
89.885
88.102
86.274
84.403
82.493
80.548
78.569
76.561
74.526
72.468
70.39
68.295
66.185
64.063
61.933
59.797
57.657
55.516
53.376
51.24
49.11
46.988
44.876
42.776
40.69
38.619
36.565
34.529
32.513
30.517
28.543
26.591
24.662
22.756
20.875
19.019
17.187
15.38
13.598
11.842
10.111
8.406
6.725
5.07
3.439
1.833
0.25
-1.31
-2.847
-4.364
-5.862
-7.341
-8.804
-10.253
-11.689
-13.116
-14.535
-15.949
-17.361
-18.774
-20.191
-21.614
-23.048
-24.494
-25.957
-27.439
-28.944
-30.474
-32.034
-33.625
-35.252
-36.916
-38.623
-40.373
-42.17
-44.018
-45.918
-47.873
-49.885
-51.956
-54.088
-56.282
-58.539
-60.86
-63.245
-65.695
-68.207
-70.783
-73.42
-76.116
-78.869
-81.678
-84.538
-87.447
-90.4
-93.394
-96.424
-99.486
-102.574
-105.683
-108.808
-111.943
-115.081
-118.216
-121.342
-124.451
-127.537
-130.592
-133.609
-136.58
-139.498
-142.356
-145.145
-147.859
-150.49
-153.031
-155.476
-157.817
-160.048
-162.164
-164.158
-166.027
-167.764
-169.367
-170.832
-172.155
-173.335
-174.369
-175.257
-175.997
-176.59
-177.035
-177.334
-177.489
-177.501
-177.375
-177.113
-176.719
-176.2
-175.56
-174.806
-173.944
-172.981
-171.925
-170.784
-169.566
-168.28
-166.936
-165.542
-164.109
-162.645
-161.161
-159.666
-158.169
-156.68
-155.206
-153.758
-152.343
-150.968
-149.643
-148.373
-147.166
-146.028
-144.966
-143.983
-143.086
-142.279
-141.563
-140.943
-140.419
-139.994
-139.667
-139.438
-139.308
-139.273
-139.334
-139.487
-139.729
-140.057
-140.466
-140.951
-141.507
-142.128
-142.809
-143.544
-144.328
-145.154
-146.017
-146.911
-147.832
-148.772
-149.728
-150.692
-151.659
-152.623
-153.579
-154.522
-155.448
-156.353
-157.233
-158.084
-158.906
-159.696
-160.453
-161.176
-161.861
-162.508
-163.115
-163.681
-164.206
-164.684
-165.116
-165.499
-165.834
-166.121
-166.358
-166.543
-166.674
-166.75
-166.771
-166.737
-166.645
-166.492
-166.276
-165.999
-165.667
-165.288
-164.869
-164.412
-163.921
-163.399
-162.847
-162.261
-161.631
-160.934
-160.155
-159.285
-158.32
-157.258
-156.098
-154.832
-153.453
-151.952
-150.319
-148.542
-146.609
-144.512
-142.261
-139.894
-137.463
-135.036
-132.682
-130.471
-128.448
-126.624
-124.969
-123.396
-121.822
-120.19
-118.443
-116.521
-114.411
-112.15
-109.904
-107.979
-106.631
-106.032
-106.3
-107.499
-109.685
-112.837
-116.603
-120.337
-123.337
-124.88
-124.419
-121.459
-115.319
-105.408
-91.545
-74.261
-54.72
-34.113
-13.224
8.098
30.161
51.902
70.825
82.687
83.028
70.418
46.62
15.629
-18.016
-52.687
-89.841
-130.5
-173.83
-215.728
-249.196
-269.605
-275.63
-268.774
-253.591
-233.774
-212.263
-192.275
-175.314
-162.285
-152.959
-144.991
-136.747
-127.662
-117.953
-109.24
-102.604
-98.02
-95.108
-92.983
-90.892
-88.58
-86.031
-83.367
-80.734
-78.254
-76.028
-74.196
-73.003
-72.699
-73.387
-75.057
-77.628
-80.958
-84.916
-89.373
-94.133
-98.971
-103.691
-108.123
-112.111
-115.529
-118.265
-120.2
-121.225
-121.317
-120.533
-118.988
-116.887
-114.428
-111.749
-108.916
-105.905
-102.525
-98.472
-93.412
-86.889
-78.346
-67.306
-53.54
-37.037
-18.475
1.277
21.923
42.737
63.508
84.058
102.487
117.653
128.362
133.347
134.23
132.535
129.684
127.787
126.687
125.98
125.782
125.608
125.724
126.468
127.545
128.689
129.684
130.351
130.713
130.895
130.965
130.992
131.11
131.455
132.089
133.019
134.21
135.59
137.115
138.742
140.402
142.014
143.515
144.869
146.064
147.103
147.984
148.699
149.249
149.648
149.918
150.081
150.158
150.166
150.122
150.051
149.977
149.926
149.921
149.978
150.117
150.357
150.711
151.18
151.761
152.448
153.238
154.139
155.146
156.235
157.399
158.664
160.089
161.742
163.638
165.718
167.909
170.186
172.515
174.811
176.91
178.609
179.825
180.664
181.32
181.919
182.548
183.321
184.438
186.172
188.652
191.761
195.224
198.822
202.421
205.911
209.137
211.867
213.954
215.446
216.533
217.376
218.058
218.612
219.062
219.488
219.954
220.439
220.856
221.121
221.19
221.058
220.741
220.236
219.528
218.618
217.519
216.249
214.822
213.24
211.498
209.595
207.538
205.338
203.008
200.564
198.017
195.381
192.67
189.901
187.089
184.252
181.405
178.567
175.754
172.984
170.275
167.645
165.109
162.684
160.382
158.215
156.196
154.335
152.643
151.128
149.796
148.654
147.703
146.946
146.382
146.01
145.826
145.826
146.003
146.351
146.861
147.524
148.329
149.264
150.314
151.463
152.695
153.993
155.338
156.712
158.095
159.468
160.813
162.115
163.354
164.509
165.556
166.475
167.251
167.868
168.314
168.58
168.657
168.546
168.253
167.784
167.144
166.336
165.354
164.201
162.882
161.408
159.796
158.053
156.172
154.151
151.989
149.677
147.2
144.525
141.598
138.385
134.865
131.027
126.864
122.355
117.467
112.179
106.476
100.356
93.824
86.9
79.628
72.102
64.474
56.908
49.567
42.598
36.15
30.313
25.09
20.412
16.093
11.96
7.936
3.916
-0.265
-4.655
-9.123
-13.352
-16.768
-18.841
-19.304
-17.725
-13.494
-6.262
4.132
17.124
31.255
45.705
60.136
74.372
88.834
102.055
111.075
113.386
106.253
89.662
66.39
39.069
10.84
-16.722
-44.072
-71.192
-97.967
-123.656
-146.75
-166.453
-182.513
-195.005
-204.409
-211.02
-215.076
-217.115
-217.686
-217.32
-216.527
-215.503
-214.266
-212.876
-211.319
-209.476
-207.211
-204.308
-200.559
-195.957
-190.62
-184.697
-178.363
-171.771
-165.051
-158.361
-151.877
-145.712
-139.925
-134.546
-129.572
-125.01
-120.892
-117.248
-114.071
-111.345
-109.036
-107.097
-105.502
-104.235
-103.268
-102.579
-102.14
-101.91
-101.853
-101.928
-102.095
-102.318
-102.555
-102.753
-102.879
-102.914
-102.852
-102.707
-102.483
-102.182
-101.81
-101.373
-100.886
-100.367
-99.84
-99.33
-98.859
-98.445
-98.106
-97.863
-97.725
-97.698
-97.778
-97.95
-98.202
-98.522
-98.897
-99.312
-99.749
-100.187
-100.604
-100.977
-101.284
-101.509
-101.637
-101.654
-101.55
-101.317
-100.951
-100.454
-99.823
-99.06
-98.165
-97.138
-95.981
-94.698
-93.294
-91.773
-90.141
-88.4
-86.557
-84.615
-82.578
-80.451
-78.237
-75.94
-73.564
-71.114
-68.596
-66.016
-63.381
-60.696
-57.968
-55.204
-52.41
-49.591
-46.754
-43.903
-41.045
-38.184
-35.324
-32.472
-29.631
-26.804
-23.996
-21.21
-18.449
-15.714
-13.01
-10.337
-7.699
-5.096
-2.531
-0.006
2.477
4.917
7.312
9.661
11.962
14.214
16.415
18.566
20.664
22.709
24.7
26.635
28.514
30.336
32.099
33.803
35.445
37.024
38.539
39.989
41.37
42.681
43.92
45.084
46.169
47.173
48.093
48.926
49.667
50.314
50.862
51.309
51.651
51.885
52.007
52.015
51.904
51.673
51.318
50.837
50.228
49.488
48.616
47.61
46.469
45.193
43.779
42.229
40.542
38.719
36.761
34.67
32.448
30.098
27.624
25.028
22.317
19.496
16.571
13.549
10.436
7.241
3.972
0.638
-2.754
-6.192
-9.669
-13.173
-16.696
-20.228
-23.757
-27.275
-30.772
-34.237
-37.662
-41.036
-44.351
-47.597
-50.767
-53.852
-56.844
-59.736
-62.521
-65.194
-67.748
-70.18
-72.484
-74.658
-76.7
-78.609
-80.383
-82.023
-83.532
-84.91
-86.16
-87.286
-88.293
-89.183
-89.963
-90.638
-91.214
-91.697
-92.093
-92.411
-92.657
-92.839
-92.964
-93.039
-93.072
-93.069
-93.039
-92.987
-92.92
-92.844
-92.768
-92.695
-92.633
-92.587
-92.563
-92.564
-92.595
-92.658
-92.756
-92.892
-93.066
-93.279
-93.531
-93.824
-94.155
-94.525
-94.933
-95.378
-95.859
-96.373
-96.919
-97.492
-98.091
-98.71
-99.347
-99.996
-100.653
-101.313
-101.973
-102.629
-103.281
-103.926
-104.561
-105.183
-105.789
-106.378
-106.946
-107.488
-107.996
-108.468
-108.902
-109.302
-109.675
-110.027
-110.355
-110.657
-110.923
-111.146
-111.319
-111.428
-111.452
-111.376
-111.192
-110.9
-110.517
-110.045
-109.475
-108.789
-107.959
-106.966
-105.81
-104.493
-103.026
-101.422
-99.696
-97.893
-96.052
-94.195
-92.31
-90.323
-88.138
-85.7
-82.982
-79.992
-76.872
-73.747
-70.747
-68.201
-66.362
-65.348
-65.354
-66.009
-66.641
-67.164
-67.181
-66.793
-66.419
-64.725
-60.722
-53.379
-41.711
-27.538
-12.614
1.495
12.971
22.143
29.308
34.371
37.93
39.989
40.643
40.582
40.203
39.859
40.027
40.892
42.439
44.611
47.192
49.855
52.417
54.779
56.796
58.428
59.707
60.661
61.413
62.135
62.898
63.735
64.677
65.697
66.77
67.881
68.967
69.972
70.876
71.662
72.336
72.912
73.387
73.755
74.015
74.154
74.166
74.05
73.798
73.416
72.913
72.302
71.607
70.85
70.04
69.189
68.301
67.376
66.42
65.435
64.419
63.377
62.314
61.237
60.152
59.064
57.977
56.894
55.816
54.742
53.674
52.614
51.564
50.529
49.512
48.518
47.553
46.622
45.731
44.881
44.078
43.324
42.619
41.967
41.366
40.819
40.325
39.884
39.497
39.163
38.88
38.648
38.465
38.328
38.234
38.178
38.155
38.161
38.19
38.235
38.289
38.345
38.399
38.443
38.473
38.484
38.469
38.425
38.347
38.231
38.071
37.86
37.594
37.269
36.883
36.432
35.915
35.332
34.685
33.978
33.213
32.393
31.514
30.572
29.566
28.5
27.378
26.206
24.988
23.735
22.46
21.188
19.941
18.732
17.564
16.435
15.348
14.312
13.341
12.451
11.641
10.908
10.257
9.695
9.231
8.861
8.551
8.246
7.896
7.465
6.941
6.327
5.601
4.724
3.681
2.489
1.229
0.027
-1.033
-1.909
-2.535
-2.806
-2.623
-1.921
-0.794
0.488
1.648
2.467
2.764
2.369
1.167
-0.866
-3.518
-6.254
-8.412
-9.353
-8.432
-4.984
1.549
11.678
25.349
41.623
59.44
77.705
96.035
115.35
135.751
155.737
171.83
178.144
170.118
146.652
109.706
64.239
14.545
-37.373
-89.728
-140.456
-185.265
-218.495
-237.259
-241.411
-234.032
-219.626
-200.198
-177.107
-151.553
-125.274
-101.927
-84.033
-71.96
-64.251
-58.37
-52.868
-47.95
-44.816
-44.321
-46.212
-49.356
-52.268
-54.008
-54.375
-53.495
-51.625
-48.979
-45.733
-42.192
-38.72
-35.632
-33.063
-30.963
-29.24
-27.797
-26.54
-25.373
-24.156
-22.715
-20.943
-18.82
-16.355
-13.589
-10.561
-7.292
-3.833
-0.268
3.337
6.932
10.487
14.005
17.487
20.923
24.31
27.64
30.905
34.105
37.24
40.3
43.289
46.211
49.078
51.917
54.752
57.6
60.474
63.381
66.322
69.301
72.32
75.372
78.456
81.566
84.698
87.853
91.028
94.218
97.414
100.609
103.793
106.957
110.094
113.196
116.256
119.265
122.215
125.099
127.91
130.639
133.277
135.815
138.241
140.548
142.728
144.775
146.68
148.434
150.023
151.44
152.678
153.735
154.61
155.305
155.823
156.173
156.37
156.431
156.37
156.201
155.932
155.57
155.122
154.596
154.004
153.352
152.637
151.852
150.985
150.021
148.941
147.725
146.351
144.789
143.008
140.969
138.63
135.98
133.042
129.811
126.258
122.388
118.228
113.887
109.564
105.384
101.363
97.568
94.151
91.192
88.699
86.594
84.513
82.492
81.183
80.59
80.351
79.692
76.957
72.614
69.093
68.699
74.179
85.517
99.768
114.503
127.128
136.535
143.579
148.536
151.7
153.179
152.381
149.165
143.752
136.552
128.352
119.759
110.977
102.052
92.98
83.878
74.992
66.406
58.048
49.885
42.051
34.824
28.417
22.819
17.836
13.349
9.361
5.88
2.823
-0.022
-2.835
-5.641
-8.325
-10.807
-13.103
-15.254
-17.279
-19.136
-20.767
-22.189
-23.503
-24.8
-26.139
-27.555
-29.05
-30.634
-32.324
-34.102
-35.917
-37.716
-39.436
-41.033
-42.495
-43.813
-44.98
-46
-46.87
-47.59
-48.165
-48.587
-48.851
-48.957
-48.902
-48.694
-48.352
-47.896
-47.356
-46.76
-46.13
-45.481
-44.827
-44.177
-43.539
-42.917
-42.315
-41.74
-41.2
-40.712
-40.288
-39.935
-39.66
-39.465
-39.345
-39.296
-39.308
-39.362
-39.449
-39.558
-39.681
-39.818
-39.964
-40.114
-40.269
-40.421
-40.568
-40.715
-40.865
-41.027
-41.225
-41.48
-41.822
-42.294
-42.924
-43.752
-44.821
-46.158
-47.798
-49.759
-52.048
-54.689
-57.676
-60.962
-64.487
-68.129
-71.749
-75.26
-78.543
-81.441
-83.912
-85.951
-87.611
-89.113
-90.617
-92.197
-94.027
-96.223
-98.691
-101.268
-103.577
-104.991
-105.048
-103.326
-99.275
-92.525
-82.961
-70.714
-56.35
-40.77
-24.83
-9.539
3.875
14.264
20.61
22.217
18.842
10.517
-2.541
-19.784
-40.313
-63.031
-86.736
-110.409
-133.175
-154.17
-172.671
-188.187
-200.554
-209.935
-216.654
-220.981
-223.255
-223.966
-223.643
-222.827
-221.839
-220.727
-219.461
-218.021
-216.371
-214.43
-212.039
-208.963
-205.116
-200.588
-195.531
-190.144
-184.586
-178.967
-173.428
-168.134
-163.191
-158.648
-154.501
-150.7
-147.201
-143.974
-140.986
-138.199
-135.566
-133.025
-130.517
-127.984
-125.389
-122.706
-119.918
-117.011
-113.979
-110.828
-107.572
-104.239
-100.849
-97.419
-93.966
-90.501
-87.044
-83.62
-80.254
-76.972
-73.793
-70.726
-67.777
-64.952
-62.249
-59.664
-57.187
-54.805
-52.506
-50.281
-48.122
-46.024
-43.977
-41.972
-39.999
-38.049
-36.114
-34.186
-32.258
-30.322
-28.374
-26.408
-24.42
-22.406
-20.364
-18.289
-16.176
-14.022
-11.821
-9.57
-7.264
-4.901
-2.475
0.014
2.571
5.198
7.895
10.665
13.51
16.431
19.429
22.506
25.662
28.898
32.214
35.611
39.09
42.65
46.292
50.013
53.815
57.695
61.652
65.684
69.79
73.966
78.209
82.516
86.882
91.304
95.776
100.292
104.847
109.434
114.045
118.673
123.31
127.947
132.575
137.186
141.769
146.314
150.811
155.25
159.618
163.906
168.101
172.193
176.169
180.019
183.73
187.293
190.695
193.927
196.978
199.839
202.5
204.952
207.188
209.2
210.982
212.528
213.832
214.892
215.703
216.264
216.573
216.631
216.438
215.995
215.306
214.374
213.203
211.798
210.166
208.314
206.25
203.98
201.516
198.867
196.042
193.053
189.91
186.626
183.212
179.679
176.041
172.309
168.496
164.613
160.674
156.689
152.67
148.629
144.576
140.523
136.479
132.453
128.455
124.494
120.576
116.709
112.899
109.153
105.476
101.871
98.344
94.898
91.534
88.256
85.064
81.958
78.94
76.009
73.163
70.402
67.722
65.123
62.601
60.152
57.774
55.463
53.214
51.024
48.887
46.8
44.758
42.757
40.791
38.856
36.949
35.064
33.198
31.348
29.509
27.679
25.855
24.033
22.213
20.392
18.568
16.741
14.911
13.076
11.237
9.396
7.552
5.708
3.866
2.027
0.194
-1.629
-3.44
-5.235
-7.01
-8.761
-10.483
-12.173
-13.825
-15.436
-17.001
-18.515
-19.974
-21.373
-22.71
-23.979
-25.178
-26.303
-27.351
-28.32
-29.209
-30.014
-30.735
-31.372
-31.924
-32.392
-32.775
-33.076
-33.296
-33.438
-33.504
-33.497
-33.421
-33.28
-33.078
-32.821
-32.513
-32.159
-31.766
-31.339
-30.884
-30.408
-29.917
-29.416
-28.912
-28.411
-27.919
-27.442
-26.984
-26.552
-26.149
-25.78
-25.45
-25.162
-24.92
-24.725
-24.581
-24.489
-24.451
-24.468
-24.541
-24.67
-24.855
-25.094
-25.388
-25.735
-26.134
-26.581
-27.076
-27.616
-28.197
-28.817
-29.473
-30.162
-30.879
-31.622
-32.388
-33.172
-33.972
-34.785
-35.607
-36.435
-37.266
-38.099
-38.929
-39.756
-40.576
-41.388
-42.19
-42.981
-43.758
-44.521
-45.267
-45.997
-46.708
-47.4
-48.071
-48.721
-49.35
-49.955
-50.537
-51.095
-51.628
-52.136
-52.618
-53.074
-53.503
-53.905
-54.279
-54.624
-54.941
-55.229
-55.486
-55.713
-55.908
-56.072
-56.204
-56.304
-56.37
-56.404
-56.405
-56.373
-56.309
-56.213
-56.086
-55.929
-55.744
-55.533
-55.296
-55.037
-54.758
-54.46
-54.148
-53.824
-53.491
-53.151
-52.81
-52.469
-52.133
-51.805
-51.489
-51.189
-50.908
-50.649
-50.418
-50.216
-50.048
-49.917
-49.826
-49.777
-49.774
-49.818
-49.91
-50.053
-50.247
-50.492
-50.789
-51.135
-51.531
-51.974
-52.461
-52.99
-53.559
-54.164
-54.8
-55.465
-56.154
-56.862
-57.585
-58.318
-59.057
-59.795
-60.529
-61.254
-61.964
-62.655
-63.322
-63.96
-64.566
-65.134
-65.661
-66.145
-66.582
-66.969
-67.306
-67.591
-67.824
-68.007
-68.14
-68.226
-68.268
-68.271
-68.238
-68.176
-68.09
-67.984
-67.866
-67.741
-67.615
-67.494
-67.384
-67.291
-67.223
-67.187
-67.19
-67.237
-67.337
-67.497
-67.723
-68.022
-68.395
-68.846
-69.379
-69.999
-70.713
-71.522
-72.425
-73.418
-74.497
-75.656
-76.886
-78.172
-79.49
-80.818
-82.139
-83.442
-84.718
-85.957
-87.14
-88.248
-89.266
-90.188
-91.017
-91.75
-92.382
-92.915
-93.364
-93.762
-94.157
-94.582
-95.057
-95.589
-96.182
-96.846
-97.603
-98.468
-99.442
-100.512
-101.647
-102.832
-104.079
-105.354
-106.573
-107.585
-108.164
-108.136
-107.404
-105.854
-103.348
-99.829
-95.304
-89.936
-84.143
-78.279
-72.524
-67.147
-62.406
-58.322
-54.899
-51.624
-47.153
-40.804
-32.404
-22.103
-11.174
0.716
15.508
34.75
60.286
90.906
121.866
148.996
168.614
180.004
186.14
188.866
187.792
179.901
160.038
124.553
74.502
15.961
-42.061
-89.455
-119.629
-132.119
-130.29
-120.513
-108.751
-97.11
-85.665
-73.239
-58.409
-41.737
-24.685
-8.739
4.466
14.202
20.612
24.102
25.293
24.818
23.146
20.766
18.4
16.731
16.122
16.692
18.339
20.827
23.972
27.581
31.3
34.745
37.689
40.033
41.817
43.18
44.211
44.974
45.577
46.141
46.738
47.402
48.112
48.804
49.435
49.979
50.408
50.701
50.832
50.782
50.534
50.079
49.408
48.519
47.408
46.076
44.526
42.764
40.801
38.654
36.337
33.863
31.244
28.49
25.616
22.64
19.579
16.453
13.281
10.079
6.867
3.665
0.49
-2.641
-5.712
-8.709
-11.618
-14.421
-17.105
-19.655
-22.057
-24.299
-26.37
-28.259
-29.957
-31.457
-32.754
-33.842
-34.718
-35.382
-35.83
-36.065
-36.088
-35.902
-35.512
-34.924
-34.143
-33.18
-32.042
-30.74
-29.286
-27.69
-25.966
-24.127
-22.185
-20.156
-18.052
-15.889
-13.68
-11.441
-9.185
-6.927
-4.68
-2.459
-0.275
1.858
3.928
5.923
7.835
9.652
11.365
12.967
14.449
15.806
17.031
18.119
19.068
19.872
20.531
21.043
21.408
21.624
21.694
21.619
21.402
21.043
20.548
19.92
19.161
18.278
17.275
16.156
14.927
13.594
12.162
10.637
9.025
7.331
5.563
3.726
1.826
-0.132
-2.141
-4.195
-6.29
-8.419
-10.577
-12.759
-14.959
-17.175
-19.4
-21.63
-23.862
-26.091
-28.313
-30.526
-32.724
-34.906
-37.067
-39.204
-41.314
-43.393
-45.437
-47.444
-49.41
-51.331
-53.205
-55.028
-56.797
-58.51
-60.162
-61.751
-63.274
-64.728
-66.11
-67.418
-68.649
-69.8
-70.869
-71.855
-72.755
-73.566
-74.288
-74.918
-75.455
-75.899
-76.247
-76.499
-76.655
-76.715
-76.679
-76.548
-76.324
-76.008
-75.605
-75.117
-74.55
-73.906
-73.191
-72.41
-71.567
-70.668
-69.717
-68.719
-67.678
-66.602
-65.496
-64.367
-63.222
-62.067
-60.909
-59.754
-58.61
-57.482
-56.372
-55.285
-54.226
-53.203
-52.225
-51.301
-50.435
-49.629
-48.885
-48.201
-47.574
-46.994
-46.445
-45.914
-45.388
-44.859
-44.324
-43.776
-43.203
-42.594
-41.932
-41.21
-40.429
-39.585
-38.68
-37.732
-36.761
-35.807
-34.918
-34.127
-33.462
-32.957
-32.638
-32.538
-32.69
-33.114
-33.833
-34.882
-36.258
-37.932
-39.833
-41.817
-43.736
-45.46
-46.822
-47.642
-47.835
-47.398
-46.438
-45.229
-44.007
-42.924
-42.181
-41.976
-42.335
-43.061
-43.728
-43.669
-42.214
-38.735
-32.521
-22.868
-9.632
6.553
24.841
44.554
66.058
90.204
116.382
141.928
161.894
171.67
169.665
157.176
137.992
115.03
88.763
59.129
26.459
-6.52
-35.555
-57.832
-73.11
-84.267
-94.761
-106.343
-118.861
-130.274
-138.917
-144.626
-147.977
-150.065
-151.649
-152.714
-153.074
-152.634
-151.367
-149.249
-146.22
-142.113
-136.732
-130.093
-122.353
-113.668
-104.237
-94.254
-83.881
-73.334
-62.862
-52.618
-42.693
-33.156
-24.043
-15.426
-7.419
-0.093
6.524
12.422
17.629
22.177
26.089
29.415
32.223
34.576
36.545
38.181
39.512
40.585
41.458
42.213
42.961
43.784
44.738
45.864
47.182
48.702
50.436
52.37
54.476
56.725
59.094
61.565
64.135
66.784
69.48
72.182
74.828
77.377
79.801
82.082
84.208
86.174
87.978
89.632
91.162
92.589
93.93
95.201
96.412
97.579
98.725
99.875
101.058
102.3
103.616
105.023
106.535
108.16
109.907
111.779
113.772
115.885
118.119
120.475
122.956
125.563
128.293
131.146
134.119
137.209
140.415
143.734
147.161
150.693
154.327
158.059
161.885
165.801
169.801
173.876
178.021
182.225
186.48
190.775
195.102
199.449
203.805
208.16
212.502
216.822
221.107
225.345
229.527
233.64
237.673
241.614
245.452
249.178
252.778
256.244
259.565
262.731
265.733
268.563
271.211
273.673
275.939
278.006
279.867
281.518
282.957
284.18
285.187
285.977
286.55
286.908
287.053
286.988
286.717
286.244
285.576
284.718
283.677
282.46
281.076
279.533
277.84
276.009
274.048
271.968
269.782
267.498
265.13
262.689
260.185
257.631
255.037
252.414
249.774
247.126
244.481
241.848
239.235
236.652
234.106
231.604
229.153
226.757
224.423
222.155
219.956
217.83
215.779
213.805
211.909
210.092
208.352
206.69
205.104
203.592
202.151
200.777
199.468
198.219
197.026
195.883
194.786
193.729
192.707
191.714
190.744
189.791
188.85
187.914
186.978
186.037
185.086
184.118
183.13
182.118
181.076
180
178.887
177.733
176.535
175.289
173.994
172.646
171.244
169.786
168.271
166.697
165.065
163.374
161.625
159.817
157.952
156.03
154.054
152.024
149.943
147.812
145.635
143.413
141.15
138.847
136.507
134.133
131.727
129.293
126.832
124.346
121.839
119.313
116.77
114.213
111.643
109.064
106.476
103.882
101.284
98.683
96.08
93.477
90.875
88.274
85.676
83.081
80.488
77.898
75.311
72.725
70.141
67.558
64.973
62.387
59.797
57.203
54.604
51.997
49.383
46.759
44.125
41.479
38.82
36.148
33.461
30.758
28.038
25.301
22.546
19.772
16.98
14.17
11.341
8.493
5.628
2.745
-0.155
-3.069
-5.998
-8.939
-11.89
-14.848
-17.813
-20.78
-23.746
-26.709
-29.666
-32.612
-35.546
-38.463
-41.36
-44.234
-47.082
-49.899
-52.683
-55.43
-58.137
-60.801
-63.42
-65.99
-68.508
-70.974
-73.383
-75.735
-78.028
-80.259
-82.429
-84.535
-86.578
-88.556
-90.471
-92.322
-94.111
-95.839
-97.508
-99.119
-100.675
-102.178
-103.632
-105.038
-106.402
-107.725
-109.011
-110.264
-111.488
-112.687
-113.865
-115.027
-116.175
-117.314
-118.448
-119.581
-120.717
-121.859
-123.012
-124.177
-125.36
-126.562
-127.787
-129.037
-130.315
-131.622
-132.961
-134.332
-135.736
-137.173
-138.645
-140.15
-141.689
-143.26
-144.863
-146.496
-148.158
-149.847
-151.56
-153.296
-155.053
-156.826
-158.614
-160.413
-162.22
-164.032
-165.846
-167.658
-169.465
-171.263
-173.049
-174.82
-176.571
-178.3
-180.003
-181.676
-183.317
-184.921
-186.488
-188.013
-189.494
-190.929
-192.315
-193.65
-194.932
-196.158
-197.328
-198.438
-199.487
-200.474
-201.396
-202.253
-203.043
-203.765
-204.417
-204.999
-205.51
-205.948
-206.313
-206.603
-206.816
-206.954
-207.014
-206.996
-206.899
-206.722
-206.466
-206.129
-205.712
-205.214
-204.635
-203.974
-203.231
-202.408
-201.503
-200.518
-199.453
-198.309
-197.088
-195.792
-194.422
-192.982
-191.472
-189.896
-188.258
-186.559
-184.805
-182.999
-181.145
-179.249
-177.316
-175.353
-173.367
-171.365
-169.352
-167.338
-165.329
-163.333
-161.355
-159.402
-157.48
-155.595
-153.756
-151.967
-150.236
-148.569
-146.972
-145.451
-144.012
-142.66
-141.4
-140.232
-139.16
-138.189
-137.325
-136.575
-135.945
-135.434
-135.045
-134.779
-134.634
-134.605
-134.682
-134.846
-135.084
-135.381
-135.727
-136.109
-136.514
-136.923
-137.318
-137.685
-138.011
-138.293
-138.527
-138.711
-138.853
-138.966
-139.077
-139.231
-139.473
-139.84
-140.378
-141.117
-142.101
-143.394
-145.017
-146.963
-149.196
-151.628
-154.182
-156.802
-159.372
-161.757
-163.893
-165.728
-167.295
-168.758
-170.213
-171.735
-173.48
-175.497
-177.683
-179.987
-182.268
-184.153
-185.381
-185.176
-182.199
-175.843
-166.127
-154.309
-142.727
-132.057
-121.117
-107.25
-87.26
-60.879
-30.797
-1.124
23.801
41.788
52.321
54.954
48.001
28.716
-5.312
-55.085
-116.551
-181.952
-242.262
-287.667
-314.505
-325.065
-323.931
-318.365
-311.81
-303.123
-291.871
-277.614
-261.891
-249.067
-240.907
-236.735
-235.474
-234.774
-233.9
-234.16
-236.052
-239.845
-245.221
-250.81
-255.757
-259.678
-262.359
-263.95
-264.606
-264.395
-263.473
-262.063
-260.429
-258.851
-257.468
-256.306
-255.364
-254.606
-253.978
-253.387
-252.628
-251.469
-249.83
-247.747
-245.248
-242.381
-239.242
-236.018
-232.983
-230.486
-228.394
-226
-223.188
-220.115
-217.39
-216.452
-216.693
-215.93
-212.107
-202.649
-187.763
-170.422
-153.025
-138.094
-126.518
-117.038
-109.081
-102.193
-96.064
-91.088
-87.19
-84.022
-81.357
-78.819
-76.066
-73.022
-69.744
-66.415
-63.342
-60.726
-58.619
-57.069
-56.117
-55.743
-55.916
-56.533
-57.404
-58.417
-59.53
-60.729
-62.039
-63.47
-65.006
-66.641
-68.379
-70.198
-72.076
-73.966
-75.795
-77.518
-79.077
-80.417
-81.501
-82.28
-82.691
-82.663
-82.138
-81.079
-79.488
-77.415
-74.915
-72.035
-68.81
-65.292
-61.485
-57.321
-52.702
-47.468
-41.497
-34.787
-27.457
-19.705
-11.891
-4.498
1.986
7.044
10.248
11.378
10.389
7.421
2.848
-2.815
-9.086
-15.481
-21.598
-27.177
-32.056
-36.201
-39.745
-42.913
-45.865
-48.727
-51.572
-54.401
-57.212
-59.984
-62.644
-65.089
-67.256
-69.122
-70.704
-72.064
-73.259
-74.328
-75.311
-76.251
-77.19
-78.164
-79.197
-80.296
-81.459
-82.686
-83.982
-85.354
-86.808
-88.348
-89.966
-91.645
-93.369
-95.125
-96.903
-98.686
-100.452
-102.162
-103.788
-105.308
-106.705
-107.974
-109.102
-110.071
-110.866
-111.47
-111.873
-112.078
-112.088
-111.903
-111.526
-110.96
-110.222
-109.355
-108.397
-107.382
-106.34
-105.284
-104.226
-103.188
-102.198
-101.284
-100.459
-99.729
-99.123
-98.704
-98.581
-98.875
-99.667
-101.009
-102.962
-105.527
-108.611
-112.041
-115.478
-118.512
-120.762
-121.839
-121.411
-119.257
-115.289
-109.725
-103.027
-95.967
-89.822
-85.429
-83.183
-83.096
-83.373
-82.531
-80.637
-77.936
-77.577
-83.17
-93.741
-105.514
-109.15
-91.284
-44.35
32.455
131.061
235.051
330.967
411.773
477.94
537.056
594.935
653.273
710.081
760.322
801.508
833.854
859.102
880.177
898.347
914.08
927.889
940.326
952.989
967.273
983.569
1001.202
1018.146
1032.081
1042.033
1049.012
1055.688
1066.195
1082.852
1103.128
1120.137
1121.7
1095.028
1033.953
940.001
824.471
704.636
594.752
503.596
432.94
379.319
339.986
314.318
302.66
304.015
314.241
326.157
331.968
327.888
313.977
293.893
274.332
260.08
254.384
258.62
270.725
288.083
307.389
325.604
341.522
354.661
365.273
373.155
377.149
376.304
369.828
357.395
339.301
314.883
283.051
244.178
200.446
156.964
120.204
94.901
82.169
78.727
79.285
77.723
69.876
55.247
34.669
12.21
-7.214
-21.144
-27.887
-29.391
-29.685
-30.942
-34.672
-40.085
-44.73
-47.494
-47.773
-45.648
-41.997
-37.133
-31.143
-24.241
-16.499
-8.085
0.751
9.868
19.177
28.579
37.985
47.33
56.551
65.593
74.405
82.908
90.993
98.546
105.479
111.735
117.298
122.183
126.41
130.012
133.018
135.46
137.384
138.832
139.84
140.448
140.705
140.677
140.466
140.177
139.887
139.656
139.518
139.489
139.585
139.807
140.146
140.584
141.101
141.678
142.305
142.966
143.634
144.27
144.815
145.215
145.435
145.449
145.243
144.809
144.142
143.248
142.144
140.851
139.391
137.778
136.027
134.153
132.179
130.134
128.05
125.956
123.872
121.819
119.813
117.869
115.998
114.209
112.505
110.888
109.363
107.936
106.614
105.402
104.304
103.321
102.457
101.711
101.088
100.588
100.211
99.958
99.827
99.82
99.935
100.17
100.522
100.985
101.553
102.22
102.978
103.817
104.729
105.703
106.729
107.797
108.894
110.01
111.131
112.245
113.34
114.403
115.42
116.379
117.266
118.07
118.776
119.372
119.848
120.19
120.388
120.431
120.31
120.015
119.539
118.875
118.016
116.957
115.695
114.227
112.55
110.664
108.569
106.268
103.762
101.056
98.154
95.062
91.788
88.338
84.722
80.949
77.03
72.975
68.797
64.507
60.119
55.647
51.103
46.503
41.859
37.187
32.5
27.812
23.138
18.491
13.885
9.331
4.843
0.432
-3.89
-8.113
-12.227
-16.223
-20.093
-23.828
-27.423
-30.871
-34.168
-37.309
-40.291
-43.111
-45.767
-48.26
-50.588
-52.752
-54.755
-56.597
-58.281
-59.812
-61.193
-62.428
-63.521
-64.479
-65.307
-66.009
-66.593
-67.065
-67.43
-67.696
-67.868
-67.954
-67.959
-67.891
-67.756
-67.56
-67.309
-67.009
-66.667
-66.288
-65.879
-65.444
-64.988
-64.518
-64.038
-63.553
-63.067
-62.584
-62.11
-61.647
-61.2
-60.773
-60.368
-59.991
-59.643
-59.329
-59.052
-58.815
-58.621
-58.474
-58.377
-58.332
-58.343
-58.412
-58.544
-58.74
-59.003
-59.336
-59.742
-60.222
-60.78
-61.417
-62.136
-62.937
-63.822
-64.793
-65.851
-66.996
-68.229
-69.55
-70.96
-72.457
-74.041
-75.711
-77.465
-79.303
-81.22
-83.216
-85.286
-87.426
-89.634
-91.905
-94.234
-96.616
-99.045
-101.516
-104.022
-106.556
-109.113
-111.685
-114.264
-116.844
-119.417
-121.976
-124.513
-127.02
-129.491
-131.918
-134.293
-136.61
-138.861
-141.04
-143.14
-145.155
-147.08
-148.907
-150.634
-152.254
-153.764
-155.159
-156.437
-157.595
-158.631
-159.542
-160.329
-160.991
-161.527
-161.938
-162.226
-162.392
-162.439
-162.368
-162.184
-161.889
-161.487
-160.982
-160.379
-159.681
-158.893
-158.019
-157.066
-156.036
-154.936
-153.77
-152.543
-151.26
-149.924
-148.542
-147.115
-145.65
-144.148
-142.614
-141.05
-139.459
-137.842
-136.201
-134.538
-132.852
-131.145
-129.415
-127.662
-125.884
-124.08
-122.248
-120.384
-118.487
-116.554
-114.58
-112.564
-110.5
-108.387
-106.22
-103.995
-101.709
-99.359
-96.94
-94.451
-91.887
-89.247
-86.527
-83.726
-80.842
-77.874
-74.821
-71.682
-68.458
-65.151
-61.761
-58.291
-54.743
-51.121
-47.429
-43.673
-39.857
-35.988
-32.072
-28.117
-24.13
-20.119
-16.093
-12.061
-8.032
-4.015
-0.02
3.944
7.868
11.742
15.556
19.301
22.968
26.548
30.032
33.412
36.681
39.831
42.855
45.748
48.504
51.118
53.587
55.908
58.077
60.093
61.956
63.667
65.226
66.635
67.897
69.017
69.998
70.848
71.571
72.174
72.665
73.051
73.341
73.543
73.667
73.721
73.715
73.659
73.563
73.436
73.289
73.131
72.97
72.818
72.682
72.57
72.491
72.45
72.455
72.512
72.626
72.801
73.041
73.348
73.725
74.172
74.689
75.274
75.923
76.634
77.4
78.218
79.082
79.983
80.916
81.875
82.853
83.844
84.839
85.831
86.81
87.767
88.693
89.579
90.414
91.189
91.895
92.527
93.078
93.543
93.915
94.188
94.349
94.391
94.309
94.098
93.758
93.29
92.698
91.991
91.186
90.295
89.332
88.309
87.233
86.115
84.964
83.786
82.596
81.405
80.219
79.042
77.867
76.677
75.457
74.184
72.827
71.358
69.739
67.927
65.891
63.598
61.043
58.22
55.097
51.666
47.947
44.005
40.001
36.098
32.385
28.976
26.019
23.593
21.775
20.511
19.477
18.392
17.098
15.377
13.031
9.99
6.171
2.137
-0.774
-1.604
0.103
3.693
7.663
11.9
18
29.107
47.976
74.187
104.538
133.571
156.981
173.989
184.595
189.775
188.814
177.375
153.091
114.865
63.491
5.108
-54.425
-109.211
-152.641
-182.92
-200.576
-207.911
-209.513
-207.772
-202.851
-194.267
-181.928
-166.958
-152.138
-140.459
-132.563
-128.504
-127.692
-128.763
-132.027
-137.581
-144.855
-153.595
-162.68
-170.978
-177.99
-183.373
-187.146
-189.573
-190.889
-191.356
-191.318
-191.134
-191.117
-191.432
-192.095
-193.027
-194.109
-195.242
-196.331
-197.266
-197.941
-198.303
-198.346
-198.101
-197.616
-196.928
-196.057
-195.026
-193.864
-192.598
-191.252
-189.848
-188.397
-186.909
-185.394
-183.863
-182.326
-180.789
-179.258
-177.732
-176.216
-174.716
-173.24
-171.795
-170.39
-169.029
-167.714
-166.447
-165.233
-164.075
-162.976
-161.939
-160.967
-160.063
-159.233
-158.483
-157.816
-157.235
-156.742
-156.34
-156.029
-155.812
-155.689
-155.662
-155.732
-155.899
-156.166
-156.533
-157
-157.568
-158.236
-159.003
-159.867
-160.828
-161.882
-163.027
-164.259
-165.576
-166.973
-168.447
-169.993
-171.607
-173.281
-175.012
-176.794
-178.619
-180.482
-182.375
-184.293
-186.228
-188.174
-190.123
-192.068
-194.004
-195.922
-197.816
-199.68
-201.507
-203.292
-205.027
-206.708
-208.33
-209.887
-211.376
-212.793
-214.135
-215.4
-216.587
-217.693
-218.718
-219.663
-220.529
-221.317
-222.029
-222.667
-223.237
-223.74
-224.183
-224.569
-224.903
-225.192
-225.441
-225.655
-225.841
-226.004
-226.15
-226.286
-226.416
-226.547
-226.683
-226.829
-226.99
-227.169
-227.37
-227.596
-227.849
-228.13
-228.44
-228.779
-229.147
-229.542
-229.962
-230.404
-230.863
-231.337
-231.818
-232.301
-232.779
-233.244
-233.689
-234.105
-234.484
-234.817
-235.094
-235.307
-235.447
-235.503
-235.467
-235.329
-235.082
-234.716
-234.223
-233.595
-232.826
-231.91
-230.841
-229.614
-228.225
-226.673
-224.953
-223.066
-221.009
-218.784
-216.392
-213.836
-211.119
-208.247
-205.225
-202.059
-198.759
-195.331
-191.785
-188.131
-184.378
-180.537
-176.617
-172.63
-168.587
-164.499
-160.38
-156.239
-152.089
-147.943
-143.812
-139.706
-135.637
-131.612
-127.641
-123.73
-119.887
-116.116
-112.419
-108.801
-105.264
-101.808
-98.435
-95.143
-91.929
-88.788
-85.717
-82.707
-79.751
-76.841
-73.967
-71.12
-68.293
-65.481
-62.679
-59.883
-57.083
-54.274
-51.444
-48.579
-45.661
-42.667
-39.573
-36.362
-33.019
-29.533
-25.898
-22.1
-18.131
-13.99
-9.664
-5.142
-0.417
4.529
9.695
15.055
20.57
26.18
31.82
37.451
43.022
48.468
53.76
58.879
63.854
68.787
73.746
78.751
83.85
89.084
94.471
100.014
105.591
110.947
115.857
120.131
123.597
126.108
127.575
128.051
127.867
127.633
128.036
129.71
133.34
139.669
149.331
162.795
179.622
198.425
218.032
237.33
256.246
275.942
295.902
314.476
328.433
332.274
322.893
299.443
263.639
221.386
178.177
138.867
106.809
81.492
61.421
44.178
27.424
11.005
-4.332
-17.289
-26.702
-32.578
-35.759
-37.295
-37.938
-38.082
-37.726
-36.702
-35.024
-32.681
-29.516
-25.373
-20.045
-13.309
-5.17
4.259
14.866
26.462
38.844
51.812
65.097
78.441
91.687
104.739
117.53
130.005
142.066
153.585
164.469
174.638
184.018
192.527
200.067
206.567
211.996
216.36
219.704
222.057
223.43
223.836
223.3
221.863
219.598
216.578
212.863
208.543
203.72
198.514
193.073
187.517
181.935
176.403
170.966
165.667
160.558
155.668
151.016
146.623
142.5
138.667
135.161
131.981
129.103
126.489
124.065
121.773
119.568
117.391
115.205
112.989
110.722
108.408
106.062
103.684
101.274
98.823
96.303
93.711
91.059
88.361
85.654
82.976
80.366
77.88
75.565
73.449
71.557
69.894
68.459
67.258
66.296
65.58
65.123
64.934
65.017
65.377
66.008
66.9
68.037
69.395
70.947
72.676
74.569
76.615
78.811
81.149
83.622
86.227
88.958
91.807
94.765
97.82
100.961
104.182
107.473
110.832
114.251
117.726
121.248
124.811
128.405
132.021
135.648
139.274
142.887
146.476
150.031
153.543
157.001
160.397
163.721
166.967
170.126
173.19
176.151
179.001
181.733
184.338
186.812
189.147
191.338
193.38
195.269
197.001
198.575
199.987
201.235
202.318
203.236
203.989
204.577
205.002
205.266
205.371
205.321
205.12
204.775
204.288
203.668
202.918
202.046
201.057
199.958
198.756
197.457
196.068
194.596
193.048
191.431
189.752
188.016
186.232
184.404
182.539
180.641
178.716
176.768
174.801
172.818
170.824
168.821
166.811
164.796
162.778
160.758
158.735
156.71
154.682
152.649
150.612
148.567
146.513
144.449
142.373
140.283
138.176
136.051
133.905
131.738
129.547
127.33
125.087
122.816
120.516
118.186
115.828
113.44
111.024
108.579
106.107
103.61
101.088
98.542
95.976
93.39
90.788
88.172
85.545
82.91
80.271
77.632
74.997
72.369
69.752
67.15
64.566
62.003
59.464
56.953
54.472
52.023
49.609
47.232
44.895
42.597
40.342
38.129
35.959
33.832
31.75
29.712
27.719
25.771
23.87
22.016
20.211
18.456
16.753
15.105
13.512
11.978
10.502
9.088
7.736
6.449
5.229
4.079
3.003
2.004
1.089
0.265
-0.461
-1.082
-1.591
-1.982
-2.248
-2.379
-2.37
-2.216
-1.908
-1.44
-0.801
0.024
1.043
2.26
3.675
5.285
7.085
9.076
11.252
13.602
16.121
18.809
21.672
24.726
27.98
31.434
35.081
38.905
42.897
47.059
51.393
55.902
60.591
65.457
70.51
75.771
81.242
86.907
92.734
98.66
104.64
110.645
116.645
122.627
128.565
134.421
140.164
145.767
151.196
156.421
161.394
166.049
170.346
174.274
177.843
181.097
184.064
186.756
189.185
191.361
193.294
195.006
196.508
197.8
198.897
199.814
200.586
201.266
201.885
202.454
202.968
203.4
203.735
203.972
204.106
204.133
204.053
203.864
203.575
203.209
202.777
202.286
201.735
201.112
200.416
199.658
198.851
198.018
197.179
196.345
195.533
194.76
194.039
193.379
192.786
192.256
191.789
191.389
191.061
190.812
190.645
190.561
190.562
190.647
190.815
191.066
191.398
191.807
192.29
192.847
193.476
194.18
194.958
195.81
196.735
197.732
198.8
199.939
201.147
202.422
203.762
205.165
206.629
208.155
209.74
211.382
213.08
214.832
216.636
218.491
220.393
222.34
224.328
226.356
228.42
230.516
232.64
234.789
236.958
239.143
241.337
243.537
245.737
247.929
250.108
252.268
254.401
256.502
258.561
260.573
262.528
264.421
266.244
267.988
269.646
271.21
272.672
274.025
275.26
276.371
277.351
278.192
278.888
279.433
279.821
280.047
280.103
279.984
279.684
279.201
278.53
277.668
276.613
275.363
273.919
272.282
270.453
268.433
266.221
263.821
261.236
258.469
255.524
252.405
249.117
245.665
242.06
238.308
234.418
230.393
226.234
221.948
217.545
213.034
208.428
203.738
198.977
194.164
189.327
184.491
179.675
174.897
170.167
165.504
160.93
156.466
152.135
147.945
143.9
140
136.248
132.634
129.139
125.734
122.368
118.996
115.581
112.08
108.459
104.682
100.7
96.459
91.939
87.153
82.144
76.987
71.752
66.496
61.323
56.385
51.792
47.608
43.832
40.366
37.155
34.22
31.522
28.977
26.564
24.259
22.126
20.419
19.344
19.035
19.776
21.896
25.675
31.564
39.98
51.089
65.154
81.988
100.481
119.5
137.813
154.741
171.326
188.047
203.864
216.089
218.817
206.363
175.99
127.539
65.703
-2.042
-68.631
-126.996
-172.826
-205.156
-224.721
-233.934
-234.885
-228.644
-216.062
-198.886
-180.583
-164.883
-154.713
-150.541
-150.069
-151.049
-152.045
-153.102
-156.009
-161.742
-170.078
-180.097
-190.005
-198.514
-205.287
-210.301
-213.814
-216.161
-217.581
-218.373
-218.999
-219.894
-221.287
-223.262
-225.784
-228.719
-231.934
-235.313
-238.702
-241.955
-245.011
-247.846
-250.475
-252.948
-255.308
-257.582
-259.802
-261.998
-264.184
-266.376
-268.588
-270.831
-273.128
-275.498
-277.952
-280.502
-283.154
-285.912
-288.782
-291.762
-294.846
-298.032
-301.32
-304.709
-308.198
-311.782
-315.453
-319.201
-323.021
-326.903
-330.841
-334.825
-338.848
-342.903
-346.988
-351.102
-355.242
-359.404
-363.583
-367.781
-372.001
-376.25
-380.527
-384.829
-389.151
-393.484
-397.819
-402.147
-406.443
-410.683
-414.843
-418.89
-422.803
-426.561
-430.142
-433.517
-436.661
-439.525
-442.073
-444.319
-446.275
-447.968
-449.445
-450.707
-451.766
-452.719
-453.665
-454.609
-455.538
-456.359
-456.921
-457.261
-457.464
-457.505
-457.336
-456.991
-456.579
-456.408
-456.94
-458.392
-460.787
-464.156
-468.502
-473.696
-479.39
-484.886
-489.131
-491.123
-490.091
-485.358
-476.329
-462.704
-444.574
-422.457
-397.38
-370.616
-343.339
-316.732
-291.999
-269.997
-251.194
-235.754
-223.415
-213.635
-205.896
-199.558
-193.823
-188.16
-182.294
-176.076
-169.616
-163.157
-156.879
-151.067
-146.13
-142.309
-139.715
-138.389
-138.208
-139.009
-140.67
-143.016
-145.843
-149.019
-152.448
-156.068
-159.885
-163.91
-168.148
-172.62
-177.34
-182.299
-187.481
-192.864
-198.411
-204.097
-209.885
-215.723
-221.551
-227.314
-232.956
-238.427
-243.682
-248.665
-253.32
-257.603
-261.479
-264.928
-267.941
-270.52
-272.672
-274.429
-275.839
-276.972
-277.915
-278.747
-279.536
-280.353
-281.259
-282.32
-283.603
-285.15
-286.982
-289.115
-291.556
-294.31
-297.377
-300.729
-304.302
-308.033
-311.849
-315.682
-319.487
-323.194
-326.719
-330.006
-333.014
-335.77
-338.408
-341.072
-343.875
-346.952
-350.4
-354.292
-358.76
-363.717
-368.769
-373.533
-377.63
-381.178
-384.955
-389.468
-394.7
-399.765
-403.315
-405.498
-408.617
-416.63
-433.58
-461.177
-497.423
-538.032
-578.497
-614.821
-645.719
-671.266
-691.224
-707.022
-719.361
-728.63
-736.468
-743.041
-748.683
-754.362
-760.213
-766.852
-774.851
-784.048
-794.205
-804.979
-815.877
-826.531
-836.758
-846.392
-855.29
-863.429
-870.854
-877.585
-883.682
-889.255
-894.346
-899.094
-903.78
-908.609
-913.754
-919.403
-925.626
-932.346
-939.433
-946.469
-952.783
-957.768
-960.711
-960.899
-957.837
-951.201
-941.367
-929.58
-917.194
-905.629
-894.947
-883.641
-870.999
-856.874
-844.367
-839.929
-848.969
-875.384
-917.171
-966.17
-1012.036
-1043.836
-1056.165
-1049.393
-1028.558
-1002.004
-975.115
-951.49
-932.705
-918.846
-912.368
-913.761
-919.475
-920.903
-903.704
-855.12
-769.872
-652.912
-519.305
-387.493
-272.079
-181.148
-115.264
-70.122
-41.691
-24.77
-13.749
-3.457
13.99
42.848
82.547
130.102
176.931
216.213
245.9
265.427
279.02
291.35
303.808
317.584
331.718
343.965
353.856
361.213
366.35
370.635
374.986
379.942
386.088
393.637
402.69
413.5
426.242
440.936
457.485
475.595
494.81
514.782
535.228
555.796
576.012
595.271
612.996
628.85
642.682
654.4
663.927
671.189
676.402
680.122
682.908
685.239
687.435
689.601
691.919
694.757
698.2
702.103
706.424
711.04
715.863
721.099
726.43
730.797
733.869
735.577
736.135
737.196
738.67
738.399
734.135
722.008
700.373
672.101
641.398
614.609
596.892
588.718
588.336
591.999
596.157
599.769
603.077
607.028
612.099
617.866
623.516
628.048
630.999
632.366
632.428
631.844
631.16
630.593
630.285
630.28
630.568
631.251
632.274
633.357
634.276
634.919
635.255
635.357
635.276
634.982
634.507
633.968
633.482
633.167
633.081
633.198
633.475
633.831
634.174
634.453
634.605
634.539
634.232
633.676
632.898
632.063
631.282
630.484
629.55
628.255
626.223
623.158
618.749
612.557
604.288
593.893
581.443
567.255
551.863
535.676
519.081
502.55
486.404
470.852
456.039
441.918
428.318
415.198
402.582
390.488
379.029
368.305
358.369
349.322
341.275
334.291
328.376
323.506
319.581
316.455
314.054
312.362
311.379
311.088
311.448
312.37
313.844
316.012
318.898
322.403
326.347
330.411
334.355
338.069
341.318
343.762
345.188
345.461
344.657
343.163
341.238
339.008
336.709
334.538
332.7
331.488
330.917
330.74
330.87
331.303
332.048
333.244
334.831
336.537
338.287
340.117
341.977
343.808
345.446
346.608
347.24
347.484
347.414
347.078
346.505
345.669
344.625
343.495
342.295
340.955
339.405
337.583
335.476
333.124
330.552
327.759
324.749
321.541
318.161
314.636
310.981
307.192
303.267
299.214
295.06
290.836
286.577
282.306
278.038
273.79
269.579
265.422
261.334
257.317
253.363
249.475
245.664
241.941
238.316
234.775
231.282
227.813
224.351
220.9
217.471
214.054
210.65
207.295
204.062
201.059
198.376
196.029
194.013
192.359
191.073
190.141
189.499
189.023
188.657
188.47
188.591
189.136
190.254
192.127
194.964
199.009
204.39
211.084
218.944
227.768
237.261
247.038
256.738
265.975
274.42
281.855
288.144
293.259
297.352
300.696
303.49
305.937
308.238
310.555
313.077
315.889
318.89
321.872
324.688
327.237
329.457
331.298
332.642
333.416
333.65
333.435
332.862
331.974
330.757
329.195
327.312
325.142
322.729
320.113
317.297
314.28
311.062
307.613
303.921
299.982
295.744
291.119
286.064
280.607
274.886
269.154
263.582
258.189
252.961
247.878
242.869
237.737
232.029
224.98
215.857
204.222
189.779
172.309
151.64
127.635
100.516
71.035
40.092
8.405
-23.362
-54.599
-84.622
-112.536
-137.74
-160.128
-179.794
-196.893
-211.662
-224.328
-235.303
-245.293
-254.812
-264.105
-273.321
-282.478
-291.549
-300.54
-309.318
-317.608
-325.28
-332.331
-338.807
-344.818
-350.444
-355.732
-360.78
-365.738
-370.687
-375.641
-380.572
-385.405
-390.093
-394.622
-398.967
-403.082
-406.923
-410.466
-413.721
-416.757
-419.653
-422.46
-425.215
-427.937
-430.648
-433.393
-436.226
-439.186
-442.313
-445.638
-449.197
-453.056
-457.265
-461.847
-466.784
-471.996
-477.384
-482.876
-488.411
-493.941
-499.422
-504.789
-509.975
-514.93
-519.594
-523.895
-527.732
-530.962
-533.448
-535.083
-535.799
-535.588
-534.456
-532.401
-529.42
-525.518
-520.701
-514.981
-508.366
-500.842
-492.414
-483.115
-473.021
-462.254
-450.948
-439.23
-427.204
-414.948
-402.538
-390.047
-377.54
-365.067
-352.675
-340.42
-328.385
-316.681
-305.413
-294.668
-284.501
-274.942
-266.017
-257.735
-250.109
-243.152
-236.859
-231.234
-226.297
-222.08
-218.629
-215.974
-214.102
-212.975
-212.563
-212.803
-213.614
-214.883
-216.441
-218.134
-219.852
-221.461
-222.823
-223.889
-224.682
-225.323
-226.057
-227.068
-228.432
-230.265
-232.67
-235.536
-238.553
-241.165
-242.534
-241.952
-238.939
-232.985
-223.63
-210.716
-194.355
-175.086
-153.919
-131.8
-109.5
-87.911
-67.935
-50.297
-35.592
-23.997
-15.203
-8.864
-4.651
-2.044
-0.468
0.63
1.851
3.524
5.653
8.182
11.021
13.998
16.973
19.879
22.633
25.343
28.349
32.113
37.151
43.985
53.138
64.942
79.579
97.124
117.378
139.771
163.594
187.633
209.908
229.091
244.196
254.546
261.074
263.584
260.232
249.483
228.233
194.712
151.656
103.142
56.075
18.548
-6.152
-17.611
-18.614
-14.883
-9.316
-2.37
6.899
20.663
39.274
61.382
85.179
108.762
130.922
150.879
167.945
181.71
192.012
199.067
203.405
205.479
205.822
205.147
204.155
203.515
203.623
204.51
206.025
207.983
210.136
212.172
213.755
214.544
214.384
213.3
211.407
208.887
205.921
202.692
199.399
196.218
193.251
190.536
188.071
185.825
183.773
181.886
180.124
178.445
176.807
175.182
173.537
171.834
170.035
168.109
166.029
163.788
161.384
158.817
156.094
153.228
150.234
147.136
143.955
140.707
137.413
134.099
130.789
127.518
124.311
121.189
118.168
115.261
112.478
109.826
107.309
104.926
102.677
100.56
98.575
96.724
95.006
93.418
91.955
90.613
89.387
88.274
87.268
86.365
85.561
84.851
84.23
83.697
83.245
82.871
82.566
82.325
82.141
82.008
81.918
81.865
81.842
81.841
81.858
81.886
81.919
81.953
81.981
82
82.004
81.989
81.952
81.889
81.796
81.671
81.512
81.316
81.082
80.807
80.491
80.133
79.731
79.287
78.799
78.268
77.694
77.078
76.421
75.725
74.99
74.219
73.412
72.574
71.704
70.807
69.884
68.939
67.973
66.99
65.992
64.982
63.963
62.937
61.906
60.875
59.844
58.817
57.798
56.788
55.79
54.808
53.844
52.901
51.981
51.088
50.223
49.389
48.588
47.822
47.094
46.404
45.756
45.151
44.592
44.079
43.614
43.197
42.829
42.511
42.241
42.022
41.851
41.73
41.66
41.64
41.673
41.759
41.897
42.087
42.328
42.62
42.958
43.339
43.761
44.22
44.714
45.24
45.797
46.38
46.988
47.619
48.268
48.934
49.612
50.294
50.977
51.658
52.336
53.015
53.695
54.37
55.036
55.691
56.326
56.931
57.493
57.987
58.396
58.702
58.889
58.948
58.864
58.618
58.197
57.586
56.776
55.771
54.574
53.183
51.611
49.866
47.971
45.972
43.904
41.805
39.718
37.672
35.714
33.913
32.288
30.833
29.506
28.187
26.781
25.237
23.44
21.279
18.742
15.841
12.74
9.782
7.208
5.189
3.927
3.492
3.749
4.483
5.152
4.887
2.91
-1.602
-9.555
-21.255
-36.289
-54.116
-73.771
-94.835
-118.603
-145.612
-174.993
-204.362
-227.868
-239.767
-237.395
-220.105
-191.486
-158.111
-125.281
-98.364
-81.695
-75.76
-79.83
-91.505
-105.42
-117.455
-125.195
-127.143
-125.296
-122.577
-120.391
-119.847
-120.023
-118.805
-115.229
-108.591
-98.862
-86.604
-71.861
-54.674
-35.343
-14.245
7.971
30.474
52.244
71.973
88.348
100.099
106.675
108.377
104.964
96.097
81.392
59.934
33.153
4.337
-23.407
-46.422
-63.789
-77.439
-89.007
-100.495
-112.255
-122.672
-130.868
-136.246
-138.908
-139.939
-139.926
-139.158
-137.94
-136.244
-134.111
-131.711
-129.047
-126.093
-122.837
-119.172
-114.962
-110.216
-105.002
-99.418
-93.633
-87.776
-81.938
-76.245
-70.828
-65.755
-61.048
-56.694
-52.636
-48.84
-45.291
-41.964
-38.832
-35.854
-32.986
-30.194
-27.453
-24.76
-22.124
-19.555
-17.06
-14.658
-12.37
-10.227
-8.259
-6.467
-4.836
-3.342
-1.964
-0.701
0.442
1.489
2.44
3.277
3.971
4.418
4.516
4.223
3.469
2.172
0.372
-1.847
-4.308
-6.639
-8.547
-9.876
-10.438
-10.196
-9.406
-8.477
-8.125
-9.411
-13.207
-20.212
-31.064
-46.015
-64.903
-87.305
-112.278
-138.453
-164.559
-189.362
-211.74
-231.017
-246.826
-259.053
-268.018
-274.326
-278.638
-281.754
-284.321
-286.667
-289.054
-291.507
-293.838
-295.981
-297.376
-297.294
-295.782
-292.708
-288.941
-286.033
-283.454
-280.344
-274.429
-262.432
-244.619
-223.105
-201.928
-185.965
-176.322
-171.216
-166.867
-159.359
-147.435
-132.077
-115.611
-99.907
-85.502
-72.079
-58.803
-45.261
-31.467
-17.532
-3.668
10.014
23.389
36.263
48.481
59.949
70.663
80.824
90.716
100.586
110.815
121.75
133.673
146.875
161.389
176.888
192.885
208.851
224.132
238.104
250.109
259.385
265.474
268.293
268.009
264.946
259.474
251.95
242.784
232.478
221.432
209.884
197.899
185.45
172.606
159.584
146.818
134.864
124.191
115.234
108.406
104.053
102.423
103.481
106.69
111.199
116.196
120.898
124.69
127.085
127.547
125.79
121.996
116.617
110.212
103.377
96.496
89.837
83.77
78.523
74.103
70.399
67.153
64.056
60.961
57.811
54.515
51.044
47.406
43.626
39.812
36.104
32.569
29.229
26.095
23.145
20.37
17.766
15.309
12.964
10.706
8.514
6.374
4.287
2.251
0.264
-1.675
-3.568
-5.414
-7.208
-8.94
-10.605
-12.2
-13.723
-15.174
-16.55
-17.847
-19.061
-20.188
-21.227
-22.175
-23.033
-23.797
-24.467
-25.042
-25.525
-25.917
-26.224
-26.445
-26.584
-26.642
-26.623
-26.529
-26.365
-26.134
-25.84
-25.488
-25.083
-24.634
-24.145
-23.624
-23.078
-22.512
-21.934
-21.351
-20.769
-20.195
-19.635
-19.095
-18.584
-18.105
-17.667
-17.273
-16.93
-16.642
-16.413
-16.248
-16.15
-16.122
-16.167
-16.287
-16.482
-16.756
-17.106
-17.535
-18.04
-18.622
-19.277
-20.004
-20.799
-21.659
-22.581
-23.56
-24.592
-25.671
-26.792
-27.951
-29.141
-30.356
-31.591
-32.839
-34.094
-35.35
-36.6
-37.839
-39.06
-40.257
-41.424
-42.555
-43.645
-44.688
-45.68
-46.615
-47.489
-48.298
-49.038
-49.706
-50.3
-50.815
-51.251
-51.606
-51.878
-52.067
-52.172
-52.194
-52.132
-51.988
-51.762
-51.457
-51.075
-50.618
-50.089
-49.491
-48.828
-48.104
-47.323
-46.489
-45.608
-44.685
-43.725
-42.734
-41.719
-40.684
-39.637
-38.584
-37.531
-36.484
-35.452
-34.439
-33.453
-32.501
-31.588
-30.721
-29.907
-29.15
-28.458
-27.836
-27.29
-26.823
-26.443
-26.152
-25.955
-25.856
-25.859
-25.966
-26.18
-26.504
-26.939
-27.486
-28.145
-28.918
-29.803
-30.8
-31.908
-33.123
-34.445
-35.869
-37.393
-39.013
-40.723
-42.52
-44.398
-46.351
-48.373
-50.457
-52.598
-54.786
-57.017
-59.281
-61.571
-63.879
-66.196
-68.516
-70.828
-73.126
-75.399
-77.641
-79.843
-81.996
-84.094
-86.127
-88.088
-89.971
-91.768
-93.473
-95.079
-96.58
-97.971
-99.247
-100.402
-101.433
-102.337
-103.11
-103.749
-104.253
-104.622
-104.853
-104.948
-104.906
-104.728
-104.417
-103.973
-103.4
-102.701
-101.88
-100.94
-99.887
-98.726
-97.464
-96.107
-94.661
-93.134
-91.533
-89.867
-88.143
-86.372
-84.561
-82.72
-80.859
-78.989
-77.121
-75.266
-73.432
-71.632
-69.873
-68.168
-66.524
-64.948
-63.447
-62.029
-60.702
-59.471
-58.344
-57.327
-56.425
-55.643
-54.987
-54.461
-54.064
-53.797
-53.658
-53.647
-53.764
-54.011
-54.386
-54.885
-55.504
-56.235
-57.069
-57.992
-58.986
-60.023
-61.082
-62.143
-63.188
-64.203
-65.17
-66.069
-66.886
-67.607
-68.22
-68.719
-69.094
-69.338
-69.462
-69.49
-69.448
-69.382
-69.32
-69.279
-69.294
-69.393
-69.605
-69.965
-70.485
-71.158
-71.989
-72.997
-74.17
-75.471
-76.792
-77.939
-78.743
-79.078
-78.807
-77.776
-75.89
-73.119
-69.556
-65.527
-61.366
-57.246
-53.351
-49.92
-47.008
-44.529
-42.311
-39.367
-34.662
-28.027
-18.873
-7.331
6.028
22.557
42.576
65.702
91.961
118.582
143.46
166.331
185.797
201.629
212.741
214.733
203.931
177.911
135.467
80.398
19.537
-40.059
-89.988
-124.851
-144.266
-150.026
-147.006
-140.368
-131.915
-122.073
-110.155
-94.939
-77.188
-58.729
-41.371
-27.079
-16.914
-10.897
-8.677
-9.667
-13.137
-18.331
-24.476
-30.603
-35.78
-39.522
-41.661
-42.24
-41.514
-39.783
-37.346
-34.672
-32.263
-30.374
-29.109
-28.439
-28.207
-28.292
-28.605
-28.993
-29.299
-29.441
-29.385
-29.148
-28.798
-28.372
-27.89
-27.379
-26.861
-26.354
-25.879
-25.445
-25.062
-24.736
-24.474
-24.279
-24.156
-24.105
-24.124
-24.207
-24.345
-24.533
-24.767
-25.048
-25.376
-25.749
-26.161
-26.608
-27.085
-27.586
-28.108
-28.645
-29.193
-29.749
-30.309
-30.875
-31.446
-32.022
-32.601
-33.182
-33.763
-34.343
-34.921
-35.497
-36.07
-36.64
-37.207
-37.773
-38.338
-38.904
-39.471
-40.039
-40.609
-41.181
-41.756
-42.335
-42.917
-43.502
-44.092
-44.686
-45.285
-45.889
-46.497
-47.109
-47.726
-48.347
-48.971
-49.598
-50.226
-50.855
-51.483
-52.11
-52.733
-53.353
-53.967
-54.574
-55.173
-55.762
-56.341
-56.908
-57.462
-58.001
-58.527
-59.037
-59.532
-60.011
-60.475
-60.924
-61.359
-61.781
-62.191
-62.59
-62.979
-63.36
-63.736
-64.107
-64.476
-64.845
-65.216
-65.593
-65.978
-66.372
-66.779
-67.201
-67.641
-68.1
-68.581
-69.086
-69.617
-70.174
-70.761
-71.377
-72.023
-72.701
-73.409
-74.149
-74.918
-75.717
-76.544
-77.397
-78.274
-79.174
-80.092
-81.027
-81.975
-82.933
-83.898
-84.865
-85.831
-86.792
-87.744
-88.682
-89.603
-90.503
-91.377
-92.222
-93.036
-93.813
-94.553
-95.252
-95.907
-96.517
-97.081
-97.595
-98.06
-98.475
-98.84
-99.154
-99.419
-99.636
-99.807
-99.934
-100.02
-100.069
-100.085
-100.071
-100.032
-99.974
-99.9
-99.817
-99.731
-99.647
-99.571
-99.508
-99.465
-99.449
-99.463
-99.515
-99.608
-99.747
-99.937
-100.182
-100.485
-100.849
-101.275
-101.766
-102.322
-102.946
-103.636
-104.392
-105.21
-106.088
-107.02
-107.998
-109.016
-110.061
-111.125
-112.196
-113.264
-114.318
-115.349
-116.348
-117.305
-118.21
-119.052
-119.821
-120.507
-121.101
-121.593
-121.976
-122.24
-122.379
-122.387
-122.255
-121.975
-121.533
-120.91
-120.084
-119.031
-117.737
-116.183
-114.354
-112.232
-109.798
-107.043
-103.973
-100.598
-96.934
-92.996
-88.794
-84.358
-79.751
-75.026
-70.214
-65.312
-60.257
-54.991
-49.501
-43.76
-37.712
-31.358
-24.781
-18.187
-11.966
-6.515
-2.118
0.974
2.551
2.599
1.351
-0.665
-2.591
-3.503
-2.518
1.217
8.416
19.609
34.547
52.489
72.861
94.578
117.068
139.636
159.63
174.839
183.302
183.513
176.758
164.044
145.424
121.255
91.341
57.394
23.646
-5.747
-27.93
-42.774
-53.026
-61.645
-70.148
-78.398
-84.87
-88.516
-89.538
-88.809
-87.538
-86.353
-85.206
-83.925
-82.286
-80.116
-77.257
-73.427
-68.299
-61.74
-53.809
-44.638
-34.424
-23.359
-11.63
0.518
12.834
25.156
37.39
49.491
61.44
73.19
84.671
95.803
106.485
116.62
126.12
134.913
142.962
150.253
156.801
162.641
167.806
172.316
176.192
179.453
182.125
184.252
185.885
187.099
188.005
188.721
189.371
190.059
190.852
191.8
192.931
194.261
195.799
197.555
199.528
201.72
204.133
206.762
209.598
212.62
215.78
219.023
222.282
225.508
228.672
231.756
234.755
237.669
240.507
243.282
246.018
248.731
251.436
254.146
256.871
259.627
262.438
265.331
268.338
271.481
274.777
278.237
281.867
285.67
289.647
293.791
298.09
302.536
307.124
311.848
316.705
321.689
326.793
332.009
337.327
342.739
348.236
353.81
359.449
365.145
370.889
376.673
382.49
388.331
394.189
400.056
405.922
411.78
417.621
423.435
429.213
434.944
440.618
446.226
451.758
457.204
462.555
467.802
472.94
477.96
482.857
487.621
492.242
496.711
501.024
505.177
509.166
512.992
516.658
520.17
523.541
526.78
529.898
532.903
535.797
538.581
541.256
543.824
546.286
548.638
550.867
552.961
554.905
556.682
558.27
559.64
560.752
561.568
562.056
562.185
561.924
561.253
560.155
558.619
556.646
554.246
551.441
548.259
544.737
540.917
536.846
532.588
528.213
523.782
519.354
515.004
510.819
506.877
503.245
499.965
497.075
494.644
492.711
491.261
490.228
489.482
488.876
488.301
487.602
486.543
484.956
482.797
480.089
477.005
473.821
470.745
468.015
466.038
464.553
462.383
458.534
452.059
443.468
435.444
429.331
424.044
415.211
395.2
358.442
304.502
238.961
172.249
114.585
72.248
45.674
30.872
23.027
18.297
15.581
14.873
14.479
12.153
4.932
-8.895
-26.912
-45.077
-58.889
-65.101
-64.389
-59.704
-54.89
-53.172
-55.565
-61.31
-68.576
-75.923
-82.808
-89.216
-95.644
-102.218
-108.549
-114.323
-119.309
-123.459
-127.009
-130.212
-133.154
-135.9
-138.529
-141.058
-143.505
-145.865
-148.045
-149.939
-151.512
-152.761
-153.709
-154.405
-154.882
-155.163
-155.29
-155.309
-155.262
-155.187
-155.114
-155.056
-155.027
-155.042
-155.114
-155.255
-155.472
-155.76
-156.114
-156.529
-157.005
-157.542
-158.139
-158.794
-159.505
-160.268
-161.081
-161.942
-162.847
-163.793
-164.776
-165.789
-166.831
-167.898
-168.988
-170.101
-171.231
-172.376
-173.53
-174.691
-175.854
-177.014
-178.168
-179.311
-180.441
-181.553
-182.646
-183.717
-184.764
-185.786
-186.779
-187.744
-188.677
-189.578
-190.446
-191.28
-192.079
-192.842
-193.57
-194.262
-194.919
-195.539
-196.125
-196.675
-197.191
-197.673
-198.121
-198.536
-198.919
-199.27
-199.59
-199.879
-200.139
-200.37
-200.572
-200.747
-200.895
-201.016
-201.112
-201.182
-201.227
-201.247
-201.244
-201.216
-201.166
-201.094
-200.999
-200.883
-200.746
-200.589
-200.413
-200.217
-200.003
-199.771
-199.521
-199.255
-198.974
-198.677
-198.366
-198.042
-197.704
-197.355
-196.995
-196.625
-196.245
-195.858
-195.463
-195.061
-194.655
-194.244
-193.83
-193.413
-192.995
-192.577
-192.159
-191.743
-191.328
-190.916
-190.508
-190.104
-189.704
-189.309
-188.92
-188.537
-188.16
-187.79
-187.428
-187.073
-186.725
-186.386
-186.055
-185.733
-185.419
-185.113
-184.817
-184.528
-184.248
-183.976
-183.711
-183.452
-183.199
-182.951
-182.707
-182.465
-182.224
-181.982
-181.739
-181.492
-181.24
-180.981
-180.713
-180.435
-180.145
-179.84
-179.519
-179.18
-178.819
-178.434
-178.023
-177.583
-177.111
-176.605
-176.062
-175.479
-174.852
-174.181
-173.461
-172.69
-171.866
-170.986
-170.049
-169.051
-167.992
-166.872
-165.688
-164.44
-163.129
-161.755
-160.318
-158.82
-157.261
-155.643
-153.967
-152.234
-150.449
-148.615
-146.736
-144.818
-142.864
-140.881
-138.876
-136.855
-134.827
-132.796
-130.769
-128.748
-126.741
-124.753
-122.792
-120.862
-118.968
-117.113
-115.299
-113.53
-111.812
-110.146
-108.53
-106.963
-105.435
-103.943
-102.494
-101.093
-99.745
-98.462
-97.235
-96.051
-94.94
-93.928
-92.997
-92.142
-91.32
-90.451
-89.552
-88.666
-87.719
-86.636
-85.484
-84.268
-83.026
-82.05
-81.078
-79.695
-78.31
-77.008
-76.37
-77.599
-79.773
-81.484
-81.418
-77.359
-69.758
-60.992
-52.839
-47.827
-46.733
-47.72
-49.693
-51.343
-51.662
-51.6
-51.495
-51.28
-51.209
-50.641
-49.193
-47.099
-44.483
-41.746
-39.445
-37.784
-36.82
-36.49
-36.367
-35.827
-34.202
-30.676
-24.312
-14.332
-0.152
18.663
41.646
67.441
94.755
122.014
148.302
174.313
199.706
222.908
241.401
249.875
243.671
220.908
181.017
127.557
67.231
6.603
-46.283
-85.182
-108.77
-118.143
-117.863
-113.8
-108.467
-102.523
-95.099
-84.33
-70.531
-55.43
-40.827
-28.736
-20.193
-15.162
-13.365
-14.28
-17.178
-21.332
-26.053
-30.553
-34.135
-36.45
-37.358
-36.915
-35.396
-33.145
-30.497
-27.864
