Name,Criss Capps
Date of Birth,"Feb 5, 1952"
Recorded Date,2021-09-04 11:17:53 -0400
Classification,Sinus Rhythm
Symptoms,
Software Version,1.90
Device,"Watch5,4"
Sample Rate,512.844 hertz


Lead,Lead I
Unit,µV

-32.651
-37.998
-43.116
-47.549
-50.738
-52.011
-51.266
-49.32
-47.163
-45.378
-44.214
-43.677
-43.866
-45.152
-47.597
-50.707
-53.789
-56.323
-58.067
-59.027
-59.216
-58.493
-56.801
-54.299
-51.305
-48.123
-44.945
-41.872
-38.953
-36.27
-33.912
-31.915
-30.262
-28.922
-27.868
-27.08
-26.554
-26.275
-26.216
-26.35
-26.637
-27.035
-27.5
-27.981
-28.435
-28.828
-29.133
-29.323
-29.38
-29.286
-29.031
-28.615
-28.033
-27.277
-26.339
-25.207
-23.879
-22.352
-20.625
-18.697
-16.565
-14.225
-11.677
-8.921
-5.96
-2.792
0.581
4.159
7.939
11.915
16.078
20.42
24.931
29.6
34.413
39.354
44.408
49.558
54.788
60.083
65.426
70.8
76.19
81.579
86.952
92.291
97.58
102.799
107.931
112.957
117.856
122.609
127.197
131.605
135.819
139.827
143.616
147.177
150.5
153.578
156.406
158.974
161.27
163.285
165.012
166.449
167.602
168.473
169.058
169.353
169.355
169.057
168.453
167.524
166.238
164.569
162.49
159.99
157.08
153.766
150.055
145.954
141.473
136.636
131.489
126.064
120.386
114.488
108.409
102.217
96.017
89.903
83.955
78.232
72.76
67.565
62.667
58.056
53.702
49.54
45.464
41.396
37.286
33.063
28.647
23.913
18.688
12.824
6.204
-1.276
-9.69
-19.1
-29.552
-41.03
-53.463
-66.731
-80.663
-95.112
-109.96
-125.056
-140.229
-155.267
-169.912
-183.938
-197.162
-209.397
-220.463
-230.201
-238.474
-245.211
-250.41
-254.113
-256.403
-257.356
-257.039
-255.553
-253.026
-249.612
-245.5
-240.848
-235.779
-230.429
-224.94
-219.442
-214.052
-208.842
-203.835
-199.041
-194.449
-190.05
-185.832
-181.761
-177.786
-173.849
-169.874
-165.814
-161.642
-157.328
-152.837
-148.144
-143.23
-138.098
-132.771
-127.273
-121.627
-115.862
-110.003
-104.091
-98.171
-92.288
-86.49
-80.813
-75.283
-69.923
-64.754
-59.791
-55.045
-50.521
-46.214
-42.123
-38.247
-34.585
-31.134
-27.887
-24.832
-21.957
-19.251
-16.701
-14.295
-12.019
-9.862
-7.811
-5.855
-3.982
-2.18
-0.437
1.262
2.933
4.592
6.253
7.933
9.647
11.409
13.233
15.131
17.116
19.197
21.384
23.686
26.109
28.661
31.345
34.165
37.122
40.218
43.449
46.813
50.304
53.915
57.639
61.463
65.377
69.365
73.413
77.504
81.616
85.73
89.82
93.863
97.835
101.708
105.456
109.053
112.473
115.689
118.678
121.415
123.876
126.035
127.868
129.353
130.47
131.2
131.526
131.434
130.912
129.956
128.562
126.727
124.446
121.712
118.518
114.869
110.77
106.235
101.284
95.939
90.235
84.216
77.931
71.424
64.737
57.903
50.957
43.942
36.91
29.925
23.047
16.327
9.806
3.523
-2.502
-8.266
-13.788
-19.119
-24.303
-29.38
-34.395
-39.384
-44.394
-49.493
-54.73
-60.189
-65.999
-72.218
-78.846
-85.794
-92.796
-99.561
-105.827
-111.216
-115.297
-117.796
-118.553
-117.725
-115.96
-113.876
-111.996
-110.941
-111.176
-112.971
-116.435
-120.977
-125.138
-127.327
-125.808
-118.691
-104.343
-81.154
-47.78
-3.715
50.541
113.795
184.159
258.062
330.546
396.625
451.366
493.536
525.507
547.391
558.275
551.514
515.052
442.887
332.684
191.484
38.477
-108.226
-229.629
-312.59
-358.607
-373.285
-366.707
-348.742
-320.093
-281.416
-235.444
-188.137
-150.715
-130.26
-126.495
-132.703
-139.447
-141.482
-139.133
-136.318
-136.17
-138.655
-141.328
-141.171
-137
-129.191
-118.624
-106.433
-93.36
-80.062
-67.593
-56.654
-47.516
-40.301
-34.832
-30.9
-28.373
-26.965
-26.27
-25.999
-25.985
-26.154
-26.54
-27.128
-27.849
-28.651
-29.456
-30.198
-30.811
-31.194
-31.271
-30.997
-30.356
-29.367
-28.07
-26.501
-24.698
-22.693
-20.503
-18.161
-15.705
-13.179
-10.656
-8.191
-5.823
-3.601
-1.553
0.309
1.973
3.453
4.778
5.972
7.062
8.078
9.036
9.963
10.892
11.856
12.901
14.065
15.377
16.866
18.557
20.466
22.611
24.998
27.627
30.496
33.606
36.956
40.547
44.376
48.437
52.72
57.216
61.912
66.797
71.857
77.076
82.44
87.929
93.525
99.213
104.971
110.776
116.605
122.431
128.228
133.967
139.621
145.161
150.557
155.782
160.807
165.606
170.152
174.419
178.383
182.019
185.306
188.222
190.748
192.867
194.563
195.823
196.636
196.993
196.887
196.314
195.273
193.764
191.79
189.357
186.474
183.151
179.402
175.243
170.692
165.769
160.498
154.902
149.009
142.846
136.443
129.831
123.042
116.108
109.062
101.939
94.772
87.595
80.444
73.35
66.347
59.467
52.742
46.2
39.871
33.781
27.955
22.416
17.186
12.282
7.721
3.519
-0.313
-3.766
-6.833
-9.508
-11.791
-13.681
-15.181
-16.297
-17.036
-17.408
-17.426
-17.102
-16.452
-15.495
-14.248
-12.734
-10.973
-8.99
-6.806
-4.449
-1.941
0.691
3.423
6.228
9.082
11.962
14.842
17.701
20.515
23.265
25.93
28.492
30.933
33.237
35.39
37.379
39.192
40.82
42.255
43.49
44.519
45.34
45.95
46.349
46.539
46.521
46.301
45.884
45.276
44.486
43.521
42.393
41.11
39.685
38.128
36.45
34.664
32.781
30.813
28.77
26.665
24.508
22.31
20.079
17.826
15.56
13.288
11.019
8.759
6.516
4.294
2.099
-0.064
-2.191
-4.279
-6.327
-8.331
-10.292
-12.21
-14.084
-15.915
-17.705
-19.457
-21.171
-22.852
-24.501
-26.121
-27.715
-29.285
-30.835
-32.365
-33.878
-35.374
-36.854
-38.318
-39.765
-41.195
-42.605
-43.995
-45.361
-46.702
-48.014
-49.293
-50.537
-51.739
-52.897
-54.004
-55.055
-56.044
-56.964
-57.808
-58.572
-59.247
-59.827
-60.304
-60.672
-60.924
-61.054
-61.054
-60.919
-60.644
-60.223
-59.652
-58.93
-58.053
-57.022
-55.835
-54.494
-53
-51.358
-49.572
-47.644
-45.581
-43.391
-41.08
-38.658
-36.134
-33.519
-30.826
-28.067
-25.259
-22.415
-19.551
-16.683
-13.827
-11.001
-8.219
-5.496
-2.847
-0.286
2.173
4.513
6.72
8.781
10.682
12.412
13.961
15.32
16.483
17.453
18.228
18.81
19.196
19.38
19.357
19.131
18.705
18.087
17.292
16.339
15.26
14.097
12.892
11.683
10.503
9.373
8.321
7.378
6.579
5.969
5.584
5.448
5.586
6.018
6.737
7.714
8.885
10.148
11.412
12.613
13.682
14.553
15.15
15.372
15.138
14.409
13.13
11.213
8.622
5.383
1.686
-2.042
-5.37
-7.96
-9.448
-9.437
-7.658
-3.991
1.268
7.216
13.015
18.189
22.181
24.396
24.49
22.319
19.497
19.549
25.199
37.873
56.192
76.76
99.39
127.271
166.604
224.148
300.426
390.201
484.327
571.766
644.839
697.698
725.196
722.609
684.348
608.225
495.557
353.467
196.65
41.202
-94.627
-196.649
-262.203
-294.668
-304.637
-304.707
-299.507
-290.004
-274.672
-250.373
-218.742
-184.153
-150.398
-121.448
-99.708
-85.228
-77.295
-74.76
-75.966
-79.228
-83.391
-87.189
-89.042
-88.18
-84.427
-77.898
-69.357
-59.749
-49.739
-40.141
-31.928
-25.584
-21.282
-19.013
-18.387
-18.95
-20.314
-22.005
-23.55
-24.697
-25.319
-25.347
-24.816
-23.723
-22.027
-19.75
-16.937
-13.615
-9.818
-5.591
-0.988
3.872
8.826
13.734
18.497
23.052
27.37
31.423
35.176
38.606
41.703
44.464
46.889
48.974
50.715
52.122
53.222
54.064
54.713
55.226
55.641
55.993
56.304
56.594
56.886
57.193
57.52
57.878
58.278
58.738
59.279
59.918
60.667
61.534
62.526
63.648
64.908
66.315
67.873
69.59
71.472
73.527
75.763
78.186
80.799
83.602
86.593
89.767
93.119
96.641
100.324
104.155
108.122
112.212
116.411
120.703
125.072
129.5
133.969
138.46
142.954
147.431
151.868
156.245
160.54
164.729
168.792
172.708
176.456
180.016
183.365
186.481
189.347
191.949
194.26
196.256
197.914
199.213
200.146
200.717
200.904
200.688
200.093
199.137
197.837
196.222
194.269
191.938
189.259
186.287
182.911
179.001
174.654
169.877
164.66
159.326
153.073
145.121
136.635
127.985
121.294
119.098
118.644
118.106
114.752
104.821
91.693
78.239
66.434
59.525
55.238
51.269
47.124
41.407
34.967
28.886
22.983
17.412
12.12
6.906
1.927
-2.694
-6.985
-10.944
-14.553
-17.81
-20.721
-23.291
-25.54
-27.497
-29.157
-30.518
-31.591
-32.386
-32.916
-33.196
-33.237
-33.053
-32.663
-32.085
-31.338
-30.443
-29.42
-28.287
-27.065
-25.774
-24.434
-23.065
-21.686
-20.315
-18.97
-17.667
-16.423
-15.251
-14.167
-13.183
-12.31
-11.558
-10.938
-10.456
-10.121
-9.937
-9.909
-10.04
-10.332
-10.786
-11.402
-12.177
-13.109
-14.194
-15.426
-16.8
-18.31
-19.948
-21.707
-23.578
-25.552
-27.62
-29.773
-32
-34.291
-36.636
-39.024
-41.446
-43.892
-46.352
-48.818
-51.281
-53.733
-56.165
-58.57
-60.939
-63.266
-65.544
-67.765
-69.925
-72.019
-74.041
-75.987
-77.853
-79.637
-81.334
-82.943
-84.458
-85.878
-87.198
-88.416
-89.528
-90.53
-91.419
-92.193
-92.851
-93.393
-93.816
-94.121
-94.305
-94.369
-94.312
-94.13
-93.818
-93.371
-92.782
-92.048
-91.167
-90.136
-88.952
-87.612
-86.116
-84.466
-82.661
-80.7
-78.576
-76.274
-73.79
-71.131
-68.307
-65.335
-62.231
-59.006
-55.68
-52.28
-48.822
-45.314
-41.75
-38.105
-34.37
-30.548
-26.652
-22.715
-18.751
-14.759
-10.735
-6.671
-2.557
1.609
5.849
10.209
14.701
19.311
23.991
28.647
33.212
37.646
41.915
46.007
49.896
53.53
56.871
59.888
62.541
64.8
66.602
67.849
68.492
68.517
67.959
66.915
65.454
63.615
61.448
58.993
56.309
53.481
50.574
47.632
44.711
41.861
39.168
36.757
34.708
33.074
31.865
31.031
30.55
30.417
30.591
31.008
31.579
32.168
32.681
33.067
33.242
33.119
32.583
31.484
29.72
27.24
23.986
19.91
15.01
9.339
3.123
-3.232
-9.312
-14.726
-19.065
-21.901
-22.903
-21.91
-19.118
-15.135
-10.601
-6.051
-2.054
0.806
2.156
1.96
0.863
0.295
1.871
7.156
17.962
36.236
63.615
101.525
149.586
205.091
265.255
326.824
387.684
448.59
508.152
561.5
601.164
614.992
592.512
530.945
432.289
303.811
156.774
1.071
-152.159
-288.695
-396.812
-470.505
-510.676
-525.472
-525.191
-514.408
-492.222
-458.827
-415.948
-369.375
-329.355
-299.739
-278.667
-263.554
-248.808
-232.667
-218.335
-206.962
-199.178
-194.467
-189.585
-182.477
-172.854
-160.88
-147.419
-133.472
-119.643
-106.475
-94.84
-85.585
-79.083
-75.451
-74.535
-75.917
-79.218
-84.074
-90.002
-96.502
-103.19
-109.732
-115.872
-121.447
-126.317
-130.391
-133.63
-136.033
-137.612
-138.39
-138.424
-137.788
-136.578
-134.909
-132.879
-130.578
-128.114
-125.613
-123.205
-121.022
-119.153
-117.64
-116.519
-115.809
-115.511
-115.614
-116.078
-116.848
-117.87
-119.096
-120.482
-121.987
-123.557
-125.135
-126.66
-128.071
-129.322
-130.377
-131.205
-131.779
-132.081
-132.094
-131.812
-131.236
-130.361
-129.181
-127.688
-125.875
-123.736
-121.271
-118.48
-115.363
-111.921
-108.157
-104.073
-99.673
-94.963
-89.949
-84.636
-79.031
-73.146
-66.992
-60.586
-53.945
-47.087
-40.032
-32.803
-25.423
-17.916
-10.306
-2.62
5.117
12.878
20.633
28.356
36.017
43.587
51.037
58.338
65.461
72.377
79.058
85.477
91.606
97.419
102.892
107.999
112.717
117.026
120.904
124.334
127.299
129.784
131.776
133.266
134.243
134.703
134.64
134.054
132.945
131.316
129.172
126.522
123.374
119.743
115.641
111.086
106.097
100.693
94.897
88.732
82.225
75.4
68.285
60.911
53.305
45.5
37.526
29.414
21.197
12.907
4.575
-3.767
-12.087
-20.356
-28.544
-36.622
-44.562
-52.339
-59.928
-67.304
-74.448
-81.338
-87.958
-94.291
-100.324
-106.046
-111.446
-116.518
-121.255
-125.653
-129.711
-133.426
-136.801
-139.836
-142.538
-144.91
-146.959
-148.693
-150.12
-151.252
-152.097
-152.669
-152.978
-153.037
-152.859
-152.459
-151.849
-151.044
-150.057
-148.903
-147.595
-146.147
-144.57
-142.878
-141.081
-139.19
-137.214
-135.162
-133.042
-130.861
-128.625
-126.34
-124.01
-121.641
-119.235
-116.796
-114.325
-111.826
-109.3
-106.748
-104.173
-101.575
-98.956
-96.317
-93.659
-90.984
-88.291
-85.582
-82.856
-80.114
-77.355
-74.58
-71.789
-68.982
-66.159
-63.322
-60.473
-57.615
-54.75
-51.881
-49.012
-46.148
-43.294
-40.454
-37.634
-34.841
-32.08
-29.359
-26.684
-24.062
-21.498
-18.999
-16.568
-14.21
-11.927
-9.72
-7.592
-5.543
-3.575
-1.69
0.11
1.822
3.445
4.973
6.403
7.734
8.965
10.099
11.138
12.087
12.949
13.731
14.441
15.088
15.679
16.217
16.707
17.159
17.583
17.999
18.419
18.846
19.284
19.73
20.182
20.635
21.069
21.454
21.763
21.97
22.065
22.059
21.958
21.765
21.484
21.114
20.67
20.189
19.698
19.22
18.78
18.402
18.139
18.078
18.285
18.812
19.678
20.86
22.332
24.074
26.042
28.184
30.416
32.614
34.687
36.566
38.184
39.481
40.36
40.678
40.318
39.196
37.267
34.536
31.015
26.712
21.68
16.005
9.82
3.307
-3.386
-10.151
-16.897
-23.537
-29.953
-35.987
-41.481
-46.315
-50.409
-53.717
-56.208
-57.871
-58.687
-58.676
-58.009
-56.887
-55.511
-54.082
-52.623
-51.125
-49.744
-48.671
-47.974
-47.671
-47.581
-47.381
-47.053
-46.637
-46.004
-44.956
-43.254
-40.767
-37.72
-34.633
-31.913
-29.814
-28.561
-28.419
-29.649
-32.215
-35.597
-39.001
-41.4
-41.525
-38.302
-29.7
-12.538
14.179
50.082
93.375
138.195
182.49
228.864
279.649
341.657
417.543
500.791
583.42
652.08
692.723
696.685
657.419
573.961
451.149
300.928
140.846
-10.334
-134.051
-222.555
-278.041
-308.117
-326.178
-339.189
-347.188
-347.806
-335.647
-310.073
-275.096
-235.166
-195.367
-158.633
-125.922
-98.516
-77.251
-62.009
-52.262
-47.01
-45.026
-45.446
-47.314
-49.074
-49.261
-47.219
-42.935
-36.836
-29.541
-21.463
-13.027
-5.078
1.448
6.017
8.484
9.036
8.061
5.855
2.635
-1.231
-5.287
-9.164
-12.567
-15.357
-17.55
-19.145
-20.133
-20.529
-20.357
-19.658
-18.509
-16.969
-15.089
-12.937
-10.568
-8.053
-5.476
-2.922
-0.491
1.737
3.727
5.507
7.145
8.681
10.132
11.492
12.726
13.846
14.821
15.396
15.339
14.676
13.531
12.136
10.167
6.43
0.13
-7.913
-13.793
-12.18
0.403
23.062
47.105
61.684
59.671
39.365
10.545
-13.407
-23.975
-16.438
3.401
24.903
41.935
50.061
50.554
48.901
47.652
48.491
51.756
55.707
59.802
64.172
68.706
73.664
79.109
84.767
90.514
96.32
102.116
107.865
113.577
119.249
124.879
130.485
136.057
141.559
146.967
152.261
157.415
162.405
167.209
171.798
176.151
180.247
184.069
187.597
190.814
193.702
196.245
198.43
200.245
201.679
202.722
203.37
203.615
203.455
202.888
201.917
200.545
198.777
196.62
194.083
191.177
187.914
184.308
180.374
176.13
171.592
166.782
161.719
156.425
150.924
145.238
139.392
133.411
127.32
121.143
114.906
108.633
102.35
96.08
89.847
83.676
77.586
71.602
65.741
60.024
54.467
49.087
43.898
38.913
34.142
29.594
25.278
21.199
17.363
13.771
10.426
7.327
4.473
1.861
-0.513
-2.655
-4.57
-6.268
-7.755
-9.042
-10.138
-11.054
-11.801
-12.39
-12.834
-13.144
-13.333
-13.415
-13.4
-13.303
-13.134
-12.907
-12.632
-12.319
-11.98
-11.624
-11.258
-10.891
-10.53
-10.182
-9.851
-9.544
-9.265
-9.016
-8.801
-8.621
-8.48
-8.376
-8.311
-8.284
-8.296
-8.344
-8.429
-8.55
-8.703
-8.889
-9.104
-9.347
-9.615
-9.906
-10.217
-10.546
-10.89
-11.247
-11.615
-11.993
-12.378
-12.769
-13.167
-13.569
-13.976
-14.387
-14.802
-15.221
-15.645
-16.074
-16.509
-16.95
-17.398
-17.855
-18.321
-18.796
-19.281
-19.778
-20.285
-20.802
-21.329
-21.866
-22.412
-22.965
-23.523
-24.086
-24.65
-25.214
-25.774
-26.328
-26.87
-27.398
-27.906
-28.389
-28.842
-29.258
-29.631
-29.956
-30.224
-30.431
-30.569
-30.632
-30.613
-30.506
-30.306
-30.006
-29.602
-29.087
-28.457
-27.708
-26.837
-25.842
-24.72
-23.471
-22.095
-20.591
-18.964
-17.215
-15.35
-13.373
-11.289
-9.105
-6.831
-4.476
-2.051
0.431
2.958
5.513
8.078
10.637
13.17
15.66
18.088
20.437
22.689
24.825
26.828
28.68
30.364
31.861
33.152
34.222
35.054
35.636
35.959
36.016
35.803
35.32
34.566
33.538
32.236
30.657
28.804
26.687
24.313
21.695
18.852
15.807
12.591
9.246
5.802
2.286
-1.275
-4.863
-8.445
-11.974
-15.412
-18.723
-21.89
-24.914
-27.778
-30.435
-32.859
-35.051
-37.047
-38.931
-40.728
-42.397
-43.958
-45.533
-47.364
-49.736
-52.763
-56.369
-60.48
-65.104
-70.161
-75.341
-79.896
-82.888
-83.741
-82.332
-78.785
-73.235
-65.92
-57.49
-49.346
-43.244
-40.488
-41.706
-46.933
-55.908
-68.069
-82.152
-95.835
-106.141
-110.201
-105.504
-90.105
-62.719
-22.523
30.475
94.895
168.288
246.509
323.762
394.5
454.456
502.383
539.219
563.846
572.091
556.333
508.599
427.243
316.801
185.991
46.234
-91.946
-219.86
-328.084
-407.849
-455.744
-470.123
-452.834
-412.953
-358.727
-301.94
-257.507
-230.925
-222.815
-227.243
-230.976
-227.577
-216.013
-198.758
-183.041
-172.074
-165.241
-161.131
-156.533
-149.608
-140.576
-129.863
-118.196
-106.337
-94.583
-83.211
-72.816
-64.03
-57.191
-52.442
-49.726
-48.761
-49.298
-51.098
-53.794
-57.009
-60.452
-63.887
-67.123
-70
-72.384
-74.177
-75.339
-75.876
-75.794
-75.095
-73.799
-71.955
-69.635
-66.932
-63.929
-60.686
-57.272
-53.771
-50.284
-46.938
-43.825
-40.993
-38.475
-36.288
-34.444
-32.952
-31.798
-30.938
-30.331
-29.94
-29.732
-29.685
-29.767
-29.933
-30.138
-30.325
-30.452
-30.49
-30.41
-30.19
-29.81
-29.251
-28.505
-27.573
-26.453
-25.139
-23.622
-21.892
-19.943
-17.772
-15.378
-12.759
-9.917
-6.848
-3.556
-0.044
3.685
7.627
11.777
16.131
20.682
25.419
30.33
35.4
40.616
45.959
51.413
56.957
62.572
68.236
73.93
79.632
85.32
90.972
96.565
102.077
107.484
112.763
117.891
122.844
127.601
132.139
136.436
140.472
144.226
147.681
150.819
153.623
156.079
158.173
159.894
161.233
162.181
162.732
162.882
162.629
161.973
160.916
159.46
157.613
155.38
152.771
149.796
146.468
142.799
138.805
134.502
129.909
125.045
119.931
114.589
109.042
103.312
97.426
91.407
85.282
79.075
72.813
66.521
60.224
53.948
47.717
41.554
35.482
29.524
23.698
18.025
12.522
7.206
2.092
-2.807
-7.478
-11.91
-16.094
-20.022
-23.688
-27.086
-30.213
-33.067
-35.647
-37.955
-39.993
-41.764
-43.273
-44.527
-45.532
-46.297
-46.831
-47.145
-47.248
-47.154
-46.872
-46.417
-45.8
-45.034
-44.132
-43.107
-41.971
-40.735
-39.412
-38.012
-36.548
-35.028
-33.464
-31.865
-30.24
-28.598
-26.947
-25.294
-23.647
-22.012
-20.395
-18.802
-17.237
-15.705
-14.209
-12.753
-11.34
-9.972
-8.65
-7.376
-6.152
-4.977
-3.851
-2.776
-1.75
-0.773
0.154
1.031
1.86
2.64
3.372
4.054
4.686
5.269
5.801
6.282
6.71
7.086
7.408
7.676
7.888
8.043
8.142
8.182
8.164
8.087
7.951
7.754
7.498
7.182
6.807
6.372
5.88
5.33
4.724
4.064
3.352
2.59
1.782
0.929
0.036
-0.894
-1.855
-2.841
-3.849
-4.87
-5.898
-6.926
-7.945
-8.948
-9.924
-10.867
-11.768
-12.616
-13.405
-14.124
-14.765
-15.319
-15.78
-16.138
-16.386
-16.518
-16.527
-16.408
-16.157
-15.77
-15.243
-14.575
-13.765
-12.812
-11.717
-10.483
-9.111
-7.606
-5.974
-4.221
-2.357
-0.391
1.666
3.799
5.994
8.233
10.501
12.778
15.047
17.288
19.482
21.612
23.66
25.609
27.439
29.132
30.67
32.034
33.207
34.173
34.919
35.43
35.696
35.712
35.473
34.976
34.213
33.173
31.848
30.236
28.339
26.161
23.717
21.025
18.115
15.032
11.821
8.525
5.185
1.831
-1.503
-4.777
-7.947
-10.961
-13.771
-16.348
-18.664
-20.693
-22.438
-23.928
-25.218
-26.406
-27.585
-28.822
-30.196
-31.781
-33.655
-35.918
-38.651
-41.909
-45.771
-50.32
-55.576
-61.49
-67.857
-74.287
-80.365
-85.693
-89.821
-92.28
-92.723
-90.988
-87.292
-82.277
-76.635
-70.947
-65.798
-61.791
-59.31
-58.374
-58.269
-57.451
-54.138
-46.601
-32.9
-10.944
21.116
64.774
119.577
182.737
251.106
321.004
390.252
459.1
526.078
587.632
636.433
661.122
651.772
602.23
512.773
389.064
240.006
77.724
-84.119
-229.691
-343.736
-415.954
-445.039
-436.982
-401.347
-351.281
-295.632
-241.981
-200.109
-172.291
-158.7
-156.529
-156.102
-152.97
-146.54
-137.721
-131.247
-128.562
-127.842
-126.89
-122.986
-115.227
-104.294
-91.036
-76.549
-61.778
-47.571
-35.007
-24.754
-17.029
-11.858
-9.018
-8.246
-9.276
-11.677
-14.913
-18.593
-22.48
-26.413
-30.303
-33.988
-37.275
-40.058
-42.295
-43.97
-45.075
-45.589
-45.49
-44.805
-43.611
-42.003
-40.078
-37.914
-35.577
-33.146
-30.717
-28.41
-26.328
-24.534
-23.069
-21.948
-21.183
-20.784
-20.744
-21.031
-21.602
-22.413
-23.425
-24.609
-25.931
-27.351
-28.819
-30.277
-31.676
-32.983
-34.167
-35.204
-36.069
-36.742
-37.207
-37.459
-37.495
-37.305
-36.879
-36.203
-35.268
-34.067
-32.597
-30.856
-28.84
-26.548
-23.976
-21.127
-18.002
-14.605
-10.937
-7.003
-2.807
1.64
6.327
11.241
16.366
21.687
27.186
32.844
38.639
44.552
50.56
56.643
62.777
68.939
75.103
81.245
87.341
93.365
99.291
105.094
110.749
116.231
121.517
126.583
131.406
135.965
140.237
144.205
147.849
151.152
154.1
156.679
158.876
160.682
162.088
163.087
163.675
163.848
163.604
162.945
161.871
160.388
158.499
156.213
153.537
150.483
147.063
143.289
139.178
134.744
130.006
124.983
119.695
114.161
108.404
102.446
96.309
90.015
83.59
77.054
70.432
63.747
57.02
50.274
43.53
36.809
30.13
23.513
16.975
10.536
4.21
-1.986
-8.038
-13.933
-19.658
-25.202
-30.556
-35.711
-40.659
-45.395
-49.914
-54.212
-58.287
-62.136
-65.76
-69.16
-72.336
-75.292
-78.032
-80.559
-82.877
-84.994
-86.913
-88.642
-90.187
-91.554
-92.749
-93.78
-94.653
-95.376
-95.955
-96.397
-96.711
-96.902
-96.978
-96.946
-96.812
-96.584
-96.267
-95.868
-95.393
-94.847
-94.235
-93.564
-92.838
-92.063
-91.242
-90.38
-89.48
-88.548
-87.585
-86.595
-85.581
-84.547
-83.496
-82.431
-81.356
-80.275
-79.192
-78.111
-77.037
-75.973
-74.923
-73.891
-72.88
-71.895
-70.939
-70.015
-69.128
-68.281
-67.478
-66.724
-66.021
-65.373
-64.784
-64.255
-63.79
-63.39
-63.058
-62.796
-62.606
-62.49
-62.449
-62.485
-62.598
-62.788
-63.053
-63.393
-63.804
-64.282
-64.822
-65.418
-66.064
-66.754
-67.482
-68.242
-69.028
-69.834
-70.654
-71.482
-72.309
-73.128
-73.925
-74.689
-75.407
-76.064
-76.647
-77.144
-77.544
-77.835
-78.009
-78.058
-77.974
-77.748
-77.365
-76.81
-76.07
-75.138
-74.012
-72.696
-71.201
-69.547
-67.753
-65.846
-63.842
-61.751
-59.575
-57.3
-54.915
-52.406
-49.77
-47.019
-44.166
-41.22
-38.186
-35.065
-31.842
-28.493
-24.985
-21.278
-17.347
-13.19
-8.834
-4.335
0.234
4.782
9.235
13.54
17.645
21.505
25.073
28.3
31.123
33.478
35.28
36.431
36.851
36.484
35.315
33.381
30.747
27.51
23.757
19.565
15.014
10.192
5.181
0.056
-5.104
-10.232
-15.24
-20.005
-24.422
-28.396
-31.869
-34.842
-37.343
-39.41
-41.099
-42.473
-43.626
-44.694
-45.804
-47.051
-48.507
-50.212
-52.227
-54.658
-57.606
-61.153
-65.356
-70.189
-75.628
-81.72
-88.395
-95.447
-102.526
-109.024
-114.358
-118.148
-119.981
-119.408
-116.248
-110.51
-102.557
-93.405
-84.029
-75.104
-67.364
-61.326
-56.987
-54.03
-51.496
-47.304
-39.311
-25.706
-4.417
26.188
66.902
118.286
179.175
245.498
312.869
376.957
434.616
486.806
534.125
573.343
598.148
597.597
560.924
485.351
374.023
235.337
83.646
-68.009
-206.663
-318.211
-395.401
-436.586
-444.735
-428.416
-395.229
-350.675
-301.198
-253.706
-214.454
-187.835
-173.334
-165.354
-158.68
-150.264
-140.128
-132.005
-128.222
-128.71
-132.094
-135.084
-135.305
-132.347
-126.371
-118.088
-108.288
-97.342
-85.748
-74.439
-64.344
-56.006
-49.636
-45.128
-42.188
-40.585
-40.09
-40.368
-41.047
-41.881
-42.758
-43.649
-44.58
-45.524
-46.372
-47.019
-47.413
-47.518
-47.312
-46.8
-45.972
-44.845
-43.478
-41.918
-40.201
-38.356
-36.383
-34.28
-32.072
-29.793
-27.502
-25.285
-23.201
-21.286
-19.566
-18.044
-16.717
-15.578
-14.594
-13.727
-12.946
-12.227
-11.554
-10.923
-10.315
-9.704
-9.056
-8.327
-7.479
-6.487
-5.324
-3.971
-2.415
-0.643
1.346
3.546
5.953
8.567
11.389
14.425
17.673
21.132
24.796
28.66
32.715
36.956
41.371
45.952
50.686
55.564
60.575
65.709
70.955
76.297
81.721
87.211
92.748
98.315
103.893
109.463
115.003
120.496
125.921
131.26
136.492
141.6
146.563
151.363
155.982
160.402
164.606
168.577
172.299
175.757
178.937
181.824
184.406
186.671
188.609
190.211
191.468
192.375
192.926
193.119
192.95
192.42
191.53
190.282
188.681
186.733
184.444
181.824
178.882
175.629
172.079
168.245
164.141
159.783
155.188
150.374
145.358
140.161
134.802
129.301
123.678
117.955
112.153
106.294
100.398
94.487
88.582
82.703
76.872
71.106
65.425
59.846
54.388
49.064
43.891
38.881
34.048
29.402
24.955
20.714
16.688
12.884
9.305
5.958
2.843
-0.037
-2.681
-5.091
-7.268
-9.215
-10.935
-12.432
-13.713
-14.782
-15.646
-16.315
-16.794
-17.094
-17.222
-17.19
-17.006
-16.681
-16.224
-15.645
-14.954
-14.162
-13.277
-12.31
-11.27
-10.167
-9.008
-7.802
-6.559
-5.286
-3.989
-2.676
-1.353
-0.026
1.299
2.618
3.924
5.214
6.483
7.728
8.944
10.129
11.28
12.395
13.471
14.506
15.499
16.448
17.351
18.207
19.014
19.771
20.476
21.127
21.724
22.266
22.75
23.176
23.543
23.849
24.095
24.277
24.396
24.448
24.434
24.351
24.198
23.974
23.677
23.306
22.861
22.34
21.744
21.07
20.319
19.491
18.584
17.6
16.539
15.403
14.192
12.91
11.56
10.145
8.669
7.138
5.556
3.93
2.267
0.573
-1.147
-2.885
-4.634
-6.386
-8.132
-9.865
-11.577
-13.258
-14.896
-16.48
-17.998
-19.44
-20.797
-22.059
-23.216
-24.258
-25.175
-25.961
-26.611
-27.119
-27.472
-27.661
-27.672
-27.504
-27.166
-26.665
-26.003
-25.187
-24.225
-23.129
-21.92
-20.607
-19.183
-17.645
-15.984
-14.209
-12.345
-10.416
-8.448
-6.451
-4.421
-2.365
-0.303
1.757
3.814
5.876
7.969
10.076
12.138
14.1
15.911
17.538
18.977
20.215
21.231
22
22.491
22.691
22.607
22.221
21.492
20.368
18.785
16.741
14.295
11.501
8.411
5.064
1.484
-2.272
-6.137
-10.05
-13.967
-17.859
-21.707
-25.456
-29.019
-32.295
-35.185
-37.647
-39.69
-41.328
-42.581
-43.479
-44.061
-44.407
-44.611
-44.762
-44.933
-45.187
-45.604
-46.259
-47.283
-48.864
-51.11
-54.019
-57.457
-61.097
-64.572
-67.593
-69.776
-70.632
-69.876
-67.407
-63.497
-58.997
-54.805
-51.639
-50.218
-51.115
-54.529
-60.323
-67.644
-74.627
-79.078
-78.772
-71.46
-55.066
-27.841
11.469
63.344
126.337
197.267
272.529
347.777
420.258
489.415
553.494
609.898
652.014
669.467
654.118
600.102
508.901
387.922
244.726
89.909
-67.3
-217.468
-347.791
-447.652
-508.75
-527.365
-506.124
-453.912
-384.004
-310.961
-249.902
-208.138
-185.093
-175.758
-169.832
-161.872
-151.887
-141.779
-136.604
-138.014
-144.065
-152.141
-158.352
-160.301
-157.732
-150.98
-140.999
-128.942
-115.693
-102.226
-89.652
-78.91
-70.532
-64.676
-61.215
-59.794
-60.015
-61.462
-63.674
-66.243
-68.913
-71.53
-73.978
-76.156
-77.953
-79.285
-80.12
-80.455
-80.276
-79.56
-78.305
-76.54
-74.337
-71.791
-68.971
-65.923
-62.697
-59.353
-55.979
-52.688
-49.571
-46.68
-44.057
-41.729
-39.715
-38.031
-36.669
-35.591
-34.757
-34.125
-33.662
-33.347
-33.152
-33.039
-32.963
-32.873
-32.725
-32.491
-32.142
-31.652
-30.999
-30.162
-29.131
-27.905
-26.482
-24.855
-23.018
-20.961
-18.677
-16.164
-13.42
-10.447
-7.242
-3.805
-0.139
3.754
7.867
12.197
16.737
21.483
26.424
31.551
36.848
42.302
47.895
53.61
59.428
65.327
71.287
77.285
83.3
89.31
95.292
101.222
107.076
112.832
118.465
123.951
129.267
134.388
139.294
143.96
148.366
152.491
156.313
159.815
162.978
165.787
168.226
170.283
171.946
173.205
174.052
174.482
174.489
174.072
173.231
171.967
170.283
168.186
165.683
162.782
159.495
155.835
151.814
147.449
142.758
137.757
132.467
126.908
121.104
115.076
108.849
102.447
95.896
89.22
82.446
75.599
68.706
61.79
54.878
47.994
41.161
34.404
27.744
21.204
14.802
8.559
2.493
-3.381
-9.046
-14.49
-19.699
-24.664
-29.375
-33.824
-38.005
-41.913
-45.545
-48.899
-51.976
-54.775
-57.3
-59.554
-61.541
-63.269
-64.744
-65.973
-66.965
-67.731
-68.278
-68.619
-68.763
-68.723
-68.51
-68.136
-67.613
-66.953
-66.169
-65.273
-64.277
-63.193
-62.033
-60.808
-59.53
-58.208
-56.853
-55.475
-54.082
-52.685
-51.29
-49.906
-48.539
-47.197
-45.884
-44.606
-43.367
-42.173
-41.026
-39.93
-38.888
-37.903
-36.976
-36.111
-35.307
-34.568
-33.893
-33.284
-32.74
-32.261
-31.847
-31.497
-31.21
-30.985
-30.82
-30.713
-30.662
-30.665
-30.72
-30.823
-30.972
-31.163
-31.395
-31.663
-31.965
-32.297
-32.655
-33.036
-33.437
-33.855
-34.284
-34.723
-35.165
-35.608
-36.046
-36.475
-36.889
-37.285
-37.655
-37.995
-38.301
-38.565
-38.784
-38.953
-39.067
-39.118
-39.103
-39.016
-38.853
-38.614
-38.292
-37.878
-37.379
-36.797
-36.135
-35.399
-34.581
-33.666
-32.665
-31.588
-30.409
-29.107
-27.669
-26.07
-24.335
-22.509
-20.574
-18.492
-16.382
-14.382
-12.421
-10.517
-8.704
-6.714
-5.317
-5.261
-5.506
-5.747
-4.064
1.843
9.401
16.891
21.763
20.513
16.219
11.488
8.101
9.014
12.102
15.2
17.814
18.621
18.372
18.049
17.473
16.767
15.855
14.565
13.056
11.452
9.738
7.912
5.973
3.933
1.838
-0.396
-2.898
-5.552
-8.283
-11.111
-13.775
-16.877
-20.979
-25.072
-28.805
-30.22
-27.292
-21.786
-14.654
-9.534
-10.293
-15.956
-26.382
-37.221
-43.825
-45.709
-41.471
-34.842
-29.886
-27.748
-30.523
-36.166
-42.337
-48.674
-53.993
-58.796
-63.678
-67.968
-71.383
-73.598
-74.077
-72.524
-68.759
-62.702
-54.711
-45.62
-36.124
-26.739
-18.231
-11.48
-7.101
-4.413
-1.319
4.462
14.353
26.854
39.205
51.835
67.994
94.117
137.313
198.673
274.401
358.274
441.841
517.066
575.831
607.363
601.755
555.077
470.283
357.569
229.76
95.974
-38.395
-168.653
-288.19
-388.236
-460.362
-501.495
-514.451
-503.478
-472.725
-425.865
-366.446
-302.633
-246.488
-206.071
-184.801
-179.142
-178.633
-176.46
-170.311
-161.248
-154.126
-150.965
-150.301
-149.789
-146.72
-140.194
-130.994
-120.121
-108.599
-97.151
-86.484
-77.524
-70.807
-66.469
-64.38
-64.14
-65.361
-67.704
-70.735
-73.941
-76.932
-79.458
-81.359
-82.606
-83.186
-83.071
-82.274
-80.835
-78.793
-76.198
-73.126
-69.64
-65.821
-61.78
-57.613
-53.428
-49.351
-45.477
-41.886
-38.64
-35.766
-33.279
-31.194
-29.51
-28.211
-27.276
-26.666
-26.343
-26.275
-26.42
-26.732
-27.161
-27.645
-28.134
-28.593
-28.989
-29.299
-29.502
-29.576
-29.506
-29.285
-28.905
-28.355
-27.624
-26.699
-25.567
-24.223
-22.661
-20.878
-18.87
-16.632
-14.16
-11.451
-8.504
-5.319
-1.894
1.771
5.674
9.81
14.17
18.744
23.522
28.491
33.637
38.945
44.396
49.975
55.663
61.441
67.292
73.192
79.122
85.059
90.981
96.864
102.686
108.422
114.049
119.542
124.878
130.035
134.989
139.718
144.2
148.414
152.341
155.962
159.259
162.216
164.818
167.052
168.907
170.374
171.443
172.11
172.368
172.217
171.655
170.683
169.303
167.52
165.34
162.77
159.821
156.504
152.831
148.818
144.481
139.838
134.908
129.711
124.27
118.607
112.746
106.711
100.528
94.222
87.82
81.348
74.832
68.298
61.772
55.278
48.842
42.486
36.233
30.105
24.123
18.305
12.671
7.237
2.019
-2.97
-7.717
-12.211
-16.442
-20.403
-24.086
-27.487
-30.602
-33.43
-35.97
-38.223
-40.192
-41.881
-43.296
-44.443
-45.329
-45.966
-46.361
-46.527
-46.476
-46.218
-45.769
-45.139
-44.345
-43.398
-42.312
-41.102
-39.782
-38.363
-36.861
-35.287
-33.654
-31.974
-30.259
-28.52
-26.768
-25.014
-23.266
-21.535
-19.83
-18.158
-16.528
-14.946
-13.419
-11.954
-10.554
-9.224
-7.969
-6.791
-5.691
-4.674
-3.738
-2.887
-2.119
-1.434
-0.834
-0.316
0.119
0.472
0.745
0.939
1.054
1.093
1.057
0.946
0.763
0.51
0.188
-0.201
-0.653
-1.166
-1.738
-2.363
-3.04
-3.764
-4.53
-5.335
-6.173
-7.04
-7.932
-8.843
-9.769
-10.704
-11.644
-12.581
-13.512
-14.43
-15.33
-16.204
-17.047
-17.852
-18.611
-19.319
-19.968
-20.551
-21.062
-21.492
-21.836
-22.087
-22.239
-22.286
-22.222
-22.044
-21.746
-21.326
-20.782
-20.112
-19.316
-18.394
-17.347
-16.177
-14.889
-13.485
-11.969
-10.348
-8.629
-6.819
-4.928
-2.964
-0.938
1.137
3.247
5.377
7.512
9.635
11.732
13.784
15.775
17.689
19.512
21.23
22.83
24.296
25.613
26.767
27.745
28.536
29.129
29.517
29.693
29.653
29.402
28.941
28.274
27.398
26.308
25
23.479
21.753
19.834
17.741
15.498
13.138
10.706
8.247
5.798
3.392
1.051
-1.195
-3.315
-5.269
-7.014
-8.512
-9.738
-10.665
-11.284
-11.618
-11.701
-11.597
-11.392
-11.146
-10.93
-10.822
-10.888
-11.212
-11.871
-12.912
-14.412
-16.481
-19.148
-22.366
-25.946
-29.514
-32.706
-35.219
-36.691
-36.73
-35.111
-31.819
-27.208
-22.026
-16.989
-12.603
-9.311
-7.52
-7.343
-8.478
-10.025
-10.456
-8.088
-1.365
11.113
30.671
58.417
94.95
140.158
193.27
251.627
310.862
366.876
415.061
454.546
488.779
518.303
542.101
551.758
530.544
467.686
357.736
207.256
38.623
-126.31
-266.068
-366.197
-428.095
-457.488
-464.727
-461.351
-450.239
-431.713
-404.896
-367.452
-321.951
-273.535
-226.806
-186.763
-156.225
-135.299
-123.226
-118.548
-119.235
-123.248
-128.695
-133.361
-135.274
-133.556
-128.082
-119.287
-108.138
-95.677
-82.81
-70.682
-60.412
-52.551
-47.295
-44.505
-43.729
-44.524
-46.501
-49.184
-52.088
-54.881
-57.298
-59.172
-60.475
-61.179
-61.272
-60.777
-59.72
-58.125
-56.034
-53.508
-50.61
-47.416
-44.002
-40.432
-36.783
-33.145
-29.631
-26.338
-23.33
-20.647
-18.305
-16.318
-14.698
-13.441
-12.517
-11.883
-11.496
-11.318
-11.319
-11.466
-11.718
-12.024
-12.331
-12.592
-12.777
-12.858
-12.813
-12.621
-12.26
-11.719
-10.996
-10.087
-8.988
-7.688
-6.177
-4.447
-2.495
-0.318
2.085
4.718
7.582
10.678
14.006
17.563
21.347
25.356
29.588
34.036
38.693
43.549
48.59
53.805
59.178
64.694
70.333
76.078
81.91
87.809
93.754
99.726
105.701
111.659
117.575
123.427
129.191
134.842
140.357
145.712
150.882
155.844
160.575
165.051
169.252
173.155
176.74
179.99
182.885
185.41
187.55
189.29
190.621
191.533
192.017
192.068
191.682
190.857
189.594
187.895
185.764
183.206
180.23
176.844
173.061
168.894
164.358
159.47
154.249
148.715
142.89
136.797
130.46
123.906
117.16
110.249
103.202
96.045
88.809
81.521
74.21
66.903
59.629
52.413
45.283
38.264
31.378
24.65
18.1
11.749
5.614
-0.286
-5.936
-11.323
-16.435
-21.26
-25.792
-30.022
-33.947
-37.563
-40.868
-43.863
-46.551
-48.934
-51.017
-52.808
-54.313
-55.543
-56.508
-57.218
-57.688
-57.928
-57.954
-57.78
-57.42
-56.889
-56.201
-55.373
-54.419
-53.354
-52.192
-50.948
-49.636
-48.269
-46.859
-45.419
-43.961
-42.495
-41.031
-39.578
-38.145
-36.741
-35.371
-34.043
-32.761
-31.532
-30.358
-29.244
-28.192
-27.204
-26.281
-25.425
-24.637
-23.916
-23.263
-22.677
-22.158
-21.704
-21.314
-20.988
-20.723
-20.517
-20.368
-20.276
-20.239
-20.254
-20.321
-20.438
-20.604
-20.818
-21.079
-21.386
-21.737
-22.132
-22.568
-23.046
-23.564
-24.121
-24.715
-25.346
-26.012
-26.711
-27.441
-28.2
-28.984
-29.789
-30.614
-31.453
-32.302
-33.156
-34.01
-34.861
-35.704
-36.535
-37.348
-38.138
-38.9
-39.63
-40.321
-40.965
-41.553
-42.078
-42.531
-42.908
-43.203
-43.407
-43.516
-43.522
-43.422
-43.217
-42.901
-42.466
-41.905
-41.208
-40.376
-39.421
-38.353
-37.175
-35.897
-34.527
-33.078
-31.574
-30.023
-28.418
-26.755
-25.028
-23.245
-21.43
-19.606
-17.794
-16.006
-14.231
-12.474
-10.751
-9.061
-7.401
-5.757
-4.105
-2.458
-0.87
0.614
1.946
3.102
4.082
4.876
5.474
5.863
6.017
5.921
5.576
4.951
4.005
2.703
0.989
-1.133
-3.6
-6.36
-9.351
-12.513
-15.813
-19.201
-22.622
-26.036
-29.397
-32.654
-35.765
-38.651
-41.23
-43.439
-45.207
-46.502
-47.36
-47.81
-47.897
-47.715
-47.341
-46.869
-46.418
-46.083
-45.939
-46.114
-46.776
-48.046
-49.979
-52.51
-55.418
-58.481
-61.512
-64.226
-66.251
-67.322
-67.302
-66.362
-65.161
-64.307
-64.229
-65.423
-68.211
-72.635
-78.628
-85.487
-91.568
-95.208
-94.744
-88.329
-74.528
-52.169
-20.153
21.888
73.214
132.735
198.94
268.5
337.046
400.663
454.937
498.719
534.747
561.898
577.597
575.94
544.859
479.696
381.502
254.55
112.482
-32.137
-168.168
-281.522
-363.593
-411.97
-429.357
-425.39
-410.269
-387.256
-355.105
-312.143
-259.496
-206.499
-165.401
-143.16
-139.738
-147.028
-155.198
-159.405
-159.331
-158.154
-158.352
-159.053
-158.217
-153.843
-145.241
-133.316
-119.43
-104.851
-90.685
-78.033
-67.61
-59.703
-54.361
-51.311
-50.185
-50.676
-52.348
-54.668
-57.303
-60.054
-62.778
-65.432
-67.885
-69.962
-71.583
-72.716
-73.333
-73.422
-72.953
-71.892
-70.273
-68.173
-65.678
-62.881
-59.838
-56.602
-53.242
-49.853
-46.552
-43.44
-40.578
-38.005
-35.746
-33.819
-32.239
-31.004
-30.081
-29.429
-29.007
-28.779
-28.721
-28.806
-28.993
-29.234
-29.473
-29.664
-29.775
-29.775
-29.64
-29.346
-28.87
-28.2
-27.331
-26.261
-24.981
-23.482
-21.752
-19.781
-17.567
-15.107
-12.399
-9.443
-6.236
-2.78
0.923
4.868
9.052
13.47
18.115
22.981
28.054
33.323
38.771
44.382
50.137
56.017
62.001
68.066
74.19
80.35
86.524
92.685
98.809
104.872
110.848
116.711
122.436
127.998
133.372
138.533
143.457
148.122
152.505
156.585
160.341
163.756
166.813
169.495
171.791
173.687
175.175
176.246
176.895
177.118
176.912
176.278
175.217
173.734
171.833
169.523
166.814
163.716
160.243
156.409
152.23
147.723
142.908
137.805
132.434
126.818
120.981
114.946
108.739
102.385
95.909
89.338
82.698
76.013
69.31
62.612
55.944
49.329
42.789
36.346
30.02
23.83
17.795
11.933
6.257
0.784
-4.474
-9.505
-14.3
-18.85
-23.147
-27.186
-30.962
-34.472
-37.714
-40.688
-43.393
-45.832
-48.008
-49.926
-51.59
-53.008
-54.186
-55.132
-55.855
-56.363
-56.666
-56.774
-56.696
-56.442
-56.023
-55.448
-54.728
-53.874
-52.896
-51.803
-50.606
-49.314
-47.937
-46.483
-44.962
-43.383
-41.753
-40.081
-38.374
-36.642
-34.89
-33.126
-31.357
-29.59
-27.83
-26.083
-24.355
-22.651
-20.976
-19.335
-17.733
-16.175
-14.664
-13.206
-11.805
-10.466
-9.192
-7.988
-6.858
-5.805
-4.833
-3.947
-3.149
-2.443
-1.833
-1.321
-0.911
-0.603
-0.402
-0.307
-0.32
-0.441
-0.67
-1.008
-1.452
-2.002
-2.655
-3.409
-4.26
-5.206
-6.24
-7.359
-8.555
-9.824
-11.156
-12.546
-13.984
-15.463
-16.973
-18.504
-20.046
-21.589
-23.122
-24.634
-26.113
-27.546
-28.922
-30.23
-31.457
-32.592
-33.623
-34.541
-35.334
-35.993
-36.509
-36.873
-37.078
-37.118
-36.985
-36.677
-36.191
-35.523
-34.674
-33.642
-32.431
-31.042
-29.48
-27.752
-25.863
-23.822
-21.64
-19.327
-16.897
-14.363
-11.74
-9.043
-6.292
-3.508
-0.714
2.068
4.812
7.495
10.09
12.575
14.929
17.133
19.169
21.022
22.675
24.112
25.317
26.276
26.977
27.416
27.59
27.505
27.17
26.592
25.779
24.733
23.45
21.929
20.166
18.157
15.898
13.398
10.677
7.764
4.696
1.491
-1.848
-5.319
-8.911
-12.588
-16.297
-19.97
-23.55
-26.973
-30.135
-32.99
-35.554
-37.924
-40.322
-42.977
-46.016
-49.501
-53.462
-57.665
-61.731
-65.23
-67.479
-67.932
-66.316
-62.498
-56.633
-49.423
-41.825
-34.755
-29.385
-26.662
-27.203
-31.501
-39.539
-50.604
-63.625
-77.659
-91.576
-104.154
-114.379
-121.329
-124.42
-123.52
-117.973
-106.004
-86.181
-58.429
-25.293
9.38
43.456
77.907
119.126
173.84
245.206
333.197
429.355
521.306
597.342
643.847
652.911
625.026
563.951
479.282
381.071
271.228
150.697
21.858
-110.383
-231.15
-324.431
-382.201
-403.7
-398.454
-380.116
-356.534
-331.171
-303.816
-272.536
-239.235
-207.778
-181.706
-164.007
-155.109
-153.653
-157.693
-164.616
-171.787
-176.941
-178.407
-175.405
-167.825
-156.052
-140.964
-123.76
-105.947
-89.128
-74.426
-62.418
-53.323
-47.047
-43.358
-41.977
-42.418
-44.079
-46.503
-49.381
-52.547
-55.951
-59.494
-63.008
-66.321
-69.282
-71.779
-73.74
-75.098
-75.791
-75.782
-75.071
-73.71
-71.788
-69.395
-66.616
-63.509
-60.133
-56.57
-52.925
-49.328
-45.887
-42.673
-39.728
-37.079
-34.75
-32.754
-31.088
-29.719
-28.601
-27.697
-26.974
-26.413
-25.988
-25.659
-25.377
-25.086
-24.742
-24.311
-23.77
-23.095
-22.265
-21.263
-20.078
-18.715
-17.172
-15.446
-13.529
-11.412
-9.089
-6.558
-3.82
-0.876
2.274
5.63
9.191
12.953
16.912
21.064
25.406
29.933
34.639
39.514
44.546
49.721
55.025
60.442
65.953
71.542
77.188
82.872
88.574
94.275
99.953
105.587
111.156
116.636
122.006
127.244
132.327
137.233
141.941
146.43
150.681
154.673
158.388
161.807
164.914
167.694
170.133
172.217
173.936
175.281
176.244
176.819
177.003
176.794
176.191
175.196
173.812
172.044
169.9
167.386
164.514
161.294
157.74
153.866
149.688
145.223
140.489
135.506
130.294
124.874
119.269
113.501
107.593
101.568
95.451
89.265
83.035
76.784
70.536
64.314
58.139
52.033
46.017
40.111
34.332
28.697
23.224
17.926
12.818
7.912
3.219
-1.252
-5.492
-9.496
-13.258
-16.774
-20.043
-23.063
-25.833
-28.354
-30.627
-32.653
-34.442
-35.998
-37.325
-38.44
-39.358
-40.089
-40.652
-41.058
-41.3
-41.385
-41.325
-41.09
-40.67
-40.083
-39.316
-38.379
-37.343
-36.247
-35.097
-34.062
-33.287
-32.633
-32.1
-31.791
-31.346
-31.292
-32.343
-33.498
-34.399
-33.355
-27.439
-17.692
-6.289
2.733
3.313
-5.929
-21.814
-37.993
-46.859
-44.112
-31.837
-16.587
-4.368
0.47
-1.728
-6.605
-11.311
-13.971
-14.298
-14.024
-13.829
-13.7
-13.699
-13.527
-13.131
-12.769
-12.512
-12.338
-12.28
-12.338
-12.495
-12.745
-13.065
-13.413
-13.781
-14.188
-14.637
-15.128
-15.662
-16.234
-16.845
-17.497
-18.187
-18.91
-19.661
-20.438
-21.237
-22.057
-22.898
-23.756
-24.63
-25.516
-26.408
-27.3
-28.183
-29.049
-29.89
-30.697
-31.456
-32.159
-32.8
-33.37
-33.86
-34.259
-34.547
-34.711
-34.746
-34.646
-34.412
-34.048
-33.56
-32.963
-32.284
-31.549
-30.784
-30.006
-29.215
-28.408
-27.586
-26.749
-25.901
-25.034
-24.12
-23.124
-22.021
-20.782
-19.377
-17.764
-15.867
-13.624
-10.993
-7.943
-4.486
-0.647
3.551
8.071
12.855
17.824
22.863
27.845
32.668
37.234
41.441
45.179
48.301
50.682
52.231
52.878
52.591
51.352
49.155
46.019
42.01
37.217
31.768
25.818
19.492
12.925
6.251
-0.398
-6.863
-13.009
-18.725
-23.912
-28.487
-32.371
-35.505
-37.863
-39.461
-40.334
-40.557
-40.226
-39.431
-38.303
-36.979
-35.589
-34.29
-33.218
-32.483
-32.23
-32.643
-33.827
-35.798
-38.462
-41.551
-44.819
-48.068
-50.976
-53.167
-54.423
-54.648
-54.03
-53.209
-52.723
-52.968
-54.491
-57.571
-62.062
-67.82
-74.287
-80.069
-83.825
-83.319
-75.293
-57.763
-30.091
5.669
45.367
86.499
129.422
178.846
240.258
315.696
402.712
492.175
573.241
635.324
668.536
667.787
629.625
555.682
452.694
327.297
189.694
48.264
-89.645
-213.039
-313.947
-386.075
-426.318
-438.209
-427.08
-398.243
-358.486
-314.907
-273.019
-238.646
-213.173
-192.724
-174.845
-156.751
-138.528
-124.225
-115.455
-112.647
-114.989
-119.443
-123.911
-127.171
-128.104
-126.603
-122.993
-117.552
-110.815
-103.403
-95.925
-89.101
-83.691
-80.102
-78.342
-78.22
-79.378
-81.404
-83.958
-86.691
-89.201
-91.238
-92.681
-93.447
-93.558
-93.054
-91.939
-90.256
-88.075
-85.437
-82.4
-79.05
-75.466
-71.759
-68.053
-64.425
-60.94
-57.652
-54.598
-51.821
-49.349
-47.182
-45.312
-43.734
-42.436
-41.414
-40.653
-40.113
-39.752
-39.522
-39.366
-39.246
-39.127
-38.975
-38.767
-38.478
-38.09
-37.592
-36.977
-36.233
-35.347
-34.304
-33.089
-31.693
-30.108
-28.328
-26.348
-24.163
-21.769
-19.161
-16.336
-13.289
-10.018
-6.518
-2.787
1.176
5.368
9.786
14.421
19.266
24.309
29.541
34.946
40.51
46.217
52.051
57.993
64.026
70.13
76.283
82.465
88.652
94.822
100.951
107.016
112.993
118.856
124.584
130.15
135.533
140.708
145.654
150.347
154.767
158.893
162.704
166.182
169.309
172.07
174.45
176.436
178.017
179.184
179.929
180.247
180.135
179.589
178.611
177.202
175.367
173.111
170.443
167.372
163.91
160.07
155.868
151.321
146.445
141.263
135.794
130.06
124.085
117.894
111.511
104.962
98.274
91.474
84.588
77.644
70.669
63.69
56.734
49.826
42.992
36.257
29.644
23.176
16.874
10.758
4.847
-0.842
-6.295
-11.497
-16.437
-21.103
-25.487
-29.582
-33.383
-36.887
-40.091
-42.996
-45.603
-47.915
-49.936
-51.672
-53.13
-54.319
-55.247
-55.926
-56.365
-56.578
-56.578
-56.378
-55.992
-55.436
-54.724
-53.873
-52.896
-51.811
-50.631
-49.372
-48.048
-46.673
-45.261
-43.825
-42.376
-40.928
-39.49
-38.074
-36.687
-35.338
-34.035
-32.784
-31.59
-30.458
-29.391
-28.394
-27.469
-26.618
-25.842
-25.144
-24.522
-23.978
-23.509
-23.114
-22.79
-22.535
-22.345
-22.215
-22.143
-22.124
-22.154
-22.229
-22.345
-22.497
-22.681
-22.892
-23.125
-23.376
-23.641
-23.915
-24.196
-24.479
-24.762
-25.042
-25.318
-25.586
-25.845
-26.091
-26.321
-26.531
-26.718
-26.878
-27.005
-27.096
-27.147
-27.156
-27.12
-27.038
-26.909
-26.731
-26.506
-26.23
-25.902
-25.518
-25.073
-24.563
-23.982
-23.324
-22.588
-21.769
-20.865
-19.876
-18.804
-17.647
-16.405
-15.072
-13.638
-12.101
-10.458
-8.716
-6.886
-4.986
-3.04
-1.076
0.876
2.794
4.662
6.475
8.242
9.974
11.681
13.361
15.001
16.589
18.115
19.578
20.98
22.339
23.686
25.062
26.52
28.092
29.788
31.59
33.448
35.3
37.065
38.682
40.107
41.305
42.246
42.907
43.259
43.259
42.85
41.954
40.476
38.354
35.551
32.073
27.971
23.333
18.281
12.938
7.41
1.787
-3.861
-9.473
-14.989
-20.34
-25.45
-30.217
-34.531
-38.298
-41.442
-43.933
-45.797
-47.102
-47.974
-48.549
-48.937
-49.246
-49.572
-50.001
-50.626
-51.533
-52.775
-54.439
-56.664
-59.524
-63.024
-67.024
-71.15
-74.976
-78.097
-80.039
-80.318
-78.635
-74.874
-69.32
-62.834
-56.399
-50.915
-47.287
-46.195
-47.878
-52.169
-58.114
-63.725
-66.584
-64.167
-54.001
-33.979
-2.568
41.104
96.964
162.552
233.302
304.427
370.549
429.209
481.507
525.493
558.088
572.109
554.443
499.194
405.628
278.674
134.237
-14.761
-156.968
-280.354
-380.829
-454.977
-500.551
-520.377
-516.818
-492.883
-454.788
-409.7
-363.835
-323.499
-290.707
-262.435
-236.935
-212.415
-189.049
-170.352
-157.83
-151.531
-150.179
-150.706
-150.669
-148.451
-143.308
-135.515
-125.549
-114.009
-101.685
-89.287
-77.735
-68.049
-60.741
-55.987
-53.694
-53.478
-54.931
-57.689
-61.291
-65.227
-69.132
-72.704
-75.723
-78.117
-79.831
-80.825
-81.113
-80.719
-79.666
-78.002
-75.79
-73.091
-69.992
-66.579
-62.921
-59.105
-55.227
-51.402
-47.754
-44.371
-41.305
-38.587
-36.233
-34.256
-32.661
-31.422
-30.495
-29.838
-29.407
-29.17
-29.098
-29.15
-29.28
-29.437
-29.564
-29.619
-29.572
-29.396
-29.067
-28.565
-27.872
-26.982
-25.896
-24.609
-23.116
-21.408
-19.474
-17.31
-14.914
-12.282
-9.415
-6.312
-2.973
0.602
4.409
8.445
12.706
17.188
21.885
26.792
31.898
37.191
42.656
48.28
54.046
59.936
65.931
72.011
78.154
84.341
90.549
96.756
102.938
109.071
115.132
121.096
126.938
132.634
138.158
143.488
148.599
153.468
158.071
162.388
166.398
170.08
173.418
176.393
178.99
181.196
182.998
184.386
185.351
185.886
185.987
185.651
184.875
183.662
182.015
179.939
177.442
174.531
171.219
167.519
163.445
159.015
154.248
149.162
143.781
138.127
132.225
126.1
119.779
113.289
106.657
99.913
93.084
86.198
79.285
72.372
65.486
58.655
51.905
45.261
38.746
32.385
26.199
20.208
14.432
8.888
3.592
-1.442
-6.202
-10.678
-14.861
-18.745
-22.326
-25.601
-28.571
-31.235
-33.595
-35.656
-37.421
-38.9
-40.104
-41.04
-41.715
-42.148
-42.359
-42.366
-42.191
-41.842
-41.32
-40.65
-39.861
-38.939
-37.88
-36.683
-35.337
-33.877
-32.361
-30.776
-29.096
-27.441
-25.952
-24.561
-23.287
-22.162
-20.916
-20.306
-21.066
-22.16
-23.277
-22.507
-17.562
-10.979
-4.448
-0.484
-2.542
-7.564
-12.959
-16.949
-16.598
-14.002
-11.284
-8.912
-8.179
-8.331
-8.394
-8.551
-8.673
-8.821
-9.188
-9.641
-10.072
-10.513
-10.966
-11.416
-11.863
-12.309
-12.755
-13.216
-13.712
-14.229
-14.757
-15.296
-15.842
-16.393
-16.946
-17.498
-18.04
-18.572
-19.091
-19.591
-20.071
-20.524
-20.946
-21.331
-21.674
-21.97
-22.215
-22.401
-22.525
-22.58
-22.562
-22.463
-22.281
-22.009
-21.643
-21.177
-20.609
-19.934
-19.149
-18.251
-17.239
-16.111
-14.866
-13.504
-12.027
-10.436
-8.734
-6.923
-5.011
-3.002
-0.904
1.274
3.523
5.832
8.187
10.575
12.981
15.39
17.785
20.151
22.47
24.725
26.902
28.985
30.958
32.807
34.513
36.061
37.435
38.62
39.603
40.371
40.914
41.223
41.297
41.134
40.731
40.086
39.189
38.037
36.629
34.97
33.067
30.932
28.585
26.054
23.38
20.601
17.751
14.86
11.947
9.036
6.156
3.341
0.632
-1.93
-4.318
-6.507
-8.468
-10.202
-11.731
-13.101
-14.395
-15.682
-17.003
-18.408
-19.946
-21.669
-23.658
-25.98
-28.684
-31.847
-35.559
-39.846
-44.665
-49.808
-54.878
-59.454
-63.138
-65.535
-66.284
-65.167
-62.183
-57.753
-52.725
-48.013
-44.438
-42.589
-42.78
-45.231
-49.87
-55.658
-60.91
-62.9
-57.932
-44.227
-21.173
10.517
47.644
89.863
138.681
195.361
262.756
339.446
420.468
499.706
567.172
613.016
627.614
603.595
540.542
443.277
321.315
184.024
38.402
-107.843
-246.144
-363.941
-449.186
-498.073
-512.476
-501.398
-475.758
-438.923
-394.573
-346.471
-296.789
-253.265
-219.478
-193.117
-173.202
-155.884
-139.482
-127.015
-119.298
-116.483
-117.823
-120.122
-121.184
-120.017
-116.196
-110.241
-102.789
-94.3
-85.347
-76.641
-68.948
-63.004
-59.167
-57.381
-57.383
-58.778
-61.152
-64.107
-67.217
-70.021
-72.198
-73.593
-74.143
-73.881
-72.855
-71.084
-68.623
-65.564
-61.995
-58.01
-53.714
-49.201
-44.586
-40.006
-35.565
-31.35
-27.442
-23.889
-20.722
-17.964
-15.61
-13.645
-12.057
-10.822
-9.909
-9.286
-8.907
-8.72
-8.673
-8.705
-8.762
-8.804
-8.793
-8.701
-8.506
-8.189
-7.737
-7.144
-6.401
-5.494
-4.414
-3.149
-1.687
-0.023
1.85
3.936
6.238
8.76
11.506
14.478
17.681
21.114
24.779
28.678
32.807
37.161
41.732
46.511
51.485
56.641
61.965
67.44
73.048
78.772
84.592
90.491
96.448
102.441
108.451
114.454
120.428
126.349
132.195
137.943
143.567
149.046
154.355
159.471
164.373
169.039
173.446
177.575
181.405
184.92
188.101
190.933
193.402
195.494
197.2
198.511
199.418
199.916
200.001
199.672
198.928
197.771
196.202
194.228
191.854
189.089
185.941
182.423
178.547
174.329
169.783
164.927
159.779
154.361
148.692
142.795
136.691
130.406
123.962
117.385
110.698
103.928
97.099
90.235
83.361
76.501
69.678
62.916
56.235
49.658
43.204
36.892
30.741
24.767
18.986
13.412
8.057
2.935
-1.946
-6.577
-10.95
-15.06
-18.903
-22.476
-25.776
-28.805
-31.563
-34.053
-36.278
-38.243
-39.955
-41.418
-42.642
-43.633
-44.402
-44.957
-45.307
-45.465
-45.44
-45.245
-44.89
-44.387
-43.748
-42.985
-42.11
-41.135
-40.071
-38.93
-37.722
-36.46
-35.153
-33.812
-32.447
-31.068
-29.682
-28.3
-26.928
-25.574
-24.245
-22.948
-21.689
-20.473
-19.306
-18.194
-17.142
-16.154
-15.235
-14.388
-13.618
-12.927
-12.317
-11.792
-11.352
-11
-10.737
-10.564
-10.481
-10.489
-10.588
-10.778
-11.057
-11.425
-11.88
-12.42
-13.043
-13.745
-14.526
-15.382
-16.31
-17.306
-18.367
-19.489
-20.667
-21.895
-23.167
-24.476
-25.815
-27.177
-28.553
-29.934
-31.311
-32.676
-34.022
-35.34
-36.623
-37.862
-39.047
-40.173
-41.229
-42.207
-43.095
-43.882
-44.557
-45.112
-45.541
-45.836
-45.989
-45.994
-45.846
-45.544
-45.086
-44.466
-43.675
-42.7
-41.539
-40.202
-38.704
-37.059
-35.277
-33.369
-31.356
-29.262
-27.107
-24.896
-22.619
-20.264
-17.836
-15.35
-12.84
-10.337
-7.854
-5.394
-2.951
-0.533
1.853
4.208
6.553
8.919
11.309
13.684
15.972
18.101
20.028
21.73
23.199
24.42
25.368
26.015
26.336
26.319
25.945
25.168
23.922
22.138
19.792
16.918
13.601
9.919
5.938
1.719
-2.69
-7.226
-11.828
-16.453
-21.061
-25.61
-30.043
-34.264
-38.169
-41.668
-44.7
-47.259
-49.392
-51.149
-52.585
-53.78
-54.796
-55.72
-56.64
-57.619
-58.732
-60.038
-61.636
-63.699
-66.32
-69.5
-73.141
-76.956
-80.631
-83.931
-86.515
-87.952
-88.026
-86.66
-84.131
-81.219
-78.568
-76.664
-76.029
-77.006
-79.74
-84.126
-89.259
-93.447
-95.072
-92.448
-83.852
-67.968
-43.478
-9.3
34.594
87.386
148.044
213.721
279.965
342.915
398.057
443.888
483.209
515.455
538.114
544.733
522.483
465.185
372.871
250.232
111.716
-29.681
-162.708
-274.406
-358.484
-411.326
-432.058
-427.361
-403.855
-369.031
-332.406
-298.813
-272.02
-252.795
-236.408
-220.165
-202.418
-183.856
-168.868
-159.577
-156.547
-158.894
-163.709
-169.096
-173.534
-175.549
-174.8
-171.237
-164.944
-156.478
-146.393
-135.218
-123.904
-113.496
-104.612
-97.557
-92.33
-88.67
-86.351
-85.166
-84.779
-84.817
-85.041
-85.31
-85.577
-85.868
-86.132
-86.304
-86.335
-86.168
-85.768
-85.107
-84.152
-82.895
-81.357
-79.577
-77.602
-75.476
-73.221
-70.87
-68.461
-66.036
-63.666
-61.401
-59.287
-57.377
-55.701
-54.279
-53.125
-52.229
-51.565
-51.108
-50.827
-50.687
-50.666
-50.733
-50.856
-50.999
-51.117
-51.169
-51.124
-50.949
-50.617
-50.105
-49.391
-48.461
-47.311
-45.933
-44.321
-42.47
-40.371
-38.02
-35.413
-32.551
-29.435
-26.067
-22.448
-18.582
-14.471
-10.124
-5.546
-0.745
4.272
9.494
14.908
20.499
26.25
32.142
38.156
44.271
50.465
56.715
62.999
69.293
75.574
81.818
88
94.096
100.082
105.933
111.624
117.134
122.438
127.514
132.342
136.9
141.169
145.13
148.766
152.06
154.997
157.564
159.749
161.541
162.933
163.919
164.493
164.655
164.402
163.737
162.662
161.183
159.307
157.043
154.4
151.391
148.028
144.329
140.307
135.982
131.373
126.498
121.38
116.038
110.497
104.777
98.903
92.897
86.783
80.586
74.327
68.031
61.721
55.42
49.149
42.931
36.786
30.733
24.792
18.981
13.315
7.811
2.482
-2.658
-7.597
-12.326
-16.836
-21.119
-25.17
-28.985
-32.56
-35.893
-38.985
-41.836
-44.448
-46.824
-48.968
-50.883
-52.575
-54.051
-55.317
-56.38
-57.248
-57.93
-58.435
-58.772
-58.951
-58.981
-58.871
-58.634
-58.277
-57.812
-57.248
-56.596
-55.865
-55.065
-54.205
-53.294
-52.34
-51.352
-50.335
-49.296
-48.241
-47.176
-46.105
-45.032
-43.962
-42.899
-41.845
-40.803
-39.778
-38.771
-37.785
-36.821
-35.883
-34.971
-34.088
-33.234
-32.412
-31.624
-30.869
-30.149
-29.466
-28.82
-28.211
-27.639
-27.105
-26.608
-26.148
-25.726
-25.341
-24.994
-24.686
-24.416
-24.186
-23.996
-23.848
-23.741
-23.677
-23.654
-23.674
-23.736
-23.838
-23.98
-24.161
-24.379
-24.632
-24.916
-25.229
-25.566
-25.924
-26.296
-26.678
-27.064
-27.446
-27.82
-28.179
-28.516
-28.826
-29.101
-29.337
-29.525
-29.659
-29.732
-29.737
-29.668
-29.516
-29.275
-28.939
-28.503
-27.96
-27.307
-26.538
-25.65
-24.642
-23.511
-22.257
-20.879
-19.379
-17.759
-16.025
-14.181
-12.236
-10.197
-8.076
-5.885
-3.639
-1.351
0.963
3.288
5.608
7.906
10.166
12.373
14.513
16.569
18.525
20.365
22.07
23.624
25.01
26.214
27.221
28.016
28.587
28.931
29.043
28.918
28.547
27.917
27.018
25.849
24.414
22.718
20.774
18.604
16.24
13.734
11.137
8.495
5.854
3.242
0.691
-1.755
-4.049
-6.141
-7.984
-9.554
-10.834
-11.797
-12.444
-12.81
-12.961
-13.013
-13.081
-13.242
-13.577
-14.17
-15.103
-16.484
-18.414
-20.947
-24.157
-28.116
-32.831
-38.261
-44.231
-50.36
-56.213
-61.351
-65.275
-67.505
-67.705
-65.7
-61.66
-56.133
-49.78
-43.207
-37
-31.755
-27.794
-24.993
-22.621
-19.279
-13.163
-2.513
14.264
39.038
73.412
118.191
173.617
238.043
307.51
378.122
445.968
508.334
566.066
618.816
662.812
691.411
693.157
657.92
583.552
473.642
338.316
191.751
44.172
-93.98
-213.2
-308.524
-373.392
-406.484
-410.212
-385.484
-340.198
-282.581
-222.241
-173.975
-144.085
-133.35
-137.471
-144.192
-146.693
-143.574
-136.47
-131.286
-130.401
-132.389
-134.767
-134.368
-130.105
-122.618
-112.782
-101.698
-90.175
-78.945
-69.053
-61.146
-55.421
-51.889
-50.301
-50.376
-51.883
-54.421
-57.474
-60.704
-63.919
-67.012
-69.951
-72.625
-74.887
-76.643
-77.858
-78.52
-78.62
-78.14
-77.061
-75.406
-73.243
-70.664
-67.762
-64.597
-61.223
-57.697
-54.096
-50.525
-47.073
-43.804
-40.761
-37.97
-35.45
-33.219
-31.277
-29.602
-28.162
-26.919
-25.839
-24.901
-24.079
-23.342
-22.651
-21.956
-21.217
-20.403
-19.489
-18.455
-17.28
-15.945
-14.438
-12.761
-10.909
-8.879
-6.668
-4.264
-1.664
1.135
4.134
7.331
10.725
14.318
18.108
22.09
26.262
30.618
35.152
39.858
44.73
49.755
54.921
60.212
65.613
71.105
76.671
82.29
87.94
93.601
99.252
104.871
110.436
115.925
121.316
126.588
131.717
136.683
141.465
146.039
150.386
154.486
158.318
161.865
165.107
168.028
170.612
172.844
174.714
176.208
177.318
178.037
178.359
178.281
177.801
176.92
175.639
173.964
171.902
169.46
166.649
163.481
159.969
156.129
151.976
147.528
142.803
137.821
132.604
127.172
121.549
115.759
109.826
103.775
97.631
91.422
85.173
78.91
72.658
66.442
60.288
54.219
48.259
42.428
36.749
31.24
25.92
20.806
15.911
11.251
6.835
2.674
-1.224
-4.852
-8.207
-11.284
-14.081
-16.6
-18.839
-20.803
-22.494
-23.919
-25.084
-25.997
-26.667
-27.104
-27.32
-27.328
-27.14
-26.769
-26.229
-25.536
-24.703
-23.746
-22.679
-21.517
-20.276
-18.968
-17.609
-16.21
-14.786
-13.347
-11.905
-10.469
-9.05
-7.657
-6.296
-4.976
-3.703
-2.483
-1.321
-0.222
0.811
1.774
2.665
3.482
4.224
4.89
5.481
5.996
6.437
6.804
7.099
7.322
7.477
7.565
7.587
7.546
7.444
7.283
7.065
6.791
6.463
6.081
5.646
5.16
4.621
4.032
3.391
2.7
1.958
1.165
0.323
-0.57
-1.512
-2.503
-3.543
-4.63
-5.764
-6.944
-8.167
-9.432
-10.736
-12.077
-13.451
-14.856
-16.286
-17.738
-19.206
-20.686
-22.171
-23.655
-25.131
-26.592
-28.028
-29.433
-30.796
-32.11
-33.364
-34.55
-35.658
-36.679
-37.605
-38.427
-39.136
-39.725
-40.187
-40.513
-40.699
-40.738
-40.626
-40.36
-39.936
-39.352
-38.607
-37.703
-36.64
-35.421
-34.05
-32.531
-30.872
-29.08
-27.164
-25.135
-23.006
-20.789
-18.503
-16.162
-13.786
-11.394
-9.004
-6.638
-4.314
-2.054
0.124
2.202
4.16
5.982
7.647
9.136
10.432
11.517
12.378
12.999
13.367
13.473
13.313
12.883
12.181
11.201
9.935
8.377
6.53
4.401
1.999
-0.661
-3.555
-6.654
-9.913
-13.288
-16.739
-20.229
-23.732
-27.219
-30.652
-33.989
-37.179
-40.177
-42.957
-45.5
-47.78
-49.794
-51.565
-53.139
-54.597
-56.023
-57.461
-58.956
-60.562
-62.328
-64.335
-66.671
-69.388
-72.551
-76.244
-80.47
-85.196
-90.286
-95.408
-100.184
-104.257
-107.242
-108.771
-108.621
-106.664
-103.044
-98.326
-93.112
-87.98
-83.405
-79.742
-77.419
-76.564
-76.68
-76.803
-74.738
-68.21
-56.643
-38.68
-14.508
14.972
53.227
101.049
158.245
225.399
295.888
364.816
431.05
490.707
542.002
580.69
595.616
577.106
520.96
427.201
302.673
159.849
9.899
-134.838
-259.332
-354.519
-417.589
-450.668
-463.409
-463.701
-452.286
-429.216
-395.26
-354.846
-317.449
-290.063
-273.107
-261.534
-249.132
-232.559
-212.902
-194.687
-180.952
-172.165
-167.546
-164.732
-161.911
-158.472
-153.789
-147.81
-140.953
-133.421
-125.398
-117.241
-109.317
-102.12
-96.363
-92.399
-90.173
-89.514
-90.116
-91.706
-94.12
-97.073
-100.154
-103.032
-105.441
-107.237
-108.424
-108.993
-108.919
-108.209
-106.881
-104.989
-102.627
-99.875
-96.803
-93.463
-89.886
-86.128
-82.27
-78.411
-74.675
-71.142
-67.854
-64.845
-62.139
-59.751
-57.697
-55.958
-54.49
-53.252
-52.209
-51.335
-50.616
-50.024
-49.517
-49.051
-48.571
-48.038
-47.424
-46.703
-45.849
-44.84
-43.659
-42.297
-40.756
-39.034
-37.126
-35.023
-32.716
-30.199
-27.468
-24.524
-21.365
-17.99
-14.398
-10.59
-6.569
-2.339
2.095
6.73
11.562
16.582
21.781
27.146
32.663
38.319
44.099
49.988
55.968
62.02
68.126
74.267
80.424
86.575
92.693
98.756
104.737
110.614
116.365
121.967
127.395
132.628
137.644
142.426
146.955
151.208
155.158
158.778
162.049
164.963
167.52
169.717
171.55
173.016
174.121
174.876
175.286
175.343
175.027
174.314
173.197
171.679
169.783
167.529
164.924
161.962
158.632
154.937
150.882
146.466
141.67
136.466
130.855
124.877
118.609
112.13
105.493
98.733
91.871
84.932
77.962
71.013
64.132
57.35
50.706
44.251
38.067
32.245
26.834
21.828
17.177
12.831
8.768
4.984
1.479
-1.759
-4.754
-7.525
-10.073
-12.394
-14.495
-16.406
-18.185
-19.895
-21.566
-23.187
-24.717
-26.119
-27.379
-28.492
-29.452
-30.244
-30.852
-31.277
-31.538
-31.657
-31.644
-31.494
-31.189
-30.711
-30.057
-29.244
-28.299
-27.245
-26.099
-24.873
-23.584
-22.255
-20.903
-19.532
-18.138
-16.718
-15.273
-13.808
-12.335
-10.862
-9.391
-7.926
-6.467
-5.016
-3.577
-2.149
-0.733
0.673
2.068
3.449
4.81
6.144
7.447
8.716
9.947
11.135
12.277
13.369
14.409
15.395
16.324
17.193
17.999
18.738
19.408
20.004
20.526
20.969
21.332
21.613
21.811
21.925
21.955
21.901
21.764
21.544
21.245
20.867
20.413
19.888
19.295
18.64
17.928
17.166
16.36
15.52
14.651
13.765
12.869
11.971
11.081
10.208
9.361
8.55
7.785
7.074
6.427
5.854
5.363
4.962
4.66
4.463
4.377
4.408
4.56
4.837
5.241
5.774
6.435
7.226
8.144
9.186
10.348
11.623
13.005
14.485
16.053
17.695
19.399
21.148
22.928
24.724
26.518
28.294
30.035
31.726
33.354
34.903
36.358
37.7
38.915
39.987
40.901
41.644
42.204
42.569
42.731
42.69
42.444
41.992
41.329
40.44
39.318
37.966
36.383
34.578
32.565
30.36
27.993
25.514
22.966
20.391
17.826
15.291
12.817
10.441
8.196
6.135
4.293
2.685
1.338
0.27
-0.542
-1.128
-1.555
-1.936
-2.346
-2.868
-3.599
-4.608
-5.995
-7.862
-10.262
-13.285
-17.038
-21.545
-26.795
-32.657
-38.777
-44.785
-50.326
-54.932
-58.152
-59.649
-59.192
-56.982
-53.647
-49.893
-46.4
-43.783
-42.59
-43.211
-45.708
-49.365
-52.66
-53.687
-50.49
-41.182
-23.79
3.439
42.024
91.845
150.329
214.309
280.213
346.085
413.08
480.697
544.944
597.513
624.37
613.709
561.25
469.96
351.127
216.955
76.11
-63.677
-196.277
-313.262
-405.217
-468.382
-502.249
-511.364
-502.737
-477.669
-439.913
-395.274
-347.839
-306.823
-275.712
-250.35
-228.857
-206.931
-183.179
-162.319
-146.129
-135
-128.877
-125.019
-121.415
-117.529
-112.715
-106.657
-99.622
-91.909
-83.701
-75.36
-67.344
-59.927
-53.59
-48.957
-46.136
-44.959
-45.225
-46.605
-48.814
-51.662
-54.778
-57.639
-59.939
-61.521
-62.332
-62.45
-61.902
-60.663
-58.782
-56.362
-53.514
-50.356
-46.979
-43.41
-39.705
-35.946
-32.236
-28.717
-25.488
-22.595
-20.066
-17.911
-16.14
-14.762
-13.762
-13.089
-12.694
-12.531
-12.56
-12.757
-13.087
-13.5
-13.944
-14.353
-14.68
-14.891
-14.958
-14.854
-14.556
-14.042
-13.302
-12.335
-11.139
-9.707
-8.029
-6.095
-3.896
-1.433
1.297
4.293
7.556
11.086
14.881
18.936
23.246
27.806
32.61
37.651
42.92
48.404
54.089
59.959
65.995
72.179
78.49
84.904
91.401
97.955
104.543
111.141
117.724
124.267
130.745
137.133
143.405
149.535
155.499
161.271
166.828
172.146
177.201
181.971
186.434
190.57
194.36
197.787
200.833
203.486
205.731
207.559
208.959
209.925
210.451
210.535
210.175
209.371
208.126
206.445
204.336
201.806
198.866
195.527
191.803
187.709
183.263
178.481
173.383
167.989
162.322
156.404
150.26
143.913
137.391
130.718
123.921
117.027
110.062
103.054
96.027
89.008
82.021
75.092
68.242
61.496
54.873
48.395
42.079
35.945
30.006
24.279
18.776
13.509
8.487
3.719
-0.788
-5.029
-8.999
-12.697
-16.12
-19.27
-22.148
-24.758
-27.103
-29.19
-31.026
-32.618
-33.976
-35.109
-36.029
-36.745
-37.27
-37.615
-37.793
-37.816
-37.697
-37.448
-37.082
-36.612
-36.048
-35.404
-34.69
-33.919
-33.1
-32.245
-31.362
-30.461
-29.552
-28.642
-27.74
-26.852
-25.986
-25.148
-24.343
-23.577
-22.854
-22.178
-21.551
-20.978
-20.459
-19.997
-19.594
-19.25
-18.968
-18.746
-18.587
-18.489
-18.454
-18.481
-18.57
-18.721
-18.934
-19.207
-19.54
-19.933
-20.385
-20.895
-21.461
-22.083
-22.759
-23.488
-24.267
-25.095
-25.969
-26.888
-27.85
-28.851
-29.889
-30.961
-32.064
-33.195
-34.351
-35.527
-36.719
-37.923
-39.134
-40.347
-41.557
-42.757
-43.942
-45.105
-46.24
-47.338
-48.394
-49.4
-50.349
-51.233
-52.047
-52.782
-53.433
-53.994
-54.458
-54.82
-55.075
-55.218
-55.244
-55.151
-54.936
-54.596
-54.13
-53.537
-52.816
-51.97
-51.001
-49.91
-48.703
-47.384
-45.959
-44.436
-42.825
-41.133
-39.373
-37.557
-35.699
-33.815
-31.921
-30.034
-28.17
-26.345
-24.579
-22.887
-21.284
-19.785
-18.404
-17.156
-16.057
-15.121
-14.362
-13.793
-13.426
-13.271
-13.338
-13.632
-14.154
-14.903
-15.878
-17.082
-18.522
-20.2
-22.112
-24.252
-26.609
-29.167
-31.903
-34.784
-37.762
-40.794
-43.84
-46.864
-49.845
-52.752
-55.549
-58.198
-60.65
-62.872
-64.844
-66.542
-67.941
-69.051
-69.905
-70.565
-71.138
-71.699
-72.295
-72.989
-73.833
-74.902
-76.295
-78.083
-80.312
-83.044
-86.363
-90.3
-94.812
-99.673
-104.462
-108.736
-112.104
-114.172
-114.53
-112.914
-109.28
-103.97
-97.8
-91.607
-86.034
-81.713
-79.235
-78.869
-80.466
-83.112
-84.999
-84.201
-78.984
-67.339
-47.192
-16.867
25.033
77.671
137.571
201.478
265.979
329.322
393.24
456.588
513.946
556.68
570.88
545.513
478.817
375.199
244.902
101.021
-46.64
-189.049
-314.327
-412.32
-476.777
-506.412
-508.948
-495.901
-474.693
-449.498
-420.573
-385.398
-345.146
-303.32
-263.535
-230.167
-205.328
-188.706
-179.246
-175.269
-174.948
-176.713
-179.172
-180.68
-179.837
-176.152
-169.745
-161.136
-151.17
-140.657
-130.268
-120.917
-113.47
-108.277
-105.389
-104.578
-105.371
-107.35
-110.126
-113.205
-116.127
-118.591
-120.391
-121.45
-121.789
-121.406
-120.318
-118.573
-116.228
-113.358
-110.038
-106.34
-102.353
-98.186
-93.963
-89.819
-85.858
-82.158
-78.791
-75.8
-73.216
-71.056
-69.315
-67.973
-67.016
-66.417
-66.141
-66.157
-66.416
-66.863
-67.445
-68.096
-68.762
-69.4
-69.972
-70.446
-70.797
-71.003
-71.047
-70.92
-70.607
-70.094
-69.367
-68.411
-67.211
-65.76
-64.049
-62.072
-59.824
-57.299
-54.494
-51.403
-48.026
-44.361
-40.408
-36.166
-31.64
-26.836
-21.764
-16.435
-10.864
-5.064
0.948
7.152
13.529
20.06
26.722
33.495
40.356
47.281
54.246
61.228
68.2
75.137
82.015
88.807
95.487
102.031
108.412
114.606
120.589
126.338
131.83
137.044
141.96
146.56
150.825
154.74
158.292
161.467
164.255
166.648
168.637
170.219
171.39
172.149
172.496
172.433
171.964
171.094
169.832
168.185
166.165
163.783
161.053
157.99
154.61
150.931
146.972
142.753
138.296
133.621
128.752
123.713
118.525
113.215
107.804
102.318
96.78
91.213
85.641
80.086
74.569
69.112
63.735
58.457
53.296
48.27
43.393
38.681
34.147
29.802
25.656
21.719
17.999
14.501
11.231
8.192
5.385
2.813
0.475
-1.633
-3.512
-5.166
-6.602
-7.824
-8.84
-9.658
-10.285
-10.732
-11.006
-11.118
-11.079
-10.898
-10.586
-10.155
-9.614
-8.976
-8.25
-7.447
-6.578
-5.651
-4.677
-3.665
-2.624
-1.561
-0.485
0.598
1.68
2.755
3.818
4.862
5.885
6.881
7.847
8.779
9.676
10.534
11.351
12.127
12.858
13.545
14.185
14.778
15.323
15.821
16.27
16.67
17.021
17.324
17.579
17.785
17.942
18.051
18.112
18.125
18.089
18.006
17.876
17.698
17.474
17.203
16.886
16.523
16.116
15.663
15.167
14.628
14.047
13.426
12.766
12.068
11.335
10.569
9.773
8.951
8.104
7.238
6.356
5.462
4.562
3.66
2.762
1.874
1.003
0.155
-0.664
-1.445
-2.184
-2.872
-3.504
-4.072
-4.569
-4.99
-5.328
-5.577
-5.731
-5.785
-5.734
-5.573
-5.299
-4.908
-4.397
-3.764
-3.009
-2.129
-1.127
-0.002
1.242
2.604
4.078
5.659
7.34
9.112
10.966
12.892
14.875
16.904
18.962
21.036
23.108
25.164
27.186
29.158
31.064
32.888
34.615
36.229
37.713
39.051
40.23
41.234
42.049
42.661
43.057
43.226
43.163
42.862
42.319
41.527
40.476
39.164
37.592
35.767
33.696
31.389
28.862
26.141
23.268
20.285
17.232
14.145
11.048
7.968
4.945
2.02
-0.766
-3.376
-5.797
-8.021
-10.024
-11.8
-13.359
-14.745
-16.058
-17.397
-18.837
-20.43
-22.208
-24.216
-26.531
-29.227
-32.35
-35.925
-39.934
-44.394
-49.412
-54.981
-60.968
-67.1
-72.885
-77.862
-81.696
-83.939
-84.057
-81.802
-77.116
-70.234
-62.066
-53.555
-45.536
-39.313
-35.22
-32.094
-28.974
-24.396
-18.973
-16.667
-18.192
-21.054
-17.203
7.513
59.862
138.211
233.424
328.205
411.934
483.13
542.691
593.117
631.118
644.739
622.243
558.538
454.997
320.118
168.039
11.205
-137.947
-264.397
-358.043
-414.433
-434.983
-430.153
-411.884
-387.1
-359.239
-327.719
-290.876
-251.035
-212.177
-178.457
-153.538
-138.112
-131.089
-130.777
-134.588
-140.04
-145.056
-147.54
-146.203
-140.718
-131.194
-118.312
-103.246
-87.246
-71.612
-57.69
-46.279
-37.657
-31.895
-28.765
-27.875
-28.808
-31.015
-33.872
-36.984
-40.138
-43.159
-45.951
-48.394
-50.328
-51.689
-52.48
-52.682
-52.278
-51.26
-49.612
-47.381
-44.671
-41.581
-38.212
-34.652
-30.971
-27.26
-23.636
-20.194
-17.014
-14.15
-11.62
-9.444
-7.638
-6.201
-5.113
-4.343
-3.843
-3.57
-3.491
-3.568
-3.76
-4.023
-4.298
-4.541
-4.717
-4.798
-4.762
-4.589
-4.256
-3.753
-3.074
-2.215
-1.171
0.063
1.5
3.144
4.998
7.064
9.341
11.827
14.526
17.436
20.554
23.878
27.404
31.127
35.044
39.147
43.428
47.874
52.471
57.206
62.062
67.022
72.067
77.179
82.339
87.527
92.723
97.909
103.061
108.161
113.187
118.118
122.933
127.611
132.132
136.475
140.622
144.552
148.25
151.696
154.875
157.771
160.37
162.659
164.625
166.259
167.551
168.493
169.08
169.308
169.174
168.677
167.818
166.598
165.022
163.094
160.822
158.213
155.277
152.023
148.463
144.611
140.482
136.089
131.449
126.581
121.501
116.228
110.783
105.185
99.454
93.61
87.676
81.672
75.62
69.539
63.453
57.38
51.342
45.358
39.447
33.627
27.916
22.33
16.884
11.594
6.474
1.535
-3.211
-7.752
-12.08
-16.186
-20.062
-23.704
-27.106
-30.263
-33.174
-35.836
-38.249
-40.413
-42.328
-43.997
-45.422
-46.607
-47.557
-48.276
-48.772
-49.05
-49.118
-48.984
-48.656
-48.142
-47.452
-46.595
-45.58
-44.416
-43.114
-41.683
-40.133
-38.474
-36.715
-34.867
-32.939
-30.941
-28.882
-26.771
-24.618
-22.432
-20.221
-17.994
-15.76
-13.527
-11.303
-9.097
-6.916
-4.767
-2.657
-0.594
1.417
3.37
5.259
7.079
8.825
10.493
12.078
13.576
14.985
16.3
17.52
18.641
19.661
20.578
21.39
22.098
22.699
23.194
23.582
23.864
24.04
24.112
24.081
23.949
23.72
23.395
22.978
22.473
21.885
21.219
20.478
19.669
18.797
17.867
16.886
15.86
14.795
13.697
12.574
11.432
10.278
9.12
7.965
6.821
5.695
4.596
3.532
2.51
1.536
0.62
-0.233
-1.015
-1.721
-2.342
-2.875
-3.314
-3.654
-3.89
-4.02
-4.04
-3.948
-3.744
-3.426
-2.995
-2.45
-1.795
-1.031
-0.161
0.811
1.881
3.043
4.29
5.615
7.008
8.461
9.962
11.497
13.053
14.616
16.169
17.699
19.189
20.623
21.986
23.264
24.446
25.516
26.463
27.27
27.923
28.408
28.714
28.83
28.746
28.453
27.945
27.224
26.289
25.142
23.778
22.186
20.358
18.295
16
13.48
10.753
7.837
4.761
1.57
-1.691
-4.981
-8.263
-11.516
-14.715
-17.823
-20.806
-23.608
-26.181
-28.498
-30.531
-32.261
-33.703
-34.881
-35.849
-36.704
-37.519
-38.368
-39.341
-40.503
-41.931
-43.718
-45.916
-48.627
-51.991
-56.051
-60.782
-66.032
-71.442
-76.648
-81.33
-85.055
-87.383
-88.024
-86.846
-84.167
-80.746
-77.328
-74.555
-72.924
-72.782
-74.3
-77.278
-80.732
-83.009
-82.196
-76.296
-63.702
-43.09
-13.207
26.728
76.609
135.731
201.809
270.43
337.269
397.977
450.239
496.556
538.893
576.059
602.64
604.943
569.428
489.795
366.412
212.001
45.303
-116.342
-255.873
-363.241
-434.654
-470.179
-474.557
-454.213
-417.591
-373.563
-331.886
-300.252
-279.837
-267.968
-257.302
-241.024
-218.524
-192.476
-168.12
-149.792
-137.996
-131.277
-127.659
-125.824
-125.08
-125.07
-125.405
-125.328
-124.496
-122.978
-120.711
-117.776
-114.501
-111.145
-108.199
-106.272
-105.487
-105.682
-106.653
-108.119
-109.853
-111.693
-113.34
-114.394
-114.64
-114.008
-112.514
-110.27
-107.345
-103.766
-99.61
-95.015
-90.124
-85.092
-80.062
-75.108
-70.286
-65.661
-61.286
-57.225
-53.524
-50.188
-47.203
-44.56
-42.251
-40.272
-38.613
-37.235
-36.089
-35.121
-34.273
-33.506
-32.787
-32.084
-31.368
-30.612
-29.794
-28.904
-27.937
-26.883
-25.728
-24.455
-23.047
-21.495
-19.793
-17.933
-15.91
-13.716
-11.346
-8.795
-6.059
-3.133
-0.013
3.306
6.828
10.552
14.477
18.597
22.906
27.395
32.052
36.867
41.824
46.909
52.107
57.4
62.771
68.203
73.675
79.169
84.662
90.133
95.559
100.919
106.188
111.345
116.366
121.229
125.911
130.39
134.646
138.658
142.407
145.874
149.04
151.89
154.408
156.58
158.395
159.843
160.914
161.602
161.903
161.813
161.331
160.457
159.193
157.543
155.512
153.107
150.337
147.212
143.743
139.945
135.833
131.422
126.731
121.78
116.587
111.175
105.564
99.778
93.841
87.775
81.605
75.355
69.05
62.714
56.371
50.044
43.757
37.532
31.39
25.353
19.438
13.666
8.053
2.615
-2.633
-7.676
-12.503
-17.103
-21.466
-25.585
-29.454
-33.067
-36.421
-39.515
-42.349
-44.924
-47.241
-49.306
-51.122
-52.697
-54.038
-55.153
-56.051
-56.742
-57.238
-57.549
-57.688
-57.666
-57.497
-57.194
-56.768
-56.234
-55.604
-54.891
-54.107
-53.265
-52.376
-51.453
-50.507
-49.549
-48.588
-47.634
-46.697
-45.784
-44.903
-44.06
-43.263
-42.515
-41.822
-41.187
-40.614
-40.104
-39.661
-39.285
-38.977
-38.737
-38.565
-38.46
-38.422
-38.448
-38.538
-38.688
-38.898
-39.164
-39.485
-39.858
-40.28
-40.748
-41.261
-41.815
-42.408
-43.036
-43.698
-44.391
-45.113
-45.861
-46.633
-47.427
-48.242
-49.075
-49.926
-50.792
-51.673
-52.568
-53.474
-54.391
-55.317
-56.252
-57.194
-58.14
-59.091
-60.044
-60.997
-61.949
-62.896
-63.836
-64.766
-65.683
-66.585
-67.466
-68.322
-69.15
-69.944
-70.7
-71.412
-72.075
-72.682
-73.227
-73.706
-74.112
-74.439
-74.681
-74.832
-74.887
-74.839
-74.685
-74.417
-74.033
-73.526
-72.895
-72.135
-71.244
-70.22
-69.062
-67.768
-66.34
-64.777
-63.083
-61.26
-59.312
-57.244
-55.064
-52.779
-50.398
-47.931
-45.391
-42.791
-40.146
-37.471
-34.782
-32.096
-29.43
-26.802
-24.23
-21.728
-19.315
-17.007
-14.819
-12.77
-10.875
-9.151
-7.614
-6.277
-5.155
-4.26
-3.603
-3.186
-3.015
-3.092
-3.423
-4.015
-4.873
-5.993
-7.368
-8.991
-10.847
-12.919
-15.176
-17.572
-20.065
-22.616
-25.189
-27.762
-30.307
-32.788
-35.164
-37.393
-39.438
-41.283
-42.91
-44.296
-45.431
-46.335
-47.06
-47.701
-48.348
-49.058
-49.87
-50.822
-51.968
-53.386
-55.157
-57.341
-59.966
-63.065
-66.71
-70.938
-75.684
-80.701
-85.546
-89.719
-92.794
-94.356
-93.947
-91.23
-86.108
-78.903
-70.415
-61.581
-53.24
-46.209
-41.309
-39.076
-39.504
-41.701
-43.954
-44.231
-40.257
-29.561
-9.599
22.078
66.396
121.833
185.871
255.208
327.792
403.776
481.973
559.008
626.457
671.638
682.655
650.099
573.738
460.641
320.157
165.977
8.556
-142.99
-276.448
-383.812
-458.991
-499.31
-508.951
-493.534
-458.561
-410.705
-356.954
-303.229
-255.878
-217.787
-186.895
-161.736
-140.19
-121.921
-109.88
-104.874
-106.363
-112.439
-119.179
-123.748
-124.549
-120.863
-113.192
-102.347
-89.192
-74.889
-60.618
-47.522
-36.624
-28.427
-23.009
-20.196
-19.594
-20.744
-23.179
-26.424
-30.032
-33.705
-37.246
-40.471
-43.258
-45.514
-47.172
-48.213
-48.649
-48.475
-47.689
-46.331
-44.451
-42.124
-39.438
-36.451
-33.213
-29.794
-26.277
-22.774
-19.407
-16.255
-13.366
-10.779
-8.514
-6.583
-4.988
-3.696
-2.66
-1.838
-1.19
-0.686
-0.305
-0.009
0.242
0.495
0.805
1.21
1.739
2.421
3.28
4.334
5.597
7.075
8.764
10.665
12.783
15.123
17.694
20.499
23.539
26.814
30.323
34.063
38.033
42.227
46.639
51.264
56.092
61.117
66.331
71.723
77.28
82.987
88.827
94.783
100.836
106.965
113.148
119.365
125.591
131.806
137.985
144.106
150.145
156.078
161.88
167.529
172.999
178.267
183.309
188.103
192.627
196.857
200.774
204.359
207.593
210.459
212.943
215.031
216.712
217.974
218.811
219.216
219.185
218.714
217.804
216.456
214.673
212.461
209.828
206.783
203.337
199.504
195.297
190.732
185.828
180.603
175.078
169.275
163.217
156.927
150.433
143.759
136.933
129.982
122.934
115.816
108.657
101.482
94.32
87.195
80.135
73.163
66.303
59.579
53.011
46.621
40.426
34.444
28.692
23.183
17.929
12.941
8.229
3.801
-0.339
-4.184
-7.733
-10.984
-13.936
-16.592
-18.955
-21.029
-22.82
-24.337
-25.587
-26.58
-27.328
-27.841
-28.131
-28.21
-28.092
-27.789
-27.315
-26.684
-25.909
-25.005
-23.985
-22.862
-21.65
-20.361
-19.008
-17.601
-16.152
-14.672
-13.17
-11.657
-10.142
-8.633
-7.141
-5.673
-4.237
-2.84
-1.489
-0.19
1.052
2.232
3.346
4.392
5.366
6.264
7.085
7.825
8.483
9.057
9.544
9.945
10.258
10.481
10.616
10.662
10.617
10.483
10.257
9.941
9.534
9.037
8.45
7.774
7.011
6.164
5.236
4.23
3.15
2.001
0.79
-0.474
-1.787
-3.144
-4.542
-5.977
-7.445
-8.939
-10.456
-11.991
-13.535
-15.079
-16.607
-18.103
-19.556
-20.953
-22.288
-23.556
-24.744
-25.843
-26.841
-27.723
-28.474
-29.075
-29.5
-29.73
-29.759
-29.59
-29.237
-28.717
-28.041
-27.223
-26.282
-25.215
-24.02
-22.689
-21.222
-19.652
-18.005
-16.3
-14.556
-12.752
-10.888
-9
-7.035
-4.899
-2.573
-0.047
2.56
4.941
6.993
8.802
10.292
11.438
12.49
13.586
15.128
18.092
22.016
26.049
30.844
36.022
42.888
53.299
63.97
72.193
74.955
68.818
57.319
44.019
31.405
22.791
16.698
11.79
8.085
4.499
1.544
-0.498
-2.234
-3.667
-5.009
-6.622
-8.502
-10.652
-13.014
-15.279
-17.245
-18.852
-20.081
-21.003
-21.692
-22.204
-22.634
-23.103
-23.704
-24.534
-25.675
-27.183
-29.136
-31.599
-34.603
-38.21
-42.5
-47.479
-53.078
-59.05
-64.965
-70.392
-74.947
-78.235
-79.839
-79.476
-77.085
-73.003
-68.018
-62.919
-58.302
-54.719
-52.715
-52.566
-54.138
-56.562
-58.113
-56.891
-51.199
-39.238
-19.104
10.776
51.628
102.944
162.04
225.853
290.814
354.649
417.082
476.632
530.468
572.623
593.65
584.194
536.914
449.899
326.31
175.137
11.382
-149.359
-289.11
-393.528
-459.458
-489.55
-494.464
-488.031
-475.998
-460.243
-439.662
-410.467
-373.689
-333.255
-292.433
-254.934
-222.983
-196.735
-176.076
-160.762
-149.921
-142.568
-138.239
-136.338
-135.865
-136.122
-136.318
-135.516
-133.57
-130.717
-126.973
-122.547
-117.825
-113.064
-108.783
-105.634
-103.75
-102.982
-103.133
-103.886
-104.983
-106.245
-107.336
-107.856
-107.594
-106.478
-104.542
-101.912
-98.669
-94.863
-90.592
-85.997
-81.221
-76.41
-71.693
-67.141
-62.811
-58.764
-55.058
-51.742
-48.845
-46.368
-44.285
-42.577
-41.227
-40.214
-39.51
-39.073
-38.848
-38.777
-38.801
-38.873
-38.954
-39.007
-38.999
-38.901
-38.688
-38.344
-37.864
-37.235
-36.441
-35.468
-34.298
-32.922
-31.33
-29.516
-27.472
-25.191
-22.669
-19.899
-16.879
-13.604
-10.071
-6.279
-2.225
2.089
6.66
11.481
16.543
21.835
27.345
33.06
38.963
45.037
51.267
57.632
64.114
70.694
77.349
84.059
90.8
97.549
104.282
110.975
117.603
124.14
130.562
136.844
142.961
148.888
154.602
160.079
165.296
170.231
174.864
179.174
183.142
186.752
189.988
192.834
195.28
197.314
198.927
200.112
200.864
201.18
201.057
200.495
199.496
198.065
196.205
193.925
191.233
188.141
184.661
180.808
176.598
172.048
167.178
162.008
156.56
150.856
144.921
138.778
132.454
125.975
119.366
112.655
105.867
99.031
92.171
85.314
78.485
71.708
65.008
58.407
51.926
45.586
39.407
33.406
27.599
22.002
16.629
11.49
6.597
1.957
-2.421
-6.534
-10.376
-13.946
-17.243
-20.268
-23.023
-25.511
-27.737
-29.708
-31.431
-32.913
-34.165
-35.194
-36.014
-36.634
-37.066
-37.322
-37.416
-37.358
-37.163
-36.843
-36.409
-35.876
-35.254
-34.555
-33.791
-32.973
-32.11
-31.213
-30.291
-29.353
-28.406
-27.459
-26.518
-25.59
-24.68
-23.794
-22.937
-22.113
-21.326
-20.579
-19.876
-19.22
-18.613
-18.057
-17.554
-17.107
-16.716
-16.383
-16.109
-15.896
-15.743
-15.652
-15.624
-15.658
-15.756
-15.919
-16.145
-16.437
-16.794
-17.217
-17.705
-18.259
-18.878
-19.562
-20.31
-21.123
-21.999
-22.936
-23.932
-24.987
-26.098
-27.26
-28.472
-29.728
-31.025
-32.357
-33.718
-35.103
-36.505
-37.916
-39.329
-40.736
-42.129
-43.499
-44.837
-46.135
-47.383
-48.573
-49.696
-50.742
-51.703
-52.572
-53.338
-53.995
-54.535
-54.951
-55.236
-55.384
-55.391
-55.251
-54.962
-54.52
-53.923
-53.171
-52.265
-51.206
-49.997
-48.644
-47.151
-45.527
-43.781
-41.923
-39.966
-37.923
-35.81
-33.642
-31.435
-29.206
-26.974
-24.756
-22.568
-20.429
-18.356
-16.367
-14.481
-12.716
-11.089
-9.618
-8.32
-7.212
-6.309
-5.625
-5.171
-4.954
-4.979
-5.254
-5.784
-6.578
-7.64
-8.963
-10.542
-12.367
-14.423
-16.691
-19.142
-21.731
-24.421
-27.172
-29.954
-32.746
-35.519
-38.243
-40.881
-43.391
-45.742
-47.913
-49.886
-51.643
-53.174
-54.478
-55.591
-56.591
-57.546
-58.516
-59.539
-60.624
-61.808
-63.145
-64.693
-66.517
-68.657
-71.119
-73.932
-77.156
-80.786
-84.736
-88.764
-92.443
-95.365
-97.194
-97.617
-96.337
-93.136
-87.936
-81.019
-73.06
-64.807
-56.973
-50.091
-44.454
-40.388
-38.071
-36.878
-35.685
-32.359
-23.72
-8.3
14.373
43.77
77.154
114.551
157.814
208.259
268.528
337.483
410.485
482.742
546.573
593.6
615.97
604.732
553.954
463.627
337.179
184.004
19.057
-142.982
-284.391
-389.957
-455.312
-482.168
-481.112
-467.251
-448.065
-426.603
-401.943
-369.724
-330.57
-288.212
-246.599
-210.686
-182.982
-163.544
-151.72
-146.021
-144.775
-146.642
-150.28
-154.107
-156.657
-156.78
-153.976
-148.48
-140.856
-131.761
-121.868
-111.921
-102.759
-95.234
-89.811
-86.487
-85.051
-85.136
-86.355
-88.394
-90.845
-93.21
-95.161
-96.502
-97.14
-97.115
-96.455
-95.146
-93.222
-90.738
-87.746
-84.328
-80.559
-76.489
-72.205
-67.79
-63.339
-58.977
-54.8
-50.882
-47.284
-44.03
-41.135
-38.616
-36.477
-34.704
-33.277
-32.163
-31.325
-30.738
-30.365
-30.165
-30.091
-30.082
-30.089
-30.078
-30.016
-29.882
-29.655
-29.312
-28.839
-28.229
-27.472
-26.559
-25.479
-24.214
-22.755
-21.092
-19.219
-17.132
-14.827
-12.295
-9.532
-6.534
-3.299
0.175
3.89
7.848
12.048
16.483
21.149
26.033
31.127
36.417
41.891
47.532
53.323
59.247
65.287
71.424
77.638
83.909
90.214
96.531
102.839
109.112
115.329
121.463
127.491
133.388
139.13
144.692
150.052
155.185
160.069
164.681
169
173.008
176.685
180.014
182.98
185.57
187.771
189.573
190.969
191.952
192.516
192.661
192.383
191.686
190.57
189.041
187.105
184.77
182.046
178.945
175.48
171.667
167.52
163.059
158.304
153.274
147.992
142.481
136.765
130.869
124.818
118.639
112.358
106.001
99.594
93.162
86.73
80.324
73.967
67.682
61.491
55.414
49.473
43.685
38.068
32.638
27.41
22.396
17.609
13.058
8.753
4.699
0.904
-2.628
-5.896
-8.897
-11.631
-14.101
-16.308
-18.259
-19.958
-21.412
-22.629
-23.619
-24.39
-24.954
-25.321
-25.502
-25.51
-25.357
-25.053
-24.613
-24.048
-23.37
-22.592
-21.725
-20.782
-19.773
-18.709
-17.6
-16.457
-15.289
-14.104
-12.912
-11.721
-10.538
-9.37
-8.224
-7.107
-6.023
-4.977
-3.974
-3.017
-2.109
-1.253
-0.451
0.295
0.984
1.615
2.186
2.697
3.148
3.539
3.869
4.139
4.348
4.497
4.586
4.616
4.585
4.496
4.348
4.141
3.877
3.555
3.176
2.743
2.255
1.713
1.121
0.479
-0.211
-0.946
-1.724
-2.542
-3.399
-4.29
-5.212
-6.163
-7.138
-8.133
-9.144
-10.167
-11.195
-12.224
-13.248
-14.26
-15.253
-16.22
-17.155
-18.049
-18.896
-19.689
-20.418
-21.077
-21.659
-22.156
-22.561
-22.868
-23.07
-23.161
-23.136
-22.99
-22.721
-22.324
-21.797
-21.138
-20.345
-19.42
-18.362
-17.172
-15.852
-14.406
-12.84
-11.157
-9.367
-7.478
-5.499
-3.444
-1.326
0.84
3.04
5.255
7.471
9.668
11.831
13.943
15.986
17.945
19.802
21.539
23.137
24.58
25.85
26.929
27.804
28.457
28.879
29.062
28.998
28.681
28.102
27.247
26.107
24.677
22.958
20.952
18.669
16.126
13.355
10.399
7.306
4.118
0.874
-2.398
-5.665
-8.891
-12.035
-15.051
-17.901
-20.558
-23
-25.208
-27.182
-28.945
-30.567
-32.155
-33.816
-35.646
-37.712
-40.077
-42.82
-46.022
-49.769
-54.136
-59.151
-64.856
-71.317
-78.534
-86.406
-94.685
-102.903
-110.548
-117.189
-122.367
-125.61
-126.6
-125.192
-121.596
-116.465
-110.538
-104.416
-98.649
-93.752
-89.99
-87.312
-85.054
-81.85
-75.956
-65.629
-49.352
-25.438
7.675
50.993
105.061
168.305
236.456
305.223
370.434
430.453
488.625
546.024
599.469
640.233
650.549
616.03
531.763
401.073
241.373
72.955
-89.244
-230.537
-344.873
-430.704
-483.554
-504.764
-495.196
-455.947
-396.758
-328.181
-262.974
-213.523
-182.569
-166.86
-158.431
-149.055
-136.227
-121.569
-109.744
-103.996
-103.897
-107.164
-109.974
-109.721
-106.076
-99.471
-90.853
-81.149
-70.921
-60.79
-51.695
-44.5
-39.595
-37.038
-36.59
-37.799
-40.247
-43.525
-47.13
-50.591
-53.621
-56.038
-57.743
-58.737
-59.011
-58.559
-57.423
-55.653
-53.295
-50.404
-47.047
-43.31
-39.306
-35.172
-31.036
-27
-23.138
-19.513
-16.183
-13.189
-10.553
-8.276
-6.348
-4.76
-3.502
-2.557
-1.895
-1.474
-1.246
-1.157
-1.152
-1.185
-1.218
-1.221
-1.166
-1.034
-0.808
-0.479
-0.042
0.513
1.195
2.017
2.989
4.119
5.413
6.875
8.509
10.317
12.304
14.472
16.826
19.368
22.101
25.029
28.153
31.475
34.991
38.697
42.585
46.647
50.875
55.256
59.777
64.426
69.187
74.046
78.987
83.994
89.05
94.136
99.233
104.324
109.387
114.404
119.354
124.216
128.97
133.595
138.072
142.379
146.499
150.411
154.096
157.538
160.718
163.62
166.229
168.531
170.513
172.163
173.471
174.429
175.031
175.27
175.145
174.651
173.791
172.564
170.973
169.024
166.721
164.073
161.088
157.778
154.152
150.227
146.014
141.532
136.796
131.825
126.637
121.251
115.69
109.972
104.12
98.156
92.103
85.981
79.814
73.624
67.432
61.261
55.13
49.061
43.072
37.182
31.407
25.766
20.272
14.939
9.782
4.811
0.036
-4.533
-8.89
-13.026
-16.938
-20.622
-24.075
-27.295
-30.283
-33.038
-35.562
-37.859
-39.932
-41.785
-43.424
-44.855
-46.085
-47.121
-47.971
-48.643
-49.148
-49.492
-49.687
-49.741
-49.664
-49.466
-49.156
-48.742
-48.236
-47.645
-46.978
-46.243
-45.449
-44.603
-43.713
-42.784
-41.824
-40.838
-39.834
-38.815
-37.788
-36.758
-35.729
-34.707
-33.695
-32.697
-31.718
-30.761
-29.829
-28.927
-28.056
-27.221
-26.423
-25.667
-24.954
-24.287
-23.668
-23.101
-22.586
-22.126
-21.723
-21.378
-21.095
-20.874
-20.717
-20.627
-20.604
-20.65
-20.767
-20.955
-21.214
-21.546
-21.949
-22.425
-22.971
-23.587
-24.271
-25.021
-25.835
-26.709
-27.64
-28.623
-29.653
-30.726
-31.835
-32.974
-34.138
-35.317
-36.506
-37.697
-38.881
-40.051
-41.197
-42.31
-43.381
-44.401
-45.36
-46.249
-47.059
-47.78
-48.404
-48.921
-49.325
-49.606
-49.759
-49.775
-49.649
-49.376
-48.95
-48.369
-47.63
-46.731
-45.673
-44.457
-43.086
-41.563
-39.893
-38.083
-36.138
-34.069
-31.885
-29.596
-27.215
-24.755
-22.232
-19.662
-17.064
-14.457
-11.861
-9.294
-6.777
-4.331
-1.974
0.276
2.404
4.39
6.218
7.867
9.32
10.563
11.581
12.362
12.894
13.169
13.183
12.939
12.438
11.681
10.666
9.383
7.828
6.008
3.928
1.602
-0.955
-3.726
-6.68
-9.773
-12.966
-16.219
-19.501
-22.794
-26.062
-29.267
-32.361
-35.282
-37.988
-40.448
-42.629
-44.509
-46.088
-47.372
-48.395
-49.22
-49.896
-50.483
-51.054
-51.668
-52.416
-53.378
-54.656
-56.419
-58.736
-61.591
-64.878
-68.308
-71.568
-74.413
-76.481
-77.323
-76.711
-74.577
-71.223
-67.487
-64.088
-61.632
-60.789
-62.036
-65.636
-71.54
-78.793
-85.549
-89.974
-90.049
-83.653
-69.095
-44.696
-9.11
37.748
94.889
160.988
232.701
305.043
373.811
434.081
483.718
524.604
555.079
571.876
568.902
535.127
466.761
365.806
237.903
96.102
-49.324
-189.192
-312.605
-411.571
-477.973
-507.12
-500.063
-463.862
-410.954
-355.209
-310.294
-281.995
-268.248
-262.446
-254.013
-238.271
-216.636
-192.809
-173.013
-159.83
-152.151
-148.569
-146.625
-144.522
-141.698
-137.439
-131.523
-124.322
-116.106
-107.107
-97.701
-88.326
-79.567
-72.228
-66.768
-63.176
-61.294
-60.833
-61.494
-63.086
-65.307
-67.715
-69.973
-71.823
-73.114
-73.849
-74.029
-73.629
-72.662
-71.153
-69.139
-66.698
-63.899
-60.799
-57.458
-53.917
-50.234
-46.491
-42.784
-39.231
-35.916
-32.883
-30.159
-27.76
-25.698
-23.983
-22.603
-21.513
-20.675
-20.053
-19.617
-19.35
-19.22
-19.186
-19.198
-19.202
-19.156
-19.03
-18.798
-18.436
-17.921
-17.235
-16.368
-15.321
-14.092
-12.672
-11.054
-9.225
-7.18
-4.915
-2.43
0.278
3.209
6.364
9.743
13.341
17.156
21.184
25.421
29.863
34.505
39.337
44.348
49.525
54.854
60.321
65.908
71.597
77.369
83.205
89.084
94.986
100.889
106.771
112.611
118.385
124.07
129.643
135.08
140.358
145.453
150.344
155.006
159.419
163.56
167.409
170.948
174.157
177.021
179.522
181.647
183.384
184.72
185.646
186.156
186.242
185.9
185.13
183.93
182.302
180.252
177.784
174.907
171.629
167.964
163.923
159.522
154.779
149.711
144.34
138.686
132.773
126.625
120.268
113.727
107.03
100.204
93.277
86.277
79.231
72.169
65.116
58.102
51.151
44.291
37.546
30.94
24.495
18.233
12.173
6.335
0.735
-4.613
-9.693
-14.495
-19.008
-23.224
-27.138
-30.744
-34.04
-37.025
-39.7
-42.068
-44.133
-45.901
-47.38
-48.578
-49.505
-50.171
-50.59
-50.773
-50.735
-50.49
-50.053
-49.439
-48.663
-47.742
-46.69
-45.523
-44.257
-42.906
-41.484
-40.007
-38.487
-36.939
-35.375
-33.806
-32.244
-30.7
-29.182
-27.7
-26.262
-24.875
-23.544
-22.275
-21.074
-19.944
-18.889
-17.912
-17.013
-16.196
-15.46
-14.806
-14.232
-13.736
-13.318
-12.976
-12.707
-12.509
-12.381
-12.32
-12.323
-12.388
-12.512
-12.692
-12.925
-13.207
-13.535
-13.906
-14.318
-14.767
-15.25
-15.763
-16.304
-16.87
-17.456
-18.06
-18.675
-19.297
-19.923
-20.546
-21.162
-21.764
-22.348
-22.909
-23.443
-23.949
-24.419
-24.851
-25.24
-25.581
-25.871
-26.102
-26.266
-26.354
-26.36
-26.278
-26.102
-25.828
-25.451
-24.963
-24.363
-23.65
-22.823
-21.876
-20.8
-19.583
-18.223
-16.728
-15.113
-13.39
-11.568
-9.659
-7.679
-5.651
-3.592
-1.503
0.627
2.815
5.061
7.352
9.662
11.961
14.238
16.496
18.742
20.973
23.181
25.369
27.562
29.795
32.072
34.363
36.595
38.702
40.641
42.391
43.946
45.294
46.408
47.257
47.821
48.094
48.062
47.693
46.916
45.66
43.896
41.651
39.002
36.024
32.768
29.278
25.603
21.801
17.941
14.073
10.23
6.44
2.747
-0.774
-4.017
-6.885
-9.314
-11.29
-12.849
-14.033
-14.885
-15.467
-15.847
-16.107
-16.341
-16.624
-17.029
-17.64
-18.529
-19.814
-21.662
-24.179
-27.392
-31.214
-35.343
-39.405
-43.06
-45.875
-47.368
-47.23
-45.331
-41.883
-37.621
-33.47
-30.29
-28.986
-30.39
-34.897
-42.441
-52.265
-62.599
-71.097
-75.324
-72.682
-60.473
-36.628
0.239
50.8
113.401
184.232
259.262
333.621
403.477
468.621
527.562
576.067
608.384
613.9
582.461
511.84
404.049
266.383
113.442
-42.379
-188.141
-308.792
-398.454
-456.392
-486.784
-499.833
-501.214
-491.111
-467.73
-430.82
-383.171
-331.853
-284.908
-244.158
-210.149
-182.312
-158.37
-140.062
-128.392
-122.423
-121.769
-124.02
-126.564
-127.998
-126.897
-122.819
-116.168
-107.395
-97.171
-86.263
-75.451
-65.617
-57.639
-51.997
-48.693
-47.49
-48.005
-49.841
-52.646
-55.996
-59.371
-62.351
-64.713
-66.356
-67.3
-67.586
-67.208
-66.182
-64.575
-62.46
-59.921
-57.044
-53.883
-50.49
-46.943
-43.328
-39.757
-36.364
-33.242
-30.445
-28.012
-25.954
-24.281
-23.005
-22.11
-21.551
-21.287
-21.272
-21.469
-21.852
-22.381
-23.007
-23.676
-24.323
-24.903
-25.382
-25.73
-25.921
-25.933
-25.744
-25.343
-24.729
-23.897
-22.84
-21.547
-20.006
-18.209
-16.154
-13.838
-11.261
-8.42
-5.314
-1.945
1.685
5.572
9.711
14.099
18.728
23.593
28.68
33.978
39.47
45.14
50.972
56.945
63.039
69.232
75.502
81.827
88.184
94.549
100.897
107.204
113.444
119.594
125.626
131.517
137.24
142.77
148.084
153.157
157.965
162.487
166.7
170.585
174.122
177.294
180.086
182.483
184.471
186.041
187.183
187.889
188.155
187.975
187.35
186.278
184.762
182.806
180.417
177.602
174.37
170.734
166.706
162.301
157.537
152.432
147.004
141.276
135.271
129.012
122.523
115.832
108.964
101.947
94.807
87.572
80.271
72.928
65.573
58.231
50.928
43.689
36.539
29.501
22.597
15.848
9.276
2.898
-3.269
-9.208
-14.906
-20.349
-25.527
-30.43
-35.051
-39.383
-43.423
-47.167
-50.615
-53.767
-56.625
-59.194
-61.478
-63.484
-65.219
-66.692
-67.913
-68.892
-69.64
-70.168
-70.487
-70.611
-70.551
-70.32
-69.93
-69.394
-68.724
-67.934
-67.034
-66.038
-64.956
-63.8
-62.581
-61.308
-59.993
-58.643
-57.268
-55.876
-54.474
-53.069
-51.667
-50.275
-48.896
-47.535
-46.196
-44.881
-43.594
-42.336
-41.11
-39.917
-38.759
-37.637
-36.552
-35.507
-34.503
-33.539
-32.619
-31.744
-30.914
-30.132
-29.398
-28.715
-28.083
-27.504
-26.98
-26.511
-26.099
-25.745
-25.449
-25.213
-25.037
-24.921
-24.866
-24.871
-24.937
-25.064
-25.249
-25.493
-25.794
-26.15
-26.559
-27.019
-27.526
-28.076
-28.667
-29.291
-29.945
-30.621
-31.315
-32.017
-32.72
-33.416
-34.097
-34.753
-35.376
-35.956
-36.484
-36.952
-37.35
-37.67
-37.904
-38.043
-38.08
-38.009
-37.822
-37.515
-37.082
-36.52
-35.827
-34.999
-34.036
-32.939
-31.709
-30.348
-28.859
-27.247
-25.519
-23.682
-21.744
-19.716
-17.61
-15.439
-13.219
-10.968
-8.703
-6.442
-4.205
-2.012
0.119
2.168
4.12
5.957
7.662
9.217
10.604
11.807
12.812
13.606
14.177
14.514
14.608
14.454
14.054
13.407
12.513
11.364
9.95
8.264
6.312
4.1
1.639
-1.059
-3.976
-7.082
-10.332
-13.679
-17.078
-20.496
-23.903
-27.264
-30.535
-33.659
-36.574
-39.234
-41.609
-43.679
-45.426
-46.848
-47.952
-48.78
-49.42
-49.968
-50.523
-51.173
-52.001
-53.086
-54.528
-56.465
-58.979
-62.077
-65.688
-69.617
-73.654
-77.598
-81.194
-84.121
-86.123
-87.017
-86.814
-85.901
-84.689
-83.628
-83.145
-83.357
-84.426
-86.577
-89.458
-92.261
-93.275
-89.473
-79.43
-63.127
-41.293
-16.608
12.082
49.342
98.236
161.397
235.757
312.306
384.465
448.69
503.726
549.687
582.276
591.387
566.777
503.798
404.017
275.163
130.093
-19.57
-161.67
-281.499
-369.472
-421.619
-440.458
-437.262
-423.376
-404.734
-383.71
-358.775
-327.666
-292.177
-255.554
-221.115
-192.593
-171.542
-157.554
-149.606
-146.006
-144.963
-145.324
-146.133
-145.987
-143.651
-138.59
-130.797
-120.86
-109.711
-98.037
-86.389
-75.586
-66.429
-59.371
-54.606
-51.982
-51.11
-51.657
-53.313
-55.708
-58.459
-61.275
-63.934
-66.266
-68.177
-69.6
-70.492
-70.849
-70.69
-70.026
-68.866
-67.25
-65.231
-62.884
-60.291
-57.503
-54.568
-51.544
-48.51
-45.57
-42.814
-40.292
-38.029
-36.04
-34.337
-32.927
-31.802
-30.926
-30.252
-29.736
-29.343
-29.048
-28.821
-28.624
-28.41
-28.127
-27.733
-27.198
-26.497
-25.608
-24.509
-23.182
-21.616
-19.813
-17.772
-15.49
-12.961
-10.178
-7.138
-3.841
-0.29
3.513
7.565
11.864
16.404
21.178
26.179
31.399
36.829
42.462
48.285
54.285
60.448
66.756
73.19
79.734
86.366
93.066
99.811
106.581
113.352
120.104
126.813
133.456
140.009
146.451
152.757
158.904
164.869
170.631
176.166
181.453
186.472
191.202
195.624
199.72
203.473
206.869
209.892
212.532
214.777
216.619
218.05
219.065
219.66
219.833
219.584
218.914
217.826
216.325
214.417
212.11
209.414
206.339
202.899
199.107
194.978
190.531
185.782
180.751
175.458
169.926
164.177
158.233
152.12
145.862
139.482
133.006
126.458
119.863
113.244
106.624
100.025
93.469
86.977
80.568
74.261
68.074
62.023
56.125
50.393
44.842
39.482
34.325
29.381
24.657
20.161
15.899
11.873
8.089
4.546
1.246
-1.812
-4.631
-7.215
-9.567
-11.694
-13.602
-15.299
-16.792
-18.089
-19.201
-20.134
-20.898
-21.502
-21.955
-22.266
-22.443
-22.496
-22.433
-22.264
-21.996
-21.636
-21.193
-20.673
-20.086
-19.441
-18.743
-17.995
-17.211
-16.404
-15.585
-14.769
-13.953
-13.129
-12.312
-11.518
-10.725
-9.914
-9.072
-8.178
-7.255
-6.346
-5.431
-4.471
-3.577
-2.881
-2.309
-1.87
-1.593
-1.202
-1.449
-3.066
-5.013
-6.978
-7.047
-2.932
2.83
8.549
11.708
8.85
3.033
-3.15
-7.921
-8.345
-6.517
-4.562
-2.949
-2.972
-3.873
-4.683
-5.581
-6.438
-7.314
-8.401
-9.564
-10.693
-11.815
-12.93
-14.018
-15.073
-16.092
-17.071
-18.017
-18.944
-19.833
-20.665
-21.434
-22.13
-22.744
-23.269
-23.694
-24.009
-24.207
-24.284
-24.233
-24.049
-23.729
-23.269
-22.667
-21.921
-21.031
-19.996
-18.819
-17.501
-16.045
-14.456
-12.74
-10.903
-8.954
-6.902
-4.758
-2.534
-0.244
2.097
4.471
6.863
9.252
11.62
13.949
16.217
18.406
20.498
22.475
24.319
26.014
27.542
28.884
30.028
30.957
31.66
32.126
32.345
32.311
32.022
31.479
30.68
29.626
28.307
26.719
24.867
22.755
20.39
17.791
14.974
11.966
8.81
5.546
2.211
-1.155
-4.527
-7.874
-11.155
-14.328
-17.34
-20.14
-22.696
-24.972
-26.94
-28.602
-29.971
-31.084
-32.02
-32.843
-33.614
-34.414
-35.307
-36.369
-37.699
-39.371
-41.472
-44.118
-47.351
-51.155
-55.445
-59.96
-64.366
-68.337
-71.467
-73.338
-73.701
-72.419
-69.604
-65.767
-61.555
-57.639
-54.664
-53.053
-53.094
-54.936
-58.076
-61.415
-62.726
-58.648
-47.437
-28.29
-1.513
30.185
68.118
115.532
173.204
243.421
322.38
401.559
477.809
546.329
602.143
642.177
655.496
630.57
563.89
455.978
316.108
160.894
2.498
-146.698
-274.999
-376.794
-444.915
-476.827
-475.407
-443.933
-392.317
-331.983
-274.404
-230.475
-203.174
-189.439
-181.67
-172.408
-159.472
-144.742
-133.183
-128.034
-128.691
-132.841
-136.802
-137.933
-135.779
-130.586
-122.995
-113.852
-103.837
-93.638
-84.212
-76.486
-70.879
-67.512
-66.302
-66.881
-68.86
-71.845
-75.282
-78.666
-81.716
-84.254
-86.193
-87.506
-88.137
-88.054
-87.291
-85.902
-83.94
-81.449
-78.466
-75.063
-71.353
-67.478
-63.593
-59.806
-56.187
-52.793
-49.671
-46.872
-44.436
-42.372
-40.667
-39.311
-38.292
-37.598
-37.215
-37.099
-37.195
-37.443
-37.777
-38.146
-38.511
-38.838
-39.093
-39.252
-39.29
-39.193
-38.953
-38.557
-37.989
-37.231
-36.263
-35.074
-33.655
-31.999
-30.097
-27.945
-25.536
-22.864
-19.928
-16.722
-13.243
-9.489
-5.458
-1.151
3.426
8.268
13.362
18.699
24.263
30.04
36.012
42.161
48.467
54.91
61.469
68.123
74.848
81.62
88.416
95.208
101.972
108.68
115.305
121.82
128.198
134.412
140.435
146.241
151.805
157.103
162.113
166.812
171.18
175.198
178.847
182.113
184.982
187.441
189.48
191.091
192.268
193.008
193.309
193.169
192.59
191.577
190.133
188.266
185.985
183.299
180.221
176.765
172.948
168.786
164.299
159.508
154.435
149.103
143.535
137.757
131.793
125.67
119.413
113.048
106.6
100.096
93.56
87.017
80.491
74.005
67.582
61.241
55.003
48.887
42.91
37.088
31.436
25.969
20.698
15.635
10.789
6.168
1.778
-2.375
-6.29
-9.964
-13.398
-16.593
-19.553
-22.282
-24.786
-27.07
-29.143
-31.013
-32.689
-34.18
-35.496
-36.649
-37.649
-38.506
-39.232
-39.838
-40.334
-40.73
-41.037
-41.265
-41.423
-41.521
-41.567
-41.57
-41.539
-41.48
-41.402
-41.311
-41.212
-41.112
-41.013
-40.92
-40.835
-40.761
-40.7
-40.652
-40.618
-40.6
-40.596
-40.608
-40.633
-40.672
-40.724
-40.788
-40.864
-40.95
-41.046
-41.152
-41.268
-41.395
-41.533
-41.683
-41.845
-42.022
-42.212
-42.418
-42.641
-42.881
-43.141
-43.421
-43.724
-44.051
-44.405
-44.789
-45.204
-45.653
-46.138
-46.661
-47.223
-47.827
-48.473
-49.162
-49.894
-50.67
-51.489
-52.35
-53.252
-54.191
-55.166
-56.17
-57.201
-58.252
-59.317
-60.39
-61.465
-62.533
-63.588
-64.623
-65.629
-66.6
-67.527
-68.402
-69.217
-69.963
-70.633
-71.217
-71.709
-72.101
-72.387
-72.561
-72.618
-72.553
-72.362
-72.044
-71.596
-71.019
-70.312
-69.478
-68.522
-67.447
-66.261
-64.974
-63.593
-62.132
-60.604
-59.024
-57.409
-55.773
-54.135
-52.511
-50.921
-49.382
-47.912
-46.527
-45.246
-44.085
-43.065
-42.204
-41.521
-41.031
-40.75
-40.69
-40.865
-41.286
-41.955
-42.876
-44.051
-45.486
-47.191
-49.173
-51.43
-53.957
-56.746
-59.78
-63.043
-66.509
-70.137
-73.889
-77.728
-81.621
-85.548
-89.484
-93.392
-97.227
-100.939
-104.476
-107.809
-110.91
-113.748
-116.312
-118.61
-120.673
-122.563
-124.332
-126.017
-127.666
-129.327
-131.058
-132.946
-135.056
-137.473
-140.328
-143.665
-147.472
-151.659
-155.952
-160.044
-163.656
-166.402
-167.856
-167.783
-166.068
-162.901
-158.938
-154.801
-151.077
-148.424
-147.341
-148.157
-150.959
-155.108
-159.181
-161.612
-160.504
-153.879
-140.147
-117.474
-84.265
-40.014
15.199
79.656
149.069
219.255
286.253
347.641
405.125
458.894
504.794
535.117
537.311
500.624
423.285
309.802
169.644
16.749
-136.497
-278.403
-395.407
-477.977
-522.823
-530.062
-505.676
-460.583
-403.454
-345.179
-297.978
-265.893
-250.071
-246.346
-243.998
-238.388
-228.476
-215.71
-206.152
-201.997
-202.185
-205.1
-207.111
-205.972
-201.635
-194.319
-184.677
-173.499
-161.136
-148.066
-135.235
-123.549
-113.51
-105.334
-98.941
-94.057
-90.484
-88.03
-86.353
-85.093
-84.019
-83.01
-82.061
-81.208
-80.426
-79.619
-78.663
-77.483
-76.037
-74.293
-72.243
-69.87
-67.172
-64.186
-60.972
-57.574
-54.028
-50.346
-46.521
-42.571
-38.532
-34.463
-30.459
-26.587
-22.887
-19.389
-16.101
-13.028
-10.168
-7.501
-4.984
-2.582
-0.269
1.973
4.149
6.276
8.384
10.508
12.696
14.988
17.412
19.995
22.76
25.724
28.902
32.301
35.913
39.736
43.772
48.023
52.493
57.185
62.093
67.214
72.539
78.061
83.771
89.658
95.71
101.912
108.25
114.711
121.282
127.947
134.687
141.482
148.311
155.152
161.982
168.776
175.511
182.161
188.701
195.106
201.352
207.414
213.268
218.889
224.256
229.345
234.135
238.606
242.737
246.511
249.91
252.921
255.527
257.718
259.483
260.812
261.7
262.141
262.132
261.673
260.764
259.408
257.61
255.377
252.717
249.64
246.158
242.283
238.032
233.421
228.468
223.191
217.611
211.75
205.629
199.271
192.7
185.94
179.016
171.951
164.771
157.5
150.163
142.783
135.383
127.987
120.617
113.293
106.037
98.867
91.801
84.858
78.052
71.399
64.912
58.604
52.486
46.568
40.86
35.369
30.101
25.062
20.256
15.686
11.355
7.262
3.409
-0.207
-3.585
-6.731
-9.645
-12.332
-14.796
-17.042
-19.074
-20.898
-22.52
-23.944
-25.176
-26.223
-27.09
-27.782
-28.307
-28.668
-28.873
-28.927
-28.836
-28.605
-28.241
-27.749
-27.137
-26.409
-25.572
-24.632
-23.595
-22.468
-21.256
-19.965
-18.603
-17.174
-15.687
-14.146
-12.56
-10.935
-9.277
-7.595
-5.895
-4.186
-2.474
-0.768
0.925
2.596
4.238
5.842
7.402
8.908
10.354
11.732
13.035
14.258
15.394
16.439
17.388
18.238
18.985
19.626
20.161
20.587
20.906
21.116
21.22
21.22
21.119
20.921
20.631
20.255
19.799
19.271
18.679
18.033
17.342
16.615
15.865
15.102
14.338
13.584
12.854
12.159
11.512
10.924
10.407
9.973
9.631
9.39
9.26
9.249
9.363
9.609
9.991
10.513
11.177
11.984
12.935
14.028
15.258
16.622
18.112
19.721
21.439
23.252
25.147
27.109
29.121
31.166
33.225
35.278
37.307
39.292
41.217
43.061
44.805
46.428
47.909
49.228
50.366
51.308
52.037
52.537
52.797
52.812
52.577
52.084
51.328
50.291
48.962
47.336
45.412
43.195
40.699
37.938
34.938
31.74
28.382
24.904
21.342
17.716
14.054
10.392
6.771
3.249
-0.118
-3.295
-6.249
-8.952
-11.413
-13.646
-15.694
-17.638
-19.541
-21.463
-23.484
-25.661
-28.069
-30.795
-33.894
-37.47
-41.67
-46.541
-52.054
-58.049
-64.157
-70.013
-75.313
-79.654
-82.612
-83.938
-83.556
-81.836
-79.587
-77.563
-76.351
-76.364
-77.855
-80.877
-85.096
-89.41
-92.073
-91.18
-84.838
-71.608
-50.374
-20.047
19.96
69.314
127.247
191.574
258.081
322.893
382.187
433.634
479.457
521.578
557.829
582.765
585.023
551.885
479.206
368.923
228.575
73.339
-82.723
-226.641
-343.609
-424.374
-466.372
-470.037
-442.012
-393.952
-334.88
-275.641
-227.921
-194.958
-177.388
-171.349
-166.885
-159.807
-149.245
-136.53
-127.33
-123.468
-123.749
-126.374
-127.559
-125.467
-120.437
-112.859
-103.7
-93.967
-84.068
-74.675
-66.8
-60.92
-57.184
-55.583
-55.731
-57.172
-59.537
-62.339
-65.08
-67.498
-69.439
-70.809
-71.614
-71.807
-71.35
-70.28
-68.645
-66.486
-63.838
-60.741
-57.265
-53.544
-49.741
-45.994
-42.395
-38.995
-35.828
-32.931
-30.342
-28.094
-26.185
-24.604
-23.344
-22.398
-21.762
-21.419
-21.324
-21.412
-21.613
-21.869
-22.137
-22.385
-22.585
-22.712
-22.741
-22.658
-22.456
-22.128
-21.659
-21.032
-20.227
-19.231
-18.036
-16.637
-15.032
-13.216
-11.185
-8.935
-6.464
-3.769
-0.848
2.303
5.687
9.305
13.152
17.224
21.512
26.006
30.696
35.569
40.61
45.805
51.137
56.59
62.147
67.79
73.5
79.257
85.041
90.831
96.606
102.345
108.025
113.624
119.12
124.492
129.717
134.774
139.64
144.296
148.721
152.895
156.801
160.419
163.733
166.727
169.387
171.701
173.656
175.242
176.452
177.279
177.717
177.764
177.417
176.677
175.543
174.02
172.11
169.821
167.16
164.136
160.758
157.04
152.994
148.636
143.982
139.048
133.855
128.42
122.765
116.911
110.88
104.695
98.379
91.956
85.45
78.884
72.281
65.666
59.06
52.488
45.97
39.528
33.182
26.951
20.854
14.908
9.13
3.533
-1.869
-7.062
-12.037
-16.782
-21.291
-25.556
-29.571
-33.333
-36.838
-40.085
-43.074
-45.806
-48.283
-50.508
-52.485
-54.22
-55.72
-56.991
-58.042
-58.881
-59.519
-59.964
-60.227
-60.319
-60.251
-60.032
-59.675
-59.19
-58.589
-57.882
-57.079
-56.193
-55.231
-54.206
-53.125
-51.998
-50.835
-49.642
-48.429
-47.203
-45.971
-44.741
-43.52
-42.314
-41.13
-39.973
-38.85
-37.765
-36.722
-35.725
-34.777
-33.882
-33.043
-32.263
-31.543
-30.888
-30.298
-29.776
-29.324
-28.943
-28.633
-28.397
-28.234
-28.145
-28.13
-28.189
-28.323
-28.53
-28.811
-29.165
-29.59
-30.082
-30.64
-31.259
-31.933
-32.657
-33.425
-34.228
-35.061
-35.918
-36.79
-37.674
-38.562
-39.449
-40.329
-41.196
-42.041
-42.855
-43.626
-44.344
-44.997
-45.572
-46.06
-46.452
-46.737
-46.91
-46.966
-46.899
-46.702
-46.364
-45.872
-45.215
-44.391
-43.4
-42.25
-40.956
-39.539
-38.022
-36.436
-34.8
-33.13
-31.428
-29.689
-27.903
-26.063
-24.17
-22.242
-20.291
-18.327
-16.356
-14.378
-12.379
-10.33
-8.196
-5.93
-3.509
-0.93
1.783
4.576
7.383
10.121
12.726
15.151
17.355
19.31
20.983
22.34
23.329
23.879
23.913
23.342
22.105
20.169
17.547
14.292
10.494
6.282
1.77
-2.947
-7.789
-12.703
-17.63
-22.503
-27.248
-31.773
-35.979
-39.775
-43.073
-45.808
-47.978
-49.616
-50.809
-51.705
-52.416
-53.039
-53.673
-54.38
-55.24
-56.348
-57.77
-59.591
-61.92
-64.788
-68.195
-72.059
-76.116
-80.06
-83.558
-86.188
-87.579
-87.505
-85.822
-82.674
-78.541
-73.918
-69.407
-65.537
-62.536
-60.71
-60.304
-60.841
-61.47
-60.404
-54.468
-42.268
-23.76
0.406
27.34
58.007
97.012
147.317
211.387
285.762
360.494
428.698
487.101
534.62
572.517
596.639
595.211
557.93
478.932
359.146
211.255
51.461
-104.745
-241.559
-349.449
-423.361
-461.953
-468.851
-449.634
-412.626
-366.904
-322.425
-287.262
-263.56
-249.325
-237.646
-222.365
-202.332
-179.536
-159.167
-144.888
-136.69
-133.111
-131.665
-130.469
-128.985
-126.862
-123.657
-119.261
-113.812
-107.526
-100.751
-93.902
-87.287
-81.365
-76.804
-73.868
-72.505
-72.563
-73.695
-75.614
-78.133
-80.914
-83.551
-85.777
-87.412
-88.389
-88.762
-88.541
-87.719
-86.335
-84.439
-82.108
-79.436
-76.492
-73.344
-70.064
-66.729
-63.443
-60.297
-57.353
-54.67
-52.276
-50.177
-48.389
-46.912
-45.728
-44.823
-44.168
-43.724
-43.464
-43.351
-43.344
-43.4
-43.464
-43.487
-43.433
-43.272
-42.978
-42.534
-41.92
-41.121
-40.131
-38.943
-37.548
-35.939
-34.105
-32.039
-29.737
-27.197
-24.419
-21.405
-18.154
-14.667
-10.945
-6.991
-2.808
1.599
6.228
11.073
16.123
21.368
26.794
32.386
38.13
44.007
49.999
56.085
62.246
68.461
74.71
80.97
87.219
93.434
99.592
105.67
111.644
117.491
123.188
128.71
134.036
139.145
144.014
148.625
152.957
156.991
160.711
164.099
167.141
169.823
172.133
174.06
175.594
176.73
177.46
177.782
177.694
177.194
176.286
174.971
173.256
171.147
168.652
165.782
162.548
158.964
155.045
150.807
146.267
141.447
136.364
131.042
125.502
119.768
113.862
107.81
101.636
95.363
89.019
82.626
76.21
69.796
63.406
57.065
50.795
44.618
38.555
32.626
26.849
21.243
15.824
10.607
5.607
0.834
-3.699
-7.984
-12.012
-15.779
-19.279
-22.509
-25.468
-28.156
-30.576
-32.728
-34.619
-36.254
-37.638
-38.781
-39.69
-40.375
-40.846
-41.113
-41.19
-41.086
-40.816
-40.39
-39.823
-39.128
-38.317
-37.404
-36.403
-35.326
-34.187
-32.998
-31.771
-30.518
-29.25
-27.979
-26.715
-25.466
-24.243
-23.053
-21.905
-20.804
-19.758
-18.771
-17.849
-16.995
-16.213
-15.507
-14.878
-14.328
-13.859
-13.472
-13.167
-12.945
-12.805
-12.746
-12.768
-12.869
-13.046
-13.298
-13.622
-14.015
-14.473
-14.994
-15.573
-16.206
-16.89
-17.619
-18.39
-19.197
-20.035
-20.899
-21.783
-22.681
-23.589
-24.501
-25.41
-26.311
-27.198
-28.064
-28.904
-29.711
-30.479
-31.2
-31.867
-32.475
-33.015
-33.483
-33.871
-34.173
-34.384
-34.498
-34.51
-34.415
-34.208
-33.886
-33.443
-32.878
-32.188
-31.37
-30.425
-29.352
-28.151
-26.824
-25.374
-23.804
-22.118
-20.32
-18.418
-16.417
-14.327
-12.156
-9.914
-7.613
-5.266
-2.886
-0.49
1.906
4.286
6.634
8.931
11.162
13.309
15.357
17.292
19.099
20.762
22.266
23.593
24.731
25.667
26.389
26.886
27.148
27.17
26.952
26.493
25.796
24.856
23.664
22.218
20.522
18.579
16.402
14.005
11.406
8.634
5.732
2.739
-0.307
-3.374
-6.443
-9.486
-12.465
-15.344
-18.07
-20.606
-22.933
-25.021
-26.849
-28.429
-29.778
-30.948
-32.028
-33.074
-34.145
-35.311
-36.626
-38.17
-40.04
-42.299
-45.031
-48.336
-52.237
-56.722
-61.688
-66.839
-71.833
-76.328
-79.903
-82.175
-82.895
-81.921
-79.417
-75.948
-72.193
-68.862
-66.603
-65.836
-66.93
-70.118
-74.843
-79.906
-83
-80.703
-71.182
-53.577
-28.381
1.668
37.126
80.483
134.22
202.07
282.237
367.958
451.228
522.429
574.057
601.316
601.243
570.342
505.825
407.961
276.665
119.623
-47.633
-209.351
-345.167
-441.862
-500.7
-526.597
-530.311
-522.019
-500.93
-467.76
-426.138
-378.866
-335.31
-300.396
-271.212
-246.411
-222.351
-198.174
-178.338
-164.599
-157.472
-156.242
-157.544
-158.927
-158.993
-156.447
-151.086
-143.273
-133.36
-121.993
-109.924
-97.882
-86.692
-77.233
-70.008
-65.059
-62.234
-61.18
-61.497
-62.893
-65.008
-67.388
-69.706
-71.716
-73.232
-74.219
-74.669
-74.543
-73.86
-72.654
-70.948
-68.805
-66.295
-63.47
-60.402
-57.144
-53.735
-50.244
-46.753
-43.361
-40.178
-37.275
-34.687
-32.446
-30.565
-29.053
-27.906
-27.091
-26.558
-26.264
-26.17
-26.244
-26.465
-26.791
-27.18
-27.583
-27.945
-28.225
-28.393
-28.416
-28.27
-27.931
-27.382
-26.615
-25.629
-24.419
-22.978
-21.297
-19.364
-17.175
-14.727
-12.015
-9.041
-5.802
-2.301
1.46
5.475
9.741
14.249
18.993
23.965
29.155
34.55
40.134
45.891
51.802
57.848
64.007
70.258
76.578
82.942
89.328
95.71
102.064
108.365
114.586
120.702
126.688
132.518
138.165
143.606
148.815
153.769
158.444
162.818
166.87
170.58
173.929
176.902
179.484
181.66
183.422
184.759
185.665
186.135
186.165
185.755
184.906
183.621
181.905
179.765
177.21
174.251
170.901
167.175
163.087
158.657
153.903
148.845
143.507
137.91
132.08
126.042
119.82
113.444
106.938
100.331
93.65
86.923
80.175
73.433
66.723
60.07
53.496
47.026
40.68
34.478
28.439
22.582
16.921
11.472
6.249
1.262
-3.478
-7.963
-12.185
-16.14
-19.823
-23.232
-26.367
-29.228
-31.818
-34.14
-36.199
-38
-39.553
-40.864
-41.942
-42.798
-43.442
-43.886
-44.14
-44.216
-44.126
-43.882
-43.496
-42.978
-42.341
-41.596
-40.753
-39.824
-38.819
-37.748
-36.62
-35.447
-34.236
-32.996
-31.736
-30.464
-29.186
-27.91
-26.641
-25.387
-24.152
-22.941
-21.758
-20.608
-19.493
-18.418
-17.384
-16.394
-15.45
-14.553
-13.706
-12.909
-12.164
-11.473
-10.836
-10.254
-9.73
-9.262
-8.853
-8.503
-8.211
-7.976
-7.8
-7.679
-7.614
-7.601
-7.639
-7.725
-7.856
-8.029
-8.239
-8.482
-8.754
-9.048
-9.36
-9.684
-10.013
-10.341
-10.66
-10.965
-11.248
-11.502
-11.72
-11.894
-12.016
-12.079
-12.076
-11.998
-11.838
-11.589
-11.243
-10.794
-10.238
-9.568
-8.781
-7.873
-6.842
-5.685
-4.404
-2.998
-1.469
0.181
1.946
3.822
5.801
7.875
10.034
12.268
14.564
16.906
19.281
21.672
24.065
26.441
28.784
31.077
33.304
35.448
37.495
39.428
41.228
42.88
44.365
45.669
46.777
47.675
48.349
48.791
48.999
48.968
48.695
48.177
47.401
46.364
45.066
43.509
41.7
39.653
37.386
34.931
32.333
29.634
26.875
24.088
21.293
18.522
15.808
13.184
10.697
8.377
6.243
4.324
2.643
1.193
-0.057
-1.172
-2.258
-3.393
-4.631
-6.038
-7.668
-9.598
-11.918
-14.695
-17.97
-21.793
-26.242
-31.352
-37.089
-43.245
-49.397
-55.075
-59.847
-63.286
-64.962
-64.61
-62.139
-57.823
-52.519
-47.149
-42.501
-39.367
-38.299
-39.446
-42.659
-47.041
-50.648
-51.367
-47.104
-35.524
-14.732
16.647
59.844
114.056
175.757
241.14
305.955
367.465
427.428
486.423
540.795
583.166
599.482
576.088
508.975
401.306
264.221
114.446
-36.43
-177.951
-300.411
-399.482
-469.127
-507.752
-517.97
-500.44
-461.736
-409.051
-351.097
-301.336
-265.859
-245.586
-236.448
-228.115
-215.74
-198.93
-179.695
-163.722
-153.168
-147.072
-143.953
-140.672
-135.302
-127.868
-118.688
-108.455
-97.924
-87.397
-77.168
-67.925
-60.396
-54.956
-51.715
-50.489
-50.883
-52.585
-55.306
-58.642
-62.13
-65.381
-68.108
-70.165
-71.529
-72.194
-72.152
-71.415
-70.022
-68.038
-65.537
-62.605
-59.317
-55.746
-51.986
-48.134
-44.298
-40.608
-37.167
-34.047
-31.293
-28.926
-26.95
-25.373
-24.187
-23.362
-22.858
-22.632
-22.641
-22.853
-23.23
-23.725
-24.283
-24.843
-25.357
-25.789
-26.11
-26.295
-26.325
-26.179
-25.844
-25.317
-24.595
-23.669
-22.532
-21.171
-19.579
-17.75
-15.684
-13.379
-10.832
-8.043
-5.008
-1.73
1.789
5.547
9.542
13.771
18.227
22.903
27.787
32.868
38.131
43.563
49.147
54.865
60.698
66.628
72.634
78.698
84.797
90.911
97.018
103.096
109.123
115.076
120.933
126.67
132.266
137.698
142.943
147.981
152.791
157.351
161.642
165.647
169.347
172.727
175.772
178.468
180.804
182.77
184.355
185.554
186.361
186.772
186.786
186.403
185.624
184.453
182.896
180.958
178.65
175.98
172.959
169.602
165.922
161.934
157.656
153.107
148.304
143.269
138.024
132.59
126.99
121.247
115.385
109.428
103.399
97.322
91.221
85.119
79.039
73.003
67.032
61.147
55.367
49.712
44.198
38.84
33.655
28.655
23.852
19.256
14.877
10.724
6.802
3.117
-0.326
-3.526
-6.481
-9.19
-11.654
-13.877
-15.86
-17.609
-19.129
-20.425
-21.505
-22.376
-23.047
-23.526
-23.823
-23.948
-23.911
-23.723
-23.395
-22.938
-22.363
-21.68
-20.901
-20.034
-19.092
-18.083
-17.017
-15.904
-14.754
-13.574
-12.373
-11.16
-9.944
-8.731
-7.529
-6.345
-5.185
-4.057
-2.967
-1.92
-0.922
0.022
0.906
1.725
2.476
3.155
3.757
4.281
4.722
5.08
5.352
5.537
5.634
5.641
5.558
5.385
5.121
4.768
4.326
3.796
3.181
2.482
1.703
0.845
-0.086
-1.088
-2.154
-3.281
-4.463
-5.693
-6.965
-8.271
-9.603
-10.953
-12.311
-13.669
-15.018
-16.346
-17.646
-18.907
-20.121
-21.278
-22.369
-23.384
-24.315
-25.153
-25.891
-26.52
-27.032
-27.422
-27.683
-27.809
-27.796
-27.64
-27.337
-26.885
-26.282
-25.529
-24.626
-23.575
-22.378
-21.04
-19.568
-17.967
-16.248
-14.42
-12.495
-10.486
-8.409
-6.279
-4.113
-1.927
0.261
2.433
4.572
6.661
8.683
10.622
12.462
14.185
15.773
17.207
18.474
19.556
20.442
21.117
21.57
21.796
21.793
21.556
21.078
20.349
19.359
18.108
16.599
14.835
12.83
10.601
8.174
5.59
2.892
0.113
-2.712
-5.564
-8.42
-11.247
-14.008
-16.659
-19.157
-21.477
-23.6
-25.496
-27.159
-28.616
-29.915
-31.146
-32.394
-33.701
-35.114
-36.69
-38.486
-40.591
-43.092
-46.029
-49.481
-53.55
-58.268
-63.617
-69.423
-75.28
-80.758
-85.467
-88.97
-90.857
-90.855
-88.844
-85.148
-80.548
-75.892
-71.914
-69.203
-68.259
-69.372
-72.433
-76.546
-80.022
-80.749
-76.635
-65.969
-46.919
-17.736
22.68
74.682
136.762
205.335
276.562
346.51
412.272
473.009
527.342
572.856
604.395
613.988
593.33
535.203
437.747
303.951
142.5
-31.491
-200.61
-346.452
-454.771
-519.093
-541.923
-531.399
-495.649
-444.296
-383.907
-321.536
-268.681
-230.513
-208.482
-199.376
-192.389
-181.946
-167.308
-150.257
-136.722
-129.163
-126.568
-127.058
-127.555
-126.39
-123.262
-118.296
-112.114
-105.201
-97.861
-90.582
-83.805
-78.017
-73.823
-71.43
-70.739
-71.524
-73.391
-75.983
-79.004
-82.107
-84.888
-87.058
-88.469
-89.064
-88.893
-88
-86.402
-84.143
-81.303
-77.981
-74.271
-70.28
-66.103
-61.834
-57.591
-53.473
-49.563
-45.937
-42.642
-39.702
-37.13
-34.925
-33.076
-31.571
-30.39
-29.498
-28.865
-28.449
-28.205
-28.087
-28.04
-28.016
-27.977
-27.888
-27.726
-27.471
-27.108
-26.624
-26.014
-25.271
-24.383
-23.344
-22.142
-20.77
-19.22
-17.488
-15.572
-13.47
-11.178
-8.691
-6.008
-3.125
-0.042
3.243
6.732
10.425
14.316
18.401
22.67
27.115
31.724
36.487
41.389
46.416
51.553
56.785
62.095
67.468
72.884
78.327
83.776
89.213
94.618
99.971
105.251
110.438
115.511
120.448
125.23
129.836
134.245
138.438
142.395
146.097
149.528
152.669
155.505
158.021
160.204
162.041
163.523
164.641
165.386
165.753
165.738
165.337
164.551
163.379
161.824
159.888
157.578
154.901
151.864
148.478
144.754
140.707
136.35
131.701
126.776
121.595
116.178
110.546
104.722
98.728
92.588
86.326
79.967
73.535
67.056
60.553
54.051
47.574
41.145
34.787
28.522
22.369
16.35
10.482
4.783
-0.73
-6.044
-11.145
-16.021
-20.661
-25.057
-29.201
-33.087
-36.712
-40.072
-43.166
-45.996
-48.562
-50.867
-52.917
-54.717
-56.273
-57.594
-58.688
-59.565
-60.235
-60.709
-60.998
-61.114
-61.07
-60.877
-60.547
-60.092
-59.526
-58.858
-58.101
-57.265
-56.362
-55.402
-54.393
-53.345
-52.267
-51.166
-50.05
-48.924
-47.796
-46.67
-45.551
-44.444
-43.352
-42.278
-41.226
-40.197
-39.195
-38.22
-37.274
-36.359
-35.475
-34.623
-33.804
-33.02
-32.269
-31.554
-30.875
-30.233
-29.63
-29.065
-28.54
-28.057
-27.617
-27.222
-26.873
-26.572
-26.321
-26.122
-25.978
-25.889
-25.858
-25.886
-25.973
-26.121
-26.33
-26.6
-26.929
-27.318
-27.763
-28.263
-28.815
-29.416
-30.06
-30.744
-31.461
-32.206
-32.971
-33.748
-34.531
-35.308
-36.073
-36.815
-37.526
-38.194
-38.809
-39.361
-39.839
-40.232
-40.53
-40.721
-40.796
-40.744
-40.556
-40.224
-39.741
-39.1
-38.295
-37.323
-36.18
-34.864
-33.376
-31.715
-29.885
-27.89
-25.735
-23.428
-20.98
-18.399
-15.7
-12.898
-10.01
-7.052
-4.045
-1.007
2.042
5.078
8.082
11.034
13.912
16.696
19.365
21.895
24.265
26.453
28.439
30.202
31.726
32.992
33.989
34.709
35.145
35.29
35.138
34.673
33.888
32.78
31.35
29.604
27.554
25.222
22.638
19.85
16.901
13.834
10.688
7.489
4.27
1.072
-2.067
-5.092
-7.959
-10.636
-13.091
-15.293
-17.243
-18.967
-20.52
-22
-23.489
-25.046
-26.734
-28.617
-30.763
-33.264
-36.197
-39.611
-43.576
-48.192
-53.482
-59.399
-65.735
-72.061
-77.91
-82.865
-86.462
-88.24
-87.944
-85.509
-81.229
-75.955
-70.581
-65.833
-62.458
-60.993
-61.522
-63.799
-66.862
-68.755
-67.295
-60.313
-45.595
-21.286
13.919
60.843
119.383
187.018
259.345
331.849
399.21
459.388
514.193
561.827
599.259
618.871
606.208
554.748
463.891
338.347
193.724
42.389
-104.547
-233.313
-336.211
-406.578
-441.996
-448.418
-431.969
-398.09
-352.067
-297.381
-241.216
-195.106
-166.382
-157.687
-164.685
-175.751
-183.518
-185.271
-181.679
-177.669
-174.964
-172.357
-168.598
-161.645
-151.1
-138.264
-124.326
-110.587
-98.265
-87.969
-80.004
-74.494
-71.258
-69.994
-70.387
-72.02
-74.386
-77.084
-79.846
-82.486
-84.91
-87.048
-88.807
-90.116
-90.935
-91.231
-90.984
-90.182
-88.821
-86.919
-84.532
-81.735
-78.624
-75.306
-71.874
-68.418
-65.035
-61.803
-58.778
-56.013
-53.546
-51.397
-49.581
-48.101
-46.941
-46.086
-45.51
-45.181
-45.064
-45.116
-45.292
-45.546
-45.828
-46.094
-46.312
-46.449
-46.482
-46.389
-46.151
-45.753
-45.188
-44.445
-43.515
-42.386
-41.049
-39.494
-37.718
-35.715
-33.485
-31.026
-28.336
-25.413
-22.256
-18.867
-15.246
-11.396
-7.318
-3.017
1.498
6.217
11.127
16.215
21.466
26.864
32.389
38.023
43.748
49.543
55.389
61.266
67.152
73.025
78.865
84.648
90.352
95.956
101.436
106.769
111.935
116.912
121.678
126.213
130.497
134.512
138.239
141.662
144.763
147.53
149.949
152.009
153.701
155.016
155.95
156.497
156.657
156.427
155.81
154.808
153.426
151.67
149.546
147.065
144.236
141.071
137.585
133.79
129.704
125.345
120.729
115.877
110.81
105.548
100.115
94.533
88.825
83.015
77.128
71.188
65.218
59.242
53.285
47.368
41.515
35.745
30.081
24.541
19.143
13.905
8.843
3.972
-0.694
-5.145
-9.367
-13.354
-17.095
-20.584
-23.817
-26.789
-29.498
-31.941
-34.12
-36.035
-37.689
-39.086
-40.23
-41.128
-41.786
-42.214
-42.418
-42.41
-42.199
-41.797
-41.214
-40.462
-39.554
-38.501
-37.316
-36.012
-34.599
-33.091
-31.5
-29.837
-28.113
-26.34
-24.527
-22.686
-20.826
-18.956
-17.085
-15.221
-13.374
-11.55
-9.757
-8.002
-6.291
-4.63
-3.025
-1.48
-0.001
1.409
2.745
4.005
5.184
6.281
7.292
8.215
9.049
9.792
10.441
10.997
11.457
11.821
12.088
12.257
12.327
12.297
12.168
11.939
11.61
11.18
10.65
10.021
9.293
8.469
7.549
6.535
5.432
4.241
2.966
1.611
0.181
-1.32
-2.887
-4.512
-6.19
-7.913
-9.675
-11.467
-13.281
-15.108
-16.939
-18.764
-20.573
-22.356
-24.102
-25.8
-27.439
-29.009
-30.498
-31.894
-33.188
-34.367
-35.422
-36.343
-37.12
-37.744
-38.207
-38.502
-38.622
-38.563
-38.319
-37.887
-37.266
-36.454
-35.454
-34.266
-32.894
-31.343
-29.62
-27.733
-25.69
-23.504
-21.187
-18.751
-16.216
-13.596
-10.912
-8.183
-5.428
-2.67
0.07
2.771
5.411
7.97
10.428
12.763
14.955
16.981
18.821
20.455
21.867
23.04
23.957
24.608
24.987
25.089
24.91
24.446
23.687
22.626
21.265
19.608
17.661
15.436
12.954
10.24
7.336
4.284
1.12
-2.122
-5.416
-8.735
-12.04
-15.29
-18.437
-21.434
-24.251
-26.862
-29.229
-31.338
-33.203
-34.861
-36.387
-37.85
-39.283
-40.726
-42.236
-43.866
-45.712
-47.861
-50.354
-53.269
-56.711
-60.702
-65.225
-70.12
-74.989
-79.415
-83.061
-85.516
-86.371
-85.407
-82.555
-78.15
-73.028
-68.078
-63.923
-61.116
-60.37
-61.992
-65.716
-70.761
-74.504
-74.011
-68.118
-55.079
-34.885
-8.141
28.78
77.471
139.429
214.928
295.393
373.104
440.884
493.646
535.663
568.55
590.204
593.472
563.6
492.056
377.938
230.979
71.067
-84.307
-219.481
-326.411
-404.881
-453.795
-475.587
-471.151
-440.625
-391.325
-331.982
-274.552
-230.946
-204.409
-193.019
-190.09
-188.097
-184.269
-179.246
-176.029
-176.395
-179.53
-183.059
-183.701
-179.905
-171.779
-159.992
-145.967
-131.025
-116.126
-102.432
-90.834
-81.67
-75.072
-70.919
-68.864
-68.542
-69.504
-71.19
-73.185
-75.265
-77.292
-79.19
-80.856
-82.155
-82.983
-83.303
-83.103
-82.362
-81.059
-79.173
-76.716
-73.751
-70.373
-66.675
-62.733
-58.618
-54.387
-50.123
-45.934
-41.906
-38.109
-34.588
-31.361
-28.443
-25.849
-23.575
-21.6
-19.892
-18.409
-17.113
-15.98
-14.979
-14.079
-13.24
-12.413
-11.555
-10.637
-9.633
-8.524
-7.292
-5.916
-4.387
-2.701
-0.856
1.152
3.329
5.686
8.227
10.957
13.876
16.984
20.28
23.764
27.437
31.294
35.333
39.549
43.938
48.496
53.217
58.092
63.111
68.262
73.531
78.904
84.367
89.902
95.493
101.122
106.771
112.424
118.06
123.661
129.206
134.676
140.05
145.308
150.428
155.39
160.173
164.757
169.123
173.251
177.124
180.723
184.033
187.037
189.72
192.071
194.076
195.725
197.009
197.919
198.449
198.595
198.352
197.72
196.697
195.285
193.487
191.307
188.751
185.827
182.544
178.912
174.944
170.654
166.057
161.171
156.012
150.601
144.958
139.105
133.063
126.857
120.508
114.042
107.482
100.852
94.177
87.481
80.789
74.122
67.505
60.96
54.509
48.172
41.971
35.924
30.05
24.365
18.886
13.627
8.601
3.82
-0.707
-4.97
-8.963
-12.682
-16.121
-19.28
-22.157
-24.754
-27.074
-29.12
-30.899
-32.415
-33.677
-34.693
-35.472
-36.026
-36.365
-36.5
-36.444
-36.208
-35.807
-35.253
-34.559
-33.74
-32.809
-31.779
-30.666
-29.481
-28.238
-26.951
-25.632
-24.292
-22.944
-21.597
-20.262
-18.948
-17.663
-16.415
-15.211
-14.057
-12.958
-11.919
-10.943
-10.033
-9.193
-8.424
-7.728
-7.105
-6.556
-6.082
-5.683
-5.359
-5.109
-4.934
-4.832
-4.804
-4.848
-4.964
-5.149
-5.402
-5.721
-6.104
-6.549
-7.053
-7.614
-8.231
-8.901
-9.623
-10.396
-11.217
-12.086
-13.001
-13.96
-14.964
-16.01
-17.098
-18.225
-19.392
-20.597
-21.838
-23.115
-24.424
-25.761
-27.125
-28.509
-29.91
-31.32
-32.731
-34.136
-35.529
-36.901
-38.246
-39.557
-40.827
-42.05
-43.223
-44.34
-45.394
-46.376
-47.278
-48.09
-48.801
-49.401
-49.879
-50.224
-50.425
-50.476
-50.374
-50.113
-49.687
-49.087
-48.297
-47.312
-46.131
-44.757
-43.191
-41.446
-39.536
-37.49
-35.353
-33.155
-30.916
-28.65
-26.354
-24.031
-21.687
-19.325
-16.946
-14.55
-12.131
-9.69
-7.24
-4.772
-2.266
0.324
3.07
6.012
9.157
12.496
15.995
19.61
23.294
26.977
30.563
33.976
37.147
40.025
42.586
44.774
46.51
47.699
48.22
47.992
46.979
45.166
42.567
39.232
35.235
30.694
25.763
20.568
15.204
9.754
4.274
-1.152
-6.414
-11.401
-15.996
-20.104
-23.656
-26.611
-28.959
-30.741
-32.053
-33.015
-33.758
-34.396
-35.011
-35.681
-36.488
-37.513
-38.829
-40.529
-42.728
-45.497
-48.845
-52.636
-56.547
-60.173
-63.094
-64.843
-64.932
-62.99
-58.864
-52.824
-45.616
-38.2
-31.516
-26.411
-23.677
-23.867
-27.041
-32.438
-38.381
-42.504
-42.255
-35.319
-19.269
8.084
48.13
101.458
166.517
239.139
314.71
388.251
456.046
518.153
573.683
619.705
650.722
654.632
620.465
543.035
422.425
270.137
103.269
-61.471
-206.21
-319.833
-398.658
-442.949
-459.271
-454.022
-430.133
-391.379
-341.65
-288.174
-242.409
-211.198
-195.549
-190.167
-184.117
-170.912
-149.408
-122.373
-96.405
-75.059
-58.697
