Name,Criss Capps
Date of Birth,"Feb 5, 1952"
Recorded Date,2023-07-25 10:05:49 -0400
Classification,Poor Recording
Symptoms,
Software Version,1.90
Device,"Watch5,4"
Sample Rate,512.844 hertz


Lead,Lead I
Unit,µV

-161.379
-174.671
-187.713
-200.308
-212.244
-223.351
-233.544
-242.821
-251.114
-258.267
-264.164
-268.88
-272.641
-275.529
-277.262
-277.095
-274.337
-268.947
-261.247
-251.338
-239.314
-225.606
-210.876
-197.158
-185.156
-172.361
-158.66
-145.306
-136.219
-139.96
-154.786
-169.676
-172.933
-150.176
-101.894
-42.992
14.985
60.358
90.521
113.446
132.724
150.97
169.68
186.682
201.712
215.614
228.545
241.296
254.702
268.834
283.388
297.71
311.075
323.097
333.77
343.284
351.68
358.933
365.083
370.211
374.469
377.988
380.799
382.871
384.199
384.833
384.863
384.412
383.583
382.464
381.131
379.654
378.115
376.608
375.238
374.124
373.366
373.038
373.193
373.864
375.045
376.687
378.717
381.035
383.562
386.253
389.107
392.168
395.478
399.086
402.979
407.087
411.345
415.699
420.116
424.59
429.17
433.96
439.098
444.761
451.032
457.895
465.198
472.652
479.906
486.534
492.189
496.617
499.581
500.881
500.325
497.705
492.748
485.129
474.431
460.188
442.093
419.975
393.869
364.039
330.863
294.864
256.551
216.324
174.512
131.347
86.973
41.524
-4.774
-51.637
-98.63
-145.227
-191.055
-235.821
-279.372
-321.779
-363.191
-403.897
-444.264
-484.52
-524.706
-564.71
-604.203
-642.763
-680.084
-715.91
-750.101
-782.634
-813.384
-842.215
-868.99
-893.43
-915.213
-933.929
-949.025
-960.082
-966.941
-969.613
-968.37
-963.658
-955.802
-945.105
-931.857
-916.243
-898.501
-878.866
-857.487
-834.581
-810.426
-785.37
-759.912
-734.491
-709.351
-684.632
-660.308
-636.22
-612.307
-588.529
-564.813
-541.167
-517.607
-494.16
-470.947
-448.091
-425.647
-403.628
-381.964
-360.583
-339.5
-318.765
-298.479
-278.794
-259.813
-241.625
-224.341
-208.026
-192.715
-178.426
-165.118
-152.726
-141.213
-130.555
-120.736
-111.753
-103.578
-96.169
-89.482
-83.463
-78.056
-73.206
-68.847
-64.918
-61.369
-58.156
-55.247
-52.619
-50.243
-48.084
-46.116
-44.304
-42.615
-41.018
-39.477
-37.955
-36.42
-34.842
-33.193
-31.448
-29.58
-27.563
-25.373
-22.987
-20.379
-17.527
-14.405
-10.99
-7.259
-3.187
1.248
6.07
11.302
16.967
23.087
29.685
36.784
44.408
52.578
61.318
70.648
80.59
91.162
102.382
114.263
126.816
140.048
153.963
168.561
183.839
199.789
216.398
233.648
251.517
269.976
288.996
308.538
328.563
349.022
369.867
391.042
412.49
434.147
455.943
477.802
499.643
521.389
542.959
564.271
585.244
605.791
625.824
645.253
663.989
681.936
698.996
715.065
730.038
743.821
756.329
767.488
777.23
785.474
792.139
797.143
800.398
801.838
801.398
799.019
794.657
788.284
779.893
769.511
757.173
742.912
726.75
708.68
688.72
666.929
643.425
618.397
592.033
564.455
535.766
506.033
475.316
443.786
411.515
378.397
344.534
310.188
275.84
242.459
210.805
180.884
152.64
125.879
99.682
73.202
45.189
13.237
-24.289
-67.358
-115.638
-167.791
-220.765
-272.346
-320.22
-360.125
-391.074
-413.91
-426.67
-430.779
-425.736
-409.102
-388.381
-370.154
-361.589
-370.684
-391.146
-415.943
-438.818
-452.138
-459.171
-463.092
-464.359
-465.411
-464.544
-460.486
-454.719
-447.569
-439.546
-431.301
-422.51
-413.035
-403.101
-392.683
-381.701
-370.196
-358.258
-346.057
-333.849
-321.811
-310.006
-298.477
-287.262
-276.41
-265.979
-256.02
-246.568
-237.647
-229.279
-221.482
-214.263
-207.62
-201.545
-196.012
-190.997
-186.479
-182.438
-178.86
-175.734
-173.036
-170.739
-168.81
-167.211
-165.908
-164.862
-164.035
-163.386
-162.877
-162.47
-162.132
-161.828
-161.528
-161.199
-160.813
-160.343
-159.768
-159.068
-158.23
-157.244
-156.102
-154.802
-153.345
-151.736
-149.985
-148.102
-146.103
-144.006
-141.83
-139.601
-137.343
-135.084
-132.852
-130.677
-128.59
-126.619
-124.795
-123.148
-121.703
-120.488
-119.527
-118.84
-118.446
-118.359
-118.591
-119.148
-120.033
-121.242
-122.769
-124.6
-126.718
-129.099
-131.717
-134.539
-137.527
-140.64
-143.832
-147.053
-150.249
-153.361
-156.331
-159.094
-161.586
-163.739
-165.486
-166.758
-167.489
-167.61
-167.057
-165.766
-163.677
-160.732
-156.878
-152.066
-146.253
-139.401
-131.476
-122.455
-112.318
-101.054
-88.659
-75.138
-60.5
-44.766
-27.961
-10.118
8.72
28.507
49.186
70.696
92.969
115.929
139.496
163.584
188.102
212.956
238.046
263.272
288.53
313.713
338.716
363.433
387.757
411.584
434.81
457.337
479.067
499.909
519.775
538.584
556.26
572.734
587.942
601.829
614.347
625.454
635.115
643.305
650.006
655.205
658.9
661.095
661.802
661.041
658.84
655.231
650.257
643.965
636.407
627.645
617.742
606.769
594.799
581.911
568.184
553.704
538.555
522.823
506.595
489.957
472.996
455.794
438.433
420.993
403.549
386.174
368.937
351.903
335.133
318.681
302.599
286.933
271.722
257.002
242.801
229.142
216.043
203.515
191.562
180.184
169.374
159.119
149.4
140.193
131.468
123.192
115.324
107.822
100.638
93.723
87.024
80.488
74.058
67.679
61.293
54.845
48.279
41.542
34.582
27.348
19.794
11.877
3.556
-5.205
-14.436
-24.166
-34.415
-45.198
-56.528
-68.406
-80.831
-93.793
-107.278
-121.261
-135.714
-150.599
-165.873
-181.487
-197.382
-213.498
-229.764
-246.108
-262.452
-278.712
-294.802
-310.633
-326.112
-341.148
-355.644
-369.507
-382.642
-394.955
-406.355
-416.754
-426.064
-434.205
-441.1
-446.675
-450.865
-453.61
-454.858
-454.564
-452.692
-449.213
-444.11
-437.372
-429
-419.005
-407.405
-394.231
-379.522
-363.328
-345.707
-326.726
-306.462
-285
-262.431
-238.854
-214.375
-189.104
-163.158
-136.656
-109.72
-82.475
-55.049
-27.566
-0.153
27.066
53.969
80.438
106.359
131.622
156.126
179.775
202.48
224.162
244.749
264.179
282.4
299.37
315.057
329.439
342.505
354.254
364.697
373.852
381.751
388.432
393.944
398.345
401.701
404.084
405.575
406.26
406.229
405.578
404.406
402.814
400.905
398.783
396.549
394.307
392.153
390.186
388.496
387.171
386.293
385.937
386.174
387.064
388.664
391.021
394.172
398.15
402.978
408.669
415.231
422.661
430.95
440.079
450.025
460.754
472.227
484.397
497.213
510.618
524.549
538.941
553.723
568.823
584.167
599.681
615.289
630.917
646.487
661.927
677.164
692.127
706.75
720.97
734.727
747.963
760.625
772.667
784.044
794.716
804.646
813.797
822.133
829.628
836.263
842.022
846.894
850.868
853.936
856.094
857.341
857.68
857.109
855.621
853.208
849.869
845.608
840.44
834.379
827.429
819.581
810.817
801.122
790.488
778.904
766.359
752.832
738.308
722.787
706.286
688.831
670.437
651.103
630.803
609.5
587.193
563.924
539.792
514.905
489.32
463.021
435.966
408.146
379.607
350.448
320.644
289.998
258.484
226.387
194.348
163.062
132.738
102.897
72.906
42.606
11.774
-20.278
-55.002
-94.201
-138.571
-187.073
-237.771
-289.381
-340.983
-391.413
-438.685
-480.153
-514.469
-542.579
-566.909
-589.354
-611.006
-632.757
-655.954
-682.562
-713.649
-748.531
-785.181
-821.914
-858.013
-893.167
-926.923
-958.633
-988.09
-1015.505
-1041.652
-1067.267
-1091.808
-1115.802
-1141.543
-1168.426
-1194.393
-1214.675
-1220.195
-1210.497
-1194.012
-1183.174
-1193.472
-1229.478
-1281.765
-1334.463
-1373.297
-1390.559
-1387.473
-1374.763
-1359.478
-1346.23
-1339.525
-1334.617
-1327.955
-1319.346
-1306.99
-1293.556
-1282.558
-1273.698
-1265.807
-1257.758
-1248.314
-1237.234
-1224.976
-1211.23
-1195.152
-1176.71
-1156.486
-1134.928
-1112.568
-1089.615
-1065.821
-1041.239
-1016.121
-990.546
-964.554
-938.165
-911.346
-884.21
-856.983
-829.826
-802.863
-776.163
-749.698
-723.443
-697.368
-671.429
-645.612
-619.902
-594.311
-568.907
-543.776
-519.04
-494.764
-470.902
-447.365
-424.014
-400.753
-377.61
-354.732
-332.347
-310.734
-290.071
-270.503
-252.294
-235.392
-219.478
-204.046
-188.013
-170.489
-151.434
-130.878
-108.964
-86.697
-64.912
-44.5
-27.685
-16.058
-9.649
-8.549
-11.709
-16.086
-19.399
-19.207
-11.02
8.397
40.767
88.232
150.296
223.217
303.858
388.109
469.535
543.603
606.677
654.303
685.235
701.401
704.679
698.707
688.934
678.691
670.885
669.198
674.94
687.76
707.182
731.081
756.488
781.957
806.281
827.963
846.583
861.977
873.976
883.276
890.755
896.686
901.233
904.5
906.324
906.727
905.819
903.513
899.75
894.563
888.009
880.25
871.487
861.859
851.473
840.43
828.826
816.78
804.42
791.859
779.191
766.493
753.832
741.273
728.866
716.665
704.713
693.046
681.709
670.752
660.226
650.192
640.709
631.823
623.568
615.974
609.058
602.835
597.315
592.497
588.377
584.944
582.183
580.076
578.602
577.729
577.426
577.651
578.363
579.514
581.057
582.94
585.112
587.518
590.104
592.812
595.589
598.376
601.117
603.755
606.231
608.488
610.47
612.118
613.38
614.202
614.534
614.332
613.554
612.16
610.119
607.399
603.977
599.831
594.946
589.307
582.908
575.744
567.816
559.128
549.688
539.508
528.604
516.995
504.703
491.755
478.179
464.007
449.273
434.016
418.275
402.093
385.515
368.588
351.362
333.885
316.21
298.389
280.473
262.516
244.569
226.684
208.911
191.299
173.897
156.751
139.906
123.404
107.288
91.596
76.366
61.633
47.43
33.789
20.736
8.298
-3.502
-14.643
-25.11
-34.887
-43.965
-52.336
-59.997
-66.947
-73.19
-78.734
-83.588
-87.767
-91.289
-94.173
-96.444
-98.127
-99.253
-99.853
-99.961
-99.612
-98.845
-97.699
-96.216
-94.438
-92.41
-90.175
-87.781
-85.274
-82.701
-80.109
-77.545
-75.055
-72.683
-70.472
-68.463
-66.695
-65.203
-64.018
-63.169
-62.681
-62.572
-62.858
-63.548
-64.649
-66.16
-68.075
-70.385
-73.073
-76.118
-79.494
-83.172
-87.114
-91.282
-95.63
-100.11
-104.669
-109.251
-113.796
-118.241
-122.521
-126.567
-130.312
-133.685
-136.615
-139.032
-140.868
-142.056
-142.531
-142.231
-141.1
-139.084
-136.136
-132.213
-127.279
-121.305
-114.266
-106.148
-96.941
-86.644
-75.264
-62.813
-49.312
-34.789
-19.28
-2.825
14.526
32.719
51.693
71.383
91.714
112.613
133.996
155.78
177.876
200.196
222.646
245.134
267.568
289.856
311.907
333.633
354.948
375.77
396.023
415.631
434.528
452.65
469.942
486.351
501.834
516.354
529.877
542.38
553.844
564.257
573.611
581.907
589.149
595.35
600.524
604.692
607.881
610.118
611.438
611.877
611.474
610.27
608.309
605.634
602.292
598.326
593.783
588.706
583.138
577.122
570.699
563.905
556.778
549.352
541.659
533.729
525.59
517.267
508.783
500.161
491.42
482.578
473.652
464.658
455.608
446.518
437.398
428.262
419.119
409.983
400.863
391.771
382.718
373.716
364.778
355.918
347.148
338.484
329.941
321.535
313.281
305.197
297.299
289.602
282.123
274.874
267.872
261.127
254.652
248.455
242.539
236.908
231.56
226.491
221.694
217.154
212.855
208.777
204.896
201.19
197.629
194.181
190.802
187.445
184.06
180.595
176.994
173.201
169.151
164.782
160.034
154.853
149.183
142.968
136.144
128.639
120.383
111.32
101.405
90.61
78.905
66.261
52.655
38.071
22.506
5.96
-11.575
-30.117
-49.684
-70.277
-91.874
-114.42
-137.841
-162.09
-187.148
-213.043
-239.811
-267.427
-295.796
-324.789
-354.3
-384.267
-414.675
-445.392
-476.117
-506.699
-537.282
-568.345
-600.424
-633.6
-667.307
-700.816
-733.844
-766.066
-796.713
-824.292
-846.994
-864.037
-876.3
-885.559
-892.976
-899.352
-905.743
-913.973
-926.511
-944.662
-967.543
-992.803
-1018.62
-1043.925
-1067.855
-1089.215
-1106.107
-1117.326
-1123.396
-1126.144
-1127.161
-1127.342
-1127.137
-1126.897
-1127.453
-1129.538
-1133.126
-1137.575
-1142.26
-1146.886
-1151.479
-1156.259
-1161.256
-1166.379
-1171.647
-1177.183
-1183.139
-1189.619
-1196.624
-1204.068
-1211.892
-1220.084
-1228.657
-1237.649
-1247.067
-1256.878
-1267.063
-1277.591
-1288.447
-1299.641
-1311.15
-1322.925
-1334.921
-1347.086
-1359.354
-1371.661
-1383.871
-1395.786
-1407.217
-1417.97
-1427.916
-1436.996
-1445.109
-1452.152
-1458.032
-1462.666
-1466.091
-1468.424
-1469.683
-1469.814
-1468.764
-1466.519
-1463.318
-1459.594
-1455.671
-1451.742
-1447.794
-1443.817
-1440.053
-1436.694
-1433.579
-1430.059
-1425.155
-1418.113
-1408.942
-1397.949
-1385.077
-1370.238
-1353.396
-1335.24
-1317.094
-1299.723
-1282.778
-1264.683
-1243.733
-1218.36
-1186.894
-1147.016
-1096.174
-1032.53
-955.358
-866.518
-768.795
-665.081
-559.289
-455.55
-357.782
-269.948
-195.236
-133.987
-85.432
-48.246
-19.563
2.991
21.442
38.611
56.946
77.235
99.58
123.261
146.573
168.766
189.573
208.26
224.281
237.519
248.157
257.115
265.703
274.531
283.732
293.319
303.186
313.312
323.658
333.86
343.359
351.785
358.998
365.049
370.074
374.092
377.009
378.718
379.203
378.52
376.747
373.952
370.175
365.487
360.035
354.042
347.743
341.306
334.824
328.346
321.91
315.57
309.381
303.379
297.567
291.954
286.558
281.404
276.52
271.907
267.544
263.389
259.402
255.551
251.818
248.183
244.635
241.171
237.791
234.506
231.327
228.257
225.289
222.415
219.614
216.863
214.143
211.435
208.729
206.028
203.337
200.664
198.024
195.434
192.906
190.459
188.091
185.776
183.504
181.266
179.076
176.98
175.004
173.147
171.41
169.776
168.207
166.66
165.019
163.102
160.736
157.753
154.056
149.647
144.5
138.588
131.898
124.375
116.036
106.974
97.207
86.742
75.658
64.039
52.139
40.405
29.217
18.92
9.757
1.746
-5.092
-10.741
-15.296
-18.857
-21.695
-24.238
-26.77
-29.575
-33.048
-37.594
-44.007
-53.392
-66.478
-83.81
-105.555
-131.23
-160.608
-193.628
-229.707
-268.408
-309.885
-354.381
-403.339
-459.425
-523.808
-596.731
-678.887
-767.219
-857.313
-947.592
-1032.635
-1111.799
-1189.067
-1257.212
-1309.336
-1333.397
-1313.217
-1254.986
-1175.47
-1099.303
-1054.579
-1046.999
-1067.258
-1097.673
-1118.564
-1123.471
-1115.893
-1104.246
-1096.136
-1093.543
-1094.783
-1096.738
-1097.923
-1098.918
-1100.851
-1104.599
-1110.216
-1117.029
-1124.18
-1131.397
-1139.003
-1146.951
-1154.858
-1162.669
-1169.752
-1177.253
-1188.829
-1203.786
-1218.784
-1228.4
-1222.447
-1201.385
-1175.424
-1154.749
-1153.735
-1173.439
-1200.192
-1223.329
-1231.469
-1222.531
-1206.656
-1190.112
-1177.157
-1169.068
-1161.745
-1153.486
-1144.568
-1135.012
-1125.665
-1116.712
-1107.712
-1098.849
-1090.364
-1082.282
-1074.272
-1065.314
-1054.308
-1040.549
-1023.626
-1003.021
-978.225
-949.203
-917.017
-883.91
-852.563
-822.789
-790.736
-754.244
-713.45
-673.846
-644.666
-625.511
-603.596
-557.336
-464.53
-315.499
-121.181
95.573
312.318
508.159
675.81
815.309
924.503
1010.151
1075.921
1124.09
1162.352
1191.207
1212.79
1231.902
1249.437
1269.146
1293.745
1322.095
1353.42
1385.731
1416.017
1442.964
1466.054
1485.03
1500.407
1512.93
1523.264
1532.355
1541.361
1550.882
1561.047
1571.795
1582.812
1593.849
1604.729
1615.167
1624.736
1633.028
1639.79
1644.844
1648.134
1649.657
1649.361
1647.231
1643.331
1637.798
1630.806
1622.552
1613.194
1602.841
1591.649
1579.789
1567.455
1554.878
1542.221
1529.606
1517.144
1504.923
1493.015
1481.483
1470.352
1459.6
1449.219
1439.193
1429.51
1420.176
1411.176
1402.486
1394.078
1385.922
1377.989
1370.262
1362.724
1355.353
1348.135
1341.06
1334.123
1327.334
1320.699
1314.22
1307.897
1301.73
1295.716
1289.851
1284.13
1278.545
1273.085
1267.749
1262.537
1257.451
1252.504
1247.709
1243.086
1238.657
1234.449
1230.49
1226.815
1223.452
1220.412
1217.714
1215.375
1213.423
1211.91
1210.854
1210.259
1210.129
1210.464
1211.255
1212.482
1214.074
1215.887
1217.778
1219.6
1221.221
1222.577
1223.602
1224.224
1224.361
1223.955
1223.041
1221.695
1219.999
1217.927
1215.385
1212.366
1209.022
1205.693
1202.756
1200.475
1198.946
1198.273
1198.662
1200.116
1202.495
1205.2
1207.071
1207.35
1205.775
1202.267
1196.891
1189.786
1180.94
1170.948
1161.28
1152.414
1143.747
1134.141
1121.892
1105.467
1083.45
1053.627
1012.956
959.435
892.742
813.624
723.441
623.635
516.336
404.906
294.057
188.73
92.221
6.679
-65.82
-123.746
-166.688
-195.45
-212.876
-223.225
-229.577
-234.186
-239.506
-247.304
-258.767
-274.598
-293.841
-314.347
-334.771
-354.36
-372.452
-389.023
-404.087
-417.503
-429.753
-441.707
-453.774
-466.083
-478.561
-490.708
-502.054
-512.378
-521.428
-528.988
-535.008
-539.414
-542.154
-543.332
-543.063
-541.441
-538.586
-534.578
-529.495
-523.513
-516.866
-509.819
-502.659
-495.597
-488.769
-482.297
-476.27
-470.768
-465.866
-461.596
-457.96
-454.978
-452.679
-451.101
-450.282
-450.221
-450.891
-452.253
-454.245
-456.833
-460.003
-463.717
-467.945
-472.645
-477.721
-483.095
-488.724
-494.465
-500.123
-505.571
-510.667
-515.295
-519.525
-523.408
-526.87
-530.15
-533.771
-537.669
-541.524
-545.414
-548.596
-551.655
-557.444
-564.974
-571.311
-571.85
-556.013
-521.586
-476.721
-432.863
-411.312
-423.832
-462.493
-511.901
-544.962
-541.266
-502.262
-440.219
-377.587
-333.256
-310.596
-304.001
-301.84
-294.787
-280.626
-260.9
-239.117
-217.219
-195.125
-172.538
-149.123
-125.118
-101.116
-77.36
-53.936
-30.945
-8.411
13.654
35.261
56.475
77.327
97.764
117.708
137.105
155.896
174.014
191.408
208.009
223.768
238.71
252.851
266.168
278.734
290.667
302.013
312.824
323.097
332.621
341.215
348.879
355.314
359.941
362.775
364.141
364.077
363.574
362.203
356.991
348.795
340.452
336.521
347.802
376.048
411.851
443.118
447.807
414.039
350.319
271.151
204.088
172.999
183.783
233.959
307.591
383.445
441.655
466.721
449.936
389.719
301.905
205.083
122.773
82.722
91.039
150.104
251.787
365.488
468.66
538.239
554.977
527.335
466.822
383.982
296.253
208.607
131.972
89.124
93.114
155.29
266.222
392.57
503.348
566.434
570.789
533.07
476.895
433.879
423.547
444.456
486.19
531.991
570.94
601.67
626.832
650.409
672.98
692.788
708.392
718.789
724.527
727.301
726.669
720.268
708.94
694.911
683.267
684.478
697.629
711.527
714.352
688.631
631.903
559.265
482.173
413.083
356.508
303.803
252.077
202.463
156.458
120.172
97.623
89.358
95.84
116.687
149.656
191.95
241.933
297.259
355.108
412.705
466.896
515.166
556.026
590.365
617.686
634.474
640.119
631.294
605.775
571.898
534.311
500.532
479.514
464.951
454.044
441.543
423.001
409.036
399.924
394.183
381.597
336.142
255.295
148.816
40.631
-29.746
-52.898
-37.797
-3
27.035
52.696
83.145
125.953
177.007
209.927
199.579
126.515
-4.283
-158.844
-300.012
-390.327
-416.859
-396.085
-350.406
-303.06
-260.507
-213.735
-160.429
-111.643
-91.085
-125.927
-225.402
-370.175
-525.762
-650.307
-711.698
-705.216
-637.987
-531.97
-418.3
-315.095
-245.567
-227.343
-260.441
-347.763
-471.082
-596.7
-701.033
-754.084
-742.421
-675.728
-560.594
-418.415
-275.809
-149.645
-69.161
-55.784
-113.396
-244.565
-426.826
-621.817
-798.876
-921.876
-970.496
-950.961
-871.631
-753.555
-625.202
-502.812
-405.897
-347.239
-322.013
-323.102
-335.874
-345.942
-352.153
-358.599
-372.634
-400.778
-443.279
-495.639
-551.944
-608.408
-662.875
-715.528
-768.478
-821.938
-874.989
-927.169
-977.559
-1025.353
-1070.153
-1109.864
-1141.465
-1163.325
-1175.134
-1177.832
-1172.741
-1160.788
-1142.987
-1121.237
-1098.108
-1075.422
-1053.377
-1030.863
-1006.772
-980.525
-952.186
-921.906
-889.035
-853.213
-815.57
-777.624
-740.92
-706.655
-674.045
-641.816
-609.796
-577.64
-544.269
-508.912
-470.248
-427.023
-380.575
-332.551
-283.523
-234.247
-185.176
-136.324
-88.786
-43.835
-0.968
40.222
79.621
117.382
152.892
185.288
214.657
241.268
264.91
285.719
303.77
318.895
331.363
341.409
349.049
354.416
357.635
358.743
357.93
355.457
351.612
346.845
341.448
335.539
329.162
322.19
314.567
306.348
297.544
288.173
278.281
267.924
257.242
246.478
235.822
225.385
215.199
205.203
195.401
185.859
176.663
167.907
159.609
151.765
144.392
137.542
131.272
125.57
120.387
115.639
111.24
107.2
103.636
100.672
98.444
97.147
96.937
98.052
100.85
105.56
112.356
121.366
132.616
146.2
162.216
180.629
201.347
224.165
248.66
274.409
300.931
327.517
353.507
378.125
400.402
419.577
434.979
445.918
451.849
452.198
446.35
433.996
415.008
389.341
357.251
319.009
274.931
225.716
172.09
114.894
55.259
-5.813
-67.361
-128.226
-187.299
-243.45
-295.436
-342.389
-383.727
-418.898
-447.615
-469.533
-484.205
-491.528
-491.47
-484.151
-470.041
-449.529
-423.134
-391.906
-357.218
-320.898
-284.974
-250.598
-218.328
-188.7
-161.849
-137.853
-116.099
-94.583
-71.375
-45.542
-19.087
5.284
27.627
46.837
65.222
83.125
89.429
77.645
41.047
-25.535
-108.626
-199.421
-291.821
-375.636
-454.784
-525.305
-575.816
-599.801
-580.922
-516.744
-419.194
-299.827
-184.918
-89.634
-15.067
34.524
68.283
91.947
103.934
110.136
111.422
108.311
103.814
97.241
90.079
85.084
83.851
87.081
93.127
99.481
104.781
108.65
111.228
112.414
111.455
107.855
101.909
94.563
86.685
78.626
70.442
62.058
53.633
45.563
38.046
31.021
24.334
17.808
11.392
5.202
-0.698
-6.372
-12.02
-18.034
-24.779
-32.501
-41.484
-52.003
-64.466
-79.524
-97.792
-119.755
-145.734
-175.892
-210.373
-249.368
-293.01
-341.204
-393.586
-449.571
-508.57
-570.123
-633.783
-699.122
-765.546
-832.235
-898.358
-963.129
-1025.908
-1086.119
-1143.126
-1196.232
-1244.714
-1288.127
-1326.37
-1359.547
-1387.805
-1411.23
-1429.854
-1443.672
-1452.848
-1457.643
-1458.297
-1455.117
-1448.289
-1438.059
-1424.908
-1409.462
-1392.516
-1374.733
-1356.446
-1337.828
-1319.031
-1300.145
-1281.365
-1263.022
-1245.235
-1228.145
-1212.015
-1196.94
-1183.276
-1171.518
-1161.455
-1152.38
-1143.414
-1133.49
-1122.218
-1109.966
-1096.535
-1081.297
-1064.354
-1046.181
-1027.606
-1009.919
-992.701
-973.876
-952.155
-926.956
-897.441
-862.911
-822.248
-773.628
-717.479
-656.291
-591.518
-524.408
-456.443
-388.285
-321.697
-257.785
-194.011
-130.135
-68.556
-13.994
24.534
47.562
64.417
85.331
123.701
179.49
240.314
296.521
337.692
362.801
381.161
398.16
417.808
441.242
464.802
487.122
508.419
528.554
548.157
567.343
585.573
602.691
618.672
633.403
646.846
659.029
670.025
679.96
688.971
697.17
704.641
711.477
717.8
723.696
729.198
734.356
739.22
743.805
748.13
752.16
755.779
758.919
761.558
763.69
765.355
766.578
767.346
767.672
767.579
767.098
766.295
765.199
763.79
762.137
760.354
758.647
757.342
756.616
756.492
756.93
757.772
758.808
759.817
760.462
760.324
759.039
756.257
751.696
745.165
736.381
725.029
710.711
692.889
671.213
645.526
615.757
582.037
544.613
503.774
460.009
413.927
366.029
316.786
266.604
215.766
164.597
113.366
62.366
12.044
-37.24
-85.146
-131.403
-176.064
-219.285
-261.278
-302.468
-343.13
-383.387
-423.625
-464.032
-504.466
-544.632
-583.462
-619.698
-653.01
-683.324
-710.454
-734.568
-755.79
-774.695
-793.005
-812.537
-832.47
-849.407
-862.289
-871.109
-878.397
-891.519
-906.855
-911.726
-894.621
-839.549
-745.91
-631.957
-512.916
-405.484
-318.544
-245.85
-184.682
-135.315
-97.167
-72.726
-61.587
-59.276
-62.119
-67.448
-72.508
-74.879
-73.627
-68.665
-60.865
-52.532
-44.937
-38.147
-32.565
-28.505
-25.841
-24.44
-23.614
-22.015
-19.004
-14.526
-8.539
-1.232
7.269
16.936
27.464
38.312
49.037
59.363
69.146
78.344
86.827
94.409
100.961
106.412
110.787
114.132
116.438
117.676
117.829
116.898
114.937
112.052
108.31
103.72
98.209
91.596
83.793
74.806
64.65
53.414
41.078
27.411
12.396
-3.664
-20.652
-38.513
-57.588
-78.896
-102.871
-129.042
-156.899
-186.11
-216.297
-246.931
-276.42
-301.792
-320.657
-334.267
-344.66
-351.131
-354.942
-353.409
-344.692
-340.09
-346.115
-367.896
-414.166
-478.17
-555.898
-649.696
-747.85
-840.003
-916.941
-962.73
-977.528
-972.703
-956.749
-941.607
-931.388
-920.764
-907.474
-889.432
-866.235
-841.643
-817.276
-793.13
-769.451
-744.934
-719.283
-694.044
-670.356
-649.104
-631.129
-616.839
-606.564
-601.247
-601.671
-605.98
-609.931
-609.321
-600.217
-585.363
-574.448
-573.629
-583.952
-590.162
-562.568
-477.294
-320.237
-104.457
132.314
349.697
510.236
601.219
632.575
625.728
608.68
595.413
594.177
605.152
622.065
647.297
676.279
705.911
736.248
760.964
781.529
799.745
814.7
828.64
840.063
847.268
851.316
852.789
853.026
853.817
855.595
858.435
862.577
867.901
874.323
881.87
890.322
899.375
908.808
918.332
927.718
936.852
945.544
953.64
961.037
967.613
973.34
978.268
982.422
985.849
988.615
990.732
992.262
993.295
993.92
994.262
994.406
994.387
994.235
993.96
993.549
992.987
992.221
991.155
989.71
987.813
985.388
982.384
978.737
974.374
969.231
963.246
956.369
948.563
939.803
930.064
919.337
907.616
894.912
881.249
866.65
851.14
834.749
817.508
799.458
780.646
761.124
740.947
720.178
698.887
677.15
655.05
632.67
610.097
587.42
564.731
542.121
519.683
497.51
475.693
454.319
433.477
413.25
393.718
374.956
357.033
340.013
323.953
308.905
294.915
282.021
270.252
259.633
250.181
241.904
234.803
228.873
224.099
220.46
217.928
216.468
216.038
216.589
218.067
220.411
223.558
227.437
231.977
237.101
242.732
248.789
255.19
261.854
268.699
275.644
282.607
289.51
296.276
302.833
309.109
315.037
320.556
325.606
330.135
334.096
337.445
340.147
342.173
343.499
344.107
343.986
343.131
341.542
339.226
336.195
332.463
328.053
322.991
317.305
311.031
304.204
296.864
289.055
280.82
272.206
263.26
254.028
244.558
234.898
225.095
215.195
205.245
195.289
185.37
175.531
165.81
156.243
146.862
137.696
128.768
120.097
111.699
103.584
95.76
88.228
80.987
74.033
67.358
60.953
54.803
48.889
43.19
37.682
32.337
27.125
22.013
16.964
11.943
6.916
1.844
-3.311
-8.586
-14.021
-19.656
-25.537
-31.71
-38.226
-45.13
-52.468
-60.282
-68.613
-77.496
-86.962
-97.032
-107.718
-119.032
-130.989
-143.605
-156.899
-170.888
-185.579
-200.978
-217.092
-233.932
-251.505
-269.803
-288.792
-308.438
-328.715
-349.619
-371.16
-393.323
-416.05
-439.266
-462.897
-486.866
-511.094
-535.472
-559.814
-583.927
-607.634
-630.778
-653.28
-675.071
-696.041
-716.048
-734.955
-752.693
-769.305
-784.902
-799.507
-813.111
-825.681
-837.202
-847.904
-858.064
-867.93
-877.756
-887.595
-897.338
-907.052
-916.952
-926.946
-936.756
-945.546
-951.848
-954.915
-954.686
-951.094
-944.23
-934.064
-920.309
-903.94
-887.196
-871.161
-855.936
-840.683
-822.92
-800.617
-772.554
-735.85
-686.772
-622.951
-542.541
-445.987
-337.27
-220.324
-99.002
20.812
133.471
234.417
318.696
383.983
431.585
463.037
481.031
490.275
494.411
496.466
500.163
507.418
518.331
533.115
550.713
568.893
586.588
603.073
617.422
629.68
640.14
648.826
656.309
663.399
670.285
677.03
683.657
689.789
695.167
699.715
703.3
705.797
707.247
707.802
707.362
705.847
703.085
698.313
690.87
680.814
668.241
652.99
635.282
615.455
594.496
575.426
561.61
552.371
544.127
534.575
521.37
509.635
511.334
527.164
551.068
568.315
550.286
482.382
363.661
200.995
21.733
-147.54
-288.626
-384.208
-429.522
-429.037
-385.963
-306.982
-205.346
-90.963
20.076
102.812
144.907
136.657
79.646
0.336
-77.965
-132.426
-146.53
-127.036
-82.62
-24.025
37.026
96.164
141.745
161.645
146.523
91.56
12.601
-67.503
-126.229
-143.906
-122.52
-75.618
-18.058
29.837
56.036
59.242
39.259
5.494
-27.323
-51.579
-60.813
-55.545
-44.997
-34.431
-27.657
-26.785
-28.79
-31.94
-36.532
-41.66
-48.435
-60.453
-76.316
-92.167
-102.827
-96.05
-68.998
-31.984
1.795
8.785
-23.877
-85.203
-157.075
-209.997
-222.305
-198.365
-152.363
-107.843
-83.747
-78.735
-86.252
-98.12
-109.39
-128.357
-159.808
-196.94
-229.052
-237.625
-211.936
-163.318
-110.125
-75.364
-75.908
-107.366
-155.56
-200.882
-227.382
-231.471
-217.354
-197.502
-181.583
-173.957
-176.493
-182.925
-188.79
-192.57
-191.559
-187.532
-182.315
-175.755
-169.057
-162.354
-154.813
-146.843
-139.265
-132.479
-126.512
-120.532
-113.355
-104.873
-97.289
-94.082
-95.466
-99.733
-103.181
-99.368
-89.987
-82.059
-85.34
-115.541
-177.973
-267.836
-372.471
-468.353
-539.41
-578.477
-587.99
-581.852
-570.391
-560.627
-554.059
-545.537
-533.127
-516.266
-496.994
-480.679
-469.434
-463.438
-461.822
-461.529
-460.874
-459.515
-456.601
-452.02
-446.193
-439.264
-432.033
-425.739
-420.737
-417.136
-415.032
-413.938
-413.698
-414.435
-415.958
-418.131
-420.888
-424.135
-427.968
-432.562
-437.748
-443.07
-447.964
-451.877
-454.573
-455.638
-454.214
-449.554
-441.042
-428.443
-412.093
-390.629
-361.163
-322.83
-277.219
-231.389
-196.182
-175.988
-167.352
-158.634
-131.985
-77.377
3.595
102.074
200.102
280.972
338.483
370.209
383.252
391.978
404.103
425.683
456.729
488.438
515.636
535.033
545.318
550.011
551.182
549.382
545.545
539.667
531.99
523.484
514.774
506.334
498.763
492.413
487.392
483.74
481.413
480.378
480.702
482.351
485.127
488.728
492.775
497.043
501.443
505.86
510.184
514.254
517.863
520.93
523.482
525.527
527.079
528.129
528.638
528.659
528.318
527.751
527.111
526.485
525.893
525.368
524.932
524.597
524.373
524.23
524.097
523.929
523.697
523.369
522.929
522.332
521.512
520.41
518.972
517.152
514.923
512.256
509.126
505.521
501.443
496.898
491.905
486.474
480.611
474.326
467.629
460.536
453.068
445.246
437.092
428.633
419.903
410.935
401.765
392.424
382.945
373.358
363.698
353.995
344.283
334.593
324.955
315.398
305.954
296.646
287.493
278.509
269.703
261.08
252.645
244.398
236.333
228.447
220.735
213.196
205.831
198.637
191.6
184.706
177.939
171.277
164.698
158.171
151.656
145.121
138.546
131.913
125.216
118.446
111.591
104.649
97.62
90.502
83.288
75.956
68.464
60.791
52.936
44.91
36.753
28.483
20.091
11.582
2.969
-5.775
-14.702
-23.918
-33.6
-43.861
-54.758
-66.313
-78.49
-91.248
-104.564
-118.375
-132.594
-147.152
-161.957
-176.973
-192.234
-207.663
-223.092
-238.255
-252.745
-266.257
-278.621
-289.678
-299.325
-307.572
-314.511
-320.389
-325.628
-330.58
-335.556
-340.807
-346.473
-352.816
-360.222
-369.148
-380.163
-393.777
-410.361
-430.327
-454.119
-481.906
-513.628
-548.97
-587.3
-628.068
-670.843
-715.13
-760.446
-806.263
-851.921
-896.778
-940.246
-981.579
-1019.988
-1054.802
-1085.381
-1111.562
-1133.693
-1152.062
-1166.922
-1178.668
-1187.522
-1193.207
-1194.993
-1191.292
-1180.035
-1159.973
-1130.523
-1091.194
-1042.07
-984.443
-920.929
-855.736
-793.514
-737.486
-690.239
-654.609
-632.848
-626.266
-632.641
-645.113
-656.917
-663.196
-666.265
-676.236
-700.372
-739.691
-778.115
-784.625
-733
-608.38
-426.366
-226.735
-48.759
73.469
135.432
154.111
148.835
144.206
147.274
157.96
179.59
208.905
252.22
311.22
376.169
440.713
493.429
529.34
555.872
577.594
598.735
621.061
639.962
653.312
662.306
667.817
670.633
670.902
667.184
658.351
645.594
630.191
612.322
592.533
571.79
550.684
530.877
514.067
499.239
485.223
471.92
458.813
445.31
431.429
416.308
398.417
380.206
364.003
347.856
331.633
311.017
280.668
246.384
212.216
183.514
167.813
158.55
150.087
138.899
118.952
94.988
71.79
50.584
34.312
21.376
9.823
0.217
-7.462
-12.653
-14.724
-13.949
-10.59
-4.717
3.46
13.669
25.526
38.523
52.263
66.482
80.98
95.58
109.987
123.828
136.651
147.905
157.157
164.087
168.418
169.97
168.71
164.722
158.274
149.83
139.716
128.134
115.249
101.143
85.963
69.926
53.258
36.22
19.086
2.133
-14.386
-30.259
-45.41
-59.878
-73.826
-87.549
-101.253
-115.054
-129.034
-143.203
-157.566
-172.132
-186.882
-201.769
-216.804
-232.039
-247.524
-263.305
-279.363
-295.611
-311.924
-328.122
-344.055
-359.6
-374.657
-389.163
-403.079
-416.389
-429.104
-441.265
-452.889
-463.969
-474.499
-484.467
-493.874
-502.745
-511.111
-519.009
-526.486
-533.588
-540.364
-546.855
-553.098
-559.118
-564.935
-570.562
-576.015
-581.313
-586.478
-591.538
-596.517
-601.44
-606.336
-611.23
-616.145
-621.095
-626.09
-631.139
-636.245
-641.416
-646.652
-651.954
-657.32
-662.75
-668.24
-673.788
-679.386
-685.027
-690.698
-696.389
-702.089
-707.787
-713.477
-719.143
-724.77
-730.343
-735.843
-741.253
-746.552
-751.719
-756.73
-761.561
-766.194
-770.614
-774.802
-778.742
-782.413
-785.8
-788.891
-791.682
-794.172
-796.364
-798.274
-799.914
-801.283
-802.367
-803.134
-803.547
-803.557
-803.1
-802.105
-800.486
-798.164
-795.081
-791.173
-786.363
-780.53
-773.485
-765.027
-754.994
-743.297
-729.954
-715.039
-698.579
-680.685
-661.595
-641.418
-620.203
-597.79
-573.677
-547.413
-518.79
-487.753
-454.521
-420.027
-385.521
-352.602
-323.323
-299.391
-282.312
-272.963
-271.02
-274.665
-281.134
-287.055
-288.269
-280.573
-259.004
-218.868
-159.839
-85.775
-0.446
91.315
191.457
309.998
445.951
592.304
730.714
825.258
855.818
816.719
714.823
582.717
449.391
336.078
263.506
235.579
252.011
310.621
396.979
498.618
600.799
686.357
749.112
784.532
794.975
792.605
785.425
781.384
783.992
788.191
790.856
789.989
785.437
780.893
778.172
777.184
777.284
776.819
775.117
772.47
769.071
765.182
761.012
756.687
752.402
748.358
744.623
741.15
737.893
734.782
731.747
728.722
725.65
722.512
719.299
716.008
712.629
709.135
705.501
701.71
697.755
693.624
689.297
684.747
679.938
674.839
669.426
663.67
657.533
650.968
643.93
636.38
628.288
619.625
610.357
600.448
589.866
578.586
566.587
553.857
540.384
526.16
511.186
495.469
479.023
461.867
444.022
425.515
406.377
386.641
366.348
345.541
324.265
302.572
280.515
258.151
235.54
212.745
189.828
166.853
143.885
120.989
98.23
75.672
53.378
31.408
9.825
-11.312
-31.947
-52.024
-71.494
-90.311
-108.43
-125.812
-142.423
-158.234
-173.218
-187.357
-200.633
-213.036
-224.56
-235.205
-244.973
-253.873
-261.918
-269.126
-275.518
-281.12
-285.959
-290.068
-293.483
-296.242
-298.387
-299.964
-301.016
-301.592
-301.74
-301.51
-300.954
-300.124
-299.069
-297.839
-296.484
-295.055
-293.609
-292.194
-290.854
-289.63
-288.555
-287.664
-286.991
-286.565
-286.408
-286.538
-286.971
-287.723
-288.822
-290.285
-292.123
-294.336
-296.904
-299.818
-303.078
-306.686
-310.649
-314.953
-319.567
-324.463
-329.618
-335.003
-340.588
-346.309
-352.065
-357.764
-363.311
-368.627
-373.678
-378.376
-382.601
-386.203
-388.938
-390.626
-391.195
-390.595
-388.847
-385.949
-381.699
-376.026
-369.175
-361.274
-352.37
-342.113
-329.477
-313.904
-295.664
-275.307
-253.363
-230.057
-205.728
-182.181
-162.281
-148.307
-139.653
-132.351
-124.801
-117.745
-114.918
-122.492
-134.599
-138.299
-121.036
-68.653
15.442
114.993
216.936
305.031
372.862
426.03
465.751
494.546
515.569
526.969
530.075
529.591
528.701
530.921
540.031
557.017
581.122
611.656
646.525
682.839
719.131
754.142
786.294
815.071
840.339
861.974
880.743
897.649
913.033
927.119
940.067
951.743
962.192
971.521
979.614
986.357
991.74
995.803
998.69
1000.599
1001.642
1001.889
1001.395
1000.2
998.375
995.997
993.128
989.819
986.104
982.017
977.602
972.898
967.939
962.755
957.36
951.773
946.022
940.137
934.153
928.107
922.024
915.924
909.824
903.739
897.683
891.668
885.701
879.789
873.937
868.151
862.435
856.797
851.238
845.76
840.363
835.046
829.81
824.654
819.578
814.581
809.663
804.821
800.053
795.358
790.733
786.174
781.677
777.239
772.856
768.522
764.233
759.985
755.772
751.588
747.426
743.279
739.139
734.996
730.839
726.655
722.43
718.147
713.791
709.339
704.771
700.063
695.19
690.124
684.836
679.298
673.479
667.348
660.873
654.023
646.766
639.07
630.906
622.241
613.047
603.295
592.956
582.004
570.415
558.166
545.235
531.603
517.256
502.18
486.366
469.809
452.508
434.469
415.701
396.216
376.032
355.172
333.663
311.537
288.83
265.582
241.836
217.64
193.045
168.105
142.877
117.42
91.796
66.069
40.303
14.564
-11.082
-36.567
-61.826
-86.795
-111.41
-135.606
-159.322
-182.5
-205.086
-227.028
-248.281
-268.804
-288.565
-307.543
-325.715
-343.067
-359.589
-375.274
-390.122
-404.134
-417.314
-429.665
-441.202
-451.944
-461.912
-471.137
-479.648
-487.48
-494.683
-501.309
-507.414
-513.064
-518.32
-523.243
-527.905
-532.381
-536.746
-541.089
-545.48
-549.961
-554.581
-559.377
-564.367
-569.563
-574.926
-580.365
-585.803
-591.159
-596.356
-601.339
-606.009
-610.267
-614.049
-617.291
-619.958
-622.09
-623.698
-624.779
-625.395
-625.6
-625.552
-625.572
-625.965
-626.993
-628.89
-631.88
-636.13
-641.752
-648.57
-656.012
-663.393
-670.006
-675.397
-679.443
-682.304
-684.241
-686.214
-690.144
-697.513
-709.819
-726.087
-741.652
-754.594
-764.537
-773.114
-786.349
-799.022
-796.35
-764.639
-687.393
-565.863
-420.301
-268.09
-129.046
-13.255
84.498
165.603
230.875
281.263
313.826
328.907
330.987
324.958
315.535
306.939
301.498
300.026
302.422
307.758
314.05
318.882
320.713
318.365
311.352
300.007
284.887
266.876
247.191
227.149
207.554
188.822
171.114
154.249
138.098
122.576
107.507
92.715
78.181
63.885
49.752
35.78
21.829
7.72
-6.573
-21.04
-35.583
-49.978
-64.021
-77.6
-90.651
-103.229
-115.443
-127.502
-139.847
-153.037
-167.755
-183.866
-200.168
-215.744
-229.76
-242.899
-257.88
-274.362
-290.044
-301.502
-302.304
-293.384
-282.235
-277.473
-293.938
-339.63
-410.145
-495.187
-572.171
-614.784
-609.092
-554.304
-461.273
-351.844
-242.322
-134.297
-30.554
65.829
149.964
206.556
230.934
231.852
219.136
206.653
201.02
198.179
195.996
193.691
192.434
196.536
207.155
222.953
241.933
261.163
278.901
294.196
306.269
314.887
320.107
322.271
322.028
320.136
317.012
312.793
307.448
300.761
292.552
282.703
271.102
257.652
242.354
225.3
206.629
186.553
165.275
142.931
119.64
95.501
70.61
45.094
19.092
-7.273
-33.885
-60.632
-87.417
-114.146
-140.728
-167.096
-193.19
-218.957
-244.344
-269.29
-293.723
-317.575
-340.779
-363.279
-385.022
-405.96
-426.046
-445.245
-463.527
-480.871
-497.265
-512.698
-527.167
-540.676
-553.231
-564.846
-575.538
-585.331
-594.251
-602.33
-609.602
-616.11
-621.902
-627.034
-631.561
-635.54
-639.028
-642.086
-644.771
-647.14
-649.242
-651.126
-652.846
-654.457
-656.017
-657.585
-659.214
-660.959
-662.879
-665.032
-667.474
-670.265
-673.451
-677.063
-681.148
-685.753
-690.93
-696.754
-703.254
-710.427
-718.269
-726.767
-735.891
-745.606
-755.815
-766.359
-777.109
-787.928
-798.703
-809.358
-819.747
-829.724
-839.167
-847.935
-855.982
-863.355
-870.07
-876.132
-881.601
-886.488
-890.927
-895.248
-899.706
-904.563
-910.032
-916.231
-923.448
-931.899
-941.601
-952.319
-963.319
-973.63
-982.549
-989.499
-993.957
-996
-995.546
-993.038
-990.481
-989.263
-990.428
-993.256
-993.558
-989.205
-980.052
-968.328
-959.792
-951.236
-931.98
-887.676
-799.385
-664.52
-494.357
-307.609
-134.141
8.066
111.988
178.094
220.584
250.987
277.288
303.223
324.892
340.065
348.484
352.959
359.087
368.949
382.118
396.904
410.085
420.402
428.08
432.547
433.804
432.384
428.704
423.979
419.735
416.588
414.737
414.307
415.012
416.678
419.292
422.488
425.85
429.063
431.721
433.639
434.796
435.042
434.273
432.429
429.418
425.274
420.138
414.115
407.346
399.978
392.103
383.865
375.44
367
358.76
350.872
343.43
336.534
330.265
324.69
319.876
315.842
312.557
310.008
308.187
307.076
306.672
306.954
307.879
309.407
311.495
314.104
317.201
320.756
324.732
329.099
333.823
338.88
344.249
349.905
355.813
361.934
368.229
374.658
381.183
387.764
394.356
400.919
407.414
413.805
420.055
426.128
431.988
437.596
442.919
447.921
452.568
456.825
460.662
464.047
466.951
469.345
471.201
472.493
473.195
473.279
472.721
471.498
469.588
466.97
463.626
459.539
454.696
449.085
442.698
435.526
427.566
418.816
409.278
398.956
387.855
375.985
363.358
349.989
335.896
321.101
305.626
289.5
272.752
255.414
237.522
219.114
200.231
180.915
161.211
141.166
120.83
100.254
79.488
58.587
37.603
16.59
-4.398
-25.307
-46.083
-66.675
-87.03
-107.099
-126.833
-146.186
-165.113
-183.572
-201.527
-218.94
-235.782
-252.023
-267.637
-282.602
-296.899
-310.513
-323.432
-335.646
-347.151
-357.943
-368.025
-377.402
-386.083
-394.076
-401.396
-408.057
-414.075
-419.469
-424.256
-428.457
-432.093
-435.185
-437.758
-439.839
-441.451
-442.623
-443.378
-443.744
-443.747
-443.41
-442.754
-441.801
-440.566
-439.07
-437.331
-435.365
-433.188
-430.817
-428.265
-425.548
-422.683
-419.679
-416.547
-413.298
-409.941
-406.49
-402.955
-399.35
-395.689
-391.991
-388.278
-384.573
-380.895
-377.264
-373.697
-370.211
-366.824
-363.553
-360.404
-357.385
-354.5
-351.761
-349.19
-346.813
-344.656
-342.745
-341.11
-339.786
-338.82
-338.247
-338.074
-338.308
-338.944
-339.983
-341.464
-343.412
-345.826
-348.709
-352.041
-355.785
-359.916
-364.348
-368.925
-373.492
-377.865
-381.902
-385.572
-388.822
-391.621
-393.982
-395.835
-397.181
-398.09
-398.475
-398.296
-397.592
-396.376
-394.895
-393.542
-392.48
-391.976
-392.453
-393.899
-396.209
-398.99
-401.156
-402.124
-401.997
-400.744
-398.287
-394.821
-390.818
-387.538
-387.023
-390.213
-394.511
-396.696
-396.32
-391.919
-386.087
-380.92
-367.512
-340.71
-295.489
-226.744
-144.816
-58.051
28.005
104.543
172.613
234.136
288.584
338.895
385.349
427.021
464.393
497.28
526.122
551.678
574.049
592.941
607.551
617.335
622.274
622.641
619.079
612.367
603.198
592.174
579.953
567.099
554.144
541.709
530.158
519.672
510.379
502.288
495.439
489.938
485.804
482.89
480.995
479.825
479.046
478.515
478.116
477.709
477.178
476.347
475.096
473.431
471.41
469.075
466.466
463.595
460.487
457.268
454.08
451.067
448.397
446.155
444.392
443.17
442.52
442.461
442.999
444.096
445.679
447.701
450.121
452.893
455.979
459.309
462.802
466.384
469.978
473.516
476.939
480.187
483.208
485.962
488.411
490.53
492.3
493.697
494.696
495.273
495.405
495.07
494.257
492.952
491.145
488.833
486.016
482.7
478.897
474.619
469.881
464.701
459.1
453.099
446.722
439.998
432.954
425.621
418.031
410.215
402.204
394.031
385.728
377.326
368.854
360.339
351.81
343.292
334.811
326.391
318.057
309.829
301.727
293.772
285.981
278.369
270.95
263.738
256.74
249.966
243.42
237.108
231.032
225.194
219.593
214.228
209.099
204.201
199.533
195.091
190.871
186.87
183.083
179.508
176.139
172.973
170.006
167.233
164.65
162.253
160.037
157.996
156.125
154.418
152.868
151.468
150.211
149.089
148.092
147.212
146.439
145.762
145.17
144.651
144.192
143.779
143.399
143.035
142.671
142.289
141.87
141.393
140.836
140.177
139.391
138.454
137.34
136.024
134.481
132.686
130.613
128.239
125.543
122.504
119.103
115.323
111.152
106.577
101.591
96.19
90.372
84.139
77.497
70.457
63.032
55.24
47.102
38.644
29.896
20.891
11.667
2.268
-7.26
-16.867
-26.497
-36.092
-45.59
-54.925
-64.03
-72.835
-81.269
-89.259
-96.732
-103.617
-109.841
-115.336
-120.032
-123.866
-126.775
-128.704
-129.599
-129.412
-128.103
-125.634
-121.975
-117.104
-111.003
-103.661
-95.076
-85.252
-74.2
-61.937
-48.491
-33.896
-18.191
-1.427
16.342
35.051
54.63
75.004
96.089
117.798
140.039
162.714
185.725
208.968
232.338
255.731
279.039
302.159
324.984
347.415
369.351
390.697
411.362
431.258
450.303
468.421
485.543
501.602
516.541
530.31
542.864
554.166
564.187
572.907
580.31
586.393
591.156
594.612
596.777
597.677
597.345
595.821
593.151
589.387
584.589
578.819
572.144
564.636
556.369
547.421
537.87
527.797
517.283
506.406
495.248
483.887
472.4
460.862
449.346
437.922
426.655
415.609
404.844
394.412
384.366
374.75
365.605
356.965
348.859
341.312
334.341
327.959
322.172
316.98
312.379
308.358
304.902
301.99
299.597
297.693
296.244
295.213
294.559
294.239
294.206
294.412
294.809
295.344
295.966
296.623
297.262
297.83
298.276
298.549
298.598
298.375
297.835
296.932
295.625
293.875
291.648
288.911
285.635
281.797
277.376
272.357
266.728
260.482
253.617
246.135
238.042
229.349
220.071
210.229
199.844
188.945
177.562
165.729
153.483
140.864
127.915
114.68
101.206
87.542
73.738
59.845
45.914
31.998
18.149
4.418
-9.144
-22.486
-35.56
-48.321
-60.724
-72.729
-84.296
-95.392
-105.985
-116.047
-125.556
-134.493
-142.843
-150.596
-157.748
-164.297
-170.248
-175.61
-180.395
-184.622
-188.313
-191.495
-194.198
-196.457
-198.31
-199.799
-200.97
-201.869
-202.548
-203.059
-203.458
-203.8
-204.144
-204.547
-205.068
-205.767
-206.701
-207.927
-209.5
-211.474
-213.901
-216.827
-220.298
-224.356
-229.037
-234.376
-240.401
-247.137
-254.603
-262.814
-271.78
-281.505
-291.989
-303.225
-315.202
-327.904
-341.31
-355.395
-370.127
-385.473
-401.392
-417.842
-434.776
-452.143
-469.889
-487.958
-506.291
-524.825
-543.499
-562.248
-581.009
-599.716
-618.307
-636.717
-654.886
-672.755
-690.264
-707.361
-723.992
-740.11
-755.67
-770.632
-784.96
-798.622
-811.593
-823.85
-835.377
-846.163
-856.199
-865.484
-874.021
-881.817
-888.883
-895.237
-900.9
-905.897
-910.258
-914.017
-917.211
-919.88
-922.068
-923.82
-925.185
-926.21
-926.946
-927.444
-927.753
-927.924
-928.006
-928.047
-928.092
-928.184
-928.364
-928.667
-929.125
-929.768
-930.617
-931.693
-933.009
-934.574
-936.392
-938.462
-940.778
-943.328
-946.095
-949.057
-952.187
-955.452
-958.814
-962.23
-965.653
-969.029
-972.304
-975.418
-978.306
-980.903
-983.14
-984.945
-986.248
-986.973
-987.048
-986.399
-984.954
-982.642
-979.396
-975.15
-969.844
-963.422
-955.83
-947.023
-936.959
-925.603
-912.926
-898.904
-883.521
-866.769
-848.644
-829.153
-808.307
-786.128
-762.643
-737.887
-711.903
-684.741
-656.458
-627.118
-596.791
-565.555
-533.493
-500.693
-467.248
-433.258
-398.824
-364.05
-329.045
-293.917
-258.776
-223.73
-188.889
-154.359
-120.244
-86.647
-53.667
-21.396
10.074
40.66
70.282
98.867
126.348
152.667
177.769
201.609
224.15
245.361
265.219
283.709
300.824
316.565
330.94
343.966
355.667
366.074
375.225
383.167
389.949
395.629
400.268
403.934
406.695
408.626
409.803
410.302
410.203
409.586
408.53
407.114
405.416
403.512
401.476
399.379
397.29
395.273
393.39
391.698
390.25
389.095
388.278
387.838
387.81
388.223
389.102
390.466
392.33
394.702
397.586
400.981
404.882
409.279
414.156
419.495
425.274
431.467
438.046
444.98
452.235
459.777
467.569
475.573
483.753
492.07
500.486
508.964
517.466
525.958
534.404
542.77
551.025
559.136
567.074
574.812
582.324
589.585
596.574
603.271
609.656
615.715
621.434
626.801
631.806
636.443
640.707
644.595
648.107
651.244
654.011
656.413
658.456
660.15
661.505
662.532
663.242
663.649
663.766
663.607
663.186
662.519
661.62
660.504
659.187
657.683
656.01
654.182
652.215
650.126
647.929
645.642
643.281
640.86
638.397
635.908
633.407
630.91
628.43
625.982
623.579
621.231
618.95
616.746
614.628
612.603
610.677
608.856
607.146
605.548
604.065
602.699
601.449
600.316
599.297
598.39
597.592
596.897
596.301
595.797
595.376
595.029
594.747
594.517
594.326
594.159
594.002
593.837
593.646
593.411
593.112
592.729
592.242
591.63
590.872
589.948
588.836
587.516
585.969
584.176
582.119
579.78
577.143
574.193
570.915
567.298
563.328
558.995
554.29
549.205
543.734
537.872
531.615
524.961
517.912
510.469
502.637
494.421
485.829
476.872
467.559
457.906
447.925
437.634
427.05
416.192
405.079
393.732
382.172
370.419
358.496
346.421
334.217
321.902
309.496
297.015
284.476
271.894
259.283
246.655
234.019
221.385
208.757
196.14
183.536
170.944
158.362
145.784
133.203
120.608
107.988
95.329
82.614
69.824
56.938
43.936
30.792
17.482
3.979
-9.742
-23.711
-37.953
-52.496
-67.366
-82.589
-98.188
-114.184
-130.598
-147.448
-164.747
-182.508
-200.739
-219.444
-238.623
-258.273
-278.386
-298.949
-319.946
-341.355
-363.149
-385.299
-407.768
-430.517
-453.503
-476.677
-499.988
-523.38
-546.794
-570.168
-593.436
-616.533
-639.387
-661.929
-684.086
-705.787
-726.96
-747.533
-767.435
-786.598
-804.954
-822.44
-838.995
-854.562
-869.086
-882.519
-894.819
-905.948
-915.873
-924.57
-932.019
-938.207
-943.13
-946.788
-949.188
-950.345
-950.278
-949.015
-946.588
-943.037
-938.406
-932.744
-926.109
-918.559
-910.16
-900.981
-891.092
-880.569
-869.487
-857.925
-845.961
-833.677
-821.151
-808.465
-795.696
-782.923
-770.222
-757.668
-745.329
-733.272
-721.558
-710.245
-699.384
-689.022
-679.196
-669.943
-661.291
-653.267
-645.889
-639.175
-633.132
-627.767
-623.08
-619.065
-615.713
-613.006
-610.925
-609.443
-608.533
-608.165
-608.308
-608.927
-609.987
-611.451
-613.281
-615.44
-617.89
-620.592
-623.503
-626.582
-629.793
-633.101
-636.474
-639.882
-643.301
-646.713
-650.11
-653.482
-656.818
-660.113
-663.36
-666.552
-669.684
-672.745
-675.723
-678.612
-681.42
-684.158
-686.848
-689.515
-692.185
-694.889
-697.66
-700.526
-703.513
-706.629
-709.863
-713.214
-716.686
-720.297
-724.092
-728.088
-732.261
-736.599
-741.082
-745.659
-750.268
-754.783
-759.001
-762.779
-766.018
-768.657
-770.703
-772.142
-772.937
-773.081
-772.57
-771.421
-769.701
-767.42
-764.534
-761.077
-757.118
-752.848
-748.633
-744.684
-741.063
-737.801
-734.828
-732.077
-729.536
-727.013
-724.157
-720.644
-716.104
-710.259
-702.964
-693.921
-682.747
-668.965
-651.922
-631.183
-606.565
-577.856
-544.919
-507.642
-465.841
-419.677
-369.665
-316.266
-259.979
-201.279
-140.516
-78.27
-15.318
47.592
109.648
170.216
228.907
285.224
338.639
388.656
434.708
476.559
514.348
548.157
578.082
604.29
626.906
646.296
663.073
677.711
690.604
702.062
712.223
721.347
729.797
737.895
746.002
754.32
762.84
771.603
780.672
790.005
799.542
809.07
818.193
826.666
834.378
841.256
847.318
852.538
856.818
860.116
862.408
863.693
864.017
863.408
861.866
859.464
856.314
852.588
848.537
844.338
840.094
835.896
831.799
827.856
824.132
820.656
817.422
814.441
811.736
809.332
807.27
805.562
804.197
803.156
802.402
801.906
801.647
801.605
801.76
802.098
802.605
803.279
804.127
805.145
806.321
807.64
809.079
810.616
812.234
813.908
815.614
817.331
819.04
820.727
822.379
823.981
825.52
826.983
828.357
829.631
830.792
831.83
832.733
833.495
834.108
834.568
834.871
835.015
834.996
834.815
834.472
833.967
833.303
832.481
831.503
830.374
829.1
827.689
826.149
824.49
822.723
820.86
818.915
816.901
814.828
812.71
810.555
808.376
806.183
803.985
801.792
799.611
797.451
795.318
793.221
791.163
789.147
787.177
785.252
783.371
781.53
779.724
777.946
776.186
774.431
772.666
770.876
769.04
767.136
765.139
763.024
760.76
758.316
755.66
752.757
749.571
746.065
742.203
737.947
733.259
728.102
722.44
716.236
709.455
702.063
694.028
685.319
675.909
665.771
654.882
643.224
630.781
617.541
603.497
588.647
572.993
556.542
539.308
521.307
502.564
483.108
462.972
442.196
420.826
398.91
376.505
353.668
330.463
306.956
283.219
259.322
235.341
211.354
187.438
163.674
140.143
116.924
94.099
71.748
49.951
28.784
8.323
-11.36
-30.195
-48.118
-65.066
-80.983
-95.819
-109.527
-122.068
-133.407
-143.517
-152.378
-159.975
-166.301
-171.356
-175.146
-177.685
-178.992
-179.093
-178.021
-175.812
-172.511
-168.165
-162.827
-156.554
-149.409
-141.458
-132.769
-123.416
-113.476
-103.026
-92.149
-80.927
-69.445
-57.788
-46.041
-34.292
-22.623
-11.121
0.132
11.055
21.568
31.594
41.059
49.893
58.027
65.398
71.946
77.614
82.353
86.114
88.854
90.532
91.114
90.568
88.868
85.99
81.917
76.635
70.136
62.418
53.484
43.344
32.011
19.503
5.846
-8.931
-24.79
-41.694
-59.597
-78.452
-98.206
-118.801
-140.176
-162.268
-185.009
-208.33
-232.159
-256.422
-281.043
-305.944
-331.05
-356.281
-381.558
-406.797
-431.916
-456.832
-481.464
-505.732
-529.557
-552.861
-575.573
-597.627
-618.964
-639.528
-659.272
-678.153
-696.138
-713.204
-729.335
-744.516
-758.743
-772.016
-784.342
-795.737
-806.22
-815.81
-824.535
-832.435
-839.557
-845.961
-851.709
-856.864
-861.494
-865.68
-869.509
-873.082
-876.491
-879.823
-883.177
-886.666
-890.423
-894.596
-899.296
-904.595
-910.547
-917.192
-924.552
-932.636
-941.403
-950.76
-960.628
-970.955
-981.731
-992.969
-1004.637
-1016.657
-1028.913
-1041.285
-1053.735
-1066.288
-1078.973
-1091.839
-1104.989
-1118.574
-1132.885
-1148.278
-1164.979
-1183.102
-1202.628
-1223.453
-1245.515
-1268.791
-1293.239
-1318.785
-1345.25
-1372.344
-1399.738
-1427.095
-1454.041
-1480.043
-1504.316
-1525.968
-1544.091
-1557.984
-1567.361
-1571.703
-1570.063
-1562.008
-1547.287
-1525.345
-1496.778
-1460.85
-1414.622
-1359.438
-1298.44
-1236.315
-1182.765
-1138.165
-1093.876
-1040.72
-965.471
-866.873
-757.831
-650.306
-556.219
-477.899
-407.669
-341.501
-277.532
-217.596
-165.891
-121.901
-83.969
-51.167
-21.815
4.739
29.176
53.688
79.033
104.135
128.437
151.521
173.206
194.164
214.662
234.163
252.764
271.146
289.688
308.827
328.738
349.089
369.744
390.702
411.76
432.625
452.974
472.466
490.91
508.221
524.265
538.946
552.194
563.965
574.313
583.293
590.957
597.382
602.658
606.91
610.285
612.944
615.059
616.776
618.206
619.448
620.584
621.674
622.769
623.906
625.086
626.321
627.625
629.007
630.475
632.032
633.666
635.362
637.105
638.88
640.682
642.505
644.347
646.21
648.094
650.003
651.947
653.927
655.939
657.974
660.018
662.055
664.069
666.042
667.953
669.778
671.498
673.089
674.531
675.802
676.875
677.724
678.322
678.641
678.654
678.333
677.651
676.582
675.098
673.175
670.788
667.913
664.527
660.608
656.137
651.095
645.467
639.24
632.403
624.949
616.874
608.176
598.857
588.924
578.384
567.25
555.539
543.271
530.468
517.158
503.37
489.136
474.493
459.484
444.153
428.543
412.702
396.681
380.536
364.325
348.112
331.955
315.909
300.057
284.477
269.24
254.418
240.062
226.21
212.924
200.274
188.244
176.823
166.039
155.912
146.506
137.924
130.208
123.339
117.613
113.383
110.451
108.755
108.404
108.883
111.578
117.782
125.385
133.661
138.368
135.093
127.681
118.181
114.237
123.967
144.771
175.874
207.897
230.764
243.548
243.361
237.718
234.921
237.074
248.298
264.392
280.417
295.389
306.844
316.026
324.7
332.455
339.485
345.534
350.113
353.456
355.723
356.814
356.675
355.198
352.293
347.935
342.117
334.846
326.119
315.971
304.482
291.75
277.837
262.782
246.555
229.056
210.258
190.183
168.903
146.577
123.288
99.041
73.846
47.691
20.561
-7.513
-36.595
-66.841
-98.252
-130.709
-163.938
-197.467
-230.943
-264.131
-296.825
-328.913
-360.208
-390.427
-419.341
-446.747
-472.402
-496.084
-517.441
-535.97
-551.405
-563.671
-572.883
-579.417
-583.525
-585.322
-584.943
-582.483
-578.067
-571.891
-564.071
-554.646
-543.749
-531.55
-518.346
-504.593
-490.568
-476.386
-462.051
-447.388
-432.317
-416.871
-401.048
-384.854
-368.32
-351.473
-334.429
-317.396
-300.508
-283.847
-267.438
-251.214
-235.193
-219.469
-204.166
-189.463
-175.507
-162.399
-150.264
-139.235
-129.411
-120.867
-113.636
-107.694
-103.042
-99.692
-97.65
-96.931
-97.525
-99.393
-102.485
-106.737
-112.075
-118.423
-125.708
-133.857
-142.797
-152.449
-162.719
-173.506
-184.726
-196.322
-208.245
-220.453
-232.911
-245.616
-258.61
-271.996
-285.869
-300.271
-315.178
-330.515
-346.223
-362.251
-378.558
-395.097
-411.745
-428.362
-444.852
-461.155
-477.201
-492.859
-507.882
-521.912
-534.665
-546.004
-555.929
-564.543
-571.937
-578.256
-583.713
-588.619
-593.427
-598.552
-604.286
-610.846
-618.456
-627.425
-638.214
-651.396
-667.398
-686.466
-708.687
-734.03
-762.48
-793.915
-828.08
-864.55
-902.713
-942.031
-982.134
-1022.75
-1063.58
-1104.202
-1143.951
-1182.027
-1217.823
-1250.94
-1281.182
-1308.372
-1332.134
-1352.256
-1368.843
-1382.413
-1393.681
-1402.918
-1409.721
-1413.569
-1414.43
-1412.362
-1407.274
-1398.331
-1384.118
-1363.921
-1338.003
-1307.365
-1272.748
-1234.462
-1193.361
-1151.851
-1112.932
-1079.335
-1053.306
-1034.943
-1023.981
-1019.327
-1016.694
-1010.945
-998.634
-981.405
-964.017
-949.402
-933.231
-896.449
-818.245
-686.789
-500.902
-282.651
-61.786
137.236
292.656
398.814
459.538
483.17
483.925
476.22
475.656
491.617
529.182
585.705
647.74
705.033
748.366
774.934
792.362
806.038
820.033
835.443
848.452
857.724
863.94
868.218
872.735
878.326
884.577
891.376
898.587
906.073
913.876
921.795
929.536
936.938
943.817
950.049
955.547
960.141
963.712
966.202
967.557
967.827
967.144
965.622
963.405
960.66
957.501
954.075
950.554
947.106
943.935
941.198
939
937.436
936.579
936.479
937.183
938.694
940.965
943.961
947.644
951.969
956.905
962.404
968.396
974.813
981.579
988.622
995.879
1003.291
1010.792
1018.323
1025.826
1033.251
1040.556
1047.696
1054.618
1061.267
1067.591
1073.538
1079.064
1084.126
1088.681
1092.693
1096.132
1098.974
1101.203
1102.803
1103.76
1104.066
1103.717
1102.713
1101.059
1098.765
1095.844
1092.315
1088.2
1083.524
1078.316
1072.608
1066.431
1059.82
1052.811
1045.439
1037.745
1029.765
1021.54
1013.108
1004.508
995.78
986.961
978.086
969.191
960.307
951.468
942.701
934.034
925.491
917.096
908.869
900.829
892.992
885.373
877.982
870.826
863.913
857.245
850.824
844.646
838.709
833.008
827.534
822.28
817.237
812.392
807.734
803.25
798.929
794.758
790.724
786.819
783.032
779.358
775.792
772.333
768.979
765.731
762.593
759.569
756.664
753.883
751.231
748.714
746.34
744.118
742.059
740.175
738.479
736.983
735.703
734.651
733.841
733.288
733.002
732.995
733.279
733.86
734.745
735.942
737.459
739.298
741.459
743.936
746.708
749.765
753.097
756.654
760.388
764.245
768.153
772.074
775.99
779.827
783.514
787.064
790.464
793.697
796.765
799.564
801.936
803.85
805.297
805.948
805.445
803.882
801.185
797.238
792.561
785.47
774.338
761.345
747.109
735.669
731.852
730.133
726.861
716.614
691.988
659.638
625.223
592.676
568.433
548.038
526.997
504.483
477.939
449.154
420.296
390.925
361.281
331.411
300.942
269.643
237.107
203.033
167.565
131.669
95.145
55.456
11.193
-36.112
-79.444
-108.623
-119.395
-117.98
-121.667
-148.62
-206.207
-288.226
-376.132
-451.797
-506.934
-541.697
-564.483
-584.865
-605.808
-625.214
-634.346
-622.164
-586.367
-533.784
-481.761
-451.198
-452.27
-485.797
-542.167
-604.358
-660.116
-697.498
-706.455
-688.871
-650.573
-604.377
-571.136
-559.364
-570.256
-599.814
-631.972
-658.227
-675.934
-682.421
-684.245
-685.74
-687.491
-691.999
-697.908
-703.685
-709.924
-716.318
-723.019
-730.554
-738.705
-747.251
-756.246
-765.666
-775.487
-785.752
-796.439
-807.476
-818.848
-830.561
-842.572
-854.856
-867.394
-880.15
-893.101
-906.218
-919.458
-932.779
-946.135
-959.482
-972.793
-986.042
-999.221
-1012.328
-1025.362
-1038.323
-1051.215
-1064.041
-1076.801
-1089.499
-1102.13
-1114.691
-1127.177
-1139.59
-1151.931
-1164.209
-1176.429
-1188.601
-1200.739
-1212.859
-1224.983
-1237.136
-1249.335
-1261.596
-1273.933
-1286.354
-1298.865
-1311.468
-1324.153
-1336.91
-1349.738
-1362.638
-1375.614
-1388.677
-1401.831
-1415.079
-1428.427
-1441.874
-1455.404
-1468.996
-1482.607
-1496.182
-1509.69
-1523.11
-1536.431
-1549.664
-1562.793
-1575.784
-1588.611
-1601.22
-1613.515
-1625.368
-1636.585
-1646.957
-1656.341
-1664.634
-1671.772
-1677.757
-1682.565
-1686.176
-1688.614
-1689.851
-1689.862
-1688.647
-1686.136
-1682.281
-1677.159
-1670.927
-1663.861
-1656.313
-1648.499
-1640.545
-1632.554
-1624.503
-1616.336
-1607.951
-1599.096
-1589.491
-1578.857
-1566.868
-1553.31
-1538.078
-1520.984
-1501.664
-1479.532
-1454.039
-1425.04
-1392.789
-1357.559
-1319.319
-1277.612
-1232.067
-1183.03
-1130.848
-1075.354
-1015.714
-950.768
-880.335
-805.947
-729.919
-653.901
-579.362
-507.989
-442.204
-385.176
-338.696
-302.094
-273.169
-249.976
-231.088
-215.335
-201.064
-185.781
-167.93
-147.722
-126.604
-105.933
-86.287
-67.691
-50.128
-33.99
-19.467
-6.171
6.76
20.079
34.015
48.433
62.936
77.176
90.987
104.226
116.741
128.444
139.27
149.118
157.926
165.674
172.314
177.887
182.44
185.918
188.349
190.026
191.412
192.836
194.396
195.621
195.671
194.425
192.107
188.645
184.481
180.474
177.18
176.663
180.358
186.07
194.135
206.474
225.939
260.108
307.365
355.954
393.168
403.974
387.252
357.074
326.302
307.747
304.599
309.268
318.301
329.089
340.75
356.166
374.666
394.462
414.981
434.755
452.779
468.998
483.173
495.525
507.097
518.508
529.9
541.323
552.599
563.6
574.389
584.936
595.058
604.644
613.657
622.13
630.198
637.938
645.358
652.445
659.166
665.51
671.487
677.108
682.385
687.329
691.946
696.248
700.251
703.969
707.418
710.608
713.542
716.23
718.695
720.964
723.074
725.058
726.94
728.746
730.497
732.217
733.926
735.645
737.389
739.172
741.007
742.905
744.88
746.937
749.08
751.312
753.629
756.026
758.498
761.035
763.625
766.256
768.911
771.571
774.218
776.83
779.384
781.857
784.225
786.462
788.546
790.452
792.155
793.632
794.863
795.826
796.502
796.875
796.928
796.649
796.027
795.054
793.725
792.036
789.986
787.578
784.815
781.706
778.257
774.482
770.392
766.004
761.334
756.4
751.222
745.821
740.216
734.429
728.482
722.394
716.185
709.875
703.479
697.013
690.493
683.928
677.329
670.703
664.055
657.387
650.699
643.989
637.251
630.478
623.659
616.784
609.836
602.802
595.662
588.398
580.989
573.416
565.656
557.689
549.492
541.046
532.329
523.323
514.011
504.378
494.41
484.097
473.432
462.411
451.033
439.3
427.22
414.804
402.064
389.019
375.692
362.106
348.292
334.281
320.108
305.813
291.436
277.019
262.61
248.253
233.996
219.89
205.981
192.32
178.955
165.932
153.298
141.098
129.372
118.162
107.502
97.428
87.968
79.147
70.989
63.508
56.718
50.625
45.234
40.542
36.542
33.223
30.569
28.561
27.174
26.38
26.147
26.441
27.223
28.451
30.084
32.075
34.377
36.944
39.725
42.673
45.738
48.873
52.029
55.161
58.225
61.177
63.978
66.589
68.975
71.106
72.95
74.484
75.686
76.536
77.02
77.126
76.844
76.169
75.098
73.63
71.768
69.516
66.882
63.873
60.501
56.779
52.72
48.34
43.654
38.681
33.436
27.937
22.203
16.251
10.098
3.762
-2.742
-9.396
-16.186
-23.097
-30.116
-37.23
-44.429
-51.701
-59.037
-66.429
-73.868
-81.346
-88.853
-96.382
-103.922
-111.464
-118.996
-126.506
-133.981
-141.407
-148.768
-156.046
-163.224
-170.28
-177.194
-183.942
-190.499
-196.839
-202.934
-208.756
-214.276
-219.461
-224.282
-228.707
-232.703
-236.237
-239.276
-241.787
-243.738
-245.094
-245.826
-245.901
-245.291
-243.969
-241.911
-239.098
-235.51
-231.136
-225.965
-219.993
-213.219
-205.648
-197.288
-188.155
-178.269
-167.654
-156.341
-144.366
-131.769
-118.597
-104.9
-90.732
-76.153
-61.224
-46.013
-30.587
-15.019
0.616
16.24
31.775
47.139
62.249
77.022
91.373
105.22
118.481
131.075
142.925
153.955
164.094
173.273
181.431
188.508
194.451
199.213
202.753
205.037
206.036
205.731
204.11
201.166
196.901
191.325
184.452
176.307
166.917
156.32
144.556
131.674
117.728
102.779
86.893
70.141
52.599
34.347
15.47
-3.944
-23.806
-44.023
-64.501
-85.145
-105.861
-126.552
-147.124
-167.483
-187.539
-207.202
-226.386
-245.011
-262.998
-280.275
-296.776
-312.438
-327.206
-341.03
-353.865
-365.674
-376.424
-386.088
-394.648
-402.089
-408.405
-413.595
-417.663
-420.623
-422.49
-423.288
-423.045
-421.794
-419.571
-416.42
-412.385
-407.515
-401.864
-395.487
-388.441
-380.787
-372.587
-363.902
-354.795
-345.328
-335.564
-325.561
-315.379
-305.075
-294.701
-284.312
-273.957
-263.682
-253.531
-243.546
-233.765
-224.22
-214.945
-205.964
-197.303
-188.982
-181.019
-173.427
-166.218
-159.401
-152.982
-146.965
-141.351
-136.139
-131.325
-126.905
-122.872
-119.215
-115.927
-112.995
-110.409
-108.156
-106.227
-104.609
-103.292
-102.266
-101.522
-101.05
-100.845
-100.899
-101.207
-101.766
-102.573
-103.627
-104.929
-106.48
-108.282
-110.34
-112.658
-115.24
-118.092
-121.22
-124.628
-128.324
-132.311
-136.595
-141.182
-146.076
-151.282
-156.803
-162.64
-168.796
-175.269
-182.059
-189.161
-196.57
-204.28
-212.28
-220.561
-229.108
-237.907
-246.938
-256.181
-265.614
-275.211
-284.947
-294.79
-304.711
-314.675
-324.648
-334.593
-344.474
-354.252
-363.887
-373.339
-382.568
-391.534
-400.196
-408.516
-416.452
-423.966
-431.021
-437.581
-443.611
-449.077
-453.946
-458.189
-461.78
-464.692
-466.904
-468.396
-469.151
-469.158
-468.41
-466.9
-464.629
-461.597
-457.81
-453.278
-448.014
-442.035
-435.364
-428.022
-420.04
-411.451
-402.29
-392.599
-382.419
-371.796
-360.776
-349.411
-337.752
-325.854
-313.773
-301.565
-289.292
-277.019
-264.808
-252.72
-240.82
-229.172
-217.843
-206.897
-196.39
-186.372
-176.894
-168.011
-159.772
-152.224
-145.403
-139.334
-134.048
-129.586
-125.982
-123.266
-121.454
-120.546
-120.547
-121.467
-123.315
-126.093
-129.783
-134.338
-139.725
-145.937
-152.977
-160.861
-169.552
-178.943
-188.938
-199.468
-210.455
-221.822
-233.468
-245.225
-256.975
-268.664
-280.245
-291.723
-303.051
-314.086
-324.658
-334.526
-343.505
-351.581
-358.776
-365.097
-370.597
-375.229
-378.889
-381.807
-384.224
-386.069
-387.085
-386.5
-383.457
-377.847
-370.2
-360.902
-349.926
-337.55
-324.256
-311.581
-302.059
-295.22
-289.327
-284.825
-280.85
-280.465
-287.039
-292.712
-290.824
-273.242
-231.257
-172.941
-106.192
-37.249
24.353
79.748
129.99
172.203
206.03
229.714
242.535
247.235
247.205
245.303
244.004
245.635
252.35
264.96
283.27
305.894
330.193
354.562
378.253
400.337
420.089
437.099
451.061
462.31
471.892
480.346
487.803
494.366
499.911
504.424
508.08
510.909
512.797
513.727
513.728
512.88
511.386
509.384
506.947
504.151
501.038
497.666
494.122
490.486
486.821
483.185
479.611
476.122
472.745
469.506
466.426
463.518
460.783
458.22
455.842
453.669
451.724
450.021
448.561
447.341
446.352
445.588
445.039
444.691
444.524
444.516
444.645
444.89
445.228
445.635
446.081
446.539
446.978
447.369
447.684
447.896
447.977
447.901
447.646
447.19
446.514
445.599
444.429
442.99
441.269
439.257
436.944
434.323
431.388
428.134
424.56
420.668
416.46
411.941
407.118
402
396.599
390.927
385
378.833
372.444
365.851
359.076
352.138
345.06
337.864
330.573
323.209
315.795
308.352
300.902
293.466
286.062
278.71
271.427
264.227
257.128
250.14
243.276
236.547
229.961
223.524
217.244
211.122
205.162
199.363
193.723
188.238
182.905
177.715
172.659
167.728
162.91
158.191
153.556
148.99
144.476
139.995
135.53
131.061
126.569
122.034
117.437
112.759
107.983
103.089
98.063
92.888
87.551
82.037
76.336
70.437
64.331
58.009
51.468
44.701
37.708
30.487
23.041
15.374
7.49
-0.604
-8.897
-17.381
-26.041
-34.865
-43.837
-52.943
-62.164
-71.482
-80.877
-90.329
-99.817
-109.321
-118.819
-128.29
-137.713
-147.07
-156.34
-165.505
-174.548
-183.451
-192.197
-200.768
-209.149
-217.324
-225.277
-232.995
-240.467
-247.683
-254.634
-261.315
-267.722
-273.851
-279.7
-285.27
-290.562
-295.577
-300.316
-304.783
-308.982
-312.918
-316.599
-320.031
-323.224
-326.186
-328.928
-331.46
-333.794
-335.941
-337.914
-339.723
-341.381
-342.904
-344.307
-345.613
-346.844
-348.024
-349.177
-350.328
-351.507
-352.739
-354.045
-355.439
-356.928
-358.52
-360.224
-362.044
-363.993
-366.087
-368.348
-370.809
-373.505
-376.476
-379.765
-383.405
-387.415
-391.809
-396.603
-401.822
-407.521
-413.747
-420.526
-427.883
-435.82
-444.313
-453.316
-462.743
-472.449
-482.275
-492.059
-501.654
-510.969
-519.944
-528.525
-536.644
-544.16
-550.947
-556.967
-562.249
-566.895
-571.067
-574.941
-578.719
-582.774
-587.593
-593.414
-600.214
-607.685
-615.204
-622.234
-628.638
-634.398
-639.362
-643.984
-649.19
-656.192
-666.857
-682.479
-703.041
-727.84
-755.708
-784.087
-809.62
-828.462
-835.661
-827.567
-802.593
-759.888
-699.801
-624.595
-537.417
-442.695
-346.594
-253.585
-166.128
-86.597
-16.331
44.352
95.15
137.514
174.838
208.996
240.433
269.703
296.827
322.162
347.013
371.335
393.62
413.189
430.014
444.39
457.162
468.571
478.062
485.733
492.414
498.845
505.818
513.755
522.507
532.054
542.524
553.863
565.883
578.292
590.588
602.313
613.26
623.325
632.501
640.812
648.191
654.525
659.726
663.778
666.702
668.521
669.255
668.912
667.557
665.329
662.441
659.121
655.522
651.734
647.807
643.777
639.696
635.616
631.56
627.513
623.472
619.449
615.469
611.568
607.755
604.014
600.314
596.621
592.916
589.189
585.431
581.635
577.796
573.918
570.021
566.128
562.259
558.425
554.635
550.898
547.224
543.627
540.121
536.716
533.429
530.279
527.286
524.477
521.874
519.501
517.38
515.535
513.988
512.76
511.872
511.339
511.18
511.409
512.041
513.089
514.559
516.458
518.788
521.547
524.731
528.329
532.326
536.701
541.432
546.493
551.852
557.477
563.328
569.365
575.543
581.815
588.131
594.435
600.671
606.779
612.696
618.361
623.708
628.674
633.192
637.198
640.63
643.425
645.525
646.87
647.407
647.082
645.849
643.662
640.482
636.274
631.007
624.656
617.2
608.626
598.923
588.089
576.126
563.04
548.844
533.557
517.202
499.806
481.403
462.031
441.732
420.553
398.543
375.757
352.253
328.09
303.332
278.043
252.292
226.146
199.673
172.945
146.031
119
91.921
64.863
37.894
11.077
-15.521
-41.839
-67.816
-93.396
-118.522
-143.142
-167.206
-190.668
-213.484
-235.613
-257.019
-277.668
-297.528
-316.571
-334.772
-352.11
-368.565
-384.122
-398.769
-412.496
-425.298
-437.173
-448.12
-458.143
-467.248
-475.442
-482.737
-489.145
-494.682
-499.364
-503.211
-506.244
-508.487
-509.966
-510.708
-510.742
-510.097
-508.802
-506.888
-504.386
-501.325
-497.737
-493.65
-489.096
-484.103
-478.703
-472.928
-466.807
-460.372
-453.653
-446.678
-439.476
-432.07
-424.484
-416.74
-408.858
-400.856
-392.753
-384.564
-376.306
-367.993
-359.638
-351.25
-342.838
-334.41
-325.969
-317.519
-309.062
-300.601
-292.139
-283.681
-275.233
-266.803
-258.402
-250.044
-241.744
-233.518
-225.379
-217.339
-209.408
-201.594
-193.901
-186.338
-178.91
-171.63
-164.519
-157.602
-150.914
-144.492
-138.378
-132.61
-127.223
-122.242
-117.695
-113.599
-109.967
-106.825
-104.205
-102.148
-100.715
-99.949
-99.871
-100.475
-101.731
-103.562
-105.864
-108.52
-111.408
-114.445
-117.584
-120.816
-124.173
-127.686
-131.396
-135.298
-139.326
-143.421
-147.529
-151.63
-155.735
-159.942
-164.406
-169.308
-174.859
-181.152
-188.173
-195.811
-203.861
-212.097
-220.237
-228.021
-235.209
-241.548
-246.844
-250.938
-253.718
-254.892
-253.956
-250.495
-244.318
-235.691
-225.064
-212.599
-197.985
-180.877
-161.506
-139.994
-115.939
-88.16
-55.088
-16.197
27.37
73.54
120.85
168.117
213.823
255.732
291.036
318.268
338.34
353.758
366.606
378.182
389.538
402.038
417.7
437.798
461.829
487.968
514.619
540.967
566.717
591.662
615.102
636.393
655.601
673.376
690.303
706.631
722.296
737.059
750.907
763.974
776.304
787.859
798.591
808.484
817.608
826.112
834.112
841.679
848.864
855.699
862.235
868.549
874.721
880.818
886.895
892.986
899.11
905.283
911.518
917.817
924.164
930.559
937.026
943.587
950.281
957.124
964.084
971.154
978.367
985.658
992.882
999.927
1006.681
1013.107
1019.314
1025.304
1030.878
1036.165
1041.696
1047.528
1053.437
1059.43
1064.811
1070.697
1080.523
1093.404
1106.169
1113.407
1105.094
1082.01
1053.927
1030.739
1026.585
1041.969
1063.57
1081.116
1083.331
1068.585
1047.068
1024.688
1005.261
989.591
973.135
954.139
933.494
911.384
888.208
864.546
840.667
817.347
796.193
777.282
758.903
740.183
720.966
700.539
678.253
652.985
622.552
586.821
547.971
507.367
465.861
424.432
383.492
344.045
308.106
276.034
246.471
218.564
191.642
165.251
139.632
114.54
89.088
63.136
37.213
11.653
-13.215
-37.295
-60.918
-84.191
-106.972
-129.307
-151.337
-173.188
-195.056
-216.985
-238.824
-260.457
-281.77
-302.556
-322.607
-341.656
-359.34
-375.446
-389.863
-402.479
-413.276
-422.224
-429.247
-434.386
-437.738
-439.415
-439.666
-438.838
-437.338
-435.839
-435.138
-435.999
-439.227
-445.415
-454.96
-468.324
-485.888
-507.957
-534.866
-566.832
-603.998
-646.633
-694.897
-748.688
-807.695
-871.189
-938.151
-1007.65
-1078.839
-1151.048
-1223.737
-1296.227
-1367.771
-1437.683
-1505.405
-1570.528
-1632.279
-1689.27
-1740.052
-1783.392
-1818.771
-1846.75
-1867.816
-1881.697
-1888.606
-1889.442
-1885.334
-1878.252
-1869.204
-1856.977
-1840.747
-1820.868
-1797.19
-1769.295
-1736.143
-1694.431
-1641.968
-1579.775
-1508.539
-1428.642
-1341.597
-1248.907
-1153.8
-1063.046
-982.302
-914.09
-861.051
-824.649
-804.915
-802.375
-814.789
-835.829
-859.751
-882.237
-898.675
-906.439
-903.684
-887.341
-856.884
-815.031
-764.665
-709.351
-653.32
-598.895
-548.176
-504.443
-469.437
-443.321
-425.827
-415.181
-408.871
-405.671
-404.571
-404.155
-403.759
-403.012
-401.661
-400.367
-400.152
-401.437
-404.396
-409.066
-415.121
-422.322
-430.549
-439.488
-448.796
-458.273
-467.787
-477.324
-486.994
-496.848
-506.861
-516.974
-527.082
-537.085
-546.92
-556.53
-565.855
-574.842
-583.447
-591.639
-599.408
-606.75
-613.65
-620.083
-626.025
-631.456
-636.374
-640.797
-644.751
-648.26
-651.356
-654.074
-656.457
-658.558
-660.435
-662.14
-663.728
-665.253
-666.773
-668.341
-670.011
-671.832
-673.839
-676.067
-678.547
-681.303
-684.362
-687.759
-691.523
-695.691
-700.297
-705.362
-710.909
-716.953
-723.494
-730.533
-738.04
-745.964
-754.28
-762.969
-772.034
-781.518
-791.426
-801.694
-812.259
-823.019
-833.831
-844.577
-855.08
-865.101
-874.46
-883.023
-890.747
-897.677
-903.813
-909.046
-913.191
-915.973
-917.203
-916.867
-914.964
-911.543
-906.668
-900.39
-893.008
-884.919
-876.357
-867.214
-856.755
-844.06
-828.689
-810.505
-789.746
-767.188
-743.07
-718.25
-695.355
-676.223
-662.206
-652.907
-643.31
-630.605
-615.394
-600.297
-593.338
-593.659
-589.084
-564.329
-497.382
-381.61
-232.226
-70.874
69.477
166.465
221.076
241.935
249.716
263.647
287.963
321.546
357.631
389.442
417.469
445.498
477.242
514.229
555.102
596.857
637.353
676.022
712.42
745.949
776.299
803.363
827.588
850.001
871.164
891.147
909.96
927.571
943.939
958.949
972.392
983.982
993.553
1001.126
1006.801
1010.705
1012.952
1013.647
1012.852
1010.612
1006.982
1002.022
995.723
987.984
978.79
968.212
956.373
943.522
929.809
915.163
899.813
884.428
869.213
854.034
839.017
823.65
809.045
798.737
792.183
786.273
775.988
751.656
713.647
671.861
636.055
620.069
625.199
638.354
649.404
647.535
630.591
608.399
587.098
570.77
560.799
553.229
546.195
539.855
534.062
529.412
526.071
523.495
521.505
520.18
519.491
519.389
519.872
520.933
522.589
524.896
527.843
531.349
535.354
539.822
544.702
549.952
555.518
561.335
567.345
573.497
579.735
585.999
592.225
598.349
604.305
610.032
615.466
620.542
625.196
629.37
633.006
636.051
638.454
640.161
641.119
641.278
640.588
639.007
636.495
633.018
628.543
623.044
616.501
608.909
600.259
590.541
579.736
567.819
554.777
540.619
525.365
509.053
491.734
473.459
454.289
434.3
413.551
392.094
369.965
347.168
323.715
299.625
274.936
249.731
224.074
197.996
171.498
144.517
116.998
88.96
60.42
31.417
2.036
-27.728
-57.782
-87.803
-117.679
-147.454
-177.308
-207.895
-239.701
-272.451
-305.835
-339.517
-372.38
-403.373
-431.128
-453.087
-467.532
-474.497
-474.506
-469.128
-461.332
-453.478
-448.258
-449.772
-460.598
-481.231
-511.327
-548.613
-589.434
-631.268
-671.492
-706.625
-734.634
-754.759
-766.929
-772.809
-774.663
-773.431
-770.029
-765.766
-761.252
-757.051
-753.151
-748.184
-741.061
-731.882
-720.479
-706.379
-689.187
-667.809
-642.398
-615.042
-587.131
-559.274
-532.686
-508.575
-488.455
-474.82
-468.174
-466.638
-469.054
-474.618
-482.176
-491.084
-500.097
-507.033
-511.373
-514.245
-516.496
-518.884
-522.092
-526.427
-532.515
-541.425
-553.677
-568.788
-585.561
-602.731
-618.643
-630.69
-637.009
-636.035
-625.535
-607.19
-584.268
-557.117
-529.702
-503.663
-478.942
-466.308
-474.16
-509.391
-578.817
-672.817
-779.366
-886.96
-981.072
-1056.726
-1110.234
-1138.325
-1141.572
-1118.335
-1069.894
-1000.616
-916.385
-826.997
-740.963
-662.929
-596.456
-543.23
-503.158
-476.758
-461.876
-452.878
-445.717
-438.025
-427.901
-415.014
-399.031
-378.481
-353.839
-327.584
-301.098
-275.184
-250.332
-226.021
-202.325
-180.122
-159.39
-139.509
-120.216
-101.284
-82.8
-65.284
-48.923
-33.676
-19.726
-7.314
3.314
11.904
18.411
22.899
25.454
26.215
25.381
23.295
20.338
16.868
13.212
9.574
6.064
2.778
-0.241
-3.085
-5.906
-8.982
-12.661
-17.134
-22.642
-29.539
-38.273
-49.525
-63.982
-82.233
-104.866
-132.422
-165.309
-203.839
-248.141
-298.011
-353.122
-413.005
-477.083
-544.981
-616.244
-690.216
-766.075
-842.704
-918.893
-993.449
-1065.117
-1132.522
-1194.29
-1249.16
-1296.077
-1334.396
-1363.648
-1383.508
-1393.65
-1393.504
-1382.852
-1361.875
-1331.12
-1291.624
-1244.376
-1190.17
-1129.948
-1065.002
-996.186
-923.854
-847.866
-767.28
-681.65
-591.289
-497.093
-400.464
-303.514
-209.137
-120.451
-40.958
26.493
80.1
119.399
144.61
156.311
156.482
147.001
132.541
121.272
119.173
127.467
138.295
135.68
109.128
66.043
33.552
50.011
147.034
327.286
562.459
806.8
1006.796
1125.91
1155.966
1108.913
1023.39
946.704
914.399
951.406
1054.08
1196.402
1350.014
1480.853
1568.383
1612.243
1616.6
1599.405
1580.374
1565.686
1561.22
1567.116
1580.612
1609.154
1658.281
1722.364
1784.4
1814.694
1783.086
1682.505
1534.087
1378.779
1266.424
1229.816
1275.662
1391.67
1549.2
1716.874
1863.464
1957.222
1972.564
1895.327
1737.812
1537.919
1354.734
1250.801
1254.735
1361.102
1524.417
1675.707
1773.146
1799.398
1769.84
1726.311
1691.86
1675.422
1672.13
1662.091
1636.884
1598.48
1553.232
1511.428
1476.838
1445.294
1408.825
1361.443
1308.082
1264.719
1254.021
1298.367
1401.12
1543.025
1693.09
1808.987
1860.797
1842.918
1755.965
1620.263
1464.287
1307.966
1186.643
1126.563
1133.598
1212.372
1337.722
1472.492
1594.57
1672.35
1689.892
1650.542
1549.703
1404.698
1245.679
1097.638
999.98
979.242
1038.966
1172.368
1346.647
1517.2
1644.567
1693.985
1650.677
1521.151
1325.633
1100.222
886.453
723.178
640.238
641.634
709.026
808.387
901.59
971.113
1016.792
1049.307
1083.445
1119.866
1150.779
1168.94
1166.756
1143.09
1101.799
1044.807
975.586
900.619
825.394
754.897
694.276
645.692
609.796
588.853
583.178
589.942
606.459
628.948
652.419
674.562
694.116
708.062
714.661
714.281
706.508
693.654
681.873
671.792
660.858
645.607
614.299
563.378
503.492
448.27
422.496
441.835
496.005
565.166
617.915
630.874
607.42
561.316
511.371
468.055
425.413
378.762
332.704
303.909
316.796
379.52
475.422
570.486
622.238
608.619
537.891
436.969
343.188
279.436
247.558
237.547
233.624
229.688
226.413
227.206
238.754
260.149
291.273
333.286
376.495
413.709
436.398
433.565
411.244
377.673
339.807
307.72
279.913
253.678
230.404
210.095
195.432
187.827
185.271
185.39
186.323
187.091
187.144
185.787
182.45
176.934
169.693
161.792
153.784
145.698
137.52
129.104
120.453
111.696
102.781
93.517
83.84
73.804
63.482
52.981
42.419
31.908
21.574
11.568
1.972
-7.235
-16.039
-24.318
-32.256
-40.427
-48.928
-57.511
-66.314
-74.965
-84.633
-98.493
-115.238
-131.195
-140.839
-134.79
-114.486
-89.712
-71.094
-73.862
-99.113
-134.855
-170.72
-193.51
-200.893
-202.759
-204.287
-208.987
-216.662
-220.964
-220.064
-216.253
-210.749
-205.02
-200.164
-196.064
-193.585
-194.781
-199.835
-207.187
-215.919
-225.342
-235.052
-245.423
-256.188
-266.305
-275.685
-285.018
-294.734
-305.276
-316.717
-328.561
-340.772
-353.71
-367.413
-381.832
-396.858
-412.176
-427.773
-443.888
-460.541
-477.721
-495.644
-514.382
-533.763
-553.992
-575.319
-597.443
-622.191
-651.095
-681.947
-714.302
-744.074
-766.372
-786.889
-809.206
-838.853
-883.516
-936.406
-991.886
-1045.935
-1091.663
-1133.352
-1175.243
-1217.836
-1263.583
-1310.115
-1354.303
-1395.821
-1433.767
-1467.739
-1497.888
-1523.522
-1543.83
-1558.389
-1566.683
-1568.176
-1562.663
-1550.046
-1530.301
-1503.776
-1470.948
-1432.455
-1389.272
-1342.177
-1291.759
-1238.712
-1183.646
-1127.27
-1070.569
-1014.52
-960.148
-908.715
-861.362
-819.082
-782.817
-753.111
-730.247
-714.446
-705.695
-704.096
-709.949
-723.305
-744.05
-771.969
-806.518
-847.023
-892.698
-942.344
-994.603
-1048.234
-1102.024
-1155.074
-1206.75
-1256.221
-1302.589
-1344.789
-1381.543
-1411.981
-1435.497
-1451.342
-1458.936
-1458.09
-1448.989
-1432.758
-1411.052
-1384.628
-1354.022
-1320.126
-1283.101
-1242.861
-1199.683
-1152.174
-1100.14
-1047.293
-993.751
-937.467
-875.316
-799.159
-711.242
-625.103
-553.472
-509.472
-494.456
-495.83
-504.718
-516.523
-527.145
-534.985
-533.621
-511.802
-469.392
-416.017
-362.298
-320.95
-294.312
-274.165
-255.694
-234.903
-210.893
-187.494
-165.432
-144.015
-123.362
-102.964
-83.026
-64.334
-47.037
-31.11
-16.768
-4.136
6.802
16.181
24.306
31.449
37.719
43.129
47.681
51.432
54.467
56.871
58.717
60.055
60.929
61.395
61.504
61.295
60.797
60.021
58.962
57.632
56.054
54.259
52.287
50.168
47.921
45.568
43.124
40.602
38.011
35.353
32.626
29.826
26.948
23.986
20.934
17.781
14.517
11.129
7.6
3.921
0.079
-3.932
-8.12
-12.486
-17.036
-21.769
-26.683
-31.775
-37.042
-42.48
-48.083
-53.846
-59.758
-65.809
-71.983
-78.266
-84.642
-91.093
-97.597
-104.133
-110.675
-117.197
-123.673
-130.072
-136.362
-142.507
-148.472
-154.219
-159.713
-164.917
-169.793
-174.307
-178.431
-182.137
-185.404
-188.211
-190.541
-192.384
-193.735
-194.589
-194.94
-194.781
-194.105
-192.91
-191.198
-188.973
-186.233
-182.989
-179.258
-175.065
-170.452
-165.452
-160.095
-154.412
-148.435
-142.195
-135.736
-129.087
-122.269
-115.315
-108.268
-101.196
-94.199
-87.335
-80.621
-74.053
-67.592
-61.21
-54.903
-48.628
-42.308
-35.918
-29.457
-23.001
-16.709
-10.675
-4.934
0.525
5.793
10.882
15.714
20.211
24.271
27.784
30.681
32.793
33.847
33.728
32.446
30.167
27.266
23.991
20.469
16.796
12.976
9.091
5.324
1.807
-1.357
-4.019
-6.047
-7.165
-6.933
-5.144
-1.788
2.955
8.645
14.979
21.805
28.954
36.305
43.712
50.96
57.939
64.63
70.933
76.721
81.736
85.556
87.959
88.903
88.474
86.952
84.523
81.26
77.288
72.744
67.748
62.438
56.85
50.91
44.615
37.996
31.192
24.471
18.011
11.923
6.218
0.757
-4.516
-9.584
-14.469
-19.13
-23.642
-28.278
-32.899
-37.024
-40.254
-42.085
-42.54
-42.404
-41.955
-40.924
-39.731
-39.139
-40.048
-43.94
-50.8
-58.852
-67.173
-75.54
-83.143
-89.227
-92.575
-90.983
-84.357
-74.853
-63.772
-51.925
-40.234
-29.045
-19.347
-13.125
-10.627
-10.422
-11.592
-13.362
-15.237
-17.443
-19.697
-21.105
-21.575
-21.683
-21.852
-22.562
-24.004
-25.93
-28.316
-31.339
-35.026
-39.347
-44.252
-49.623
-55.449
-61.828
-68.819
-76.462
-84.772
-93.723
-103.312
-113.552
-124.453
-136.03
-148.296
-161.253
-174.908
-189.263
-204.31
-220.054
-236.496
-253.635
-271.471
-290.002
-309.224
-329.148
-349.786
-371.147
-393.241
-416.069
-439.615
-463.881
-488.877
-514.62
-541.147
-568.46
-596.518
-625.278
-654.694
-684.7
-715.229
-746.164
-777.33
-808.576
-839.766
-870.763
-901.462
-931.7
-961.263
-989.953
-1017.585
-1044.047
-1069.319
-1093.375
-1116.163
-1137.679
-1157.96
-1177.122
-1195.387
-1212.897
-1229.767
-1246.161
-1262.235
-1278.289
-1294.653
-1311.452
-1328.615
-1345.698
-1361.886
-1376.382
-1388.451
-1397.252
-1402.181
-1402.86
-1399.07
-1391.991
-1383.671
-1375.366
-1368.456
-1362.328
-1353.191
-1340.433
-1324.66
-1306.532
-1291.151
-1274.156
-1241.454
-1181.546
-1080.083
-934.518
-761.38
-573.019
-382.643
-204.654
-39.558
105.722
221.186
311.151
376.502
421.107
454.619
475.604
484.129
484.954
480.143
474.674
472.524
473.417
477.083
483.263
490.968
498.965
506.338
512.522
517.066
520.598
524.138
527.761
533.867
544.936
559.37
577.016
594.115
605.58
616.204
628.824
647.696
679.091
715.967
752.407
784.386
805.557
820.087
832.298
843.121
855.229
866.947
876.005
882.546
886.215
887.197
886.149
883.242
878.661
872.793
865.96
858.352
850.159
841.585
832.704
823.564
814.219
804.682
795.097
785.685
776.621
768.084
760.117
752.562
745.234
737.825
729.948
721.474
712.312
702.47
692.45
682.726
673.685
666.038
659.935
654.593
649.11
641.439
628.228
606.956
575.361
532.741
482.17
427.046
368.783
305.565
233.998
155.241
79.694
28.365
19.338
58.015
137.446
233.761
325.772
403.974
458.806
491.292
501.727
484.314
445.296
390.655
327.182
266.71
212.175
165.53
129.316
102.643
87.228
83.402
88.882
101.354
117.024
132.705
146.966
158.86
168.18
175.343
180.706
184.971
189.126
193.628
198.619
204.096
209.79
215.505
221.135
226.499
231.46
236.031
240.268
244.259
248.121
251.882
255.532
259.069
262.469
265.729
268.843
271.792
274.558
277.126
279.478
281.598
283.452
284.992
286.18
286.989
287.402
287.414
287.027
286.247
285.096
283.596
281.768
279.632
277.204
274.503
271.552
268.375
264.996
261.442
257.738
253.911
249.99
246.003
241.975
237.931
233.898
229.898
225.96
222.107
218.364
214.754
211.3
208.023
204.942
202.078
199.446
197.062
194.938
193.088
191.52
190.245
189.266
188.586
188.206
188.124
188.339
188.846
189.639
190.708
192.044
193.637
195.475
197.543
199.827
202.312
204.978
207.81
210.787
213.891
217.1
220.393
223.748
227.141
230.551
233.956
237.333
240.659
243.914
247.074
250.121
253.033
255.789
258.37
260.757
262.93
264.875
266.574
268.016
269.188
270.081
270.685
270.997
271.01
270.721
270.127
269.223
268.01
266.488
264.657
262.519
260.078
257.341
254.317
251.016
247.449
243.628
239.564
235.268
230.752
226.029
221.112
216.015
210.754
205.346
199.81
194.169
188.442
182.651
176.815
170.952
165.079
159.213
153.368
147.555
141.785
136.075
130.439
124.894
119.457
114.143
108.972
103.962
99.131
94.486
90.035
85.778
81.72
77.867
74.221
70.781
67.555
64.553
61.794
59.302
57.093
55.174
53.55
52.217
51.171
50.411
49.922
49.678
49.67
49.898
50.388
51.202
52.366
53.864
55.664
57.702
59.915
62.266
64.674
67.029
69.27
71.37
73.379
75.438
77.622
79.964
82.459
85.017
87.621
90.327
93.174
96.243
99.645
103.475
107.945
113.406
120.072
128.052
137.309
147.573
158.659
170.449
182.8
195.648
208.839
222.168
235.531
248.839
261.933
274.644
286.633
297.337
306.369
313.492
318.608
321.951
323.718
324.085
323.369
321.906
320.123
318.437
317.086
316.208
316.002
316.704
318.673
322.484
328.56
337.227
348.758
363.139
380.323
400.195
422.431
446.581
472.102
498.504
525.451
552.74
580.158
607.452
634.333
660.395
685.311
708.76
730.375
749.924
767.223
782.176
794.859
805.469
814.279
821.515
827.329
831.779
834.896
836.719
837.277
836.612
834.743
831.731
827.701
822.767
817.037
810.569
803.355
795.336
786.426
776.56
765.696
753.834
741.006
727.261
712.676
697.352
681.405
664.934
648.014
630.706
613.066
595.165
577.085
558.915
540.749
522.682
504.807
487.213
469.978
453.167
436.833
421.015
405.739
391.031
376.91
363.394
350.502
338.246
326.634
315.67
305.355
295.682
286.635
278.193
270.329
263.012
256.207
249.876
243.977
238.471
233.316
228.47
223.891
219.537
215.364
211.329
207.39
203.505
199.632
195.733
191.769
187.707
183.515
179.165
174.632
169.895
164.935
159.738
154.29
148.582
142.607
136.362
129.845
123.06
116.013
108.713
101.173
93.409
85.439
77.281
68.958
60.491
51.904
43.22
34.463
25.658
16.829
8.001
-0.802
-9.555
-18.238
-26.827
-35.301
-43.643
-51.833
-59.855
-67.694
-75.336
-82.769
-89.982
-96.968
-103.72
-110.234
-116.509
-122.544
-128.345
-133.915
-139.261
-144.393
-149.321
-154.056
-158.614
-163.009
-167.257
-171.377
-175.387
-179.308
-183.16
-186.965
-190.745
-194.52
-198.313
-202.144
-206.035
-210.007
-214.08
-218.275
-222.613
-227.115
-231.801
-236.69
-241.802
-247.152
-252.755
-258.625
-264.772
-271.201
-277.919
-284.929
-292.232
-299.83
-307.723
-315.909
-324.383
-333.14
-342.174
-351.475
-361.036
-370.842
-380.879
-391.13
-401.578
-412.206
-422.999
-433.937
-445.003
-456.178
-467.444
-478.783
-490.177
-501.605
-513.044
-524.471
-535.862
-547.194
-558.455
-569.634
-580.725
-591.726
-602.634
-613.45
-624.184
-634.841
-645.417
-655.901
-666.269
-676.494
-686.557
-696.45
-706.17
-715.716
-725.078
-734.247
-743.233
-752.058
-760.75
-769.33
-777.787
-786.105
-794.293
-802.395
-810.495
-818.699
-827.079
-835.659
-844.441
-853.442
-862.69
-872.233
-882.054
-891.998
-901.843
-911.39
-920.529
-929.235
-937.525
-945.185
-951.738
-956.914
-960.743
-963.653
-966.337
-969.02
-971.281
-972.961
-974.617
-976.574
-978.876
-980.553
-979.057
-972.765
-962.349
-948.458
-932.596
-918.837
-908.38
-902.707
-903.816
-905.177
-904.056
-905.748
-916.514
-955.501
-1038.342
-1157.908
-1299.044
-1425.47
-1490.343
-1471.167
-1359.113
-1173.051
-959.4
-755.361
-587.046
-462.84
-374.242
-314.145
-283.204
-284.448
-310.026
-343.134
-357.593
-328.797
-254.885
-151.384
-45.998
33.624
76.493
88.769
87.805
87.078
89.513
85.82
59.885
7.514
-61.359
-125.17
-158.343
-149.773
-106.938
-49.894
0.477
33.261
50.587
62.705
76.192
91.835
107.113
117.364
121.541
122.096
120.689
118.71
117.368
116.816
117.248
118.947
121.256
123.065
124.008
124.233
123.743
122.683
121.066
118.583
115.602
113.158
111.445
109.824
108.261
107.057
107.026
110.041
116.476
124.799
134.51
145.908
157.941
168.798
175.136
171.509
155.434
127.91
89.236
39.698
-18.719
-83.079
-147.354
-202.408
-242.785
-266.834
-272.668
-258.971
-224.908
-170.114
-98.532
-17.701
67.407
153.87
238.468
317.968
387.009
439.408
472.884
487.808
483.743
460.472
418.212
357.943
284.428
204.863
124.285
46.99
-21.846
-80.262
-126.325
-155.459
-168.022
-162.92
-137.982
-102.303
-63.816
-31.331
-15.798
-13.277
-18.848
-28.239
-34.364
-40.182
-48.025
-57.226
-68.935
-80.231
-88.708
-94.805
-98.578
-100.805
-102.579
-104.258
-106.343
-109.413
-113.764
-119.153
-124.614
-129.561
-134.012
-137.457
-139.137
-138.178
-133.191
-124.277
-113.308
-101.319
-88.578
-75.956
-64.295
-54.886
-50.045
-49.943
-52.426
-56.211
-60.531
-64.483
-67.739
-69.321
-67.217
-61.194
-52.769
-42.934
-32.534
-22.142
-11.579
-1.19
8.051
15.989
23.165
29.965
36.837
43.938
50.974
57.881
64.806
71.743
78.631
85.39
91.875
98.043
103.972
109.694
115.224
120.553
125.628
130.413
134.892
139.047
142.868
146.343
149.455
152.189
154.531
156.47
158.003
159.125
159.831
160.118
159.983
159.438
158.506
157.215
155.589
153.655
151.435
148.956
146.251
143.35
140.287
137.096
133.811
130.468
127.107
123.767
120.486
117.301
114.248
111.36
108.67
106.21
104.01
102.098
100.497
99.23
98.317
97.772
97.61
97.837
98.458
99.474
100.88
102.67
104.831
107.349
110.205
113.376
116.838
120.562
124.517
128.668
132.98
137.414
141.929
146.484
151.033
155.534
159.941
164.208
168.29
172.142
175.719
178.977
181.873
184.366
186.416
187.986
189.04
189.545
189.472
188.794
187.486
185.529
182.904
179.597
175.598
170.897
165.493
159.385
152.577
145.076
136.89
128.034
118.525
108.382
97.628
86.29
74.395
61.976
49.069
35.714
21.955
7.835
-6.606
-21.323
-36.268
-51.393
-66.646
-81.975
-97.332
-112.661
-127.905
-143.002
-157.889
-172.509
-186.814
-200.754
-214.285
-227.349
-239.878
-251.81
-263.088
-273.656
-283.462
-292.455
-300.573
-307.775
-314.033
-319.325
-323.643
-326.962
-329.246
-330.456
-330.539
-329.494
-327.364
-324.195
-320.061
-314.976
-308.878
-301.76
-293.646
-284.558
-274.595
-263.722
-251.687
-238.604
-224.892
-210.924
-197.218
-183.786
-169.898
-155.305
-140.311
-124.54
-107.261
-87.619
-64.18
-36.979
-7.849
22.197
52.863
83.247
112.473
139.227
161.193
178.136
192.122
204.382
215.628
226.7
237.866
250.019
265.066
283.207
302.913
323.17
343.127
362.201
380.548
397.831
413.093
426.174
437.609
447.785
457.15
465.879
473.702
480.574
486.664
491.997
496.543
500.259
503.039
504.885
505.914
506.206
505.824
504.809
503.155
500.877
498.005
494.566
490.595
486.12
481.164
475.753
469.908
463.651
457.008
449.999
442.638
434.94
426.913
418.574
409.949
401.062
391.932
382.575
373.001
363.221
353.247
343.087
332.749
322.239
311.562
300.723
289.731
278.592
267.315
255.909
244.384
232.747
221.011
209.188
197.293
185.343
173.358
161.358
149.365
137.405
125.503
113.689
101.993
90.445
79.076
67.915
56.992
46.343
36.008
26.024
16.431
7.267
-1.431
-9.624
-17.27
-24.335
-30.789
-36.606
-41.766
-46.243
-50.008
-53.037
-55.306
-56.806
-57.548
-57.542
-56.795
-55.326
-53.151
-50.298
-46.806
-42.706
-38.02
-32.771
-26.976
-20.674
-13.925
-6.796
0.625
8.292
16.202
24.347
32.741
41.332
49.989
58.63
67.201
75.644
83.976
92.075
99.602
106.585
113.357
120.208
127.575
135.386
142.823
149.559
155.817
161.144
164.735
165.664
162.427
155.008
145.193
133.943
121.518
108.793
96.605
86.243
79.996
78.056
78.332
79.6
81.144
82.127
82.286
80.729
75.556
66.606
55.426
43.037
30.299
17.789
5.367
-6.59
-17.079
-25.888
-33.539
-40.451
-47.1
-53.707
-59.988
-65.81
-71.3
-76.471
-81.271
-85.716
-89.615
-92.668
-95.066
-97.251
-99.603
-102.625
-106.254
-109.717
-112.755
-115.635
-117.948
-118.941
-117.722
-112.827
-104.292
-93.906
-82.621
-70.705
-59.022
-48.394
-40.106
-36.428
-37.528
-41.33
-46.607
-52.622
-58.52
-64.015
-68.182
-69.103
-66.599
-62.169
-56.792
-51.304
-46.259
-41.489
-37.334
-34.738
-33.834
-34.091
-35.122
-36.48
-38.006
-39.973
-42.426
-45.209
-48.307
-51.764
-55.637
-60.042
-64.993
-70.388
-76.162
-82.27
-88.689
-95.439
-102.526
-109.935
-117.658
-125.678
-133.985
-142.574
-151.437
-160.571
-169.971
-179.626
-189.533
-199.691
-210.101
-220.766
-231.678
-242.819
-254.174
-265.728
-277.466
-289.378
-301.451
-313.669
-326.017
-338.48
-351.042
-363.688
-376.398
-389.153
-401.93
-414.705
-427.453
-440.149
-452.762
-465.262
-477.614
-489.781
-501.723
-513.399
-524.764
-535.773
-546.375
-556.521
-566.16
-575.237
-583.7
-591.496
-598.574
-604.881
-610.367
-614.984
-618.684
-621.423
-623.159
-623.851
-623.462
-621.956
-619.302
-615.474
-610.449
-604.207
-596.733
-588.019
-578.062
-566.865
-554.434
-540.784
-525.932
-509.905
-492.734
-474.457
-455.117
-434.763
-413.449
-391.236
-368.192
-344.385
-319.89
-294.782
-269.137
-243.034
-216.553
-189.774
-162.777
-135.641
-108.443
-81.263
-54.177
-27.262
-0.589
25.771
51.755
77.3
102.347
126.84
150.73
173.972
196.527
218.352
239.413
259.68
279.128
297.738
315.489
332.367
348.364
363.483
377.734
391.128
403.677
415.396
426.306
436.432
445.794
454.406
462.275
469.405
475.811
481.51
486.524
490.87
494.562
497.615
500.052
501.908
503.206
503.95
504.117
503.676
502.632
501.036
498.961
496.463
493.583
490.366
486.881
483.221
479.442
475.534
471.416
466.993
462.23
457.148
451.832
446.363
440.749
434.93
428.827
422.414
415.668
408.538
400.884
392.522
383.394
373.622
363.493
353.294
343.197
333.286
323.576
314.115
305.028
296.479
288.603
281.467
275.162
269.855
265.839
263.453
262.845
263.911
266.341
269.842
274.246
279.458
285.419
292.002
299.04
306.391
313.983
321.79
329.721
337.595
345.101
351.907
357.839
362.914
367.296
371.116
374.419
377.208
379.489
381.324
382.766
383.803
384.347
384.295
383.607
382.305
380.488
378.254
375.626
372.551
368.929
364.681
359.768
354.161
347.82
340.685
332.724
323.957
314.451
304.278
293.485
282.097
270.124
257.586
244.527
230.997
217.052
202.743
188.123
173.248
158.186
143.006
127.771
112.527
97.31
82.158
67.114
52.224
37.53
23.072
8.888
-4.982
-18.493
-31.605
-44.281
-56.491
-68.207
-79.404
-90.058
-100.152
-109.668
-118.595
-126.922
-134.64
-141.742
-148.223
-154.081
-159.315
-163.926
-167.917
-171.29
-174.052
-176.209
-177.772
-178.748
-179.15
-178.987
-178.273
-177.021
-175.247
-172.966
-170.194
-166.95
-163.254
-159.131
-154.603
-149.696
-144.433
-138.842
-132.948
-126.779
-120.363
-113.726
-106.896
-99.902
-92.772
-85.538
-78.23
-70.881
-63.521
-56.185
-48.906
-41.719
-34.659
-27.762
-21.065
-14.603
-8.413
-2.533
3.002
8.154
12.889
17.172
20.969
24.249
26.982
29.14
30.698
31.632
31.921
31.547
30.493
28.747
26.297
23.134
19.255
14.655
9.337
3.303
-3.437
-10.874
-18.991
-27.772
-37.194
-47.231
-57.853
-69.029
-80.722
-92.893
-105.5
-118.497
-131.838
-145.473
-159.351
-173.419
-187.624
-201.912
-216.23
-230.524
-244.741
-258.832
-272.744
-286.431
-299.846
-312.945
-325.686
-338.03
-349.943
-361.389
-372.342
-382.774
-392.665
-401.998
-410.76
-418.943
-426.545
-433.566
-440.013
-445.898
-451.235
-456.045
-460.351
-464.183
-467.572
-470.553
-473.164
-475.445
-477.44
-479.191
-480.744
-482.142
-483.431
-484.655
-485.856
-487.075
-488.352
-489.724
-491.225
-492.888
-494.74
-496.807
-499.108
-501.66
-504.474
-507.555
-510.905
-514.518
-518.383
-522.483
-526.797
-531.295
-535.943
-540.702
-545.528
-550.37
-555.173
-559.878
-564.424
-568.744
-572.77
-576.432
-579.658
-582.375
-584.512
-585.997
-586.76
-586.731
-585.845
-584.037
-581.247
-577.417
-572.495
-566.432
-559.187
-550.723
-541.008
-530.02
-517.742
-504.164
-489.286
-473.115
-455.664
-436.957
-417.026
-395.908
-373.652
-350.311
-325.949
-300.633
-274.44
-247.451
-219.753
-191.436
-162.597
-133.334
-103.747
-73.94
-44.018
-14.085
15.754
45.393
74.73
103.662
132.09
159.918
187.053
213.406
238.895
263.441
286.973
309.427
330.744
350.873
369.773
387.408
403.753
418.79
432.51
444.912
456.005
465.805
474.336
481.631
487.729
492.675
496.521
499.325
501.149
502.061
502.131
501.434
500.047
498.052
495.528
492.56
489.232
485.627
481.828
477.917
473.974
470.077
466.3
462.714
459.387
456.38
453.751
451.551
449.825
448.611
447.942
447.843
448.33
449.413
451.096
453.374
456.235
459.662
463.631
468.11
473.064
478.45
484.221
490.325
496.706
503.302
510.05
516.882
523.728
530.517
537.173
543.624
549.792
555.602
560.978
565.847
570.135
573.77
576.684
578.812
580.093
580.469
579.889
578.306
575.679
571.975
567.165
561.226
554.145
545.912
536.527
525.994
514.327
501.545
487.673
472.745
456.799
439.882
422.044
403.342
383.839
363.602
342.705
321.224
299.24
276.839
254.109
231.142
208.034
184.879
161.777
138.824
116.12
93.762
71.846
50.466
29.714
9.678
-9.557
-27.91
-45.307
-61.676
-76.954
-91.081
-104.007
-115.687
-126.083
-135.166
-142.912
-149.308
-154.346
-158.027
-160.361
-161.364
-161.06
-159.484
-156.677
-152.687
-147.571
-141.394
-134.226
-126.147
-117.239
-107.594
-97.304
-86.47
-75.194
-63.583
-51.745
-39.789
-27.826
-15.968
-4.325
6.994
17.882
28.236
37.954
46.942
55.106
62.362
68.629
73.832
77.905
80.787
82.426
82.776
81.801
79.474
75.775
70.694
64.228
56.385
47.181
36.64
24.793
11.681
-2.648
-18.14
-34.732
-52.358
-70.943
-90.41
-110.676
-131.655
-153.256
-175.389
-197.96
-220.874
-244.037
-267.354
-290.729
-314.072
-337.292
-360.302
-383.017
-405.355
-427.239
-448.598
-469.364
-489.474
-508.871
-527.501
-545.317
-562.277
-578.344
-593.485
-607.672
-620.881
-633.095
-644.301
-654.492
-663.663
-671.813
-678.947
-685.069
-690.192
-694.328
-697.494
-699.706
-700.986
-701.356
-700.843
-699.475
-697.277
-694.278
-690.506
-685.991
-680.762
-674.851
-668.284
-661.091
-653.305
-644.958
-636.086
-626.726
-616.917
-606.704
-596.135
-585.262
-574.134
-562.803
-551.322
-539.743
-528.121
-516.513
-504.969
-493.54
-482.28
-471.244
-460.496
-450.097
-440.103
-430.571
-421.563
-413.15
-405.417
-398.444
-392.298
-387.055
-382.795
-379.612
-377.637
-376.978
-377.702
-379.867
-383.515
-388.665
-395.333
-403.476
-412.959
-423.635
-435.342
-447.938
-461.336
-475.401
-489.965
-504.854
-519.82
-534.687
-549.369
-563.729
-577.672
-591.209
-604.351
-617.309
-630.565
-644.498
-659.578
-676.375
-694.985
-715.392
-737.523
-760.858
-785.012
-809.802
-834.429
-858.004
-880.793
-903.398
-926.908
-953.465
-984.353
-1019.998
-1061.493
-1107.817
-1154.2
-1196.116
-1229.511
-1253.733
-1272.883
-1286.651
-1286.783
-1256.79
-1178.728
-1044.61
-858.989
-640.243
-412.208
-196.026
-12.36
127.935
224.245
280.677
314.275
338.694
358.966
383.131
408.709
436.001
472.299
513.172
556.585
599.547
633.553
659.981
681.186
697.401
711.538
722.899
730.457
735.683
739.714
744.175
750.38
758.561
768.752
780.822
794.557
809.656
825.651
842.157
858.87
875.5
891.749
907.205
921.466
934.297
945.566
955.175
963.065
969.193
973.57
976.335
977.663
977.714
976.63
974.52
971.519
967.813
963.621
959.192
954.719
950.335
946.148
942.247
938.705
935.577
932.873
930.557
928.6
926.993
925.734
924.832
924.275
924.034
924.075
924.363
924.871
925.577
926.452
927.466
928.594
929.813
931.108
932.47
933.877
935.302
936.712
938.074
939.35
940.506
941.501
942.293
942.84
943.106
943.053
942.646
941.849
940.623
938.934
936.746
934.025
930.736
926.846
922.322
917.134
911.254
904.657
897.318
889.212
880.32
870.623
860.108
848.76
836.572
823.537
809.651
794.916
779.339
762.927
745.695
727.659
708.839
689.262
668.957
647.958
626.299
604.02
581.165
557.779
533.912
509.616
484.945
459.958
434.714
409.275
383.705
358.07
332.435
306.867
281.432
256.197
231.229
206.593
182.352
158.567
135.298
112.603
90.536
69.147
48.484
28.589
9.502
-8.743
-26.115
-42.589
-58.144
-72.766
-86.444
-99.172
-110.95
-121.783
-131.681
-140.658
-148.733
-155.93
-162.274
-167.799
-172.538
-176.531
-179.818
-182.442
-184.45
-185.889
-186.807
-187.255
-187.281
-186.936
-186.269
-185.329
-184.164
-182.82
-181.342
-179.773
-178.152
-176.518
-174.907
-173.349
-171.874
-170.506
-169.267
-168.176
-167.246
-166.49
-165.914
-165.522
-165.315
-165.293
-165.449
-165.776
-166.263
-166.897
-167.664
-168.545
-169.525
-170.583
-171.699
-172.853
-174.025
-175.196
-176.345
-177.456
-178.508
-179.484
-180.37
-181.15
-181.813
-182.347
-182.743
-182.995
-183.1
-183.056
-182.865
-182.529
-182.054
-181.447
-180.719
-179.88
-178.942
-177.916
-176.818
-175.661
-174.464
-173.243
-172.014
-170.794
-169.597
-168.439
-167.334
-166.292
-165.323
-164.434
-163.627
-162.904
-162.268
-161.716
-161.242
-160.835
-160.485
-160.176
-159.893
-159.612
-159.305
-158.943
-158.495
-157.926
-157.197
-156.268
-155.093
-153.631
-151.844
-149.694
-147.135
-144.129
-140.633
-136.612
-132.033
-126.861
-121.052
-114.567
-107.372
-99.441
-90.76
-81.314
-71.092
-60.093
-48.318
-35.786
-22.535
-8.59
6.039
21.333
37.282
53.827
70.851
88.258
105.963
123.864
141.858
159.819
177.58
195.043
212.166
228.906
245.24
261.078
276.26
290.646
304.093
316.518
327.93
338.287
347.484
355.489
362.297
367.937
372.527
376.008
378.137
378.721
377.566
374.578
369.803
363.238
354.853
344.613
332.425
318.269
302.227
284.265
264.285
242.178
217.764
191.111
162.581
132.474
101.076
68.623
35.232
1.098
-33.497
-68.332
-103.221
-138.001
-172.577
-206.722
-240.085
-272.345
-303.165
-332.403
-360.143
-386.435
-411.304
-434.796
-456.963
-477.898
-497.766
-516.64
-534.453
-551.145
-566.65
-580.973
-594.207
-606.39
-617.475
-627.337
-635.816
-642.749
-647.981
-651.302
-652.366
-650.849
-646.461
-638.985
-628.373
-614.644
-597.835
-578.046
-555.47
-530.397
-503.264
-474.594
-444.828
-414.445
-383.988
-354.025
-325.268
-298.478
-274.379
-253.739
-237.308
-225.63
-219.034
-217.772
-221.95
-231.39
-245.696
-264.073
-285.379
-308.818
-334.003
-360.485
-387.768
-415.52
-443.347
-471.423
-500.682
-531.089
-561.587
-590.95
-617.545
-639.471
-654.981
-661.302
-654.645
-632.924
-595.751
-543.373
-476.98
-398.514
-310.438
-217.054
-124.276
-36.589
43.141
112.427
169.289
212.539
241.761
258.38
265.823
266.769
262.71
255.276
246.007
235.901
225.745
215.275
202.829
187.45
168.996
147.2
122.153
94.298
63.962
32
-0.288
-32.268
-63.58
-93.857
-123.034
-151.022
-177.809
-203.751
-229.206
-254.308
-279.152
-303.722
-328.017
-352.201
-376.172
-399.554
-421.874
-442.515
-461.043
-477.272
-490.957
-501.789
-509.422
-513.468
-513.703
-510.048
-502.326
-490.261
-473.58
-452.105
-426.063
-396.069
-362.76
-326.762
-288.574
-248.528
-207.06
-164.734
-122.046
-79.404
-37.187
4.216
44.167
81.707
115.936
146.191
172.13
193.758
211.029
223.766
231.83
235.13
233.696
227.704
217.187
201.988
182.112
157.762
129.493
98.31
65.151
30.727
-4.337
-39.555
-74.324
-107.838
-139.483
-168.869
-195.659
-219.603
-240.259
-256.947
-269.222
-276.911
-280.109
-279.269
-274.788
-266.915
-256.022
-242.537
-227.017
-210.198
-192.582
-174.412
-155.944
-137.416
-119.208
-101.893
-85.851
-71.254
-58.183
-46.564
-36.364
-27.629
-20.235
-13.94
-8.432
-3.302
1.688
6.592
11.49
16.454
21.6
27.123
33.106
39.524
46.363
53.598
61.216
69.24
77.594
86.121
94.651
102.989
111.008
118.656
125.874
132.609
138.822
144.469
149.548
154.101
158.143
161.669
164.677
167.155
169.113
170.593
171.631
172.263
172.518
172.416
171.978
171.227
170.174
168.823
167.171
165.208
162.931
160.346
157.458
154.275
150.806
147.059
143.043
138.772
134.257
129.504
124.522
119.317
113.897
108.272
102.452
96.448
90.273
83.943
77.473
70.881
64.184
57.401
50.552
43.657
36.739
29.821
22.927
16.082
9.315
2.653
-3.873
-10.235
-16.402
-22.343
-28.029
-33.427
-38.507
-43.238
-47.591
-51.54
-55.059
-58.121
-60.704
-62.788
-64.353
-65.383
-65.867
-65.791
-65.147
-63.929
-62.134
-59.762
-56.819
-53.312
-49.254
-44.661
-39.553
-33.954
-27.892
-21.399
-14.508
-7.257
0.314
8.164
16.243
24.499
32.876
41.309
49.735
58.087
66.298
74.299
82.027
89.417
96.411
102.96
109.01
114.507
119.399
123.626
127.125
129.84
131.709
132.671
132.667
131.643
129.55
126.368
122.073
116.646
110.067
102.3
93.332
83.182
71.884
59.487
46.067
31.702
16.501
0.634
-15.735
-32.433
-49.3
-66.252
-83.214
-100.096
-116.807
-133.237
-149.331
-165.14
-180.756
-196.251
-211.708
-227.196
-242.816
-258.805
-275.37
-292.683
-310.862
-329.855
-349.579
-369.983
-391.017
-412.612
-434.547
-456.372
-477.509
-497.451
-515.701
-531.792
-545.206
-555.23
-561.223
-562.667
-559.18
-550.613
-536.835
-517.658
-492.889
-462.393
-426.302
-385.099
-339.469
-290.046
-237.478
-182.433
-125.701
-68.327
-11.247
44.788
99.194
151.593
201.543
248.497
291.873
331.129
365.981
396.463
422.77
445.075
463.613
478.689
490.778
500.604
508.75
515.599
521.392
526.228
530.307
533.943
537.475
541.226
545.386
549.981
554.989
560.406
566.145
572.05
577.824
583.01
587.283
590.474
592.51
593.402
593.116
591.563
588.677
584.422
578.788
571.801
563.482
553.837
542.938
530.909
517.947
504.321
490.243
475.853
461.267
446.565
431.833
417.168
402.634
388.269
374.127
360.269
346.77
333.719
321.178
309.188
297.774
286.938
276.689
267.044
258.014
249.603
241.817
234.655
228.121
222.233
216.994
212.398
208.428
205.061
202.274
200.051
198.364
197.169
196.416
196.044
195.995
196.204
196.602
197.11
197.643
198.115
198.455
198.604
198.494
198.047
197.17
195.752
193.71
190.997
187.574
183.414
178.5
172.848
166.522
159.651
152.356
144.709
136.721
128.354
119.591
110.421
100.849
90.876
80.433
69.435
57.833
45.616
32.76
19.188
4.71
-10.978
-28.108
-46.768
-66.913
-88.384
-111.027
-134.637
-158.948
-183.595
-208.08
-231.937
-254.81
-276.424
-296.503
-314.69
-330.485
-343.272
-352.566
-358.069
-359.628
-357.212
-350.808
-340.511
-326.568
-309.409
-289.622
-267.71
-244.04
-218.89
-192.538
-165.343
-137.785
-110.408
-83.629
-57.758
-33.037
-9.65
12.213
32.465
51.162
68.516
84.833
100.322
115.072
129.109
142.448
155.141
167.286
178.979
190.235
201.053
211.435
221.39
230.944
240.074
248.682
256.609
263.674
269.761
274.814
278.813
281.752
283.632
284.462
284.283
283.175
281.208
278.436
274.907
270.657
265.746
260.254
254.27
247.884
241.174
234.207
227.046
219.75
212.374
204.958
197.533
190.116
182.735
175.417
168.193
161.091
154.136
147.347
140.745
134.346
128.163
122.199
116.457
110.93
105.612
100.496
95.57
90.82
86.232
81.79
77.474
73.267
69.148
65.096
61.09
57.111
53.14
49.16
45.157
41.12
37.038
32.901
28.704
24.438
20.095
15.667
11.145
6.523
1.793
-3.052
-8.017
-13.105
-18.317
-23.655
-29.12
-34.714
-40.44
-46.297
-52.29
-58.424
-64.705
-71.137
-77.721
-84.453
-91.333
-98.368
-105.566
-112.94
-120.504
-128.271
-136.265
-144.518
-153.061
-161.922
-171.124
-180.674
-190.581
-200.857
-211.511
-222.555
-233.985
-245.786
-257.942
-270.447
-283.304
-296.527
-310.122
-324.088
-338.428
-353.152
-368.28
-383.837
-399.839
-416.303
-433.245
-450.682
-468.658
-487.217
-506.425
-526.377
-547.064
-568.379
-590.157
-612.118
-634.035
-655.808
-677.198
-697.871
-717.69
-736.571
-754.771
-773.009
-791.499
-809.921
-827.956
-845.058
-860.675
-874.627
-885.738
-891.813
-891.727
-885.233
-873.039
-857.314
-839.767
-821.226
-804.347
-793.227
-791.188
-801.375
-824.471
-857.933
-899.99
-949.404
-1002.705
-1055.284
-1101.507
-1133.806
-1147.625
-1142.108
-1115.7
-1067.689
-999.103
-910.938
-807.159
-695.491
-581.761
-469.97
-364.805
-269.045
-184.861
-115.691
-62.01
-21.019
9.467
32.114
50.431
66.026
80.556
97.015
116.724
139.581
165.631
193.642
221.613
248.838
274.679
298.074
318.822
336.985
352.608
366.618
380.288
394.234
408.864
424.388
440.536
457.081
473.766
490.045
505.447
519.692
532.617
544.257
554.735
564.112
572.444
579.734
585.94
591.099
595.211
598.278
600.438
601.797
602.532
602.978
603.253
603.288
603.147
602.867
602.207
601.054
599.628
597.736
595.5
594.149
592.148
587.718
583.264
578.854
579.917
595.227
618.318
642.006
655.088
639.316
602.142
559.965
527.271
525.623
551.359
585.373
615.511
626.922
618.702
603.34
587.205
574.939
567.892
562.481
555.905
547.43
539.355
532.274
531.58
544.946
567.722
595.688
616.142
607.278
568.815
507.464
438.874
392.503
377.474
391.572
428.603
470.719
508.008
537.141
550.435
542.892
515.099
469.538
417.332
376.806
355.816
356.262
374.566
395.641
411.431
419.164
416.189
408.79
401.154
393.92
389.503
386.595
383.728
381.434
379.374
377.63
376.565
375.85
375.163
374.421
373.515
372.365
370.971
369.32
367.376
365.127
362.579
359.678
356.374
352.636
348.417
343.681
338.395
332.524
326.034
318.903
311.11
302.637
293.469
283.595
273.005
261.699
249.675
236.939
223.498
209.365
194.557
179.093
162.996
146.293
129.015
111.195
92.867
74.07
54.844
35.23
15.272
-4.986
-25.497
-46.214
-67.089
-88.075
-109.121
-130.18
-151.202
-172.138
-192.943
-213.568
-233.97
-254.104
-273.928
-293.402
-312.487
-331.147
-349.347
-367.055
-384.239
-400.871
-416.926
-432.378
-447.206
-461.391
-474.914
-487.76
-499.916
-511.368
-522.108
-532.127
-541.417
-549.974
-557.794
-564.877
-571.221
-576.829
-581.704
-585.851
-589.278
-591.991
-594.002
-595.32
-595.958
-595.928
-595.246
-593.926
-591.985
-589.441
-586.313
-582.621
-578.387
-573.635
-568.387
-562.67
-556.509
-549.932
-542.969
-535.649
-528.004
-520.066
-511.87
-503.451
-494.844
-486.087
-477.218
-468.275
-459.295
-450.317
-441.379
-432.518
-423.771
-415.175
-406.765
-398.576
-390.641
-382.994
-375.667
-368.689
-362.091
-355.897
-350.135
-344.826
-339.992
-335.651
-331.818
-328.508
-325.734
-323.502
-321.82
-320.691
-320.116
-320.091
-320.61
-321.661
-323.233
-325.31
-327.875
-330.908
-334.387
-338.291
-342.597
-347.281
-352.317
-357.681
-363.346
-369.286
-375.475
-381.884
-388.485
-395.253
-402.162
-409.187
-416.305
-423.494
-430.735
-438.011
-445.307
-452.608
-459.902
-467.181
-474.438
-481.67
-488.879
-496.071
-503.259
-510.461
-517.695
-524.983
-532.346
-539.81
-547.394
-555.122
-563.011
-571.078
-579.342
-587.823
-596.541
-605.515
-614.766
-624.316
-634.19
-644.414
-655.014
-666.017
-677.447
-689.318
-701.649
-714.457
-727.759
-741.578
-755.915
-770.745
-786.039
-801.759
-817.852
-834.252
-850.85
-867.494
-884.029
-900.304
-916.173
-931.5
-946.139
-959.945
-972.781
-984.515
-995.072
-1004.443
-1012.61
-1019.535
-1025.189
-1029.568
-1032.769
-1035.031
-1036.616
-1037.676
-1038.342
-1038.835
-1039.24
-1039.502
-1039.404
-1038.32
-1035.421
-1030.108
-1021.961
-1010.553
-996.168
-979.547
-961.553
-943.826
-927.995
-914.915
-904.801
-897.239
-890.264
-880.605
-864.389
-836.547
-792.293
-730.592
-653.667
-562.679
-458.13
-334.808
-183.169
-5.425
183.956
359.106
489.939
564.578
593.842
603.246
619.236
654.838
706.467
761.628
811.85
855.597
895.539
935.961
977.291
1016.791
1052.804
1084.466
1111.415
1134.198
1153.188
1168.731
1182.09
1194.719
1207.329
1220.19
1233.288
1246.35
1259.347
1272.377
1285.255
1297.658
1309.314
1319.925
1329.282
1337.342
1343.997
1349.082
1352.445
1353.94
1353.503
1351.221
1347.218
1341.595
1334.528
1326.157
1316.569
1305.964
1294.537
1282.34
1269.479
1256.098
1241.964
1226.9
1211.398
1195.628
1179.466
1163.815
1147.721
1129.792
1112.286
1096.038
1084.5
1083.589
1090.988
1101.908
1107.186
1094.326
1061.157
1013.876
966.401
933.569
920.031
922.807
932.443
942.387
957.479
981.02
1010.27
1036.666
1037.894
1000.461
934.035
856.936
799.816
786.304
810.214
853.83
894.822
913.346
911.818
904.499
900.601
905.12
911.348
904.131
877.866
837.784
797.068
772.071
771.696
790.96
815.893
833.879
835.979
823.037
803.974
784.607
768.832
757.257
746.405
734.904
722.742
709.782
696.637
683.41
669.581
655.002
639.723
623.7
606.959
589.569
571.576
553.062
534.152
514.907
495.339
475.491
455.417
435.169
414.808
394.392
373.974
353.616
333.391
313.37
293.621
274.217
255.223
236.711
218.746
201.397
184.729
168.803
153.681
139.418
126.07
113.685
102.311
91.989
82.756
74.646
67.685
61.895
57.292
53.886
51.681
50.676
50.862
52.223
54.737
58.378
63.109
68.889
75.67
83.399
92.015
101.453
111.64
122.502
133.956
145.919
158.3
171.009
183.949
197.025
210.138
223.187
236.073
248.695
260.954
272.751
283.99
294.576
304.42
313.433
321.533
328.641
334.686
339.601
343.326
345.807
347
346.867
345.377
342.508
338.248
332.592
325.543
317.113
307.324
296.205
283.793
270.134
255.282
239.297
222.247
204.206
185.254
165.478
144.968
123.818
102.129
80.002
57.541
34.853
12.044
-10.779
-33.51
-56.042
-78.274
-100.106
-121.44
-142.185
-162.254
-181.563
-200.038
-217.606
-234.206
-249.779
-264.276
-277.655
-289.881
-300.928
-310.777
-319.417
-326.844
-333.064
-338.087
-341.934
-344.631
-346.21
-346.712
-346.18
-344.668
-342.23
-338.929
-334.83
-330.001
-324.515
-318.447
-311.873
-304.871
-297.519
-289.896
-282.078
-274.145
-266.17
-258.229
-250.392
-242.73
-235.308
-228.19
-221.435
-215.099
-209.234
-203.887
-199.101
-194.915
-191.365
-188.479
-186.284
-184.801
-184.049
-184.041
-184.784
-186.286
-188.545
-191.559
-195.321
-199.82
-205.043
-210.974
-217.593
-224.878
-232.807
-241.352
-250.486
-260.18
-270.402
-281.121
-292.303
-303.914
-315.919
-328.283
-340.973
-353.952
-367.187
-380.645
-394.291
-408.093
-422.016
-436.028
-450.096
-464.187
-478.268
-492.309
-506.279
-520.149
-533.892
-547.481
-560.892
-574.099
-587.081
-599.814
-612.28
-624.458
-636.333
-647.888
-659.113
-669.997
-680.535
-690.723
-700.558
-710.041
-719.173
-727.958
-736.4
-744.506
-752.281
-759.733
-766.873
-773.714
-780.275
-786.573
-792.63
-798.471
-804.121
-809.608
-814.961
-820.21
-825.382
-830.507
-835.615
-840.74
-845.915
-851.179
-856.567
-862.117
-867.863
-873.843
-880.091
-886.639
-893.512
-900.731
-908.313
-916.279
-924.649
-933.444
-942.685
-952.393
-962.587
-973.286
-984.506
-996.256
-1008.537
-1021.338
-1034.628
-1048.375
-1062.536
-1077.07
-1091.948
-1107.133
-1122.577
-1138.229
-1154.031
-1169.937
-1185.912
-1201.91
-1217.866
-1233.705
-1249.346
-1264.73
-1279.839
-1294.658
-1309.197
-1323.457
-1337.391
-1350.982
-1364.23
-1377.154
-1389.794
-1402.064
-1413.741
-1424.559
-1434.267
-1442.727
-1449.937
-1455.792
-1459.979
-1462.342
-1462.86
-1461.833
-1460.035
-1457.756
-1454.656
-1450.315
-1444.378
-1436.642
-1427.02
-1414.48
-1396.601
-1371.695
-1339.502
-1300.815
-1257.432
-1210.825
-1162.22
-1114.846
-1074.394
-1046.425
-1034.927
-1039.567
-1055.489
-1078.348
-1104.05
-1133.704
-1173.671
-1224.939
-1284.602
-1334.556
-1341.566
-1279.764
-1133.065
-914.51
-666.606
-434.193
-259.604
-158.319
-117.113
-113.21
-115.809
-107.834
-88.586
-62.739
-41.288
-28.717
-21.365
-14.775
-3.492
14.037
35.194
57.236
77.412
94.3
107.706
117.366
123.399
126.42
127.378
127.691
128.825
131.587
136.357
143.284
152.201
163.019
175.67
189.816
205.076
221.102
237.53
254.222
271.168
288.255
305.339
322.215
338.661
354.595
370.026
384.947
399.368
413.278
426.66
439.603
452.23
464.663
477.047
489.445
501.867
514.34
526.882
539.507
552.226
565.007
577.779
590.5
603.141
615.68
628.103
640.362
652.401
664.171
675.625
686.729
697.459
707.79
717.704
727.195
736.264
744.921
753.185
761.066
768.569
775.701
782.464
788.863
794.904
800.591
805.926
810.914
815.563
819.884
823.885
827.573
830.953
834.028
836.8
839.268
841.429
843.279
844.812
846.023
846.907
847.456
847.662
847.516
847.009
846.13
844.868
843.21
841.145
838.66
835.745
832.39
828.589
824.335
819.623
814.452
808.823
802.737
796.202
789.222
781.809
773.973
765.729
757.096
748.092
738.741
729.069
719.103
708.874
698.415
687.76
676.943
666.003
654.974
643.895
632.803
621.735
610.727
599.814
589.031
578.411
567.985
557.782
547.83
538.152
528.771
519.706
510.974
502.587
494.556
486.889
479.588
472.655
466.087
459.878
454.02
448.5
443.305
438.415
433.813
429.475
425.378
421.496
417.805
414.276
410.883
407.6
404.4
401.258
398.149
395.05
391.938
388.795
385.6
382.337
378.99
375.546
371.995
368.33
364.544
360.634
356.6
352.444
348.17
343.785
339.298
334.721
330.068
325.354
320.6
315.828
311.062
306.328
301.652
297.064
292.594
288.273
284.129
280.193
276.491
273.054
269.911
267.093
264.631
262.554
260.891
259.672
258.93
258.695
258.992
259.844
261.274
263.298
265.938
269.213
273.14
277.736
283.016
288.989
295.668
303.064
311.181
320.019
329.569
339.818
350.76
362.39
374.704
387.704
401.381
415.722
430.715
446.337
462.562
479.366
496.702
514.51
532.726
551.283
570.119
589.183
608.399
627.668
646.886
665.938
684.734
703.212
721.303
738.954
756.073
772.56
788.33
803.27
817.302
830.377
842.388
853.258
862.979
871.552
879.238
886.574
893.719
900.485
906.559
911.299
914.504
916.539
916.732
913.642
906.928
897.341
886.852
878.888
873.039
864.749
851.945
833.758
816.429
813.649
832.084
872.524
919.747
941.714
910.807
803.963
625.833
414.276
212.197
71.879
25.725
69.813
194.447
368.898
552.824
722.43
845.648
897.236
876.146
782.305
631.259
457.159
283.308
131.208
15.808
-68.755
-129.53
-175.019
-213.415
-247.87
-282.761
-316.078
-345.029
-358.108
-331.717
-251.152
-105.526
97.752
324.53
538.715
697.7
770.353
751.168
642.378
472.054
280.758
102.977
-23.822
-91.593
-118.188
-125.008
-141.322
-177.302
-221.845
-265.549
-297.565
-314.687
-326.167
-334.934
-338.886
-333.027
-304.973
-250.566
-175.524
-94.766
-33.513
-8.92
-28.91
-87.826
-164.974
-245.19
-316.952
-375.38
-426.874
-474.005
-517.298
-557.023
-589.64
-613.705
-631.07
-644.166
-655.02
-665.641
-675.249
-680.339
-681.585
-681.319
-683.449
-696.206
-717.995
-739.25
-750.558
-738.681
-703.157
-656.343
-607.937
-568.274
-538.532
-509.739
-476.777
-436.856
-391.161
-345.75
-305.278
-273.24
-249.486
-228.805
-205.689
-174.211
-138.792
-115.724
-116.416
-146.211
-184.106
-181.629
-97.704
96.381
386.853
712.349
1008.492
1210.389
1285.109
1246.26
1113.188
922.812
713.956
505.029
326.397
199.664
126.645
112.779
140.596
179.002
211.494
216.194
183.193
123.566
39.569
-59.723
-157.569
-242.108
-284.637
-251.522
-123.231
102.511
391.611
682.373
911.896
1035.327
1049.303
985.111
883.085
776.234
676.831
580.935
488.812
408.503
345.314
303.71
279.788
262.357
253.771
260.905
284.708
320.016
344.693
329.563
263.811
161.348
60.415
17.513
72.584
226.118
440.545
644.003
766.781
779.76
695.01
560.153
432.319
340.461
287.107
257.386
229.251
195.167
158.676
125.465
101.956
89.161
83.551
81.799
81.189
79.034
73.555
63.152
45.726
21.922
-3.522
-24.38
-33.515
-29.867
-23.632
-27.91
-52.301
-88.766
-102.973
-49.362
110.024
377.863
707.871
1023.354
1244.275
1324.2
1269.175
1119.056
925.778
729.95
544.751
372.05
217.312
87.877
-4.247
-50.807
-61.987
-55.794
-45.588
-41.508
-40.606
-30.217
-8.184
21.729
49.628
56.774
36.539
-4.64
-48.295
-62.427
-24.367
70.327
202.656
334.904
437.509
500.045
536.057
569.675
608.322
635.05
612.849
505.254
301.475
27.442
-262.569
-506.829
-657.358
-700.861
-654.893
-554.177
-438.988
-332.878
-245.262
-177.896
-125.07
-87.114
-63.303
-46.535
-29.446
-0.391
48.477
114.309
190.314
267.964
337.073
389.674
417.373
404.009
336.24
208.158
17.885
-217.742
-471.36
-715.739
-917.145
-1050.304
-1106.14
-1085
-999.988
-877.427
-740.514
-604.5
-482.821
-376.038
-284.749
-224.527
-214.02
-273.647
-407.309
-583.849
-742.451
-809.817
-738.08
-523.724
-214.384
104.617
356.685
489.929
486.752
365.475
152.496
-124.287
-431.966
-737.665
-1006.689
-1201.696
-1300.344
-1302.089
-1219.677
-1087.186
-944.271
-819.957
-739.609
-707.245
-710.481
-734.482
-755.069
-757.389
-739.73
-706.317
-678.013
-678.647
-720.059
-802.529
-899.45
-963.227
-952.681
-841.136
-634.906
-377.834
-124.993
68.606
161.336
135.959
-7.559
-250.89
-552.845
-857.014
-1103.752
-1249.098
-1285.432
-1237.944
-1149.851
-1061.544
-990.713
-937.863
-891.924
-838.125
-768.347
-679.857
-578.62
-480.003
-406.791
-379.091
-406.599
-490.387
-613.983
-750.995
-875.181
-956.914
-978.527
-941.824
-855.776
-734.657
-594.489
-444.995
-304.189
-207.002
-188.034
-269.74
-447.583
-677.959
-903.121
-1080.613
-1191.8
-1251.426
-1292.233
-1333.657
-1381.446
-1426.47
-1447.632
-1434.211
-1386.1
-1308.741
-1214.821
-1115.238
-1016.668
-924.948
-844.4
-779.031
-732.275
-706.918
-705.486
-725.095
-758.422
-798.873
-839.519
-882.571
-940.368
-1018.92
-1117.123
-1216.545
-1283.11
-1289.888
-1219.684
-1087.08
-933.21
-802.695
-745.746
-778.75
-887.856
-1051.904
-1228.529
-1391.284
-1528.266
-1622.052
-1675.588
-1695.187
-1691.136
-1690.067
-1706.171
-1743.568
-1798.804
-1855.162
-1902.467
-1938.16
-1961.97
-1978.396
-1989.545
-1993.03
-1985.793
-1966.097
-1934.771
-1899.961
-1875.889
-1872.963
-1894.186
-1925.884
-1939.018
-1906.801
-1813.366
-1669.276
-1510.173
-1375.122
-1294.317
-1270.084
-1276.293
-1281.922
-1263.425
-1218.616
-1168.123
-1128.805
-1106.99
-1093.948
-1061.176
-989.849
-868.471
-693.123
-485.94
-267.961
-69.352
68.736
128.961
100.662
-3.383
-138.82
-265.895
-344.413
-355.198
-312.886
-242.518
-178.082
-142.223
-136.173
-150.94
-170.008
-182.746
-187.577
-185.935
-179.734
-166.442
-141.275
-101.849
-49.353
15.139
91.437
181.255
288.077
404.796
517.587
612.231
672.312
696.164
696.022
684.657
678.312
682.802
686.135
676.796
646.414
597.336
553.885
541.562
577.776
667.189
788.144
910.146
1004.525
1050.232
1050.377
1023.161
991.743
976.34
981.023
996.824
1010.557
1012.782
1002.634
984.837
965.893
949.468
936.347
928.625
928.181
936.668
955.166
981.558
1012.103
1043.439
1072.797
1097.052
1113.758
1120.729
1116.205
1101.311
1078.948
1052.435
1024.567
997.56
973.04
952.325
936.993
927.204
921.409
917.521
914.26
910.945
907.103
903.44
898.486
889.129
877.145
865.586
859.203
867.802
890.511
916.618
936.187
934.566
909.438
874.864
841.801
821.03
815.639
816.955
818.945
817.978
812.878
805.45
797.984
793.476
790.948
788.068
781.011
762.096
734.76
710.452
699.108
714.193
754.769
804.635
851.237
881.073
889.779
886.516
875.168
856.218
827.216
779.858
716.666
649.817
592.412
561.146
558.231
571.579
590.517
600.622
597.073
587.794
576.608
566.516
558.49
547.65
532.08
513.838
494.08
474.024
454.589
435.145
415.405
396.058
377.437
359.121
340.907
322.717
304.473
286.597
269.39
252.781
236.753
221.374
206.692
192.822
179.883
167.861
156.746
146.562
137.313
129.035
121.761
115.493
110.224
105.946
102.655
100.356
99.056
98.767
99.488
101.204
103.895
107.538
112.103
117.558
123.867
130.976
138.83
147.374
156.546
166.289
176.54
187.23
198.288
209.641
221.215
232.936
244.731
256.524
268.24
279.806
291.147
302.194
312.878
323.132
332.89
342.092
350.677
358.591
365.783
372.207
377.823
382.595
386.495
389.501
391.597
392.774
393.032
392.375
390.814
388.367
385.057
380.913
375.97
370.267
363.848
356.763
349.064
340.807
332.053
322.865
313.306
303.444
293.344
283.077
272.713
262.321
251.97
241.73
231.668
221.851
212.343
203.203
194.487
186.244
178.517
171.348
164.777
158.837
153.553
148.944
145.024
141.799
139.276
137.449
136.304
135.82
135.968
136.72
138.052
139.934
142.334
145.204
148.482
152.105
156.013
160.141
164.426
168.798
173.176
177.495
181.698
185.734
189.559
193.114
196.322
199.107
201.376
203.086
204.237
204.834
204.906
204.426
203.29
201.449
198.887
195.582
191.592
186.839
181.036
174.259
166.884
159.24
151.803
144.544
136.708
128.026
118.765
108.518
96.541
81.959
63.335
40.703
15.852
-10.25
-37.318
-64.472
-90.862
-115.19
-135.18
-150.632
-163.592
-175.265
-186.363
-197.714
-209.582
-222.86
-239.429
-259.456
-281.431
-304.353
-327.373
-349.915
-372.123
-393.645
-413.526
-431.608
-448.405
-464.29
-479.691
-494.76
-509.217
-523.009
-536.29
-549.071
-561.308
-572.948
-583.878
-594.097
-603.713
-612.8
-621.412
-629.58
-637.289
-644.545
-651.361
-657.749
