Name,Criss Capps
Date of Birth,"Feb 5, 1952"
Recorded Date,2020-10-11 13:52:25 -0400
Classification,Sinus Rhythm
Symptoms,
Software Version,1.90
Device,"Watch5,4"
Sample Rate,512.844 hertz


Lead,Lead I
Unit,µV

682.526
931.4
941.402
876.148
860.906
848.63
814.733
796.631
794.053
786.227
768.872
743.152
713.844
687.797
666.39
648.135
631.632
614.627
595.329
573.474
549.014
522.033
493.378
463.877
434.105
404.866
376.974
350.839
326.688
304.57
284.226
265.421
247.965
231.586
216.009
201.008
186.36
171.883
157.457
142.952
128.2
113.057
97.38
81.049
64.013
46.264
27.817
8.723
-10.941
-31.093
-51.625
-72.417
-93.358
-114.335
-135.248
-156.01
-176.517
-196.666
-216.358
-235.489
-253.997
-271.848
-289.019
-305.508
-321.328
-336.495
-351.041
-365.006
-378.427
-391.337
-403.767
-415.74
-427.288
-438.447
-449.256
-459.759
-469.99
-479.97
-489.716
-499.24
-508.544
-517.635
-526.506
-535.147
-543.551
-551.709
-559.618
-567.281
-574.696
-581.856
-588.753
-595.371
-601.701
-607.741
-613.492
-618.955
-624.135
-629.039
-633.687
-638.109
-642.334
-646.387
-650.28
-654.011
-657.581
-660.998
-664.263
-667.384
-670.353
-673.148
-675.755
-678.167
-680.371
-682.36
-684.102
-685.54
-686.635
-687.364
-687.724
-687.742
-687.447
-686.865
-686.041
-685.034
-683.924
-682.816
-681.793
-680.915
-680.243
-679.834
-679.765
-680.134
-681.014
-682.449
-684.461
-687.046
-690.193
-693.888
-698.082
-702.695
-707.623
-712.743
-717.96
-723.204
-728.419
-733.552
-738.545
-743.342
-747.921
-752.291
-756.468
-760.474
-764.316
-767.99
-771.539
-775.052
-778.629
-782.374
-786.374
-790.653
-795.255
-800.278
-805.687
-811.315
-816.865
-821.827
-825.747
-828.364
-829.303
-828.109
-824.701
-819.213
-812.157
-804.711
-797.764
-791.801
-787.601
-785.805
-786.268
-788.458
-790.946
-791.104
-786.775
-776.122
-756.787
-726.843
-685.395
-632.384
-569.347
-499.576
-426.496
-354.158
-287.796
-232.74
-193.912
-175.359
-179.508
-206.995
-257.321
-328.14
-415.027
-512.272
-613.326
-711.686
-801.416
-877.441
-935.891
-974.946
-994.918
-997.741
-986.647
-965.395
-938.044
-908.767
-881.18
-857.523
-838.667
-824.505
-814.191
-806.621
-800.463
-794.09
-786.036
-775.573
-762.679
-747.777
-731.543
-714.613
-697.599
-681.233
-666.232
-653.026
-641.743
-632.288
-624.439
-617.986
-612.775
-608.627
-605.308
-602.593
-600.287
-598.221
-596.285
-594.384
-592.383
-590.128
-587.482
-584.328
-580.604
-576.303
-571.42
-565.963
-559.956
-553.434
-546.462
-539.135
-531.542
-523.764
-515.876
-507.944
-500.052
-492.305
-484.789
-477.572
-470.696
-464.177
-458.03
-452.271
-446.897
-441.894
-437.238
-432.894
-428.831
-425.03
-421.46
-418.09
-414.879
-411.777
-408.741
-405.74
-402.743
-399.727
-396.668
-393.539
-390.325
-387.012
-383.588
-380.037
-376.343
-372.484
-368.441
-364.201
-359.748
-355.071
-350.156
-344.989
-339.559
-333.855
-327.868
-321.59
-315.013
-308.128
-300.932
-293.425
-285.607
-277.483
-269.059
-260.345
-251.352
-242.095
-232.589
-222.852
-212.905
-202.769
-192.466
-182.022
-171.461
-160.809
-150.095
-139.349
-128.601
-117.882
-107.224
-96.661
-86.229
-75.964
-65.9
-56.071
-46.509
-37.246
-28.312
-19.737
-11.549
-3.768
3.582
10.476
16.888
22.793
28.172
33.02
37.34
41.131
44.396
47.137
49.367
51.103
52.361
53.145
53.447
53.262
52.595
51.467
49.912
47.964
45.647
42.972
39.949
36.597
32.939
28.992
24.757
20.227
15.418
10.382
5.201
-0.043
-5.288
-10.493
-15.629
-20.662
-25.545
-30.222
-34.646
-38.784
-42.599
-46.04
-49.035
-51.502
-53.4
-54.733
-55.549
-55.894
-55.79
-55.247
-54.269
-52.876
-51.093
-48.946
-46.445
-43.595
-40.411
-36.93
-33.21
-29.319
-25.293
-21.131
-16.806
-12.298
-7.604
-2.728
2.325
7.56
12.982
18.581
24.333
30.211
36.199
42.295
48.508
54.848
61.311
67.877
74.518
81.21
87.934
94.675
101.414
108.131
114.808
121.437
128.023
134.566
141.065
147.514
153.904
160.229
166.486
172.674
178.793
184.843
190.824
196.737
202.584
208.369
214.094
219.758
225.358
230.892
236.36
241.759
247.091
252.352
257.542
262.66
267.706
272.681
277.581
282.407
287.156
291.824
296.408
300.906
305.311
309.62
313.827
317.927
321.912
325.775
329.511
333.109
336.562
339.861
342.997
345.96
348.739
351.325
353.707
355.875
357.818
359.528
360.994
362.206
363.154
363.831
364.227
364.334
364.142
363.644
362.834
361.706
360.252
358.47
356.356
353.906
351.121
347.999
344.541
340.75
336.627
332.179
327.409
322.327
316.938
311.254
305.284
299.041
292.539
285.79
278.809
271.611
264.213
256.629
248.878
240.976
232.94
224.788
216.537
208.207
199.814
191.378
182.917
174.446
165.985
157.55
149.156
140.819
132.553
124.372
116.289
108.317
100.468
92.751
85.176
77.75
70.482
63.376
56.437
49.67
43.074
36.654
30.411
24.346
18.459
12.75
7.221
1.871
-3.298
-8.288
-13.101
-17.738
-22.203
-26.497
-30.626
-34.595
-38.409
-42.072
-45.586
-48.952
-52.172
-55.246
-58.177
-60.965
-63.607
-66.103
-68.456
-70.67
-72.748
-74.691
-76.496
-78.157
-79.672
-81.046
-82.287
-83.401
-84.397
-85.289
-86.102
-86.869
-87.625
-88.392
-89.181
-89.989
-90.822
-91.682
-92.575
-93.505
-94.463
-95.431
-96.402
-97.374
-98.345
-99.296
-100.189
-100.96
-101.562
-101.969
-102.185
-102.231
-102.128
-101.903
-101.599
-101.275
-101.018
-100.91
-101.007
-101.351
-101.983
-102.954
-104.343
-106.249
-108.751
-111.888
-115.679
-120.116
-125.182
-130.845
-137.041
-143.664
-150.575
-157.638
-164.738
-171.781
-178.681
-185.341
-191.655
-197.493
-202.748
-207.34
-211.191
-214.247
-216.466
-217.81
-218.275
-217.911
-216.803
-215.061
-212.802
-210.108
-207.038
-203.646
-199.989
-196.165
-192.266
-188.366
-184.56
-180.882
-177.398
-174.266
-171.489
-168.909
-166.249
-162.974
-158.589
-152.859
-145.422
-135.841
-124.163
-110.633
-95.879
-81.25
-67.727
-55.853
-46.461
-40.085
-36.354
-34.532
-32.987
-28.88
-19.958
-4.256
20.657
56.491
103.779
162.208
229.899
303.218
378.362
450.899
515.362
566.59
600.062
612.178
600.866
565.876
508.432
431.682
340.561
240.804
138.798
40.757
-47.448
-120.605
-175.465
-211.128
-228.393
-229.276
-217.029
-195.126
-167.713
-139.739
-114.583
-93.788
-77.996
-66.991
-59.893
-56.06
-54.24
-51.913
-47.552
-40.747
-31.41
-20.08
-7.382
6.618
21.625
36.453
50.305
62.831
73.745
83.249
91.541
98.451
103.891
108.138
111.444
114.03
116.157
117.854
119.123
120.067
120.747
121.192
121.443
121.518
121.434
121.257
121.058
120.911
120.912
121.113
121.526
122.142
122.921
123.826
124.846
125.971
127.195
128.509
129.898
131.351
132.861
134.411
135.97
137.487
138.892
140.141
141.216
142.113
142.846
143.431
143.873
144.19
144.406
144.543
144.621
144.655
144.653
144.634
144.624
144.657
144.776
145.015
145.394
145.931
146.638
147.523
148.593
149.85
151.285
152.894
154.675
156.626
158.75
161.043
163.501
166.113
168.87
171.762
174.777
177.907
181.136
184.455
187.85
191.309
194.823
198.379
201.962
205.557
209.147
212.717
216.249
219.726
223.129
226.44
229.64
232.713
235.64
238.405
240.988
243.374
245.547
247.489
249.185
250.621
251.783
252.657
253.23
253.494
253.436
253.05
252.328
251.264
249.854
248.096
245.989
243.534
240.732
237.588
234.107
230.296
226.164
221.72
216.977
211.946
206.644
201.087
195.29
189.273
183.056
176.659
170.105
163.414
156.611
149.719
142.763
135.765
128.752
121.747
114.775
107.858
101.021
94.286
87.674
81.206
74.903
68.781
62.859
57.151
51.671
46.432
41.446
36.72
32.264
28.082
24.181
20.562
17.227
14.177
11.408
8.918
6.702
4.754
3.067
1.633
0.441
-0.518
-1.255
-1.783
-2.113
-2.259
-2.234
-2.051
-1.725
-1.268
-0.694
-0.017
0.751
1.597
2.511
3.482
4.499
5.552
6.634
7.737
8.852
9.975
11.099
12.22
13.334
14.439
15.531
16.609
17.673
18.72
19.752
20.769
21.77
22.757
23.729
24.69
25.638
26.577
27.506
28.427
29.341
30.249
31.151
32.047
32.937
33.82
34.694
35.558
36.41
37.248
38.068
38.866
39.64
40.384
41.095
41.768
42.397
42.977
43.503
43.969
44.37
44.702
44.959
45.138
45.234
45.244
45.166
44.996
44.733
44.377
43.925
43.378
42.737
42.002
41.177
40.263
39.264
38.185
37.029
35.801
34.509
33.157
31.753
30.304
28.817
27.3
25.762
24.211
22.656
21.106
19.57
18.056
16.573
15.129
13.732
12.39
11.109
9.896
8.755
7.692
6.711
5.816
5.009
4.293
3.668
3.136
2.697
2.35
2.093
1.926
1.845
1.848
1.931
2.092
2.326
2.629
2.997
3.425
3.908
4.441
5.018
5.635
6.284
6.962
7.661
8.376
9.1
9.83
10.559
11.283
11.998
12.701
13.387
14.055
14.701
15.323
15.921
16.492
17.035
17.549
18.033
18.487
18.911
19.305
19.668
20
20.301
20.571
20.809
21.016
21.189
21.33
21.438
21.514
21.559
21.574
21.561
21.522
21.462
21.383
21.288
21.179
21.059
20.929
20.793
20.651
20.503
20.349
20.192
20.035
19.883
19.741
19.613
19.507
19.427
19.384
19.384
19.434
19.535
19.693
19.914
20.209
20.592
21.071
21.649
22.327
23.104
23.979
24.944
25.984
27.068
28.173
29.281
30.389
31.503
32.627
33.762
34.907
36.064
37.245
38.469
39.747
41.082
42.479
43.957
45.552
47.325
49.325
51.573
54.063
56.769
59.663
62.71
65.861
69.05
72.179
75.161
77.928
80.426
82.606
84.407
85.737
86.482
86.547
85.866
84.406
82.165
79.136
75.34
70.83
65.697
60.079
54.111
47.899
41.527
35.07
28.609
22.251
16.122
10.326
4.955
0.081
-4.259
-8.015
-11.164
-13.734
-15.798
-17.504
-19.017
-20.47
-21.968
-23.582
-25.386
-27.486
-29.986
-32.989
-36.596
-40.858
-45.836
-51.637
-58.219
-65.42
-72.927
-80.171
-86.609
-91.81
-95.241
-96.487
-95.526
-92.551
-88.132
-83.263
-78.66
-74.953
-73.026
-73.224
-75.116
-77.723
-79.296
-77.649
-70.912
-57.058
-33.631
1.005
47.136
103.817
168.855
239.215
311.23
380.243
440.471
486.242
513.318
518.843
501.002
459.381
395.478
312.77
216.894
114.719
12.497
-83.982
-168.828
-237.315
-286.817
-316.728
-328.741
-326.17
-312.387
-291.077
-266.771
-243.551
-224.104
-209.819
-200.63
-195.507
-193.411
-193.133
-192.915
-191.105
-186.808
-179.776
-170.407
-159.506
-147.772
-135.819
-124.38
-114.139
-105.478
-98.562
-93.356
-89.649
-87.267
-86.053
-85.793
-86.283
-87.337
-88.761
-90.384
-92.041
-93.555
-94.795
-95.684
-96.153
-96.17
-95.702
-94.7
-93.157
-91.09
-88.527
-85.511
-82.084
-78.29
-74.21
-69.944
-65.604
-61.304
-57.121
-53.098
-49.272
-45.666
-42.301
-39.203
-36.374
-33.801
-31.477
-29.39
-27.531
-25.894
-24.454
-23.17
-22
-20.897
-19.825
-18.763
-17.687
-16.579
-15.422
-14.201
-12.907
-11.537
-10.086
-8.543
-6.896
-5.134
-3.249
-1.238
0.901
3.171
5.572
8.106
10.775
13.579
16.516
19.588
22.794
26.135
29.607
33.204
36.92
40.746
44.671
48.684
52.773
56.922
61.118
65.344
69.584
73.821
78.039
82.217
86.339
90.383
94.331
98.163
101.859
105.398
108.762
111.93
114.883
117.603
120.073
122.274
124.192
125.812
127.119
128.102
128.749
129.05
129
128.59
127.817
126.678
125.173
123.302
121.069
118.478
115.537
112.252
108.635
104.696
100.45
95.911
91.094
86.018
80.702
75.164
69.425
63.509
57.436
51.231
44.917
38.518
32.058
25.562
19.053
12.555
6.09
-0.319
-6.651
-12.887
-19.008
-24.995
-30.832
-36.505
-42
-47.305
-52.411
-57.308
-61.99
-66.452
-70.691
-74.705
-78.494
-82.06
-85.405
-88.533
-91.451
-94.164
-96.68
-99.01
-101.161
-103.146
-104.976
-106.663
-108.219
-109.657
-110.99
-112.229
-113.388
-114.478
-115.51
-116.495
-117.444
-118.364
-119.265
-120.154
-121.037
-121.919
-122.804
-123.695
-124.593
-125.499
-126.412
-127.329
-128.249
-129.166
-130.078
-130.978
-131.859
-132.717
-133.542
-134.326
-135.062
-135.741
-136.353
-136.888
-137.339
-137.696
-137.949
-138.092
-138.115
-138.012
-137.777
-137.402
-136.883
-136.216
-135.398
-134.426
-133.299
-132.017
-130.58
-128.992
-127.255
-125.374
-123.353
-121.2
-118.92
-116.522
-114.014
-111.405
-108.704
-105.922
-103.068
-100.154
-97.191
-94.19
-91.162
-88.119
-85.073
-82.033
-79.012
-76.02
-73.066
-70.161
-67.313
-64.531
-61.823
-59.196
-56.657
-54.211
-51.863
-49.618
-47.478
-45.445
-43.52
-41.705
-39.998
-38.399
-36.906
-35.517
-34.23
-33.042
-31.948
-30.946
-30.03
-29.196
-28.44
-27.756
-27.14
-26.586
-26.088
-25.643
-25.244
-24.886
-24.566
-24.277
-24.015
-23.776
-23.556
-23.349
-23.153
-22.964
-22.78
-22.597
-22.413
-22.228
-22.039
-21.846
-21.649
-21.446
-21.237
-21.024
-20.806
-20.583
-20.357
-20.129
-19.898
-19.667
-19.437
-19.208
-18.982
-18.761
-18.544
-18.334
-18.13
-17.936
-17.75
-17.576
-17.414
-17.265
-17.13
-17.012
-16.909
-16.824
-16.757
-16.707
-16.675
-16.661
-16.664
-16.683
-16.717
-16.765
-16.824
-16.895
-16.973
-17.056
-17.142
-17.226
-17.307
-17.379
-17.438
-17.481
-17.503
-17.499
-17.466
-17.397
-17.289
-17.136
-16.932
-16.671
-16.348
-15.955
-15.487
-14.938
-14.301
-13.57
-12.741
-11.807
-10.764
-9.605
-8.329
-6.93
-5.405
-3.753
-1.972
-0.061
1.98
4.148
6.442
8.857
11.388
14.03
16.773
19.611
22.534
25.532
28.594
31.709
34.865
38.051
41.255
44.463
47.663
50.839
53.977
57.058
60.068
62.99
65.81
68.512
71.083
73.516
75.801
77.931
79.897
81.682
83.276
84.668
85.852
86.83
87.605
88.188
88.598
88.867
89.022
89.094
89.106
89.069
88.999
88.914
88.837
88.81
88.868
89.044
89.363
89.843
90.49
91.298
92.215
93.165
94.077
94.888
95.569
96.099
96.419
96.476
96.206
95.524
94.393
92.723
90.364
87.32
83.709
79.78
76.006
72.777
70.275
68.844
68.914
70.576
73.737
77.859
81.908
85.405
88.404
90.792
92.353
93.156
93.529
94.746
98.94
107.299
120.3
138.596
163.045
194.704
234.397
281.535
334.17
390.854
450.246
510.233
567.747
618.429
657.479
681.164
687.06
672.881
636.965
579.216
501.593
408.454
305.72
199.463
95.335
-0.802
-83.241
-147.537
-191.339
-214.496
-218.749
-206.732
-181.189
-145.732
-104.876
-62.901
-23.126
12.046
41.541
64.959
81.704
92.027
97.294
99.11
99.107
98.921
99.318
100.69
103.811
108.906
115.569
123.247
131.007
137.77
143.104
146.849
148.708
148.734
147.165
144.286
140.719
137.142
133.905
131.224
129.274
128.086
127.714
128.211
129.487
131.423
133.936
136.949
140.411
144.273
148.427
152.739
157.063
161.284
165.328
169.139
172.668
175.875
178.732
181.232
183.396
185.24
186.781
188.036
189.024
189.781
190.352
190.794
191.163
191.512
191.877
192.292
192.786
193.383
194.102
194.959
195.958
197.111
198.431
199.932
201.629
203.534
205.652
207.992
210.559
213.36
216.399
219.684
223.22
227.013
231.069
235.393
239.991
244.864
250.012
255.434
261.125
267.078
273.287
279.742
286.432
293.348
300.474
307.798
315.303
322.973
330.792
338.74
346.797
354.945
363.162
371.428
379.722
388.023
396.308
404.555
412.74
420.84
428.83
436.685
444.379
451.885
459.177
466.231
473.023
479.528
485.725
491.59
497.107
502.256
507.019
511.376
515.307
518.796
521.825
524.379
526.443
528.001
529.041
529.555
529.54
528.992
527.906
526.276
524.092
521.352
518.061
514.226
509.859
504.973
499.588
493.737
487.464
480.813
473.818
466.502
458.875
450.951
442.747
434.281
425.568
416.611
407.407
397.961
388.282
378.379
368.246
357.855
347.15
336.089
324.661
312.878
300.775
288.388
275.759
262.946
250.025
237.1
224.268
211.6
199.153
186.981
175.157
163.781
152.98
142.85
133.454
124.821
116.956
109.862
103.516
97.866
92.819
88.253
84.06
80.165
76.51
73.037
69.675
66.327
62.883
59.26
55.399
51.255
46.792
41.98
36.805
31.287
25.479
19.453
13.261
6.931
0.477
-6.088
-12.745
-19.465
-26.218
-32.995
-39.787
-46.584
-53.376
-60.15
-66.903
-73.647
-80.409
-87.219
-94.095
-101.044
-108.064
-115.151
-122.302
-129.511
-136.766
-144.049
-151.343
-158.635
-165.916
-173.178
-180.41
-187.595
-194.717
-201.759
-208.708
-215.552
-222.282
-228.887
-235.361
-241.699
-247.899
-253.961
-259.885
-265.67
-271.315
-276.819
-282.184
-287.411
-292.503
-297.463
-302.295
-307.004
-311.597
-316.082
-320.467
-324.76
-328.97
-333.105
-337.176
-341.191
-345.159
-349.09
-352.992
-356.875
-360.747
-364.617
-368.492
-372.379
-376.285
-380.218
-384.182
-388.182
-392.224
-396.309
-400.443
-404.626
-408.862
-413.15
-417.491
-421.884
-426.329
-430.822
-435.362
-439.944
-444.564
-449.216
-453.896
-458.597
-463.312
-468.034
-472.757
-477.472
-482.172
-486.849
-491.497
-496.106
-500.67
-505.181
-509.633
-514.017
-518.327
-522.557
-526.701
-530.753
-534.706
-538.557
-542.3
-545.932
-549.448
-552.848
-556.127
-559.285
-562.322
-565.237
-568.03
-570.703
-573.258
-575.698
-578.023
-580.238
-582.347
-584.352
-586.258
-588.07
-589.793
-591.429
-592.985
-594.465
-595.872
-597.212
-598.487
-599.702
-600.859
-601.963
-603.016
-604.021
-604.98
-605.896
-606.771
-607.605
-608.399
-609.155
-609.87
-610.544
-611.177
-611.766
-612.308
-612.803
-613.247
-613.636
-613.969
-614.245
-614.459
-614.61
-614.694
-614.708
-614.649
-614.514
-614.295
-613.988
-613.588
-613.089
-612.488
-611.782
-610.967
-610.042
-609.006
-607.857
-606.594
-605.213
-603.706
-602.069
-600.295
-598.385
-596.347
-594.186
-591.902
-589.501
-586.984
-584.348
-581.587
-578.677
-575.584
-572.276
-568.726
-564.913
-560.83
-556.464
-551.8
-546.824
-541.51
-535.844
-529.826
-523.447
-516.706
-509.625
-502.251
-494.684
-487.061
-479.51
-472.142
-465.041
-458.291
-451.994
-446.254
-441.183
-436.883
-433.394
-430.794
-429.204
-428.606
-428.864
-429.65
-430.362
-430.451
-429.484
-426.94
-422.424
-415.876
-407.453
-397.87
-388.303
-379.64
-372.668
-368.156
-366.24
-366.451
-367.78
-368.112
-364.802
-355.478
-337.606
-308.856
-268.016
-214.903
-150.556
-77.817
-0.537
76.73
148.34
208.33
251.37
273.097
270.543
242.653
189.992
115.137
22.889
-80.5
-188.073
-292.942
-388.691
-469.816
-532.175
-573.847
-595.23
-598.478
-587.049
-564.933
-536.463
-506.116
-477.791
-453.912
-435.429
-422.214
-413.354
-407.676
-403.772
-399.927
-394.581
-386.94
-376.952
-365.048
-351.934
-338.278
-324.696
-311.893
-300.553
-291.065
-283.51
-277.764
-273.563
-270.66
-268.859
-267.939
-267.642
-267.745
-268.043
-268.356
-268.562
-268.533
-268.151
-267.324
-265.966
-264.005
-261.411
-258.182
-254.332
-249.9
-244.93
-239.467
-233.581
-227.348
-220.857
-214.205
-207.479
-200.764
-194.129
-187.624
-181.296
-175.18
-169.295
-163.648
-158.233
-153.033
-148.035
-143.221
-138.57
-134.054
-129.641
-125.295
-120.978
-116.649
-112.275
-107.829
-103.287
-98.628
-93.84
-88.907
-83.824
-78.586
-73.19
-67.628
-61.895
-55.983
-49.89
-43.614
-37.155
-30.514
-23.692
-16.692
-9.516
-2.166
5.354
13.04
20.888
28.893
37.05
45.349
53.779
62.329
70.984
79.731
88.554
97.437
106.36
115.309
124.264
133.208
142.124
150.992
159.793
168.51
177.122
185.611
193.958
202.145
210.155
217.969
225.572
232.949
240.085
246.967
253.582
259.92
265.97
271.723
277.172
282.31
287.133
291.638
295.823
299.689
303.235
306.466
309.386
312.001
314.317
316.343
318.089
319.564
320.78
321.75
322.489
323.01
323.331
323.466
323.434
323.253
322.939
322.513
321.992
321.395
320.739
320.044
319.326
318.603
317.892
317.208
316.568
315.985
315.473
315.044
314.711
314.484
314.371
314.38
314.52
314.796
315.212
315.772
316.479
317.335
318.339
319.49
320.788
322.227
323.806
325.517
327.356
329.317
331.391
333.571
335.849
338.215
340.662
343.18
345.76
348.391
351.066
353.775
356.508
359.258
362.016
364.773
367.523
370.259
372.973
375.66
378.313
380.928
383.5
386.025
388.499
390.917
393.279
395.582
397.823
400.001
402.117
404.169
406.158
408.085
409.949
411.752
413.496
415.182
416.812
418.389
419.913
421.389
422.817
424.2
425.542
426.843
428.106
429.333
430.527
431.689
432.821
433.924
435.001
436.053
437.082
438.089
439.076
440.044
440.995
441.931
442.851
443.758
444.652
445.535
446.408
447.272
448.127
448.975
449.815
450.65
451.479
452.302
453.119
453.931
454.737
455.537
456.33
457.116
457.893
458.661
459.419
460.164
460.896
461.612
462.311
462.989
463.645
464.275
464.875
465.443
465.974
466.465
466.911
467.309
467.652
467.938
468.161
468.315
468.395
468.396
468.313
468.139
467.869
467.499
467.022
466.435
465.732
464.91
463.965
462.892
461.688
460.35
458.876
457.262
455.508
453.612
451.572
449.39
447.064
444.597
441.988
439.24
436.353
433.33
430.174
426.886
423.469
419.927
416.264
412.484
408.59
404.589
400.486
396.286
391.995
387.619
383.162
378.631
374.03
369.365
364.64
359.861
355.031
350.157
345.242
340.291
335.307
330.293
325.252
320.188
315.101
309.994
304.87
299.731
294.579
289.417
284.249
279.078
273.909
268.745
263.591
258.449
253.323
248.215
243.126
238.057
233.011
227.987
222.987
218.015
213.073
208.168
203.306
198.494
193.736
189.04
184.41
179.851
175.368
170.961
166.635
162.394
158.248
154.207
150.28
146.47
142.777
139.195
135.71
132.304
128.957
125.646
122.352
119.066
115.786
112.523
109.287
106.091
102.936
99.811
96.707
93.62
90.547
87.494
84.477
81.525
78.673
75.967
73.435
71.083
68.891
66.813
64.789
62.745
60.626
58.39
56.002
53.436
50.666
47.661
44.376
40.751
36.712
32.175
27.08
21.391
15.117
8.306
1.037
-6.571
-14.416
-22.408
-30.472
-38.553
-46.598
-54.546
-62.329
-69.86
-77.038
-83.762
-89.95
-95.525
-100.467
-104.814
-108.643
-112.095
-115.294
-118.323
-121.271
-124.223
-127.268
-130.52
-134.084
-138.035
-142.495
-147.631
-153.5
-160.059
-167.082
-174.117
-180.706
-186.476
-191.02
-193.881
-194.837
-194.011
-191.914
-189.514
-187.746
-187.13
-188.054
-190.988
-195.986
-202.367
-208.754
-212.939
-212.503
-205.547
-190.442
-165.573
-129.475
-81.48
-22.43
45.773
118.778
190.07
255.957
313.755
362.441
405.585
438.751
451.046
433.141
373.36
273.7
150.721
19.757
-102.432
-207.363
-297.462
-372.731
-432.854
-477.147
-502.623
-509.972
-502.808
-485.005
-461.405
-436.45
-413.357
-394.27
-380.067
-370.509
-364.659
-361.345
-359.193
-356.642
-352.334
-345.611
-336.513
-325.536
-313.43
-300.921
-288.684
-277.46
-267.967
-260.592
-255.398
-252.263
-250.911
-251.093
-252.623
-255.272
-258.752
-262.815
-267.238
-271.818
-276.429
-280.927
-285.131
-288.891
-292.067
-294.565
-296.364
-297.461
-297.864
-297.601
-296.711
-295.246
-293.299
-290.959
-288.309
-285.443
-282.437
-279.376
-276.363
-273.481
-270.794
-268.347
-266.15
-264.207
-262.517
-261.069
-259.839
-258.798
-257.903
-257.117
-256.411
-255.745
-255.084
-254.381
-253.585
-252.65
-251.545
-250.239
-248.713
-246.948
-244.924
-242.631
-240.064
-237.218
-234.086
-230.664
-226.94
-222.909
-218.569
-213.92
-208.965
-203.706
-198.146
-192.289
-186.14
-179.708
-173.001
-166.028
-158.798
-151.325
-143.623
-135.711
-127.608
-119.336
-110.916
-102.372
-93.73
-85.015
-76.252
-67.469
-58.69
-49.943
-41.254
-32.651
-24.162
-15.812
-7.629
0.361
8.132
15.658
22.917
29.884
36.539
42.859
48.825
54.42
59.626
64.429
68.815
72.772
76.292
79.365
81.988
84.155
85.866
87.12
87.921
88.271
88.177
87.648
86.691
85.319
83.543
81.378
78.839
75.943
72.708
69.155
65.303
61.174
56.791
52.177
47.357
42.354
37.193
31.9
26.5
21.019
15.481
9.913
4.338
-1.218
-6.731
-12.179
-17.54
-22.793
-27.917
-32.893
-37.704
-42.334
-46.767
-50.989
-54.988
-58.754
-62.277
-65.549
-68.565
-71.318
-73.807
-76.029
-77.984
-79.673
-81.097
-82.261
-83.168
-83.825
-84.238
-84.414
-84.363
-84.094
-83.617
-82.944
-82.086
-81.054
-79.862
-78.522
-77.046
-75.449
-73.743
-71.941
-70.054
-68.097
-66.079
-64.014
-61.911
-59.78
-57.631
-55.473
-53.313
-51.158
-49.014
-46.887
-44.782
-42.702
-40.652
-38.633
-36.647
-34.697
-32.783
-30.905
-29.063
-27.256
-25.482
-23.741
-22.03
-20.346
-18.688
-17.051
-15.432
-13.829
-12.237
-10.654
-9.075
-7.498
-5.92
-4.337
-2.749
-1.152
0.454
2.072
3.7
5.34
6.992
8.654
10.326
12.006
13.693
15.385
17.081
18.778
20.473
22.165
23.852
25.532
27.201
28.859
30.502
32.13
33.739
35.329
36.897
38.441
39.96
41.453
42.919
44.357
45.767
47.149
48.502
49.829
51.13
52.407
53.662
54.897
56.113
57.315
58.504
59.683
60.856
62.026
63.194
64.363
65.537
66.716
67.902
69.096
70.299
71.511
72.732
73.96
75.196
76.437
77.682
78.929
80.173
81.414
82.645
83.864
85.065
86.242
87.39
88.502
89.573
90.593
91.557
92.455
93.282
94.027
94.684
95.243
95.697
96.038
96.258
96.35
96.307
96.123
95.792
95.31
94.671
93.873
92.913
91.789
90.5
89.044
87.423
85.637
83.688
81.578
79.313
76.895
74.332
71.628
68.793
65.833
62.759
59.58
56.306
52.949
49.522
46.036
42.506
38.944
35.365
31.784
28.217
24.677
21.18
17.741
14.376
11.099
7.924
4.865
1.936
-0.85
-3.481
-5.944
-8.228
-10.322
-12.216
-13.902
-15.371
-16.617
-17.632
-18.414
-18.958
-19.262
-19.326
-19.15
-18.735
-18.085
-17.203
-16.096
-14.771
-13.237
-11.504
-9.585
-7.493
-5.243
-2.851
-0.337
2.281
4.984
7.75
10.559
13.388
16.215
19.017
21.773
24.462
27.06
29.545
31.896
34.09
36.11
37.934
39.543
40.919
42.043
42.9
43.481
43.775
43.776
43.473
42.856
41.919
40.661
39.087
37.203
35.018
32.544
29.807
26.844
23.7
20.419
17.038
13.59
10.105
6.622
3.183
-0.165
-3.384
-6.445
-9.33
-12.016
-14.487
-16.743
-18.812
-20.766
-22.699
-24.697
-26.831
-29.156
-31.696
-34.502
-37.642
-41.168
-45.15
-49.632
-54.602
-60.108
-66.215
-72.837
-79.77
-86.605
-92.687
-97.46
-100.484
-101.231
-99.348
-94.813
-87.823
-79.178
-70.128
-61.687
-54.83
-50.474
-48.844
-49.539
-51.581
-52.845
-50.66
-42.499
-25.571
2.64
43.445
97.046
162.327
236.309
314.946
393.352
465.465
524.99
566.393
585.233
578.552
545.32
486.239
404.197
304.329
193.217
78.026
-34.38
-137.52
-225.573
-294.111
-340.968
-366.112
-371.446
-360.123
-335.412
-301.305
-262.578
-223.582
-187.591
-156.944
-132.558
-114.532
-103.198
-98.036
-97.427
-99.678
-103.119
-106.124
-107.995
-108.392
-106.587
-102.424
-96.404
-89.137
-81.586
-74.852
-69.37
-65.329
-63.048
-62.504
-63.486
-65.722
-68.628
-71.543
-74.138
-76.235
-77.692
-78.492
-78.567
-77.841
-76.379
-74.289
-71.646
-68.507
-64.907
-60.879
-56.53
-52.011
-47.456
-42.978
-38.645
-34.498
-30.577
-26.924
-23.575
-20.546
-17.832
-15.423
-13.313
-11.5
-9.974
-8.706
-7.648
-6.739
-5.927
-5.168
-4.432
-3.693
-2.928
-2.117
-1.243
-0.297
0.732
1.86
3.106
4.493
6.043
7.772
9.694
11.819
14.158
16.718
19.508
22.539
25.824
29.38
33.219
37.349
41.771
46.487
51.486
56.755
62.268
67.984
73.873
79.913
86.089
92.397
98.829
105.372
112.018
118.754
125.574
132.473
139.441
146.456
153.514
160.619
167.796
175.091
182.524
190.085
197.752
205.477
213.209
220.894
228.456
235.802
242.849
249.516
255.74
261.481
266.675
271.246
275.1
278.117
280.214
281.349
281.492
280.638
278.805
276.019
272.346
267.893
262.743
256.969
250.629
243.757
236.408
228.659
220.59
212.301
203.873
195.36
186.816
178.286
169.795
161.358
152.96
144.552
136.109
127.626
119.106
110.573
102.042
93.518
85.009
76.524
68.073
59.675
51.344
43.091
34.939
26.917
19.067
11.444
4.09
-2.964
-9.696
-16.089
-22.132
-27.809
-33.115
-38.051
-42.617
-46.812
-50.635
-54.085
-57.162
-59.876
-62.236
-64.258
-65.954
-67.339
-68.424
-69.224
-69.752
-70.023
-70.047
-69.836
-69.401
-68.758
-67.92
-66.905
-65.727
-64.402
-62.947
-61.377
-59.707
-57.953
-56.128
-54.244
-52.315
-50.352
-48.368
-46.371
-44.374
-42.384
-40.411
-38.463
-36.547
-34.669
-32.835
-31.048
-29.314
-27.635
-26.012
-24.449
-22.946
-21.503
-20.121
-18.799
-17.536
-16.331
-15.182
-14.086
-13.041
-12.044
-11.092
-10.181
-9.308
-8.469
-7.662
-6.882
-6.126
-5.392
-4.676
-3.975
-3.287
-2.608
-1.937
-1.27
-0.606
0.057
0.72
1.385
2.051
2.719
3.389
4.061
4.734
5.407
6.079
6.748
7.412
8.071
8.722
9.362
9.991
10.605
11.203
11.782
12.341
12.877
13.389
13.874
14.33
14.756
15.15
15.51
15.835
16.122
16.371
16.581
16.749
16.877
16.961
17.003
17.001
16.957
16.869
16.738
16.565
16.35
16.095
15.8
15.466
15.095
14.687
14.243
13.765
13.252
12.706
12.128
11.517
10.875
10.203
9.5
8.768
8.005
7.214
6.394
5.545
4.668
3.763
2.831
1.871
0.885
-0.127
-1.164
-2.227
-3.314
-4.424
-5.558
-6.714
-7.891
-9.088
-10.304
-11.538
-12.786
-14.046
-15.317
-16.593
-17.873
-19.151
-20.425
-21.689
-22.939
-24.17
-25.378
-26.556
-27.701
-28.805
-29.864
-30.871
-31.822
-32.711
-33.532
-34.282
-34.954
-35.545
-36.051
-36.468
-36.793
-37.023
-37.155
-37.189
-37.124
-36.959
-36.697
-36.339
-35.89
-35.353
-34.737
-34.047
-33.294
-32.485
-31.632
-30.746
-29.839
-28.923
-28.013
-27.121
-26.26
-25.446
-24.693
-24.017
-23.433
-22.957
-22.603
-22.387
-22.325
-22.433
-22.723
-23.207
-23.892
-24.785
-25.9
-27.247
-28.837
-30.671
-32.749
-35.069
-37.628
-40.419
-43.424
-46.616
-49.955
-53.41
-56.952
-60.562
-64.22
-67.899
-71.562
-75.17
-78.695
-82.116
-85.421
-88.596
-91.623
-94.499
-97.251
-99.95
-102.682
-105.527
-108.537
-111.748
-115.177
-118.869
-122.897
-127.319
-132.199
-137.579
-143.445
-149.844
-156.864
-164.434
-172.353
-180.216
-187.386
-193.349
-197.746
-200.133
-200.178
-197.878
-193.437
-187.641
-181.747
-176.714
-173.379
-172.52
-174.259
-178.122
-183.126
-187.193
-187.688
-182.204
-168.162
-143.257
-106.379
-57.469
2.327
70.145
142.179
213.931
279.851
334.169
371.832
388.802
382.431
351.836
297.583
222.156
130.175
27.626
-78.867
-182.791
-278.103
-359.524
-422.922
-466.263
-489.775
-495.408
-486.389
-466.478
-439.78
-410.632
-382.994
-359.43
-341.042
-327.9
-319.253
-314.052
-311.022
-308.517
-304.941
-299.493
-292.094
-283.093
-273.16
-262.927
-252.964
-244.006
-236.751
-231.544
-228.432
-227.246
-227.672
-229.448
-232.355
-236.12
-240.449
-245.069
-249.741
-254.294
-258.592
-262.511
-265.93
-268.725
-270.816
-272.171
-272.79
-272.701
-271.944
-270.561
-268.612
-266.176
-263.334
-260.183
-256.823
-253.343
-249.842
-246.4
-243.076
-239.931
-237.003
-234.308
-231.851
-229.626
-227.614
-225.796
-224.153
-222.651
-221.265
-219.96
-218.699
-217.445
-216.155
-214.791
-213.327
-211.737
-210.002
-208.107
-206.038
-203.784
-201.337
-198.69
-195.83
-192.748
-189.432
-185.872
-182.062
-177.998
-173.68
-169.106
-164.27
-159.166
-153.784
-148.119
-142.168
-135.936
-129.43
-122.664
-115.661
-108.449
-101.058
-93.514
-85.836
-78.035
-70.113
-62.072
-53.911
-45.639
-37.278
-28.847
-20.364
-11.842
-3.291
5.294
13.924
22.619
31.406
40.296
49.281
58.328
67.378
76.361
85.192
93.8
102.133
110.141
117.777
124.998
131.755
137.991
143.639
148.622
152.847
156.244
158.77
160.413
161.201
161.184
160.437
159.028
157.01
154.432
151.33
147.743
143.705
139.262
134.462
129.37
124.071
118.639
113.133
107.59
102.02
96.413
90.741
84.982
79.123
73.16
67.1
60.959
54.756
48.513
42.255
35.996
29.738
23.484
17.241
11.025
4.865
-1.205
-7.138
-12.894
-18.434
-23.723
-28.739
-33.461
-37.876
-41.976
-45.76
-49.223
-52.356
-55.155
-57.61
-59.719
-61.481
-62.901
-63.983
-64.736
-65.169
-65.292
-65.115
-64.647
-63.9
-62.88
-61.596
-60.058
-58.276
-56.264
-54.035
-51.603
-48.985
-46.196
-43.255
-40.178
-36.983
-33.686
-30.304
-26.854
-23.353
-19.815
-16.258
-12.696
-9.145
-5.62
-2.134
1.298
4.664
7.95
11.145
14.238
17.219
20.079
22.808
25.4
27.847
30.144
32.284
34.265
36.082
37.732
39.215
40.531
41.68
42.664
43.487
44.153
44.666
45.031
45.256
45.346
45.309
45.152
44.885
44.514
44.05
43.501
42.878
42.189
41.444
40.653
39.826
38.971
38.097
37.214
36.329
35.45
34.585
33.741
32.924
32.141
31.397
30.696
30.042
29.438
28.887
28.391
27.951
27.567
27.24
26.969
26.752
26.589
26.477
26.415
26.398
26.425
26.493
26.598
26.738
26.909
27.108
27.333
27.582
27.851
28.138
28.443
28.763
29.097
29.445
29.806
30.181
30.571
30.976
31.398
31.84
32.303
32.792
33.307
33.854
34.435
35.055
35.716
36.423
37.179
37.988
38.855
39.781
40.771
41.826
42.948
44.137
45.396
46.723
48.117
49.576
51.099
52.681
54.321
56.012
57.752
59.533
61.35
63.195
65.062
66.942
68.827
70.705
72.57
74.409
76.215
77.976
79.683
81.325
82.893
84.378
85.77
87.062
88.244
89.309
90.252
91.069
91.755
92.309
92.731
93.02
93.18
93.215
93.129
92.928
92.616
92.203
91.694
91.098
90.423
89.677
88.87
88.015
87.127
86.221
85.311
84.414
83.546
82.727
81.974
81.302
80.723
80.248
79.891
79.668
79.597
79.689
79.946
80.368
80.956
81.704
82.603
83.634
84.765
85.966
87.217
88.508
89.838
91.199
92.582
93.974
95.362
96.752
98.15
99.557
100.965
102.373
103.791
105.248
106.792
108.457
110.242
112.131
114.094
116.106
118.139
120.159
122.113
123.934
125.569
126.985
128.156
129.054
129.627
129.804
129.501
128.667
127.285
125.357
122.887
119.883
116.371
112.388
108
103.277
98.24
92.905
87.285
81.391
75.267
68.959
62.489
55.879
49.132
42.258
35.305
28.3
21.232
14.099
6.861
-0.502
-7.89
-15.256
-22.6
-29.771
-36.571
-42.686
-47.555
-50.737
-51.95
-50.789
-46.984
-40.65
-32.058
-21.855
-11.175
-0.875
8.365
15.622
20.488
23.352
25.006
26.95
31.402
40.307
55.395
78.905
112.624
156.819
210.732
272.791
338.238
401.983
461.491
511.37
549.851
577.183
585.05
568.603
523.025
443.211
339.28
222.676
103.921
-4.349
-99.789
-180.951
-244.163
-289.509
-315.618
-322.613
-314.137
-293.702
-265.356
-234.044
-204.262
-178.784
-158.783
-144.469
-135.153
-130.094
-128.798
-129.562
-129.862
-128.342
-124.55
-118.452
-110.589
-101.165
-89.877
-77.326
-64.856
-53.301
-43.19
-34.735
-27.692
-22.062
-18.154
-15.873
-14.763
-14.465
-14.618
-15.021
-15.741
-16.748
-17.911
-19.171
-20.496
-21.843
-23.187
-24.459
-25.519
-26.281
-26.696
-26.743
-26.452
-25.86
-25.009
-23.949
-22.717
-21.335
-19.823
-18.194
-16.459
-14.648
-12.802
-10.968
-9.21
-7.578
-6.099
-4.787
-3.635
-2.626
-1.735
-0.932
-0.179
0.552
1.287
2.047
2.848
3.715
4.678
5.774
7.045
8.527
10.249
12.234
14.498
17.053
19.906
23.059
26.505
30.241
34.263
38.57
43.16
48.028
53.167
58.565
64.209
70.085
76.176
82.466
88.936
95.566
102.336
109.225
116.214
123.279
130.398
137.543
144.688
151.806
158.87
165.85
172.718
179.444
186.002
192.362
198.498
204.382
209.99
215.295
220.273
224.901
229.158
233.023
236.477
239.502
242.082
244.202
245.851
247.016
247.689
247.864
247.535
246.7
245.359
243.512
241.163
238.318
234.984
231.171
226.889
222.153
216.976
211.377
205.374
198.986
192.236
185.145
177.739
170.042
162.08
153.879
145.466
136.87
128.117
119.237
110.258
101.208
92.116
83.008
73.914
64.859
55.87
46.973
38.192
29.552
21.075
12.782
4.694
-3.17
-10.791
-18.154
-25.244
-32.047
-38.551
-44.746
-50.625
-56.179
-61.403
-66.294
-70.849
-75.067
-78.949
-82.495
-85.709
-88.595
-91.157
-93.402
-95.337
-96.97
-98.31
-99.365
-100.146
-100.665
-100.931
-100.958
-100.758
-100.342
-99.726
-98.921
-97.941
-96.801
-95.513
-94.093
-92.553
-90.906
-89.166
-87.345
-85.455
-83.509
-81.516
-79.49
-77.438
-75.373
-73.301
-71.234
-69.178
-67.143
-65.135
-63.161
-61.229
-59.344
-57.513
-55.74
-54.032
-52.393
-50.827
-49.34
-47.933
-46.611
-45.377
-44.233
-43.181
-42.223
-41.359
-40.592
-39.921
-39.349
-38.874
-38.498
-38.221
-38.043
-37.965
-37.986
-38.107
-38.328
-38.647
-39.066
-39.584
-40.2
-40.914
-41.724
-42.63
-43.63
-44.721
-45.902
-47.169
-48.52
-49.951
-51.457
-53.036
-54.681
-56.389
-58.153
-59.969
-61.83
-63.731
-65.666
-67.627
-69.608
-71.603
-73.603
-75.601
-77.59
-79.561
-81.508
-83.42
-85.291
-87.113
-88.876
-90.574
-92.197
-93.739
-95.192
-96.549
-97.804
-98.951
-99.984
-100.901
-101.695
-102.366
-102.911
-103.329
-103.619
-103.781
-103.818
-103.73
-103.52
-103.192
-102.75
-102.199
-101.544
-100.791
-99.947
-99.02
-98.017
-96.946
-95.815
-94.633
-93.411
-92.156
-90.879
-89.589
-88.296
-87.01
-85.741
-84.497
-83.288
-82.121
-81.005
-79.947
-78.953
-78.029
-77.179
-76.409
-75.721
-75.119
-74.603
-74.176
-73.837
-73.585
-73.42
-73.339
-73.339
-73.418
-73.571
-73.793
-74.08
-74.427
-74.827
-75.274
-75.761
-76.282
-76.828
-77.391
-77.964
-78.537
-79.102
-79.65
-80.174
-80.664
-81.114
-81.515
-81.86
-82.142
-82.354
-82.491
-82.545
-82.511
-82.384
-82.16
-81.833
-81.402
-80.863
-80.212
-79.449
-78.57
-77.576
-76.463
-75.233
-73.884
-72.417
-70.834
-69.136
-67.327
-65.41
-63.39
-61.274
-59.069
-56.781
-54.42
-51.992
-49.509
-46.978
-44.41
-41.816
-39.203
-36.583
-33.966
-31.364
-28.788
-26.25
-23.761
-21.331
-18.974
-16.701
-14.526
-12.459
-10.505
-8.673
-6.97
-5.407
-3.998
-2.748
-1.663
-0.746
0.005
0.589
1.012
1.291
1.452
1.526
1.543
1.525
1.487
1.449
1.431
1.457
1.561
1.76
2.07
2.506
3.077
3.786
4.629
5.569
6.53
7.426
8.174
8.698
8.957
8.917
8.535
7.748
6.489
4.707
2.352
-0.58
-4.125
-8.381
-13.295
-18.659
-24.112
-29.064
-32.987
-35.562
-36.369
-34.912
-31.143
-25.244
-17.79
-10.057
-2.993
2.894
6.816
8.207
7.354
4.92
2.432
2.627
7.697
19.513
40.444
72.258
115.64
170.45
234.97
305.763
379.213
451.003
515.698
567.93
602.717
616.008
605.318
569.928
510.67
430.39
333.834
227.065
117.134
10.914
-85.039
-165.066
-225.66
-265.495
-285.076
-286.765
-274.334
-251.961
-224.586
-197.143
-172.807
-153.34
-139.448
-130.66
-125.918
-123.965
-122.845
-120.446
-115.719
-108.374
-98.655
-87.288
-74.936
-62.191
-49.885
-38.93
-29.856
-22.874
-17.926
-14.715
-12.985
-12.545
-13.144
-14.482
-16.267
-18.206
-20.032
-21.599
-22.808
-23.56
-23.787
-23.401
-22.316
-20.511
-18.011
-14.855
-11.1
-6.806
-2.026
3.137
8.545
14.044
19.468
24.699
29.668
34.314
38.588
42.444
45.832
48.739
51.179
53.162
54.701
55.806
56.489
56.784
56.752
56.451
55.949
55.3
54.54
53.708
52.84
51.967
51.12
50.322
49.589
48.944
48.418
48.041
47.845
47.86
48.107
48.609
49.39
50.467
51.86
53.587
55.667
58.124
60.976
64.233
67.905
71.993
76.49
81.385
86.661
92.283
98.221
104.44
110.909
117.609
124.522
131.625
138.892
146.297
153.818
161.453
169.206
177.07
185.045
193.128
201.325
209.67
218.186
226.877
235.741
244.741
253.834
262.976
272.118
281.198
290.134
298.819
307.127
314.959
322.22
328.815
334.645
339.579
343.505
346.345
348.038
348.563
347.917
346.098
343.119
339.035
333.917
327.874
321.038
313.514
305.397
296.789
287.793
278.537
269.142
259.696
250.271
240.922
231.694
222.635
213.784
205.144
196.706
188.445
180.314
172.293
164.375
156.547
148.801
141.12
133.491
125.919
118.422
111.014
103.712
96.527
89.47
82.568
75.853
69.36
63.126
57.177
51.529
46.197
41.191
36.516
32.177
28.168
24.475
21.09
18.003
15.205
12.69
10.444
8.451
6.697
5.167
3.846
2.721
1.779
1.007
0.394
-0.069
-0.391
-0.58
-0.646
-0.596
-0.442
-0.192
0.143
0.554
1.032
1.569
2.155
2.785
3.451
4.147
4.868
5.608
6.361
7.124
7.891
8.658
9.421
10.174
10.915
11.638
12.34
13.015
13.661
14.27
14.84
15.365
15.84
16.259
16.618
16.911
17.133
17.28
17.348
17.33
17.225
17.026
16.73
16.335
15.836
15.231
14.516
13.69
12.751
11.697
10.528
9.242
7.839
6.321
4.687
2.94
1.081
-0.886
-2.958
-5.131
-7.399
-9.756
-12.198
-14.715
-17.301
-19.948
-22.646
-25.388
-28.162
-30.96
-33.772
-36.586
-39.392
-42.18
-44.94
-47.66
-50.33
-52.942
-55.486
-57.952
-60.333
-62.62
-64.807
-66.886
-68.851
-70.697
-72.419
-74.012
-75.473
-76.8
-77.991
-79.045
-79.964
-80.747
-81.396
-81.915
-82.306
-82.574
-82.724
-82.761
-82.691
-82.522
-82.261
-81.916
-81.496
-81.009
-80.462
-79.866
-79.228
-78.556
-77.858
-77.142
-76.412
-75.677
-74.942
-74.212
-73.492
-72.786
-72.097
-71.427
-70.779
-70.152
-69.549
-68.966
-68.404
-67.859
-67.329
-66.811
-66.299
-65.789
-65.274
-64.75
-64.207
-63.64
-63.039
-62.397
-61.705
-60.954
-60.135
-59.24
-58.261
-57.19
-56.02
-54.745
-53.359
-51.857
-50.235
-48.49
-46.62
-44.622
-42.498
-40.249
-37.875
-35.38
-32.768
-30.045
-27.217
-24.292
-21.278
-18.185
-15.023
-11.805
-8.542
-5.249
-1.94
1.369
4.662
7.921
11.128
14.264
17.312
20.25
23.061
25.723
28.218
30.527
32.631
34.513
36.154
37.541
38.659
39.497
40.044
40.292
40.231
39.855
39.161
38.145
36.803
35.135
33.14
30.822
28.193
25.264
22.045
18.548
14.782
10.758
6.497
2.018
-2.662
-7.518
-12.525
-17.644
-22.818
-27.994
-33.12
-38.152
-43.058
-47.797
-52.324
-56.598
-60.57
-64.203
-67.482
-70.379
-72.861
-74.924
-76.57
-77.845
-78.861
-79.703
-80.45
-81.178
-81.908
-82.702
-83.651
-84.824
-86.319
-88.207
-90.477
-93.201
-96.506
-100.332
-104.528
-108.728
-112.249
-114.563
-115.292
-113.945
-110.221
-104.143
-95.93
-86.439
-77.038
-68.805
-62.712
-59.606
-59.59
-62.168
-66.296
-69.732
-69.623
-63.278
-47.838
-20.863
18.76
71.058
134.842
206.974
283.113
358.125
425.777
479.771
514.845
526.821
512.863
472.298
406.359
318.356
213.978
100.164
-16.007
-127.703
-228.51
-313.098
-377.514
-419.988
-441.427
-444.425
-432.36
-408.878
-377.892
-343.603
-310.229
-280.878
-256.777
-238.01
-224.119
-214.675
-209.291
-206.865
-205.505
-203.469
-200.022
-195.136
-189.121
-182.083
-173.732
-164.236
-154.473
-145.57
-138.252
-132.717
-128.839
-126.504
-125.86
-126.933
-129.386
-132.614
-136.047
-139.354
-142.385
-145.092
-147.357
-149.008
-149.966
-150.254
-149.938
-149.084
-147.723
-145.853
-143.497
-140.734
-137.654
-134.379
-131.027
-127.697
-124.489
-121.486
-118.748
-116.337
-114.29
-112.621
-111.334
-110.42
-109.862
-109.643
-109.748
-110.144
-110.796
-111.661
-112.688
-113.83
-115.033
-116.251
-117.444
-118.578
-119.623
-120.557
-121.358
-122.012
-122.507
-122.831
-122.971
-122.914
-122.644
-122.146
-121.41
-120.423
-119.175
-117.657
-115.859
-113.772
-111.39
-108.71
-105.732
-102.453
-98.871
-94.982
-90.781
-86.273
-81.466
-76.372
-71.007
-65.395
-59.568
-53.567
-47.439
-41.217
-34.932
-28.605
-22.244
-15.864
-9.477
-3.091
3.274
9.6
15.873
22.07
28.175
34.188
40.117
45.991
51.853
57.714
63.57
69.405
75.169
80.811
86.269
91.456
96.308
100.767
104.78
108.311
111.33
113.779
115.6
116.714
117.023
116.471
115.024
112.66
109.406
105.303
100.413
94.845
88.691
82.024
74.916
67.416
59.569
51.445
43.111
34.65
26.162
17.726
9.407
1.269
-6.661
-14.37
-21.863
-29.18
-36.354
-43.399
-50.319
-57.106
-63.743
-70.225
-76.545
-82.692
-88.671
-94.485
-100.132
-105.617
-110.933
-116.061
-120.979
-125.651
-130.042
-134.131
-137.904
-141.353
-144.479
-147.283
-149.77
-151.952
-153.837
-155.435
-156.751
-157.789
-158.559
-159.069
-159.335
-159.37
-159.191
-158.812
-158.245
-157.505
-156.6
-155.541
-154.336
-152.987
-151.502
-149.885
-148.142
-146.279
-144.303
-142.217
-140.028
-137.739
-135.354
-132.877
-130.31
-127.654
-124.91
-122.079
-119.162
-116.16
-113.072
-109.901
-106.647
-103.312
-99.898
-96.407
-92.842
-89.206
-85.503
-81.737
-77.913
-74.036
-70.112
-66.15
-62.155
-58.137
-54.105
-50.07
-46.042
-42.031
-38.05
-34.109
-30.223
-26.402
-22.659
-19.008
-15.461
-12.031
-8.732
-5.575
-2.574
0.259
2.913
5.379
7.645
9.702
11.544
13.163
14.552
15.708
16.625
17.302
17.735
17.926
17.874
17.582
17.053
16.292
15.303
14.096
12.676
11.055
9.242
7.249
5.087
2.77
0.312
-2.274
-4.973
-7.771
-10.651
-13.6
-16.602
-19.643
-22.708
-25.785
-28.858
-31.917
-34.947
-37.938
-40.878
-43.758
-46.567
-49.297
-51.939
-54.487
-56.935
-59.278
-61.512
-63.633
-65.641
-67.534
-69.312
-70.977
-72.531
-73.976
-75.317
-76.558
-77.704
-78.76
-79.733
-80.626
-81.447
-82.199
-82.887
-83.514
-84.084
-84.599
-85.062
-85.476
-85.841
-86.161
-86.437
-86.672
-86.867
-87.023
-87.14
-87.215
-87.245
-87.227
-87.155
-87.023
-86.824
-86.548
-86.187
-85.736
-85.186
-84.529
-83.754
-82.847
-81.794
-80.592
-79.236
-77.725
-76.065
-74.258
-72.316
-70.263
-68.118
-65.902
-63.632
-61.313
-58.945
-56.534
-54.087
-51.612
-49.111
-46.568
-43.959
-41.268
-38.476
-35.563
-32.502
-29.237
-25.723
-21.929
-17.836
-13.459
-8.825
-3.959
1.105
6.317
11.614
16.896
22.054
27.005
31.668
35.959
39.791
43.033
45.571
47.332
48.259
48.33
47.553
45.936
43.515
40.375
36.618
32.373
27.791
22.975
18.028
13.062
8.189
3.557
-0.699
-4.494
-7.762
-10.445
-12.521
-13.989
-14.891
-15.344
-15.467
-15.371
-15.164
-14.928
-14.759
-14.769
-15.065
-15.758
-16.922
-18.624
-20.973
-23.972
-27.485
-31.239
-34.764
-37.591
-39.414
-39.848
-38.411
-34.99
-29.752
-23.208
-16.333
-9.825
-3.974
0.701
3.584
4.742
4.831
5.269
8.2
15.265
27.708
47.186
75.547
113.866
162.018
218.471
280.669
345.982
411.311
472.553
524.686
562.748
583.135
583.681
563.079
520.997
458.791
379.636
288.675
192.2
95.939
5.185
-74.641
-139.068
-185.574
-213.534
-224.401
-221.122
-206.759
-184.708
-159.235
-134.302
-112.515
-95.23
-82.525
-73.576
-67.536
-63.386
-59.457
-54.102
-46.418
-36.12
-23.538
-9.392
5.747
21.367
36.747
51.178
64.201
75.557
85.244
93.415
100.162
105.571
109.763
112.879
115.075
116.491
117.231
117.378
116.997
116.144
114.899
113.331
111.514
109.547
107.517
105.505
103.619
101.922
100.456
99.251
98.291
97.545
96.988
96.579
96.291
96.113
96.021
95.996
96.025
96.069
96.087
96.038
95.854
95.489
94.923
94.144
93.163
92.006
90.692
89.255
87.736
86.166
84.578
83
81.456
79.978
78.606
77.381
76.356
75.572
75.063
74.856
74.972
75.423
76.222
77.373
78.873
80.719
82.91
85.446
88.326
91.549
95.103
98.98
103.164
107.641
112.394
117.406
122.656
128.124
133.788
139.627
145.62
151.742
157.968
164.269
170.617
176.982
183.334
189.643
195.878
202.006
207.998
213.824
219.455
224.863
230.021
234.9
239.478
243.729
247.632
251.167
254.313
257.056
259.378
261.267
262.712
263.705
264.238
264.308
263.913
263.052
261.73
259.95
257.72
255.048
251.945
248.425
244.502
240.194
235.518
230.494
225.145
219.492
213.56
207.373
200.958
194.34
187.546
180.603
173.539
166.38
159.153
151.886
144.604
137.332
130.095
122.916
115.819
108.824
101.952
95.22
88.647
82.248
76.037
70.027
64.229
58.653
53.305
48.194
43.324
38.697
34.317
30.183
26.295
22.649
19.244
16.074
13.133
10.414
7.91
5.612
3.511
1.597
-0.139
-1.708
-3.12
-4.387
-5.518
-6.525
-7.416
-8.202
-8.892
-9.496
-10.021
-10.477
-10.87
-11.207
-11.497
-11.743
-11.954
-12.133
-12.287
-12.418
-12.532
-12.632
-12.722
-12.805
-12.883
-12.959
-13.035
-13.114
-13.196
-13.284
-13.379
-13.482
-13.595
-13.72
-13.858
-14.012
-14.183
-14.374
-14.588
-14.829
-15.098
-15.402
-15.743
-16.125
-16.554
-17.034
-17.569
-18.164
-18.824
-19.552
-20.354
-21.232
-22.192
-23.235
-24.364
-25.583
-26.891
-28.291
-29.783
-31.367
-33.042
-34.808
-36.661
-38.599
-40.62
-42.719
-44.891
-47.13
-49.429
-51.782
-54.18
-56.612
-59.071
-61.544
-64.02
-66.488
-68.934
-71.347
-73.713
-76.018
-78.25
-80.394
-82.437
-84.367
-86.171
-87.836
-89.352
-90.708
-91.894
-92.902
-93.724
-94.353
-94.784
-95.012
-95.034
-94.848
-94.452
-93.849
-93.038
-92.025
-90.813
-89.409
-87.822
-86.059
-84.131
-82.051
-79.83
-77.483
-75.025
-72.473
-69.843
-67.152
-64.421
-61.667
-58.91
-56.17
-53.465
-50.816
-48.24
-45.757
-43.383
-41.135
-39.029
-37.08
-35.301
-33.706
-32.305
-31.109
-30.125
-29.361
-28.82
-28.507
-28.421
-28.564
-28.933
-29.523
-30.33
-31.345
-32.561
-33.966
-35.549
-37.295
-39.189
-41.215
-43.355
-45.589
-47.897
-50.26
-52.655
-55.061
-57.455
-59.817
-62.124
-64.355
-66.487
-68.501
-70.374
-72.089
-73.626
-74.968
-76.098
-77.002
-77.667
-78.081
-78.236
-78.122
-77.733
-77.066
-76.117
-74.884
-73.371
-71.578
-69.51
-67.174
-64.578
-61.734
-58.652
-55.347
-51.834
-48.128
-44.249
-40.216
-36.048
-31.767
-27.396
-22.957
-18.475
-13.974
-9.481
-5.021
-0.62
3.696
7.9
11.968
15.876
19.598
23.114
26.401
29.439
32.211
34.7
36.89
38.769
40.322
41.54
42.415
42.941
43.113
42.926
42.379
41.474
40.216
38.616
36.684
34.428
31.855
28.979
25.82
22.4
18.743
14.875
10.825
6.63
2.343
-1.982
-6.292
-10.541
-14.693
-18.711
-22.549
-26.161
-29.498
-32.521
-35.208
-37.544
-39.505
-41.072
-42.251
-43.069
-43.596
-43.924
-44.121
-44.247
-44.353
-44.465
-44.644
-44.966
-45.484
-46.266
-47.353
-48.732
-50.467
-52.636
-55.157
-57.859
-60.384
-62.16
-62.756
-61.833
-58.939
-53.775
-46.312
-36.715
-25.698
-14.36
-3.566
5.846
13.066
17.849
20.452
21.65
23.224
27.432
36.445
52.664
78.313
114.682
162.081
219.654
284.916
354.359
423.684
487.582
540.338
576.634
592.175
583.962
550.808
493.448
414.591
318.87
212.492
102.601
-3.887
-100.346
-181.103
-242.638
-283.575
-304.392
-307.46
-296.551
-275.761
-249.839
-223.55
-199.983
-180.837
-166.804
-157.392
-151.478
-147.848
-144.665
-139.904
-132.606
-122.523
-109.868
-95.395
-79.845
-63.851
-48.321
-34.218
-22.085
-12.187
-4.552
1.032
4.714
6.617
6.957
5.984
3.941
1.061
-2.476
-6.54
-10.988
-15.669
-20.429
-25.1
-29.542
-33.645
-37.306
-40.429
-42.947
-44.821
-46.046
-46.655
-46.698
-46.229
-45.311
-44.005
-42.368
-40.454
-38.32
-36.021
-33.617
-31.162
-28.716
-26.349
-24.111
-22.031
-20.127
-18.39
-16.808
-15.37
-14.055
-12.835
-11.689
-10.594
-9.536
-8.502
-7.476
-6.436
-5.357
-4.207
-2.961
-1.605
-0.128
1.474
3.204
5.061
7.041
9.134
11.332
13.631
16.027
18.522
21.115
23.799
26.571
29.424
32.352
35.351
38.416
41.54
44.72
47.951
51.228
54.551
57.916
61.316
64.747
68.201
71.672
75.152
78.634
82.107
85.562
88.992
92.385
95.732
99.024
102.25
105.398
108.458
111.416
114.263
116.984
119.568
122.001
124.269
126.36
128.26
129.957
131.437
132.688
133.697
134.453
134.944
135.16
135.091
134.727
134.059
133.082
131.787
130.17
128.227
125.955
123.355
120.426
117.171
113.593
109.697
105.491
100.981
96.179
91.095
85.743
80.136
74.292
68.226
61.958
55.508
48.896
42.146
35.278
28.317
21.288
14.215
7.122
0.035
-7.021
-14.021
-20.94
-27.754
-34.44
-40.976
-47.338
-53.508
-59.466
-65.194
-70.676
-75.898
-80.846
-85.511
-89.882
-93.953
-97.718
-101.173
-104.317
-107.149
-109.673
-111.891
-113.809
-115.436
-116.778
-117.848
-118.658
-119.22
-119.549
-119.661
-119.573
-119.302
-118.868
-118.288
-117.582
-116.77
-115.871
-114.905
-113.89
-112.846
-111.791
-110.742
-109.715
-108.725
-107.789
-106.917
-106.124
-105.418
-104.811
-104.309
-103.92
-103.649
-103.5
-103.476
-103.577
-103.804
-104.155
-104.626
-105.215
-105.916
-106.722
-107.626
-108.619
-109.692
-110.835
-112.038
-113.288
-114.574
-115.885
-117.208
-118.532
-119.843
-121.132
-122.386
-123.595
-124.749
-125.838
-126.854
-127.789
-128.636
-129.39
-130.045
-130.598
-131.046
-131.388
-131.623
-131.752
-131.776
-131.7
-131.526
-131.26
-130.91
-130.482
-129.985
-129.428
-128.823
-128.181
-127.513
-126.832
-126.152
-125.486
-124.848
-124.253
-123.714
-123.246
-122.864
-122.58
-122.407
-122.36
-122.449
-122.687
-123.084
-123.649
-124.392
-125.32
-126.44
-127.757
-129.275
-130.998
-132.925
-135.057
-137.393
-139.928
-142.657
-145.575
-148.672
-151.94
-155.368
-158.943
-162.65
-166.475
-170.402
-174.411
-178.486
-182.606
-186.751
-190.899
-195.031
-199.122
-203.153
-207.1
-210.941
-214.655
-218.219
-221.612
-224.813
-227.803
-230.561
-233.07
-235.313
-237.273
-238.938
-240.293
-241.329
-242.036
-242.406
-242.434
-242.116
-241.452
-240.44
-239.084
-237.388
-235.359
-233.004
-230.335
-227.362
-224.101
-220.565
-216.77
-212.736
-208.479
-204.021
-199.381
-194.58
-189.642
-184.588
-179.441
-174.224
-168.961
-163.673
-158.384
-153.114
-147.885
-142.715
-137.624
-132.628
-127.743
-122.984
-118.362
-113.889
-109.575
-105.425
-101.446
-97.641
-94.01
-90.554
-87.269
-84.15
-81.193
-78.388
-75.727
-73.201
-70.797
-68.503
-66.305
-64.189
-62.139
-60.14
-58.174
-56.226
-54.278
-52.313
-50.317
-48.273
-46.167
-43.986
-41.717
-39.35
-36.878
-34.291
-31.585
-28.755
-25.799
-22.716
-19.506
-16.171
-12.711
-9.133
-5.442
-1.646
2.243
6.216
10.257
14.353
18.487
22.645
26.809
30.971
35.116
39.229
43.294
47.283
51.173
54.946
58.582
62.065
65.384
68.533
71.519
74.366
77.095
79.728
82.28
84.754
87.161
89.512
91.83
94.147
96.491
98.875
101.317
103.831
106.416
109.051
111.666
114.156
116.413
118.346
119.898
121.014
121.617
121.634
120.97
119.53
117.27
114.122
109.99
104.902
98.989
92.517
86.005
79.937
74.714
70.864
68.795
68.552
69.984
72.541
75.317
77.75
79.374
79.476
77.814
74.8
71.352
69.27
70.677
77.13
90.337
112.351
144.561
187.544
240.742
302.067
368.81
438.064
505.853
567.322
617.544
651.814
666.694
660.22
631.37
580.675
510.768
425.925
331.825
235.063
141.772
57.795
-11.584
-63.162
-95.834
-110.138
-108.432
-94.301
-71.547
-44.676
-18.245
4.826
22.921
35.404
42.768
46.023
46.305
45.393
45.223
46.778
50.385
55.901
62.726
70.311
78.2
85.714
92.124
97.07
100.453
102.387
103.182
103.069
102.214
100.826
99.133
97.328
95.584
94.03
92.709
91.659
90.911
90.475
90.359
90.548
90.996
91.644
92.433
93.31
94.229
95.149
96.019
96.781
97.375
97.745
97.856
97.688
97.229
96.477
95.433
94.107
92.525
90.72
88.719
86.55
84.234
81.793
79.255
76.649
74.007
71.359
68.732
66.154
63.651
61.25
58.976
56.853
54.901
53.14
51.59
50.275
49.214
48.431
47.944
47.773
47.935
48.448
49.327
50.582
52.225
54.264
56.705
59.551
62.806
66.468
70.536
75.005
79.867
85.112
90.73
96.705
103.02
109.656
116.591
123.803
131.265
138.951
146.831
154.875
163.052
171.327
179.668
188.039
196.405
204.728
212.971
221.099
229.073
236.856
244.411
251.704
258.698
265.36
271.658
277.559
283.035
288.058
292.602
296.644
300.162
303.139
305.557
307.405
308.671
309.349
309.433
308.924
307.821
306.129
303.856
301.011
297.608
293.661
289.188
284.21
278.751
272.834
266.488
259.741
252.625
245.172
237.416
229.393
221.139
212.689
204.083
195.357
186.548
177.693
168.829
159.992
151.216
142.535
133.98
125.581
117.367
109.364
101.597
94.086
86.851
79.91
73.278
66.967
60.986
55.344
50.045
45.091
40.484
36.22
32.295
28.702
25.433
22.476
19.818
17.446
15.343
13.491
11.874
10.47
9.261
8.224
7.34
6.586
5.942
5.387
4.899
4.459
4.049
3.649
3.242
2.813
2.347
1.83
1.25
0.597
-0.14
-0.966
-1.889
-2.913
-4.042
-5.275
-6.613
-8.055
-9.596
-11.233
-12.959
-14.766
-16.647
-18.591
-20.589
-22.629
-24.699
-26.787
-28.879
-30.962
-33.022
-35.046
-37.02
-38.931
-40.765
-42.51
-44.155
-45.687
-47.095
-48.37
-49.502
-50.482
-51.302
-51.955
-52.435
-52.737
-52.856
-52.791
-52.538
-52.097
-51.469
-50.654
-49.654
-48.473
-47.114
-45.583
-43.886
-42.027
-40.017
-37.861
-35.569
-33.151
-30.617
-27.975
-25.237
-22.414
-19.515
-16.552
-13.535
-10.476
-7.386
-4.274
-1.154
1.964
5.07
8.152
11.2
14.203
17.152
20.038
22.851
25.583
28.225
30.77
33.211
35.541
37.753
39.842
41.804
43.635
45.332
46.892
48.313
49.596
50.738
51.74
52.602
53.325
53.91
54.359
54.674
54.858
54.914
54.847
54.661
54.363
53.958
53.453
52.855
52.172
51.413
50.585
49.698
48.762
47.787
46.783
45.762
44.734
43.71
42.702
41.72
40.773
39.874
39.03
38.253
37.553
36.94
36.423
36.015
35.725
35.564
35.546
35.68
35.978
36.449
37.103
37.951
38.999
40.256
41.725
43.414
45.327
47.47
49.848
52.465
55.325
58.43
61.784
65.388
69.244
73.353
77.71
82.315
87.169
92.274
97.639
103.265
109.147
115.275
121.637
128.212
134.976
141.895
148.923
156.016
163.135
170.245
177.322
184.335
191.251
198.034
204.637
211.027
217.178
223.076
228.714
234.103
239.271
244.267
249.17
254.049
258.957
263.929
268.978
274.108
279.318
284.606
289.966
295.383
300.833
306.269
311.623
316.797
321.659
326.04
329.73
332.522
334.227
334.685
333.777
331.402
327.487
321.967
314.8
305.951
295.391
283.126
269.2
253.7
236.76
218.573
199.377
179.431
159.01
138.353
117.677
97.181
77.035
57.386
38.359
20.075
2.662
-13.761
-29.091
-43.278
-56.337
-68.331
-79.37
-89.59
-99.127
-108.15
-116.88
-125.393
-133.61
-141.299
-148.03
-153.454
-157.436
-159.713
-159.887
-157.969
-154.306
-149.668
-145.396
-142.429
-141.098
-141.967
-145.702
-152.154
-160.503
-168.967
-174.682
-175.389
-169.549
-155.145
-130.027
-92.966
-43.755
16.157
83.716
155.848
229.195
299.055
359.864
406.064
432.736
436.616
415.879
369.656
299.015
207.477
100.572
-14.655
-130.651
-240.43
-337.186
-415.001
-470.482
-502.729
-513.009
-504.571
-481.66
-448.824
-411.458
-374.743
-341.988
-314.974
-294.199
-278.983
-268.224
-260.619
-254.173
-246.886
-237.821
-226.79
-214.153
-200.702
-187.158
-174.183
-162.66
-153.442
-146.934
-143.198
-142.014
-142.957
-145.678
-149.879
-155.182
-161.174
-167.474
-173.746
-179.766
-185.413
-190.549
-195.027
-198.722
-201.544
-203.47
-204.539
-204.806
-204.337
-203.214
-201.534
-199.43
-197.05
-194.555
-192.1
-189.799
-187.734
-185.977
-184.591
-183.628
-183.121
-183.072
-183.458
-184.256
-185.444
-186.992
-188.867
-191.015
-193.375
-195.886
-198.485
-201.123
-203.761
-206.364
-208.898
-211.34
-213.667
-215.863
-217.922
-219.829
-221.565
-223.115
-224.46
-225.586
-226.481
-227.135
-227.539
-227.681
-227.555
-227.151
-226.461
-225.476
-224.189
-222.591
-220.673
-218.428
-215.851
-212.941
-209.7
-206.133
-202.244
-198.043
-193.54
-188.749
-183.684
-178.357
-172.781
-166.962
-160.912
-154.654
-148.212
-141.62
-134.916
-128.139
-121.325
-114.524
-107.773
-101.105
-94.545
-88.101
-81.78
-75.601
-69.59
-63.785
-58.222
-52.922
-47.898
-43.162
-38.708
-34.535
-30.636
-26.978
-23.548
-20.359
-17.441
-14.857
-12.685
-10.975
-9.766
-9.083
-8.939
-9.365
-10.392
-12.038
-14.339
-17.326
-21.04
-25.548
-30.897
-37.085
-44.086
-51.826
-60.202
-69.14
-78.572
-88.432
-98.666
-109.213
-120.008
-131.006
-142.154
-153.386
-164.627
-175.772
-186.731
-197.449
-207.891
-218.055
-227.963
-237.617
-247.016
-256.162
-265.048
-273.663
-281.998
-290.024
-297.716
-305.059
-312.051
-318.705
-325.037
-331.046
-336.723
-342.054
-347.013
-351.586
-355.764
-359.531
-362.884
-365.823
-368.355
-370.498
-372.278
-373.711
-374.815
-375.605
-376.095
-376.303
-376.252
-375.962
-375.457
-374.762
-373.901
-372.901
-371.788
-370.587
-369.321
-368.011
-366.676
-365.337
-364.013
-362.719
-361.474
-360.292
-359.187
-358.172
-357.258
-356.453
-355.769
-355.216
-354.8
-354.531
-354.413
-354.453
-354.653
-355.02
-355.553
-356.248
-357.098
-358.1
-359.248
-360.546
-361.987
-363.56
-365.252
-367.042
-368.914
-370.847
-372.811
-374.763
-376.661
-378.465
-380.149
-381.703
-383.114
-384.365
-385.441
-386.322
-387.005
-387.51
-387.844
-388.011
-388.017
-387.864
-387.583
-387.241
-386.89
-386.573
-386.311
-386.092
-385.914
-385.786
-385.689
-385.595
-385.443
-385.134
-384.599
-383.787
-382.636
-381.098
-379.079
-376.434
-373.045
-368.816
-363.656
-357.521
-350.355
-342.085
-332.702
-322.232
-310.741
-298.354
-285.16
-271.231
-256.665
-241.563
-226.06
-210.352
-194.615
-179.006
-163.714
-148.889
-134.687
-121.288
-108.796
-97.27
-86.741
-77.186
-68.594
-60.968
-54.273
-48.462
-43.471
-39.188
-35.505
-32.315
-29.462
-26.812
-24.236
-21.583
-18.757
-15.695
-12.338
-8.668
-4.668
-0.315
4.387
9.425
14.789
20.443
26.346
32.453
38.684
44.972
51.261
57.49
63.622
69.632
75.499
81.214
86.787
92.22
97.521
102.705
107.777
112.75
117.645
122.481
127.29
132.098
136.92
141.77
146.657
151.583
156.552
161.559
166.591
171.64
176.695
181.748
186.792
191.819
196.819
201.78
206.691
211.543
216.328
221.037
225.663
230.198
234.634
238.964
243.182
247.279
251.245
255.069
258.742
262.251
265.586
268.734
271.684
274.425
276.947
279.238
281.287
283.084
284.617
285.877
286.856
287.546
287.939
288.026
287.802
287.266
286.416
285.252
283.77
281.964
279.835
277.39
274.636
271.587
268.259
264.665
260.834
256.804
252.615
248.311
243.929
239.497
235.051
230.626
226.263
222.015
217.914
213.983
210.248
206.726
203.425
200.356
197.49
194.769
192.13
189.492
186.789
183.977
181.001
177.833
174.428
170.716
166.661
162.222
157.361
152.098
146.413
140.255
133.754
127.159
120.857
115.461
111.459
109.19
109.118
111.566
116.549
123.892
132.84
142.204
151.083
158.674
164.243
167.64
169.205
169.745
171.107
175.626
185.526
203.213
230.655
268.818
317.708
376.169
441.759
511.184
580.158
643.39
695.595
731.951
748.762
743.712
715.336
663.5
590.423
500.342
398.772
292.146
186.47
87.255
0.397
-69.264
-119.395
-149.738
-161.881
-158.94
-144.16
-121.123
-94.547
-68.781
-46.535
-29.214
-16.931
-8.879
-4.282
-2.116
-0.586
2.031
6.643
13.475
22.106
31.806
42.031
52.277
61.842
70.005
76.321
80.653
83.154
84.146
83.907
82.655
80.631
78.127
75.433
72.82
70.494
68.55
67.047
66.044
65.594
65.758
66.592
68.096
70.229
72.945
76.182
79.884
83.983
88.376
92.925
97.483
101.929
106.186
110.209
113.964
117.419
120.539
123.3
125.706
127.772
129.513
130.94
132.062
132.899
133.493
133.899
134.179
134.382
134.544
134.695
134.862
135.071
135.347
135.708
136.166
136.731
137.421
138.256
139.256
140.439
141.817
143.397
145.188
147.198
149.435
151.904
154.611
157.559
160.752
164.193
167.887
171.831
176.023
180.456
185.121
190.009
195.105
200.396
205.864
211.492
217.26
223.148
229.136
235.202
241.322
247.473
253.631
259.77
265.866
271.892
277.823
283.632
289.295
294.785
300.078
305.15
309.978
314.541
318.817
322.787
326.433
329.737
332.683
335.257
337.447
339.243
340.633
341.613
342.175
342.317
342.037
341.334
340.209
338.666
336.707
334.338
331.566
328.399
324.845
320.916
316.623
311.98
307
301.698
296.09
290.193
284.023
277.597
270.934
264.05
256.965
249.695
242.259
234.675
226.96
219.133
211.21
203.207
195.141
187.027
178.881
170.716
162.547
154.388
146.252
138.152
130.1
122.108
114.188
106.35
98.605
90.964
83.434
76.025
68.746
61.604
54.606
47.759
41.071
34.547
28.194
22.017
16.022
10.214
4.599
-0.819
-6.036
-11.047
-15.847
-20.433
-24.8
-28.945
-32.864
-36.555
-40.014
-43.24
-46.232
-48.988
-51.51
-53.796
-55.849
-57.67
-59.261
-60.626
-61.768
-62.69
-63.397
-63.896
-64.191
-64.29
-64.2
-63.928
-63.483
-62.874
-62.11
-61.2
-60.157
-58.989
-57.71
-56.331
-54.864
-53.321
-51.718
-50.065
-48.377
-46.668
-44.949
-43.234
-41.535
-39.865
-38.236
-36.657
-35.141
-33.697
-32.336
-31.066
-29.895
-28.831
-27.882
-27.053
-26.35
-25.778
-25.34
-25.041
-24.882
-24.865
-24.993
-25.263
-25.678
-26.234
-26.93
-27.762
-28.727
-29.82
-31.035
-32.368
-33.81
-35.356
-36.998
-38.728
-40.538
-42.421
-44.368
-46.369
-48.418
-50.504
-52.62
-54.757
-56.905
-59.058
-61.207
-63.343
-65.46
-67.548
-69.602
-71.613
-73.574
-75.48
-77.323
-79.097
-80.799
-82.422
-83.962
-85.416
-86.781
-88.053
-89.231
-90.314
-91.299
-92.187
-92.977
-93.67
-94.266
-94.767
-95.175
-95.49
-95.717
-95.856
-95.911
-95.884
-95.78
-95.6
-95.349
-95.031
-94.649
-94.208
-93.711
-93.163
-92.569
-91.934
-91.26
-90.553
-89.817
-89.055
-88.272
-87.471
-86.655
-85.828
-84.991
-84.149
-83.302
-82.452
-81.601
-80.75
-79.9
-79.05
-78.2
-77.351
-76.501
-75.649
-74.795
-73.937
-73.074
-72.203
-71.323
-70.431
-69.523
-68.599
-67.653
-66.683
-65.686
-64.657
-63.593
-62.492
-61.349
-60.162
-58.928
-57.643
-56.305
-54.913
-53.463
-51.955
-50.387
-48.758
-47.07
-45.323
-43.519
-41.658
-39.744
-37.78
-35.769
-33.717
-31.628
-29.507
-27.361
-25.197
-23.023
-20.848
-18.679
-16.528
-14.404
-12.322
-10.294
-8.333
-6.453
-4.667
-2.989
-1.434
-0.014
1.261
2.382
3.337
4.117
4.711
5.108
5.301
5.282
5.045
4.587
3.904
2.995
1.865
0.521
-1.033
-2.798
-4.782
-6.987
-9.409
-12.042
-14.873
-17.885
-21.056
-24.356
-27.743
-31.175
-34.61
-38.014
-41.365
-44.633
-47.784
-50.771
-53.538
-56.036
-58.237
-60.114
-61.657
-62.885
-63.824
-64.534
-65.101
-65.59
-66.081
-66.659
-67.395
-68.381
-69.705
-71.439
-73.703
-76.655
-80.338
-84.677
-89.46
-94.281
-98.775
-102.68
-105.625
-107.129
-106.924
-105.076
-102.051
-98.787
-96.115
-94.395
-93.97
-95.376
-98.81
-103.847
-109.326
-113.152
-113.091
-107.541
-94.886
-73.152
-40.759
3.012
57.708
121.33
190.879
263.113
333.858
397.789
449.332
483.368
495.881
484.407
448.037
387.254
304.725
205.412
95.674
-17.467
-127.254
-227.574
-313.04
-379.458
-424.874
-449.639
-455.825
-446.8
-426.12
-397.313
-364.477
-331.612
-301.554
-276.071
-255.787
-240.289
-229.343
-222.923
-220.043
-219.249
-219.251
-218.723
-217.061
-214.386
-210.434
-204.643
-197.075
-188.165
-178.652
-169.697
-161.886
-155.238
-149.904
-146.075
-143.746
-142.814
-142.86
-143.128
-143.167
-142.826
-142.008
-140.728
-138.958
-136.597
-133.641
-130.197
-126.347
-122.15
-117.644
-112.807
-107.683
-102.376
-97.025
-91.796
-86.804
-82.108
-77.751
-73.76
-70.166
-67.001
-64.282
-61.997
-60.136
-58.688
-57.649
-57.021
-56.783
-56.894
-57.294
-57.915
-58.701
-59.613
-60.616
-61.677
-62.765
-63.848
-64.9
-65.908
-66.849
-67.698
-68.425
-69
-69.395
-69.591
-69.571
-69.317
-68.814
-68.045
-66.995
-65.652
-64.002
-62.035
-59.738
-57.1
-54.115
-50.779
-47.092
-43.058
-38.68
-33.967
-28.929
-23.577
-17.928
-11.996
-5.8
0.641
7.306
14.172
21.214
28.408
35.725
43.139
50.62
58.14
65.668
73.175
80.63
88.002
95.262
102.379
109.324
116.069
122.585
128.845
134.823
140.494
145.835
150.824
155.441
159.666
163.484
166.879
169.839
172.352
174.408
176.002
177.126
177.779
177.957
177.663
176.897
175.665
173.972
171.826
169.236
166.215
162.774
158.929
154.695
150.091
145.134
139.844
134.244
128.354
122.198
115.8
109.182
102.371
95.39
88.265
81.021
73.683
66.276
58.826
51.356
43.893
36.458
29.077
21.772
14.565
7.478
0.531
-6.255
-12.861
-19.269
-25.462
-31.424
-37.14
-42.596
-47.78
-52.68
-57.287
-61.591
-65.587
-69.268
-72.629
-75.667
-78.379
-80.765
-82.825
-84.561
-85.974
-87.069
-87.85
-88.323
-88.496
-88.377
-87.974
-87.299
-86.361
-85.172
-83.747
-82.098
-80.24
-78.188
-75.959
-73.569
-71.036
-68.376
-65.608
-62.749
-59.817
-56.831
-53.809
-50.767
-47.725
-44.698
-41.703
-38.758
-35.877
-33.076
-30.369
-27.77
-25.291
-22.945
-20.742
-18.693
-16.806
-15.09
-13.551
-12.196
-11.027
-10.049
-9.264
-8.671
-8.271
-8.06
-8.036
-8.194
-8.528
-9.032
-9.696
-10.514
-11.474
-12.567
-13.782
-15.106
-16.527
-18.033
-19.612
-21.249
-22.932
-24.647
-26.382
-28.123
-29.859
-31.577
-33.265
-34.911
-36.506
-38.039
-39.501
-40.883
-42.177
-43.377
-44.478
-45.473
-46.361
-47.137
-47.8
-48.35
-48.787
-49.112
-49.328
-49.437
-49.444
-49.353
-49.17
-48.9
-48.551
-48.129
-47.642
-47.098
-46.504
-45.868
-45.2
-44.506
-43.795
-43.075
-42.354
-41.638
-40.936
-40.254
-39.599
-38.976
-38.391
-37.848
-37.353
-36.91
-36.522
-36.191
-35.921
-35.713
-35.569
-35.489
-35.476
-35.528
-35.646
-35.83
-36.08
-36.395
-36.774
-37.216
-37.722
-38.289
-38.917
-39.606
-40.354
-41.162
-42.027
-42.951
-43.934
-44.975
-46.074
-47.234
-48.453
-49.733
-51.075
-52.48
-53.949
-55.483
-57.082
-58.748
-60.481
-62.282
-64.151
-66.087
-68.09
-70.159
-72.291
-74.483
-76.731
-79.031
-81.378
-83.765
-86.187
-88.635
-91.101
-93.578
-96.055
-98.522
-100.968
-103.381
-105.75
-108.062
-110.303
-112.459
-114.518
-116.466
-118.288
-119.972
-121.502
-122.867
-124.053
-125.047
-125.837
-126.412
-126.762
-126.877
-126.751
-126.377
-125.752
-124.875
-123.746
-122.369
-120.747
-118.887
-116.796
-114.484
-111.961
-109.241
-106.335
-103.258
-100.027
-96.659
-93.177
-89.6
-85.95
-82.249
-78.521
-74.789
-71.08
-67.417
-63.824
-60.322
-56.937
-53.691
-50.614
-47.732
-45.061
-42.617
-40.412
-38.449
-36.73
-35.248
-33.981
-32.904
-31.988
-31.197
-30.507
-29.888
-29.306
-28.727
-28.108
-27.412
-26.62
-25.715
-24.684
-23.539
-22.292
-20.977
-19.675
-18.466
-17.443
-16.722
-16.397
-16.556
-17.294
-18.663
-20.727
-23.558
-27.181
-31.633
-36.932
-42.998
-49.791
-57.27
-65.204
-73.283
-81.04
-87.762
-92.852
-95.836
-96.14
-93.359
-87.406
-78.374
-66.963
-54.345
-41.484
-29.319
-18.718
-9.916
-2.66
3.779
11.235
22.132
38.813
63.861
99.454
146.542
205.079
273.882
350.007
429.376
507.07
577.051
633.207
670.402
684.548
672.881
634.666
570.985
484.983
382.1
269.054
152.859
40.442
-61.66
-148.076
-214.957
-260.692
-286.088
-293.57
-286.576
-269.133
-245.659
-220.498
-197.328
-178.323
-164.124
-154.415
-148.217
-144.283
-141.146
-137.141
-130.828
-121.562
-109.443
-95.011
-79.057
-62.325
-45.519
-29.417
-14.75
-1.982
8.709
17.338
24.031
28.929
32.154
33.86
34.253
33.528
31.857
29.402
26.299
22.664
18.632
14.336
9.909
5.515
1.303
-2.597
-6.048
-8.963
-11.287
-12.983
-14.056
-14.54
-14.476
-13.919
-12.935
-11.562
-9.848
-7.84
-5.582
-3.144
-0.598
1.984
4.516
6.941
9.221
11.336
13.284
15.084
16.753
18.325
19.84
21.331
22.829
24.362
25.953
27.634
29.442
31.417
33.605
36.039
38.744
41.741
45.044
48.661
52.598
56.855
61.425
66.305
71.495
76.992
82.796
88.899
95.291
101.963
108.904
116.109
123.567
131.255
139.154
147.243
155.493
163.874
172.348
180.859
189.365
197.834
206.239
214.565
222.795
230.906
238.879
246.697
254.345
261.814
269.087
276.143
282.974
289.59
296.021
302.32
308.512
314.592
320.538
326.312
331.875
337.185
342.18
346.789
350.953
354.631
357.803
360.46
362.562
364.048
364.828
364.788
363.848
361.965
359.117
355.302
350.539
344.866
338.356
331.105
323.181
314.613
305.406
295.57
285.152
274.231
262.927
251.374
239.701
228.037
216.49
205.151
194.091
183.345
172.918
162.805
153.026
143.643
134.748
126.412
118.675
111.555
105.031
99.071
93.619
88.589
83.904
79.502
75.339
71.401
67.693
64.212
60.941
57.845
54.862
51.944
49.059
46.175
43.288
40.4
37.533
34.741
32.076
29.568
27.24
25.093
23.122
21.328
19.712
18.273
17.025
15.974
15.122
14.476
14.028
13.763
13.659
13.679
13.791
13.979
14.229
14.53
14.876
15.249
15.634
16.013
16.362
16.654
16.868
16.985
17.001
16.925
16.773
16.566
16.319
16.032
15.704
15.335
14.925
14.482
14.031
13.603
13.243
13.01
12.954
13.116
13.518
14.14
14.946
15.876
16.871
17.893
18.901
19.855
20.726
21.478
22.059
22.42
22.488
22.161
21.348
19.962
17.936
15.269
11.999
8.203
3.977
-0.591
-5.409
-10.37
-15.388
-20.389
-25.295
-30.042
-34.55
-38.697
-42.371
-45.449
-47.818
-49.428
-50.27
-50.369
-49.785
-48.588
-46.861
-44.715
-42.242
-39.508
-36.57
-33.464
-30.228
-26.937
-23.662
-20.483
-17.488
-14.732
-12.245
-10.051
-8.139
-6.482
-5.042
-3.752
-2.557
-1.43
-0.353
0.673
1.64
2.558
3.432
4.267
5.078
5.877
6.667
7.459
8.246
9.011
9.731
10.371
10.897
11.29
11.538
11.636
11.587
11.392
11.056
10.59
10
9.292
8.471
7.535
6.491
5.347
4.114
2.805
1.437
0.023
-1.426
-2.895
-4.376
-5.857
-7.33
-8.791
-10.233
-11.649
-13.032
-14.373
-15.665
-16.899
-18.069
-19.167
-20.185
-21.119
-21.964
-22.715
-23.371
-23.93
-24.388
-24.745
-24.999
-25.151
-25.199
-25.145
-24.99
-24.735
-24.384
-23.941
-23.41
-22.799
-22.113
-21.362
-20.552
-19.694
-18.795
-17.865
-16.913
-15.949
-14.983
-14.023
-13.079
-12.159
-11.275
-10.437
-9.653
-8.933
-8.284
-7.717
-7.24
-6.864
-6.594
-6.434
-6.386
-6.45
-6.633
-6.942
-7.378
-7.94
-8.622
-9.419
-10.324
-11.327
-12.409
-13.535
-14.664
-15.757
-16.785
-17.726
-18.557
-19.254
-19.78
-20.1
-20.192
-20.04
-19.641
-18.989
-18.069
-16.889
-15.49
-13.954
-12.393
-10.904
-9.561
-8.418
-7.51
-6.896
-6.665
-6.891
-7.644
-8.98
-10.886
-13.414
-16.675
-20.602
-24.982
-29.378
-33.082
-35.513
-36.284
-34.929
-31.114
-24.861
-16.411
-6.66
2.954
11.308
17.451
20.623
20.826
18.706
15.458
13.377
15.294
23.876
41.902
71.547
113.654
167.828
232.321
304.017
379.065
452.743
519.402
573.475
610.098
625.929
619.205
589.093
535.861
461.641
370.437
267.759
159.976
52.538
-49.578
-141.172
-217.87
-276.513
-315.83
-337.015
-342.704
-335.291
-317.779
-293.87
-267.066
-241.221
-218.992
-200.935
-186.912
-176.787
-169.845
-165.316
-162.394
-159.189
-154.541
-148.573
-141.47
-133.657
-125.728
-117.774
-109.99
-103.406
-98.648
-95.797
-94.901
-95.59
-97.481
-100.579
-104.777
-109.596
-114.621
-119.49
-123.907
-127.847
-131.293
-134.111
-136.176
-137.428
-137.861
-137.539
-136.551
-134.946
-132.774
-130.102
-127.036
-123.719
-120.299
-116.925
-113.694
-110.666
-107.897
-105.432
-103.318
-101.593
-100.259
-99.296
-98.684
-98.406
-98.444
-98.778
-99.366
-100.149
-101.071
-102.069
-103.096
-104.12
-105.104
-106.016
-106.827
-107.511
-108.05
-108.434
-108.644
-108.661
-108.464
-108.03
-107.345
-106.397
-105.174
-103.666
-101.863
-99.754
-97.333
-94.595
-91.532
-88.141
-84.418
-80.36
-75.97
-71.254
-66.218
-60.875
-55.237
-49.321
-43.143
-36.724
-30.087
-23.255
-16.253
-9.106
-1.844
5.505
12.91
20.338
27.757
35.133
42.431
49.617
56.655
63.511
70.149
76.536
82.638
88.423
93.859
98.916
103.565
107.779
111.533
114.803
117.567
119.807
121.507
122.651
123.229
123.232
122.653
121.49
119.741
117.408
114.497
111.014
106.97
102.378
97.254
91.615
85.482
78.879
71.832
64.368
56.517
48.31
39.781
30.964
21.896
12.612
3.15
-6.451
-16.154
-25.919
-35.708
-45.483
-55.207
-64.842
-74.353
-83.705
-92.865
-101.8
-110.481
-118.879
-126.967
-134.722
-142.12
-149.142
-155.771
-161.992
-167.792
-173.161
-178.091
-182.579
-186.621
-190.218
-193.373
-196.089
-198.374
-200.236
-201.687
-202.739
-203.406
-203.704
-203.649
-203.26
-202.556
-201.557
-200.282
-198.755
-196.995
-195.024
-192.864
-190.538
-188.065
-185.467
-182.765
-179.978
-177.125
-174.225
-171.295
-168.35
-165.407
-162.479
-159.579
-156.718
-153.908
-151.156
-148.472
-145.863
-143.334
-140.89
-138.536
-136.274
-134.108
-132.038
-130.066
-128.192
-126.416
-124.738
-123.155
-121.669
-120.275
-118.974
-117.762
-116.637
-115.599
-114.643
-113.768
-112.973
-112.255
-111.612
-111.043
-110.547
-110.123
-109.77
-109.487
-109.274
-109.13
-109.054
-109.048
-109.11
-109.24
-109.439
-109.704
-110.036
-110.434
-110.897
-111.422
-112.008
-112.652
-113.351
-114.102
-114.902
-115.747
-116.632
-117.553
-118.505
-119.483
-120.481
-121.493
-122.513
-123.533
-124.546
-125.545
-126.522
-127.469
-128.378
-129.24
-130.048
-130.794
-131.468
-132.063
-132.572
-132.985
-133.297
-133.5
-133.589
-133.558
-133.403
-133.121
-132.708
-132.164
-131.487
-130.677
-129.734
-128.658
-127.452
-126.115
-124.652
-123.064
-121.357
-119.534
-117.601
-115.564
-113.43
-111.207
-108.901
-106.52
-104.073
-101.568
-99.015
-96.422
-93.799
-91.157
-88.504
-85.852
-83.211
-80.588
-77.992
-75.43
-72.908
-70.433
-68.007
-65.632
-63.312
-61.047
-58.841
-56.695
-54.61
-52.588
-50.631
-48.743
-46.922
-45.167
-43.475
-41.84
-40.258
-38.72
-37.22
-35.75
-34.302
-32.869
-31.446
-30.028
-28.611
-27.185
-25.739
-24.258
-22.731
-21.153
-19.517
-17.824
-16.08
-14.297
-12.497
-10.707
-8.942
-7.213
-5.521
-3.853
-2.2
-0.553
1.103
2.769
4.448
6.148
7.864
9.599
11.37
13.204
15.146
17.255
19.558
22.067
24.779
27.655
30.657
33.728
36.789
39.775
42.636
45.316
47.786
50.013
51.942
53.51
54.639
55.236
55.244
54.624
53.346
51.419
48.874
45.768
42.204
38.269
34.039
29.585
24.967
20.251
15.525
10.873
6.381
2.144
-1.755
-5.237
-8.217
-10.636
-12.465
-13.713
-14.421
-14.629
-14.392
-13.768
-12.832
-11.681
-10.395
-9.048
-7.734
-6.542
-5.581
-4.982
-4.845
-5.311
-6.551
-8.574
-11.276
-14.445
-17.666
-20.577
-22.955
-24.377
-24.329
-22.702
-19.648
-15.719
-11.963
-9.016
-7.002
-6.314
-7.489
-10.432
-14.54
-18.295
-19.195
-15.445
-5.974
10.728
36.411
72.284
118.868
175.098
238.28
305.945
375.589
443.471
504.97
555.069
588.939
603.323
596.541
567.433
516.015
444.454
356.794
258.746
156.866
57.227
-34.564
-113.283
-174.928
-217.57
-241.364
-248.305
-241.585
-224.771
-201.796
-176.794
-153.422
-134.022
-119.525
-109.833
-104.133
-101.372
-100.299
-99.358
-97.052
-92.607
-85.945
-77.405
-67.606
-57.096
-46.303
-35.793
-26.134
-17.606
-10.257
-3.957
1.56
6.488
10.945
15.074
19.025
22.932
26.922
31.056
35.343
39.75
44.202
48.642
53.031
57.317
61.448
65.374
69.045
72.454
75.635
78.604
81.366
83.903
86.173
88.156
89.858
91.305
92.555
93.649
94.613
95.481
96.286
97.048
97.782
98.465
99.04
99.471
99.739
99.84
99.791
99.596
99.255
98.767
98.134
97.36
96.455
95.426
94.274
93.013
91.666
90.267
88.87
87.516
86.237
85.057
83.996
83.069
82.297
81.69
81.251
80.985
80.898
80.995
81.287
81.778
82.467
83.349
84.419
85.669
87.093
88.685
90.434
92.331
94.368
96.534
98.822
101.219
103.712
106.288
108.929
111.622
114.35
117.095
119.838
122.562
125.248
127.875
130.422
132.867
135.188
137.363
139.375
141.204
142.833
144.243
145.418
146.347
147.015
147.41
147.513
147.302
146.763
145.894
144.694
143.171
141.332
139.181
136.729
133.996
130.992
127.723
124.185
120.357
116.233
111.818
107.128
102.193
97.031
91.643
86.034
80.201
74.143
67.866
61.359
54.591
47.563
40.296
32.841
25.287
17.7
10.124
2.596
-4.865
-12.227
-19.436
-26.454
-33.243
-39.76
-45.965
-51.793
-57.149
-61.983
-66.282
-70.068
-73.412
-76.362
-78.939
-81.17
-83.07
-84.663
-85.985
-87.056
-87.88
-88.479
-88.883
-89.14
-89.333
-89.507
-89.675
-89.829
-89.926
-89.939
-89.862
-89.683
-89.388
-88.969
-88.417
-87.739
-86.956
-86.08
-85.111
-84.039
-82.835
-81.492
-80.013
-78.411
-76.712
-74.934
-73.089
-71.189
-69.255
-67.296
-65.32
-63.327
-61.306
-59.251
-57.162
-55.042
-52.898
-50.731
-48.542
-46.329
-44.093
-41.832
-39.548
-37.238
-34.902
-32.538
-30.15
-27.743
-25.323
-22.898
-20.474
-18.055
-15.649
-13.262
-10.901
-8.571
-6.279
-4.028
-1.828
0.317
2.397
4.408
6.341
8.19
9.948
11.609
13.166
14.614
15.948
17.162
18.252
19.215
20.047
20.747
21.312
21.741
22.034
22.192
22.216
22.107
21.868
21.502
21.013
20.405
19.683
18.853
17.921
16.894
15.777
14.578
13.305
11.965
10.566
9.117
7.625
6.099
4.548
2.979
1.4
-0.179
-1.752
-3.31
-4.846
-6.353
-7.824
-9.253
-10.634
-11.962
-13.231
-14.436
-15.574
-16.639
-17.629
-18.54
-19.37
-20.116
-20.777
-21.354
-21.845
-22.252
-22.576
-22.819
-22.983
-23.072
-23.087
-23.031
-22.909
-22.723
-22.478
-22.177
-21.824
-21.424
-20.981
-20.5
-19.986
-19.443
-18.876
-18.288
-17.684
-17.069
-16.446
-15.821
-15.197
-14.58
-13.974
-13.382
-12.808
-12.256
-11.728
-11.224
-10.744
-10.288
-9.852
-9.434
-9.032
-8.641
-8.261
-7.887
-7.518
-7.152
-6.787
-6.419
-6.046
-5.661
-5.257
-4.829
-4.37
-3.87
-3.323
-2.719
-2.051
-1.313
-0.5
0.394
1.379
2.47
3.676
4.999
6.442
8.001
9.668
11.435
13.285
15.188
17.117
19.045
20.948
22.82
24.657
26.452
28.197
29.882
31.507
33.093
34.667
36.249
37.863
39.532
41.289
43.198
45.313
47.671
50.298
53.183
56.302
59.636
63.155
66.814
70.548
74.26
77.828
81.165
84.19
86.825
88.986
90.559
91.444
91.582
90.942
89.531
87.376
84.506
80.956
76.804
72.151
67.135
61.924
56.645
51.4
46.288
41.407
36.864
32.753
29.117
25.945
23.216
20.886
18.895
17.201
15.721
14.364
13.052
11.666
10.109
8.322
6.226
3.765
0.958
-2.222
-5.798
-9.602
-13.404
-16.797
-19.123
-19.856
-18.602
-14.895
-8.443
0.719
12.376
25.673
39.185
51.721
62.175
69.63
73.981
75.702
75.714
76.207
80.16
90.386
110.028
141.607
185.88
242.566
310.209
385.152
462.475
536.663
600.779
648.211
674.235
675.07
648.689
596.01
519.87
424.813
317.942
207.15
99.594
2.502
-78.109
-138.903
-178.421
-197.065
-197.665
-184.289
-161.229
-133.612
-106.293
-82.327
-63.537
-50.635
-43.036
-39.564
-38.86
-38.901
-37.605
-33.954
-27.651
-18.92
-8.491
2.905
14.588
25.605
34.956
42.096
46.81
49.151
49.413
47.814
44.522
39.788
33.91
27.173
19.859
12.195
4.335
-3.548
-11.247
-18.541
-25.208
-31.096
-36.13
-40.275
-43.522
-45.864
-47.313
-47.907
-47.727
-46.874
-45.452
-43.558
-41.281
-38.715
-35.971
-33.176
-30.44
-27.84
-25.419
-23.197
-21.189
-19.411
-17.865
-16.531
-15.379
-14.373
-13.487
-12.697
-11.978
-11.297
-10.614
-9.885
-9.077
-8.169
-7.143
-5.987
-4.687
-3.23
-1.61
0.174
2.123
4.241
6.533
9.004
11.655
14.484
17.491
20.675
24.045
27.599
31.334
35.247
39.328
43.564
47.939
52.425
56.988
61.607
66.262
70.939
75.635
80.343
85.053
89.761
94.45
99.108
103.728
108.293
112.791
117.232
121.626
126.006
130.412
134.849
139.312
143.785
148.226
152.594
156.845
160.912
164.752
168.331
171.608
174.56
177.148
179.303
180.95
181.99
182.319
181.881
180.642
178.574
175.689
172.009
167.563
162.416
156.61
150.159
143.091
135.433
127.232
118.586
109.605
100.423
91.182
81.983
72.911
64.049
55.446
47.14
39.163
31.523
24.247
17.401
11.036
5.191
-0.117
-4.92
-9.271
-13.239
-16.9
-20.309
-23.51
-26.543
-29.43
-32.185
-34.816
-37.325
-39.731
-42.083
-44.422
-46.783
-49.18
-51.598
-54.01
-56.375
-58.653
-60.812
-62.828
-64.686
-66.381
-67.917
-69.303
-70.552
-71.668
-72.639
-73.458
-74.119
-74.628
-75.001
-75.26
-75.436
-75.559
-75.656
-75.754
-75.869
-76.015
-76.2
-76.429
-76.701
-77.021
-77.395
-77.831
-78.335
-78.914
-79.569
-80.301
-81.108
-81.987
-82.935
-83.948
-85.023
-86.16
-87.356
-88.614
-89.935
-91.317
-92.763
-94.268
-95.832
-97.45
-99.118
-100.832
-102.586
-104.376
-106.195
-108.039
-109.902
-111.779
-113.664
-115.551
-117.434
-119.305
-121.16
-122.99
-124.79
-126.554
-128.274
-129.944
-131.558
-133.108
-134.59
-135.996
-137.32
-138.555
-139.697
-140.74
-141.677
-142.504
-143.215
-143.808
-144.278
-144.622
-144.838
-144.924
-144.88
-144.705
-144.399
-143.963
-143.397
-142.703
-141.885
-140.943
-139.882
-138.705
-137.417
-136.023
-134.528
-132.937
-131.256
-129.493
-127.654
-125.745
-123.775
-121.752
-119.684
-117.579
-115.445
-113.292
-111.127
-108.96
-106.797
-104.647
-102.518
-100.416
-98.349
-96.322
-94.344
-92.419
-90.553
-88.752
-87.021
-85.365
-83.786
-82.289
-80.876
-79.548
-78.308
-77.156
-76.094
-75.121
-74.237
-73.442
-72.735
-72.114
-71.577
-71.12
-70.741
-70.436
-70.199
-70.028
-69.916
-69.86
-69.855
-69.895
-69.976
-70.092
-70.237
-70.405
-70.589
-70.782
-70.977
-71.163
-71.334
-71.479
-71.593
-71.666
-71.69
-71.66
-71.568
-71.409
-71.178
-70.869
-70.473
-69.983
-69.39
-68.685
-67.861
-66.906
-65.814
-64.575
-63.185
-61.638
-59.934
-58.068
-56.036
-53.831
-51.442
-48.865
-46.1
-43.146
-40.009
-36.702
-33.241
-29.656
-25.978
-22.228
-18.423
-14.569
-10.663
-6.703
-2.69
1.384
5.509
9.677
13.889
18.13
22.394
26.693
31.042
35.481
40.061
44.801
49.707
54.766
59.934
65.16
70.386
75.525
80.51
85.283
89.783
93.976
97.826
101.278
104.268
106.71
108.493
109.549
109.839
109.338
108.068
106.067
103.4
100.18
96.524
92.532
88.296
83.882
79.338
74.735
70.157
65.7
61.482
57.594
54.091
51.018
48.398
46.228
44.463
43
41.694
40.4
39.004
37.419
35.584
33.452
30.948
27.986
24.491
20.379
15.61
10.2
4.108
-2.712
-10.13
-17.896
-25.564
-32.468
-38.086
-42.025
-43.801
-43.079
-39.811
-34.137
-26.754
-18.801
-11.196
-4.786
-0.348
1.945
2.412
1.809
1.921
5.115
13.676
30.115
56.643
94.343
143.354
202.768
269.957
341.16
411.775
476.071
528.13
562.876
576.188
565.151
528.765
467.863
385.396
286.538
177.75
65.802
-42.706
-141.374
-224.642
-288.409
-330.83
-352.217
-354.411
-340.167
-312.614
-275.697
-233.893
-191.385
-151.161
-115.206
-84.865
-60.855
-43.709
-33.15
-27.947
-26.529
-27.625
-30.049
-32.54
-34.21
-34.191
-32.034
-28.017
-22.702
-16.638
-10.55
-5.307
-1.48
0.441
0.2
-2
-5.856
-11.013
-16.972
-23.191
-29.256
-34.791
-39.549
-43.472
-46.516
-48.677
-50.005
-50.54
-50.328
-49.418
-47.856
-45.685
-42.971
-39.785
-36.208
-32.335
-28.269
-24.129
-20.008
-15.967
-12.046
-8.265
-4.636
-1.175
2.12
5.27
8.297
11.226
14.078
16.867
19.62
22.368
25.149
28.003
30.961
34.039
37.249
40.6
44.096
47.745
51.543
55.48
59.55
63.749
68.077
72.536
77.125
81.837
86.669
91.616
96.674
101.842
107.115
112.49
117.961
123.525
129.179
134.918
140.738
146.631
152.587
158.596
164.647
170.728
176.824
182.923
189.006
195.06
201.068
207.014
212.879
218.645
224.295
229.809
235.167
240.351
245.338
250.11
254.646
258.926
262.929
266.636
270.027
273.084
275.788
278.124
280.073
281.623
282.758
283.465
283.733
283.552
282.914
281.811
280.238
278.192
275.673
272.679
269.215
265.285
260.894
256.052
250.768
245.055
238.927
232.399
225.488
218.215
210.599
202.663
194.432
185.928
177.179
168.211
159.05
149.725
140.264
130.695
121.046
111.346
101.623
91.906
82.223
72.6
63.066
53.644
44.36
35.238
26.3
17.567
9.057
0.789
-7.221
-14.958
-22.411
-29.568
-36.42
-42.96
-49.183
-55.085
-60.665
-65.923
-70.859
-75.477
-79.781
-83.776
-87.469
-90.867
-93.979
-96.812
-99.379
-101.689
-103.754
-105.587
-107.199
-108.605
-109.816
-110.848
-111.712
-112.424
-112.996
-113.442
-113.774
-114.005
-114.147
-114.212
-114.21
-114.151
-114.045
-113.901
-113.726
-113.526
-113.309
-113.078
-112.838
-112.595
-112.35
-112.107
-111.869
-111.637
-111.413
-111.199
-110.995
-110.803
-110.621
-110.45
-110.29
-110.14
-109.998
-109.865
-109.737
-109.615
-109.497
-109.38
-109.263
-109.144
-109.021
-108.892
-108.756
-108.611
-108.456
-108.29
-108.112
-107.923
-107.721
-107.507
-107.281
-107.045
-106.797
-106.538
-106.27
-105.992
-105.706
-105.41
-105.107
-104.796
-104.477
-104.152
-103.82
-103.481
-103.137
-102.786
-102.429
-102.067
-101.701
-101.33
-100.955
-100.578
-100.2
-99.821
-99.444
-99.069
-98.698
-98.333
-97.973
-97.622
-97.281
-96.95
-96.631
-96.326
-96.037
-95.766
-95.514
-95.284
-95.078
-94.898
-94.748
-94.63
-94.546
-94.501
-94.497
-94.539
-94.628
-94.77
-94.967
-95.224
-95.542
-95.926
-96.377
-96.897
-97.489
-98.154
-98.893
-99.706
-100.594
-101.557
-102.593
-103.702
-104.882
-106.13
-107.445
-108.822
-110.259
-111.751
-113.293
-114.88
-116.508
-118.169
-119.858
-121.568
-123.29
-125.017
-126.74
-128.451
-130.139
-131.794
-133.408
-134.969
-136.468
-137.896
-139.243
-140.499
-141.655
-142.704
-143.636
-144.446
-145.124
-145.666
-146.065
-146.317
-146.418
-146.365
-146.155
-145.788
-145.262
-144.579
-143.741
-142.748
-141.605
-140.314
-138.882
-137.316
-135.622
-133.81
-131.888
-129.868
-127.764
-125.591
-123.363
-121.097
-118.809
-116.515
-114.235
-111.984
-109.776
-107.627
-105.551
-103.562
-101.676
-99.909
-98.275
-96.789
-95.463
-94.31
-93.342
-92.566
-91.984
-91.599
-91.413
-91.433
-91.671
-92.139
-92.842
-93.784
-94.966
-96.382
-98.02
-99.853
-101.845
-103.958
-106.154
-108.405
-110.69
-112.982
-115.253
-117.47
-119.586
-121.563
-123.372
-124.983
-126.374
-127.547
-128.538
-129.408
-130.257
-131.175
-132.222
-133.469
-134.994
-136.875
-139.204
-142.08
-145.556
-149.721
-154.718
-160.56
-167.147
-174.232
-181.307
-187.875
-193.581
-197.929
-200.379
-200.819
-199.366
-196.544
-193.568
-191.344
-190.366
-191.399
-195.002
-200.886
-208.329
-215.698
-220.121
-219.228
-211.016
-193.003
-163.227
-120.818
-65.744
0.407
74.176
151.855
228.994
299.913
358.949
400.927
421.493
417.852
389.027
335.404
259.614
166.567
62.363
-46.214
-152.411
-249.723
-332.107
-394.786
-435.578
-454.75
-454.199
-436.866
-406.112
-366.217
-322.493
-280.083
-242.289
-210.694
-185.825
-167.723
-156.408
-151.007
-149.245
-148.328
-146.509
-143.102
-137.985
-131.167
-122.314
-111.478
-99.662
-88.388
-78.687
-70.926
-65.055
-60.861
-58.401
-57.677
-58.265
-59.454
-60.624
-61.446
-61.829
-61.817
-61.338
-60.243
-58.466
-56.043
-53.07
-49.635
-45.777
-41.514
-36.896
-32.047
-27.126
-22.287
-17.645
-13.27
-9.204
-5.488
-2.161
0.739
3.194
5.201
6.772
7.915
8.633
8.94
8.861
8.445
7.756
6.851
5.773
4.554
3.221
1.798
0.312
-1.216
-2.772
-4.344
-5.916
-7.468
-8.976
-10.42
-11.785
-13.061
-14.24
-15.308
-16.25
-17.051
-17.694
-18.165
-18.447
-18.522
-18.37
-17.976
-17.332
-16.432
-15.274
-13.852
-12.159
-10.188
-7.939
-5.417
-2.628
0.423
3.721
7.25
10.981
14.871
18.889
23.013
27.226
31.522
35.891
40.32
44.801
49.327
53.893
58.502
63.147
67.818
72.52
77.264
82.08
87.017
92.099
97.328
102.697
108.182
113.76
119.399
125.05
130.65
136.142
141.461
146.553
151.367
155.828
159.856
163.363
166.245
168.436
169.888
170.566
170.453
169.542
167.838
165.383
162.23
158.435
154.064
149.19
143.896
138.304
132.528
126.676
120.863
115.173
109.684
104.475
99.604
95.125
91.08
87.49
84.376
81.758
79.632
77.976
76.745
75.856
75.244
74.861
74.66
74.61
74.681
74.838
75.063
75.342
75.661
76.001
76.336
76.633
76.89
77.118
77.349
77.642
78.034
78.546
79.203
80.014
80.987
82.129
83.432
84.88
86.466
88.187
90.055
92.079
94.254
96.563
98.981
101.469
104.001
106.55
109.09
111.599
114.057
116.448
118.766
121.008
123.165
125.226
127.176
128.997
130.678
132.209
133.584
134.798
135.845
136.723
137.43
137.966
138.329
138.516
138.522
138.343
137.976
137.419
136.672
135.735
134.609
133.298
131.804
130.134
128.291
126.282
124.111
121.784
119.307
116.687
113.933
111.052
108.054
104.949
101.746
98.458
95.096
91.671
88.196
84.683
81.144
77.591
74.038
70.495
66.976
63.493
60.057
56.681
53.377
50.155
47.027
44.004
41.096
38.312
35.661
33.153
30.796
28.597
26.563
24.703
23.02
21.522
20.213
19.096
18.175
17.452
16.926
16.598
16.465
16.526
16.775
17.208
17.819
18.6
19.544
20.641
21.882
23.256
24.752
26.357
28.06
29.847
31.704
33.618
35.575
37.559
39.557
41.552
43.531
45.478
47.377
49.213
50.972
52.638
54.198
55.636
56.941
58.1
59.103
59.938
60.598
61.076
61.365
61.463
61.365
61.073
60.585
59.904
59.035
57.982
56.751
55.352
53.794
52.088
50.245
48.28
46.206
44.039
41.795
39.492
37.146
34.778
32.407
30.052
27.734
25.475
23.295
21.217
19.26
17.446
15.796
14.329
13.063
12.017
11.205
10.644
10.345
10.322
10.583
11.138
11.992
13.149
14.613
16.384
18.46
20.84
23.516
26.483
29.732
33.252
37.032
41.057
45.313
49.783
54.448
59.289
64.284
69.409
74.641
79.955
85.323
90.719
96.113
101.475
106.777
111.988
117.079
122.022
126.788
131.349
135.683
139.765
143.573
147.088
150.288
153.155
155.674
157.827
159.6
160.984
161.968
162.547
162.725
162.502
161.882
160.867
159.452
157.64
155.439
152.858
149.908
146.609
142.982
139.07
134.924
130.595
126.129
121.568
116.939
112.279
107.631
103.037
98.554
94.227
90.087
86.174
82.52
79.14
76.025
73.115
70.32
67.557
64.764
61.909
58.954
55.836
52.489
48.83
44.773
40.283
35.295
29.691
23.502
16.878
10.118
3.784
-1.61
-5.682
-7.938
-7.995
-5.894
-1.9
3.304
8.572
13.092
16.215
17.077
15.398
11.751
7.264
3.876
4.058
9.886
23.493
47.388
83.111
130.7
188.971
255.462
326.809
399.184
467.846
526.886
570.757
595.601
598.953
579.52
537.364
474.003
392.85
299.604
200.93
102.614
9.918
-72.166
-139.737
-190.135
-222.434
-237.935
-239.222
-228.923
-209.996
-185.716
-158.831
-131.677
-105.878
-82.18
-61.006
-42.421
-26.036
-11.326
1.94
13.809
24.231
33.393
41.934
50.115
57.807
64.868
71.248
77.167
82.859
88.084
92.14
94.609
95.383
94.478
92.037
88.005
82.328
75.27
67.322
58.907
50.356
41.893
33.654
25.887
18.83
12.593
7.205
2.624
-1.197
-4.256
-6.544
-8.087
-8.923
-9.095
-8.638
-7.546
-5.848
-3.625
-0.982
1.923
4.943
7.984
10.97
13.853
16.609
19.213
21.654
23.95
26.107
28.122
29.981
31.637
33.067
34.285
35.328
36.27
37.197
38.165
39.22
40.406
41.747
43.26
44.96
46.834
48.876
51.094
53.503
56.138
59.032
62.195
65.626
69.312
73.223
77.339
81.641
86.106
90.719
95.474
100.364
105.385
110.542
115.821
121.2
126.652
132.132
137.596
143.015
148.362
153.618
158.779
163.831
168.77
173.591
178.277
182.813
187.187
191.377
195.369
199.164
202.77
206.212
209.527
212.721
215.793
218.731
221.498
224.059
226.374
228.379
230.035
231.302
232.136
232.505
232.364
231.647
230.28
228.18
225.256
221.454
216.744
211.098
204.532
197.06
188.712
179.55
169.617
158.953
147.613
135.656
123.162
110.247
97.048
83.692
70.315
57.026
43.914
31.069
18.552
6.419
-5.281
-16.522
-27.258
-37.438
-47.032
-56.024
-64.428
-72.293
-79.691
-86.68
-93.316
-99.648
-105.706
-111.527
-117.132
-122.537
-127.759
-132.812
-137.734
-142.56
-147.323
-152.034
-156.687
-161.253
-165.688
-169.965
-174.057
-177.945
-181.625
-185.093
-188.353
-191.419
-194.305
-197.019
-199.557
-201.916
-204.094
-206.096
-207.941
-209.653
-211.263
-212.799
-214.285
-215.74
-217.18
-218.612
-220.041
-221.466
-222.88
-224.281
-225.668
-227.043
-228.404
-229.749
-231.071
-232.361
-233.609
-234.801
-235.926
-236.968
-237.916
-238.759
-239.487
-240.09
-240.563
-240.898
-241.087
-241.124
-241.001
-240.71
-240.247
-239.604
-238.779
-237.767
-236.566
-235.177
-233.6
-231.837
-229.89
-227.764
-225.462
-222.99
-220.354
-217.561
-214.62
-211.539
-208.328
-204.997
-201.557
-198.02
-194.398
-190.703
-186.948
-183.147
-179.313
-175.459
-171.599
-167.747
-163.914
-160.114
-156.359
-152.661
-149.03
-145.479
-142.017
-138.652
-135.394
-132.25
-129.226
-126.328
-123.562
-120.93
-118.438
-116.086
-113.877
-111.812
-109.891
-108.114
-106.48
-104.987
-103.634
-102.417
-101.334
-100.381
-99.555
-98.849
-98.26
-97.782
-97.41
-97.136
-96.956
-96.863
-96.851
-96.915
-97.048
-97.245
-97.5
-97.809
-98.168
-98.571
-99.015
-99.495
-100.008
-100.551
-101.119
-101.712
-102.325
-102.957
-103.606
-104.271
-104.95
-105.643
-106.349
-107.067
-107.796
-108.536
-109.287
-110.049
-110.822
-111.606
-112.403
-113.212
-114.036
-114.874
-115.726
-116.593
-117.473
-118.366
-119.27
-120.182
-121.099
-122.017
-122.933
-123.845
-124.748
-125.64
-126.519
-127.382
-128.226
-129.049
-129.845
-130.608
-131.331
-132.006
-132.624
-133.176
-133.656
-134.057
-134.37
-134.592
-134.72
-134.749
-134.671
-134.48
-134.161
-133.707
-133.113
-132.379
-131.508
-130.514
-129.412
-128.223
-126.97
-125.67
-124.335
-122.967
-121.561
-120.108
-118.597
-117.03
-115.418
-113.771
-112.097
-110.399
-108.674
-106.91
-105.083
-103.164
-101.116
-98.918
-96.566
-94.081
-91.511
-88.916
-86.371
-83.935
-81.646
-79.542
-77.655
-76.02
-74.676
-73.67
-73.052
-72.886
-73.247
-74.189
-75.737
-77.878
-80.551
-83.67
-87.126
-90.828
-94.705
-98.688
-102.72
-106.742
-110.691
-114.509
-118.142
-121.516
-124.547
-127.167
-129.329
-131.043
-132.378
-133.433
-134.329
-135.167
-136.018
-136.933
-137.965
-139.177
-140.635
-142.388
-144.483
-146.945
-149.842
-153.308
-157.328
-161.729
-166.171
-170.087
-172.946
-174.414
-174.049
-171.321
-166.147
-158.696
-149.555
-140.034
-131.146
-123.475
-117.884
-115.055
-114.817
-116.564
-118.745
-118.525
-113.557
-101.812
-80.749
-48.334
-3.631
53.366
120.951
195.567
273.475
350.262
420.273
477.796
517.59
535.401
528.767
497.156
441.274
363.776
269.492
164.546
55.876
-49.639
-145.851
-227.679
-291.406
-335.46
-360.306
-367.801
-360.992
-343.639
-319.719
-293.076
-266.746
-242.226
-220.094
-200.756
-184.27
-170.136
-157.531
-145.464
-133.42
-121.969
-111.799
-102.911
-94.912
-87.599
-81.044
-75.568
-71.272
-67.567
-63.929
-60.454
-57.698
-56.146
-55.969
-57.054
-59.216
-62.505
-66.934
-72.234
-77.878
-83.372
-88.4
-92.799
-96.544
-99.579
-101.829
-103.307
-104.098
-104.306
-104.035
-103.369
-102.362
-101.102
-99.71
-98.303
-97.017
-95.952
-95.175
-94.754
-94.729
-95.115
-95.917
-97.126
-98.718
-100.672
-102.958
-105.535
-108.366
-111.404
-114.595
-117.881
-121.194
-124.473
-127.671
-130.748
-133.668
-136.402
-138.924
-141.21
-143.245
-145.009
-146.483
-147.647
-148.479
-148.962
-149.08
-148.822
-148.177
-147.137
-145.694
-143.84
-141.568
-138.876
-135.761
-132.222
-128.259
-123.878
-119.086
-113.896
-108.322
-102.381
-96.094
-89.482
-82.57
-75.383
-67.951
-60.301
-52.463
-44.468
-36.349
-28.14
-19.873
-11.584
-3.308
4.922
13.069
21.1
28.979
36.673
44.151
51.38
58.332
64.976
71.287
77.238
82.808
87.975
92.721
97.028
100.885
104.278
107.2
109.644
111.607
113.089
114.092
114.619
114.678
114.278
113.43
112.148
110.449
108.349
105.869
103.03
99.855
96.369
92.598
88.568
84.309
79.848
75.217
70.444
65.56
60.596
55.581
50.547
45.523
40.537
35.619
30.795
26.092
21.535
17.148
12.955
8.975
5.228
1.732
-1.497
-4.445
-7.1
-9.451
-11.491
-13.211
-14.609
-15.68
-16.423
-16.839
-16.93
-16.699
-16.152
-15.294
-14.135
-12.682
-10.947
-8.941
-6.675
-4.162
-1.416
1.549
4.719
8.079
11.614
15.309
19.149
23.118
27.201
31.383
35.65
39.988
44.383
48.823
53.295
57.789
62.293
66.799
71.297
75.778
80.236
84.664
89.056
93.407
97.712
101.968
106.172
110.321
114.414
118.45
122.426
126.344
130.201
133.998
137.736
141.414
145.033
148.593
152.095
155.541
158.93
162.264
165.543
168.766
171.934
175.046
178.101
181.099
184.038
186.916
189.731
192.481
195.162
197.773
200.309
202.767
205.145
207.438
209.642
211.755
213.771
215.69
217.506
219.218
220.824
222.32
223.707
224.982
226.144
227.195
228.134
228.962
229.68
230.291
230.797
231.203
231.513
231.731
231.863
231.916
231.896
231.812
231.672
231.484
231.258
231.004
230.733
230.455
230.182
229.925
229.694
229.502
229.358
229.275
229.262
229.33
229.487
229.744
230.107
230.587
231.187
231.916
232.777
233.775
234.912
236.19
237.609
239.17
240.87
242.707
244.677
246.777
249.001
251.342
253.793
256.344
258.986
261.706
264.493
267.334
270.215
273.122
276.039
278.953
281.847
284.706
287.514
290.256
292.916
295.478
297.928
300.251
302.435
304.466
306.333
308.027
309.539
310.865
311.997
312.931
313.662
314.188
314.506
314.614
314.511
314.194
313.665
312.927
311.986
310.852
309.534
308.043
306.393
304.598
302.674
300.637
298.5
296.274
293.973
291.614
289.217
286.804
284.396
282.004
279.641
277.317
275.037
272.802
270.6
268.407
266.211
264.007
261.799
259.602
257.426
255.28
253.174
251.118
249.125
247.21
245.383
243.644
242.008
240.5
239.161
238.059
237.232
236.69
236.427
236.412
236.607
236.974
237.454
237.968
238.449
238.83
239.055
239.094
238.898
238.403
237.527
236.161
234.235
231.725
228.628
224.974
220.807
216.178
211.17
205.9
200.469
194.968
189.474
184.028
178.689
173.52
168.598
164.012
159.81
155.994
152.523
149.323
146.307
143.392
140.474
137.446
134.198
130.615
126.612
122.11
117.037
111.374
105.04
97.927
90.09
81.709
73.164
65.077
57.97
52.234
48.377
46.769
47.451
50.243
54.337
58.47
61.661
63.029
61.794
57.832
51.592
44.085
37.428
34.228
36.969
48.308
70.425
104.381
150.16
206.43
270.427
338.523
406.106
467.548
517.276
550.269
562.726
552.384
518
459.709
380.01
283.429
175.716
63.502
-47.09
-150.541
-241.081
-314.083
-367.407
-400.96
-416.462
-417.111
-406.161
-387.129
-364.571
-342.561
-323.601
-308.942
-298.561
-291.578
-287.182
-284.358
-281.393
-276.724
-269.572
-259.804
-247.942
-234.801
-221.033
-207.258
-194.28
-182.901
-173.628
-166.68
-161.985
-159.291
-158.376
-159.049
-161.094
-164.253
-168.278
-172.944
-178.055
-183.492
-189.142
-194.882
-200.571
-206.041
-211.139
-215.743
-219.785
-223.239
-226.101
-228.388
-230.127
-231.377
-232.214
-232.724
-232.986
-233.057
-232.978
-232.783
-232.527
-232.278
-232.106
-232.082
-232.24
-232.597
-233.161
-233.923
-234.866
-235.959
-237.157
-238.406
-239.662
-240.887
-242.05
-243.123
-244.072
-244.855
-245.429
-245.747
-245.77
-245.47
-244.82
-243.8
-242.393
-240.589
-238.387
-235.791
-232.801
-229.419
-225.645
-221.478
-216.923
-211.987
-206.679
-201.011
-194.996
-188.65
-181.99
-175.033
-167.801
-160.313
-152.592
-144.658
-136.535
-128.248
-119.826
-111.295
-102.687
-94.032
-85.359
-76.703
-68.094
-59.566
-51.149
-42.877
-34.779
-26.888
-19.234
-11.846
-4.754
2.014
8.431
14.471
20.111
25.326
30.095
34.398
38.218
41.538
44.346
46.629
48.378
49.585
50.246
50.357
49.918
48.929
47.393
45.317
42.707
39.573
35.927
31.784
27.158
22.069
16.535
10.578
4.222
-2.509
-9.588
-16.988
-24.679
-32.631
-40.813
-49.193
-57.736
-66.41
-75.181
-84.014
-92.876
-101.734
-110.553
-119.302
-127.948
-136.461
-144.81
-152.967
-160.904
-168.593
-176.011
-183.132
-189.937
-196.403
-202.513
-208.251
-213.602
-218.554
-223.095
-227.219
-230.919
-234.192
-237.035
-239.45
-241.438
-243.006
-244.161
-244.911
-245.267
-245.243
-244.853
-244.112
-243.038
-241.65
-239.966
-238.007
-235.793
-233.346
-230.687
-227.84
-224.825
-221.665
-218.383
-215.001
-211.539
-208.019
-204.461
-200.885
-197.31
-193.753
-190.232
-186.761
-183.355
-180.027
-176.787
-173.646
-170.612
-167.691
-164.888
-162.206
-159.647
-157.21
-154.894
-152.696
-150.612
-148.636
-146.762
-144.983
-143.291
-141.676
-140.13
-138.642
-137.202
-135.8
-134.425
-133.066
-131.713
-130.355
-128.981
-127.583
-126.149
-124.671
-123.141
-121.551
-119.894
-118.164
-116.354
-114.462
-112.484
-110.418
-108.262
-106.017
-103.683
-101.264
-98.763
-96.183
-93.529
-90.808
-88.025
-85.189
-82.305
-79.382
-76.428
-73.45
-70.456
-67.455
-64.454
-61.462
-58.485
-55.531
-52.606
-49.718
-46.871
-44.072
-41.324
-38.634
-36.004
-33.438
-30.938
-28.508
-26.148
-23.859
-21.643
-19.498
-17.424
-15.421
-13.484
-11.614
-9.806
-8.059
-6.369
-4.734
-3.149
-1.614
-0.125
1.321
2.725
4.089
5.414
6.701
7.951
9.163
10.337
11.472
12.566
13.616
14.621
15.577
16.481
17.33
18.122
18.851
19.516
20.112
20.636
21.085
21.457
21.748
21.955
22.076
22.109
22.054
21.909
21.675
21.352
20.943
20.449
19.873
19.221
18.497
17.706
16.855
15.95
15.002
14.018
13.008
11.984
10.955
9.935
8.936
7.969
7.047
6.181
5.384
4.667
4.042
3.519
3.108
2.818
2.656
2.632
2.751
3.018
3.436
4.007
4.733
5.613
6.646
7.825
9.145
10.599
12.178
13.872
15.672
17.562
19.533
21.571
23.663
25.797
27.957
30.127
32.288
34.424
36.518
38.554
40.515
42.385
44.153
45.812
47.353
48.773
50.058
51.191
52.159
52.957
53.579
54.023
54.296
54.405
54.371
54.228
54.008
53.74
53.446
53.134
52.824
52.539
52.311
52.19
52.207
52.383
52.743
53.31
54.08
55.026
56.09
57.177
58.217
59.169
59.982
60.608
60.981
61.016
60.627
59.745
58.277
56.09
53.161
49.583
45.605
41.684
38.261
35.662
34.308
34.717
37.022
41.021
46.121
51.192
55.407
58.44
59.711
58.515
54.902
49.555
44.053
41.004
42.451
49.773
64.874
89.859
126.011
173.668
231.523
296.657
366.159
436.908
504.492
563.568
608.726
635.192
639.843
621.121
578.312
512.158
425.648
323.856
213.328
101.038
-6.532
-103.384
-184.242
-245.343
-285.17
-304.505
-305.934
-293.017
-269.735
-240.463
-209.497
-180.454
-155.535
-135.453
-119.935
-108.137
-98.917
-90.868
-82.475
-72.416
-60.115
-45.744
-29.814
-13.045
3.84
20.155
35.144
48.109
58.688
66.822
72.634
76.385
78.32
78.636
77.598
75.494
72.572
69.045
65.069
60.753
56.233
51.668
47.214
43.016
39.192
35.839
33.021
30.771
29.089
27.944
27.281
27.039
27.142
27.515
28.097
28.826
29.646
30.5
31.321
32.044
32.601
32.921
32.954
32.671
32.061
31.136
29.916
28.423
26.692
24.763
22.673
20.457
18.146
15.766
13.35
10.937
8.569
6.297
4.16
2.191
0.416
-1.144
-2.474
-3.558
-4.388
-4.961
-5.275
-5.321
-5.093
-4.58
-3.775
-2.675
-1.279
0.411
2.394
4.668
7.23
10.074
13.193
16.58
20.228
24.129
28.273
32.645
37.229
42.009
46.964
52.076
57.321
62.675
68.115
73.615
79.149
84.691
90.215
95.692
101.095
106.395
111.564
116.573
121.396
126.002
130.366
134.459
138.256
141.731
144.861
147.623
149.994
151.956
153.49
154.58
155.211
155.372
155.052
154.243
152.938
151.134
148.828
146.023
142.72
138.925
134.645
129.889
124.67
119.001
112.896
106.374
99.454
92.156
84.503
76.518
68.228
59.657
50.836
41.79
32.551
23.148
13.611
3.97
-5.744
-15.501
-25.271
-35.025
-44.734
-54.37
-63.906
-73.317
-82.576
-91.661
-100.55
-109.22
-117.653
-125.831
-133.737
-141.356
-148.675
-155.683
-162.369
-168.725
-174.743
-180.419
-185.748
-190.728
-195.357
-199.637
-203.569
-207.156
-210.402
-213.313
-215.895
-218.155
-220.102
-221.744
-223.091
-224.153
-224.94
-225.463
-225.732
-225.76
-225.558
-225.137
-224.508
-223.684
-222.676
-221.495
-220.152
-218.657
-217.023
-215.258
-213.374
-211.381
-209.288
-207.104
-204.84
-202.504
-200.105
-197.652
-195.152
-192.612
-190.042
-187.446
-184.833
-182.208
-179.578
-176.948
-174.324
-171.711
-169.114
-166.539
-163.989
-161.468
-158.982
-156.532
-154.124
-151.761
-149.445
-147.18
-144.969
-142.814
-140.719
-138.685
-136.714
-134.809
-132.97
-131.198
-129.496
-127.863
-126.299
-124.806
-123.382
-122.028
-120.743
-119.527
-118.379
-117.298
-116.283
-115.334
-114.45
-113.628
-112.869
-112.172
-111.534
-110.955
-110.435
-109.972
-109.566
-109.216
-108.921
-108.68
-108.493
-108.357
-108.274
-108.241
-108.259
-108.326
-108.443
-108.608
-108.823
-109.086
-109.398
-109.758
-110.168
-110.626
-111.134
-111.69
-112.296
-112.951
-113.656
-114.408
-115.21
-116.058
-116.954
-117.895
-118.879
-119.906
-120.972
-122.075
-123.212
-124.38
-125.576
-126.797
-128.039
-129.297
-130.569
-131.85
-133.136
-134.422
-135.704
-136.978
-138.238
-139.48
-140.698
-141.888
-143.045
-144.162
-145.235
-146.259
-147.229
-148.139
-148.984
-149.759
-150.461
-151.083
-151.623
-152.077
-152.44
-152.71
-152.885
-152.961
-152.936
-152.808
-152.576
-152.237
-151.792
-151.239
-150.576
-149.805
-148.923
-147.931
-146.83
-145.618
-144.296
-142.866
-141.326
-139.679
-137.926
-136.069
-134.11
-132.05
-129.893
-127.642
-125.3
-122.872
-120.359
-117.768
-115.103
-112.368
-109.57
-106.714
-103.807
-100.856
-97.868
-94.853
-91.818
-88.773
-85.726
-82.686
-79.664
-76.668
-73.708
-70.79
-67.925
-65.122
-62.39
-59.739
-57.176
-54.71
-52.351
-50.107
-47.985
-45.989
-44.121
-42.38
-40.768
-39.286
-37.938
-36.726
-35.648
-34.697
-33.871
-33.16
-32.552
-32.024
-31.539
-31.061
-30.558
-30.001
-29.37
-28.643
-27.792
-26.784
-25.591
-24.182
-22.539
-20.648
-18.486
-16.045
-13.336
-10.403
-7.332
-4.211
-1.118
1.887
4.759
7.451
9.88
11.966
13.642
14.833
15.514
15.631
15.048
13.779
11.975
9.924
8.164
7.201
7.349
9.048
12.821
18.752
26.721
36.232
46.086
55.386
63.598
69.87
73.575
74.903
74.416
73.562
74.933
80.58
92.408
112.895
143.857
186.136
239.695
302.805
372.366
445.214
517.099
582.515
636.153
672.933
688.885
681.792
650.207
593.73
514.578
417.057
306.671
190.057
73.336
-37.798
-136.794
-217.998
-278.445
-317.069
-334.585
-333.298
-315.487
-284.288
-244.862
-202.498
-161.018
-123.412
-91.635
-66.659
-49.609
-40.673
-38.252
-40.17
-44.672
-50.104
-55.078
-58.703
-59.906
-58.129
-53.818
-47.811
-40.944
-34.154
-28.348
-24.077
-21.859
-21.956
-24.162
-28.126
-33.399
-39.409
-45.574
-51.483
-56.818
-61.356
-65.039
-67.828
-69.711
-70.745
-71.003
-70.537
-69.402
-67.65
-65.326
-62.504
-59.293
-55.806
-52.161
-48.48
-44.852
-41.353
-38.044
-34.962
-32.126
-29.543
-27.206
-25.099
-23.207
-21.503
-19.956
-18.537
-17.204
-15.912
-14.609
-13.242
-11.764
-10.142
-8.347
-6.356
-4.149
-1.712
0.968
3.897
7.082
10.532
14.258
18.27
22.578
27.187
32.101
37.322
42.851
48.691
54.844
61.309
68.084
75.167
82.553
90.238
98.214
106.471
114.993
123.765
132.769
141.983
151.387
160.956
170.665
180.486
190.392
200.355
210.345
220.331
230.281
240.164
249.946
259.593
269.072
278.349
287.389
296.158
304.623
312.75
320.509
327.868
334.796
341.267
347.252
352.728
357.671
362.06
365.878
369.106
371.733
373.746
375.138
375.901
376.033
375.533
374.403
372.649
370.277
367.297
363.722
359.566
354.846
349.583
343.797
337.514
330.76
323.562
315.951
307.959
299.62
290.967
282.035
272.862
263.484
253.937
244.26
234.488
224.66
214.81
204.976
195.191
185.49
175.905
166.467
157.206
148.149
139.325
130.755
122.464
114.472
106.797
99.455
92.462
85.827
79.562
73.674
68.168
63.046
58.31
53.957
49.985
46.388
43.159
40.289
37.769
35.586
33.727
32.179
30.927
29.956
29.248
28.788
28.559
28.542
28.72
29.076
29.593
30.253
31.04
31.938
32.93
34.003
35.142
36.333
37.565
38.827
40.109
41.401
42.697
43.991
45.277
46.553
47.816
49.064
50.3
51.523
52.735
53.942
55.145
56.351
57.565
58.793
60.043
61.32
62.634
63.992
65.402
66.872
68.412
70.03
71.734
73.533
75.434
77.446
79.576
81.831
84.217
86.741
89.406
92.218
95.18
98.293
101.558
104.977
108.549
112.27
116.14
120.153
124.306
128.592
133.007
137.542
142.19
146.943
151.792
156.729
161.742
166.823
171.961
177.145
182.363
187.606
192.86
198.114
203.357
208.576
213.758
218.892
223.966
228.967
233.883
238.704
243.418
248.014
252.483
256.815
261
265.031
268.899
272.597
276.118
279.456
282.605
285.559
288.314
290.865
293.207
295.337
297.249
298.94
300.407
301.646
302.653
303.425
303.96
304.256
304.31
304.122
303.692
303.019
302.103
300.945
299.547
297.91
296.034
293.923
291.577
289
286.194
283.163
279.909
276.435
272.747
268.847
264.74
260.431
255.925
251.226
246.343
241.281
236.05
230.658
225.115
219.433
213.623
207.698
201.67
195.552
189.356
183.093
176.775
170.413
164.015
157.591
151.154
144.715
138.288
131.888
125.526
119.217
112.978
106.82
100.759
94.802
88.958
83.234
77.64
72.189
66.895
61.77
56.815
52.033
47.424
42.982
38.693
34.534
30.47
26.473
22.529
18.631
14.785
10.993
7.256
3.577
-0.041
-3.595
-7.074
-10.477
-13.809
-17.058
-20.198
-23.182
-25.935
-28.411
-30.597
-32.493
-34.124
-35.525
-36.733
-37.809
-38.833
-39.871
-40.98
-42.199
-43.544
-45.061
-46.819
-48.915
-51.466
-54.554
-58.215
-62.469
-67.308
-72.694
-78.564
-84.804
-91.263
-97.814
-104.356
-110.815
-117.133
-123.222
-128.963
-134.218
-138.856
-142.775
-145.91
-148.221
-149.693
-150.353
-150.275
-149.59
-148.473
-147.089
-145.581
-144.077
-142.701
-141.58
-140.904
-140.928
-141.775
-143.438
-145.745
-148.332
-150.871
-153.137
-154.778
-155.262
-154.237
-151.694
-148.155
-144.695
-142.18
-140.994
-141.343
-143.54
-147.816
-153.776
-160.002
-164.039
-163.481
-156.642
-142.257
-118.866
-84.744
-38.89
18.314
84.861
157.967
234.936
312.735
387.139
452.728
503.949
536.109
546.081
531.906
492.326
427.608
340.478
235.958
120.662
1.705
-114.343
-221.102
-312.444
-383.754
-432.821
-459.609
-466.164
-455.684
-431.453
-397.678
-359.371
-320.962
-285.732
-255.951
-232.428
-215.282
-204.863
-200.518
-200.514
-203.088
-206.533
-209.298
-210.771
-210.605
-208.031
-202.888
-195.68
-187.066
-178.117
-169.998
-163.183
-157.901
-154.52
-153.072
-153.402
-155.278
-158.098
-161.138
-164.016
-166.53
-168.545
-170.082
-171.106
-171.536
-171.4
-170.78
-169.728
-168.295
-166.495
-164.308
-161.779
-159.005
-156.119
-153.278
-150.587
-148.096
-145.841
-143.841
-142.12
-140.706
-139.609
-138.814
-138.306
-138.075
-138.115
-138.425
-138.982
-139.745
-140.654
-141.642
-142.66
-143.672
-144.651
-145.57
-146.406
-147.136
-147.744
-148.226
-148.571
-148.762
-148.782
-148.61
-148.232
-147.638
-146.823
-145.781
-144.507
-142.994
-141.239
-139.237
-136.985
-134.479
-131.715
-128.688
-125.396
-121.841
-118.026
-113.956
-109.637
-105.077
-100.286
-95.274
-90.052
-84.634
-79.033
-73.261
-67.334
-61.268
-55.078
-48.781
-42.397
-35.943
-29.44
-22.908
-16.368
-9.841
-3.35
3.084
9.439
15.693
21.823
27.809
33.628
39.26
44.682
49.875
54.818
59.492
63.878
67.961
71.723
75.149
78.225
80.939
83.28
85.237
86.801
87.964
88.72
89.064
88.994
88.508
87.606
86.291
84.568
82.442
79.922
77.019
73.743
70.11
66.133
61.829
57.218
52.318
47.15
41.736
36.099
30.263
24.251
18.087
11.798
5.408
-1.058
-7.576
-14.12
-20.666
-27.19
-33.669
-40.08
-46.401
-52.611
-58.69
-64.619
-70.38
-75.959
-81.34
-86.511
-91.461
-96.182
-100.667
-104.911
-108.91
-112.663
-116.17
-119.434
-122.457
-125.245
-127.804
-130.141
-132.266
-134.188
-135.916
-137.464
-138.841
-140.061
-141.134
-142.075
-142.895
-143.608
-144.227
-144.764
-145.231
-145.642
-146.008
-146.341
-146.651
-146.948
-147.24
-147.537
-147.843
-148.166
-148.51
-148.878
-149.271
-149.692
-150.14
-150.614
-151.111
-151.63
-152.166
-152.714
-153.271
-153.829
-154.384
-154.929
-155.46
-155.969
-156.45
-156.899
-157.308
-157.674
-157.989
-158.249
-158.449
-158.585
-158.651
-158.644
-158.562
-158.4
-158.157
-157.833
-157.425
-156.935
-156.363
-155.711
-154.981
-154.177
-153.302
-152.36
-151.356
-150.297
-149.187
-148.033
-146.841
-145.618
-144.371
-143.104
-141.825
-140.539
-139.252
-137.968
-136.694
-135.433
-134.191
-132.972
-131.78
-130.62
-129.494
-128.407
-127.362
-126.361
-125.407
-124.502
-123.649
-122.849
-122.103
-121.412
-120.777
-120.199
-119.677
-119.211
-118.801
-118.447
-118.148
-117.902
-117.71
-117.57
-117.482
-117.446
-117.462
-117.53
-117.65
-117.823
-118.049
-118.329
-118.662
-119.049
-119.49
-119.985
-120.532
-121.131
-121.78
-122.479
-123.225
-124.016
-124.849
-125.72
-126.627
-127.565
-128.529
-129.515
-130.516
-131.527
-132.541
-133.551
-134.549
-135.529
-136.48
-137.396
-138.265
-139.08
-139.828
-140.499
-141.083
-141.568
-141.943
-142.196
-142.316
-142.294
-142.118
-141.78
-141.27
-140.581
-139.705
-138.636
-137.369
-135.899
-134.223
-132.339
-130.247
-127.947
-125.442
-122.736
-119.834
-116.743
-113.474
-110.035
-106.439
-102.697
-98.823
-94.833
-90.743
-86.57
-82.329
-78.04
-73.723
-69.396
-65.083
-60.803
-56.579
-52.429
-48.376
-44.438
-40.636
-36.991
-33.516
-30.225
-27.133
-24.253
-21.605
-19.2
-17.046
-15.143
-13.49
-12.082
-10.912
-9.962
-9.204
-8.606
-8.129
-7.74
-7.415
-7.124
-6.838
-6.514
-6.105
-5.576
-4.902
-4.067
-3.065
-1.89
-0.542
0.942
2.495
4.036
5.461
6.695
7.673
8.327
8.61
8.453
7.765
6.497
4.592
2.021
-1.179
-5.018
-9.526
-14.548
-19.823
-24.941
-29.26
-32.274
-33.592
-32.701
-29.239
-23.125
-14.446
-3.857
7.53
18.806
29.076
37.488
43.81
48.281
51.572
55.43
62.192
74.162
93.94
123.797
164.819
217.117
279.722
349.895
423.734
496.464
562.123
614.57
648.573
659.922
645.666
604.931
538.771
450.32
345.066
229.907
112.053
-1.362
-103.549
-189.007
-253.934
-296.783
-318.503
-321.804
-310.388
-288.574
-261.119
-232.529
-206.536
-185.388
-169.732
-159.241
-152.96
-149.58
-147.548
-145.218
-141.198
-134.911
-126.543
-116.618
-105.891
-95.086
-84.865
-75.964
-69.013
-64.284
-61.754
-61.217
-62.353
-64.882
-68.562
-73.093
-78.169
-83.503
-88.838
-93.991
-98.805
-103.14
-106.872
-109.877
-112.072
-113.43
-113.952
-113.665
-112.616
-110.857
-108.456
-105.509
-102.114
-98.387
-94.447
-90.398
-86.352
-82.396
-78.597
-75.016
-71.695
-68.648
-65.883
-63.392
-61.153
-59.151
-57.36
-55.747
-54.278
-52.916
-51.616
-50.333
-49.019
-47.63
-46.133
-44.497
-42.699
-40.72
-38.543
-36.154
-33.548
-30.714
-27.642
-24.323
-20.746
-16.903
-12.787
-8.395
-3.725
1.223
6.451
11.96
17.748
23.813
30.152
36.76
43.632
50.76
58.133
65.738
73.558
81.576
89.773
98.126
106.613
115.21
123.89
132.628
141.397
150.169
158.915
167.605
176.21
184.699
193.041
201.207
209.165
216.887
224.341
231.5
238.337
244.824
250.937
256.651
261.943
266.791
271.178
275.083
278.492
281.391
283.767
285.611
286.917
287.678
287.893
287.561
286.685
285.268
283.318
280.843
277.854
274.363
270.386
265.939
261.042
255.715
249.98
243.861
237.383
230.572
223.456
216.063
208.421
200.561
192.512
184.305
175.971
167.541
159.046
150.516
141.982
133.473
125.018
116.646
108.382
100.254
92.284
84.497
76.915
69.557
62.442
55.588
49.009
42.719
36.73
31.051
25.693
20.66
15.958
11.591
7.561
3.868
0.513
-2.508
-5.198
-7.561
-9.602
-11.33
-12.752
-13.878
-14.716
-15.28
-15.579
-15.626
-15.433
-15.014
-14.382
-13.55
-12.531
-11.339
-9.988
-8.489
-6.856
-5.102
-3.238
-1.275
0.774
2.901
5.095
7.346
9.645
11.984
14.353
16.746
19.154
21.57
23.987
26.399
28.799
31.183
33.544
35.878
38.18
40.446
42.673
44.857
46.993
49.08
51.114
53.092
55.012
56.871
58.665
60.393
62.051
63.636
65.146
66.576
67.924
69.185
70.356
71.434
72.414
73.294
74.071
74.741
75.302
75.751
76.085
76.304
76.404
76.384
76.244
75.982
75.598
75.091
74.461
73.71
72.838
71.846
70.735
69.507
68.165
66.71
65.146
63.475
61.701
59.828
57.86
55.804
53.663
51.445
49.156
46.802
44.392
41.931
39.428
36.891
34.327
31.745
29.151
26.555
23.963
21.383
18.823
16.29
13.791
11.332
8.921
6.564
4.268
2.038
-0.119
-2.197
-4.189
-6.089
-7.891
-9.588
-11.171
-12.636
-13.975
-15.182
-16.252
-17.181
-17.965
-18.601
-19.089
-19.426
-19.612
-19.646
-19.527
-19.251
-18.817
-18.223
-17.467
-16.545
-15.456
-14.196
-12.768
-11.173
-9.412
-7.484
-5.383
-3.11
-0.671
1.924
4.666
7.535
10.516
13.583
16.7
19.834
22.952
26.025
29.042
31.99
34.857
37.628
40.288
42.83
45.268
47.62
49.901
52.128
54.319
56.504
58.744
61.087
63.565
66.203
68.989
71.901
74.921
78.02
81.154
84.267
87.268
90.056
92.56
94.708
96.426
97.638
98.222
98.076
97.136
95.357
92.729
89.273
85.006
79.979
74.289
68.047
61.396
54.5
47.476
40.438
33.511
26.814
20.51
14.746
9.618
5.213
1.595
-1.21
-3.188
-4.38
-4.898
-4.858
-4.382
-3.592
-2.577
-1.449
-0.332
0.664
1.398
1.778
1.711
1.035
-0.274
-2.103
-4.216
-6.134
-7.373
-7.643
-6.515
-3.456
1.62
8.594
16.987
25.658
33.829
41.135
46.881
50.487
52.125
52.31
52.422
54.973
61.891
74.814
95.95
127.152
169.41
222.951
286.441
356.867
431.054
505.015
573.408
630.662
671.44
691.256
687.237
658.141
603.886
526.598
430.828
322.603
208.95
96.711
-7.984
-99.374
-172.548
-224.868
-256.062
-267.73
-263.077
-245.469
-218.178
-185.467
-151.846
-120.666
-94.2
-73.424
-58.044
-47.985
-43.434
-43.345
-46.014
-49.909
-53.448
-55.892
-57.376
-57.625
-56.052
-52.789
-48.375
-43.617
-39.748
-37.372
-36.47
-37.175
-39.649
-43.85
-49.625
-56.513
-63.716
-70.727
-77.339
-83.393
-88.831
-93.557
-97.429
-100.438
-102.687
-104.257
-105.209
-105.574
-105.346
-104.576
-103.372
-101.861
-100.188
-98.483
-96.827
-95.285
-93.916
-92.771
-91.893
-91.303
-90.996
-90.958
-91.178
-91.649
-92.363
-93.3
-94.421
-95.68
-97.022
-98.393
-99.753
-101.067
-102.303
-103.434
-104.435
-105.285
-105.974
-106.491
-106.822
-106.95
-106.857
-106.525
-105.941
-105.093
-103.972
-102.569
-100.876
-98.884
-96.587
-93.979
-91.054
-87.808
-84.236
-80.337
-76.111
-71.562
-66.697
-61.525
-56.058
-50.31
-44.296
-38.037
-31.552
-24.864
-17.995
-10.969
-3.814
3.443
10.773
18.147
25.534
32.9
40.215
47.445
54.556
61.516
68.292
74.851
81.162
87.193
92.915
98.298
103.316
107.942
112.152
115.923
119.236
122.072
124.415
126.251
127.571
128.366
128.63
128.36
127.556
126.22
124.355
121.969
119.07
115.671
111.785
107.427
102.617
97.374
91.72
85.681
79.28
72.546
65.506
58.191
50.63
42.854
34.896
26.787
18.56
10.246
1.879
-6.512
-14.894
-23.239
-31.516
-39.698
-47.758
-55.672
-63.414
-70.962
-78.295
-85.395
-92.241
-98.819
-105.114
-111.112
-116.801
-122.173
-127.218
-131.929
-136.303
-140.334
-144.022
-147.364
-150.363
-153.019
-155.335
-157.317
-158.968
-160.296
-161.308
-162.01
-162.411
-162.52
-162.347
-161.899
-161.186
-160.219
-159.007
-157.559
-155.884
-153.994
-151.896
-149.601
-147.118
-144.458
-141.629
-138.641
-135.503
-132.227
-128.821
-125.295
-121.659
-117.923
-114.098
-110.193
-106.217
-102.183
-98.098
-93.974
-89.821
-85.648
-81.467
-77.286
-73.118
-68.972
-64.859
-60.79
-56.776
-52.827
-48.956
-45.174
-41.491
-37.92
-34.471
-31.154
-27.981
-24.962
-22.107
-19.424
-16.922
-14.609
-12.492
-10.578
-8.872
-7.378
-6.102
-5.045
-4.21
-3.599
-3.21
-3.045
-3.1
-3.375
-3.866
-4.57
-5.48
-6.592
-7.899
-9.393
-11.066
-12.909
-14.913
-17.065
-19.355
-21.772
-24.301
-26.932
-29.649
-32.441
-35.292
-38.19
-41.121
-44.07
-47.024
-49.969
-52.892
-55.78
-58.621
-61.401
-64.111
-66.737
-69.27
-71.698
-74.012
-76.202
-78.26
-80.176
-81.942
-83.551
-84.996
-86.27
-87.368
-88.286
-89.018
-89.562
-89.915
-90.074
-90.039
-89.808
-89.382
-88.76
-87.945
-86.938
-85.742
-84.36
-82.795
-81.054
-79.14
-77.06
-74.82
-72.426
-69.886
-67.207
-64.4
-61.472
-58.435
-55.299
-52.077
-48.782
-45.426
-42.025
-38.593
-35.148
-31.704
-28.28
-24.892
-21.558
-18.296
-15.123
-12.054
-9.106
-6.295
-3.635
-1.141
1.171
3.289
5.197
6.884
8.337
9.549
10.512
11.223
11.68
11.884
11.833
11.521
10.948
10.114
9.024
7.683
6.104
4.306
2.317
0.175
-2.08
-4.411
-6.786
-9.177
-11.556
-13.893
-16.151
-18.286
-20.255
-22.02
-23.547
-24.806
-25.778
-26.467
-26.913
-27.186
-27.355
-27.479
-27.588
-27.715
-27.912
-28.241
-28.777
-29.593
-30.74
-32.303
-34.412
-37.111
-40.306
-43.735
-46.924
-49.374
-50.725
-50.577
-48.443
-44.083
-37.65
-29.718
-21.388
-13.777
-7.533
-3.246
-1.653
-2.964
-6.574
-11.058
-13.96
-12.548
-4.71
11.666
38.985
78.907
131.845
196.871
271.357
351.549
433.484
512.309
582.1
637.116
672.536
684.81
672.04
633.984
571.723
488.462
389.666
281.841
171.704
65.624
-30.556
-111.787
-174.108
-215.72
-237.384
-241.39
-230.829
-209.01
-179.516
-146.402
-113.864
-85.014
-61.13
-42.423
-28.604
-19.414
-14.617
-13.141
-13.038
-12.526
-10.85
-7.933
-3.994
0.953
7.301
14.919
22.853
29.934
35.417
39.092
41.119
41.625
40.438
37.54
33.312
28.398
23.428
18.745
14.431
10.49
6.996
4.09
1.877
0.347
-0.581
-0.966
-0.846
-0.215
0.931
2.521
4.436
6.532
8.657
10.715
12.661
14.455
16.068
17.469
18.621
19.517
20.183
20.634
20.888
20.957
20.845
20.583
20.228
19.838
19.481
19.204
19.035
19.005
19.138
19.458
19.983
20.725
21.682
22.861
24.273
25.927
27.836
30.005
32.434
35.118
38.054
41.24
44.671
48.341
52.244
56.372
60.718
65.274
70.034
74.987
80.118
85.411
90.851
96.416
102.089
107.848
113.67
119.534
125.417
131.296
137.148
142.95
148.68
154.314
159.829
165.202
170.412
175.436
180.254
184.843
189.185
193.261
197.053
200.543
203.717
206.559
209.056
211.198
212.971
214.369
215.382
216.004
216.231
216.059
215.487
214.514
213.142
211.373
209.212
206.663
203.733
200.429
196.762
192.741
188.377
183.682
178.671
173.358
167.758
161.888
155.766
149.408
142.835
136.065
129.119
122.017
114.78
107.429
99.985
92.469
84.903
77.307
69.703
62.11
54.549
47.039
39.599
32.248
25.004
17.884
10.905
4.082
-2.569
-9.034
-15.3
-21.354
-27.186
-32.786
-38.144
-43.252
-48.104
-52.695
-57.02
-61.076
-64.861
-68.375
-71.618
-74.591
-77.296
-79.739
-81.922
-83.852
-85.533
-86.974
-88.18
-89.16
-89.923
-90.477
-90.832
-90.998
-90.984
-90.803
-90.465
-89.982
-89.366
-88.628
-87.781
-86.838
-85.809
-84.709
-83.548
-82.339
-81.094
-79.824
-78.541
-77.255
-75.977
-74.716
-73.484
-72.287
-71.136
-70.037
-68.998
-68.026
-67.128
-66.31
-65.577
-64.935
-64.389
-63.943
-63.602
-63.369
-63.247
-63.238
-63.344
-63.566
-63.904
-64.36
-64.931
-65.617
-66.416
-67.326
-68.344
-69.468
-70.693
-72.015
-73.429
-74.931
-76.516
-78.179
-79.914
-81.717
-83.583
-85.507
-87.486
-89.514
-91.587
-93.701
-95.851
-98.031
-100.238
-102.467
-104.713
-106.971
-109.238
-111.51
-113.784
-116.057
-118.328
-120.593
-122.851
-125.099
-127.338
-129.566
-131.783
-133.989
-136.184
-138.371
-140.55
-142.724
-144.895
-147.064
-149.231
-151.398
-153.565
-155.73
-157.892
-160.047
-162.196
-164.336
-166.466
-168.584
-170.69
-172.782
-174.862
-176.928
-178.98
-181.012
-183.02
-184.997
-186.937
-188.832
-190.675
-192.455
-194.163
-195.792
-197.338
-198.794
-200.152
-201.401
-202.524
-203.509
-204.351
-205.046
-205.593
-205.992
-206.247
-206.374
-206.4
-206.352
-206.245
-206.083
-205.858
-205.564
-205.198
-204.758
-204.241
-203.63
-202.902
-202.045
-201.052
-199.916
-198.619
-197.12
-195.355
-193.272
-190.849
-188.089
-185.017
-181.657
-178.044
-174.224
-170.266
-166.267
-162.317
-158.485
-154.824
-151.386
-148.237
-145.477
-143.221
-141.561
-140.55
-140.216
-140.565
-141.61
-143.337
-145.701
-148.616
-151.961
-155.629
-159.534
-163.597
-167.729
-171.828
-175.768
-179.417
-182.68
-185.476
-187.738
-189.403
-190.396
-190.674
-190.232
-189.101
-187.337
-185.007
-182.182
-178.949
-175.433
-171.751
-168.009
-164.323
-160.801
-157.545
-154.67
-152.289
-150.478
-149.334
-148.989
-149.426
-150.507
-151.973
-153.329
-154.122
-154.033
-152.584
-149.223
-143.806
-136.408
-127.483
-118.123
-109.072
-100.677
-93.625
-88.504
-85.142
-82.994
-80.634
-75.487
-65.539
-49.105
-23.93
11.906
59.395
118.724
188.482
265.492
346.411
427.131
502.216
565.969
612.944
638.534
639.772
615.509
565.907
493.264
402.212
298.936
190.679
84.654
-12.453
-94.796
-157.923
-199.674
-220.264
-221.848
-208.077
-183.165
-151.723
-118.492
-87.55
-61.486
-41.359
-27.088
-17.762
-12.152
-8.749
-5.76
-1.564
4.634
12.843
22.652
33.389
44.406
55.117
64.791
72.703
78.496
82.134
83.79
83.806
82.466
79.985
76.65
72.781
68.682
64.646
60.854
57.381
54.307
51.697
49.63
48.205
47.456
47.367
47.912
49.045
50.726
52.921
55.553
58.515
61.682
64.909
68.098
71.196
74.154
76.939
79.515
81.841
83.909
85.736
87.335
88.723
89.909
90.896
91.704
92.37
92.932
93.443
93.947
94.474
95.065
95.752
96.564
97.536
98.689
100.022
101.537
103.222
105.062
107.057
109.211
111.532
114.03
116.698
119.522
122.49
125.57
128.736
131.957
135.182
138.377
141.536
144.67
147.825
151.06
154.407
157.885
161.5
165.25
169.148
173.211
177.445
181.875
186.524
191.429
196.653
202.242
208.193
214.476
221.018
227.714
234.488
241.274
248.008
254.643
261.123
267.394
273.425
279.175
284.59
289.604
294.121
298.058
301.379
304.067
306.14
307.652
308.638
309.141
309.214
308.883
308.17
307.086
305.61
303.728
301.434
298.727
295.636
292.187
288.382
284.227
279.712
274.8
269.458
263.631
257.252
250.29
242.741
234.613
225.963
216.853
207.352
197.554
187.528
177.336
167.042
156.694
146.341
136.057
125.923
116.037
106.523
97.463
88.915
80.922
73.481
66.574
60.162
54.162
48.508
43.155
38.058
33.198
28.561
24.108
19.8
15.586
11.394
7.174
2.889
-1.497
-5.985
-10.563
-15.202
-19.836
-24.409
-28.888
-33.244
-37.467
-41.556
-45.498
-49.283
-52.908
-56.353
-59.604
-62.652
-65.48
-68.089
-70.489
-72.696
-74.745
-76.667
-78.483
-80.207
-81.851
-83.417
-84.913
-86.338
-87.688
-88.96
-90.157
-91.281
-92.336
-93.325
-94.244
-95.091
-95.859
-96.542
-97.137
-97.641
-98.05
-98.365
-98.587
-98.721
-98.771
-98.741
-98.634
-98.452
-98.197
-97.871
-97.475
-97.01
-96.473
-95.867
-95.195
-94.459
-93.657
-92.787
-91.841
-90.822
-89.736
-88.591
-87.4
-86.176
-84.937
-83.707
-82.521
-81.4
-80.363
-79.421
-78.576
-77.84
-77.23
-76.761
-76.45
-76.302
-76.307
-76.454
-76.726
-77.084
-77.476
-77.84
-78.097
-78.2
-78.128
-77.863
-77.412
-76.776
-75.942
-74.909
-73.673
-72.226
-70.574
-68.726
-66.696
-64.542
-62.343
-60.186
-58.164
-56.328
-54.693
-53.265
-52.02
-50.933
-49.991
-49.193
-48.569
-48.178
-48.072
-48.288
-48.826
-49.651
-50.713
-51.934
