Name,Criss Capps
Date of Birth,"Feb 5, 1952"
Recorded Date,2020-09-06 13:31:27 -0400
Classification,Poor Recording
Symptoms,
Software Version,1.90
Device,"Watch5,4"
Sample Rate,512.844 hertz


Lead,Lead I
Unit,µV

-431.236
-420.082
-423.919
-417.898
-432.701
-432.9
-421.984
-419.439
-425.093
-433.315
-440.029
-444.072
-447.003
-450.203
-454.775
-460.924
-467.66
-473.792
-478.534
-481.331
-481.794
-479.729
-474.984
-467.346
-456.751
-443.526
-428.183
-411.45
-394.095
-376.83
-360.465
-345.837
-333.784
-324.858
-319.207
-316.623
-316.723
-318.974
-322.695
-327.246
-331.951
-336.256
-339.868
-342.673
-344.738
-346.327
-347.797
-349.43
-351.411
-353.766
-356.446
-359.446
-362.646
-365.775
-368.478
-370.344
-371.154
-370.984
-369.903
-367.902
-365.05
-361.544
-357.73
-354.124
-351.074
-348.543
-346.432
-344.611
-342.786
-340.399
-336.642
-330.545
-321.196
-308.072
-290.843
-269.259
-243.375
-213.704
-181.094
-146.565
-111.244
-75.94
-41.25
-7.796
24.103
54.549
83.891
112.676
141.62
171.153
201.524
233.025
265.715
299.469
334.118
369.309
404.558
439.609
474.341
508.694
542.781
576.62
610.083
643.114
675.701
707.71
738.917
768.922
797.204
823.495
847.744
869.947
890.186
908.571
925.325
940.983
956.174
971.327
986.832
1002.987
1019.925
1037.848
1056.783
1076.345
1096.101
1115.579
1134.046
1150.869
1165.593
1177.636
1186.641
1192.605
1195.53
1195.724
1193.969
1190.986
1187.342
1183.672
1180.392
1177.764
1176.103
1175.34
1174.954
1174.395
1173.229
1171.092
1167.788
1163.11
1156.751
1148.621
1138.892
1127.82
1115.604
1102.306
1087.876
1072.285
1055.593
1037.828
1018.94
998.811
977.32
954.419
930.122
904.465
877.469
849.133
819.469
788.506
756.294
722.903
688.403
652.863
616.372
579.023
540.9
502.133
462.884
423.33
383.702
344.171
304.832
265.807
227.236
189.208
151.829
115.099
78.827
42.98
7.676
-26.966
-60.688
-93.185
-124.266
-153.562
-180.442
-204.516
-225.574
-243.475
-258.481
-271.012
-281.413
-290.302
-298.571
-306.873
-315.784
-325.862
-337.216
-349.754
-363.376
-377.692
-392.123
-406.299
-419.869
-432.429
-443.861
-454.165
-463.369
-471.726
-479.579
-487.103
-494.446
-501.783
-509.168
-516.635
-524.204
-531.757
-539.141
-546.269
-553.079
-559.527
-565.607
-571.287
-576.537
-581.376
-585.837
-589.953
-593.752
-597.236
-600.395
-603.233
-605.759
-607.99
-609.947
-611.645
-613.102
-614.346
-615.413
-616.348
-617.185
-617.95
-618.658
-619.317
-619.936
-620.528
-621.098
-621.65
-622.186
-622.706
-623.214
-623.715
-624.211
-624.7
-625.177
-625.631
-626.056
-626.45
-626.813
-627.146
-627.451
-627.73
-627.987
-628.228
-628.458
-628.679
-628.893
-629.097
-629.292
-629.475
-629.645
-629.8
-629.938
-630.054
-630.143
-630.198
-630.214
-630.182
-630.093
-629.937
-629.703
-629.383
-628.965
-628.439
-627.796
-627.024
-626.114
-625.054
-623.834
-622.445
-620.874
-619.113
-617.149
-614.975
-612.579
-609.952
-607.086
-603.974
-600.607
-596.98
-593.088
-588.927
-584.494
-579.788
-574.807
-569.553
-564.027
-558.233
-552.176
-545.862
-539.297
-532.49
-525.45
-518.186
-510.711
-503.034
-495.169
-487.127
-478.923
-470.571
-462.087
-453.486
-444.785
-436.003
-427.157
-418.265
-409.349
-400.425
-391.511
-382.628
-373.793
-365.026
-356.346
-347.771
-339.315
-330.991
-322.811
-314.783
-306.915
-299.209
-291.666
-284.286
-277.07
-270.021
-263.141
-256.43
-249.889
-243.517
-237.312
-231.277
-225.418
-219.743
-214.261
-208.99
-203.946
-199.149
-194.625
-190.387
-186.447
-182.812
-179.484
-176.465
-173.751
-171.334
-169.202
-167.342
-165.725
-164.319
-163.081
-161.951
-160.871
-159.782
-158.614
-157.315
-155.838
-154.13
-152.152
-149.867
-147.241
-144.253
-140.886
-137.121
-132.96
-128.42
-123.53
-118.341
-112.907
-107.281
-101.524
-95.686
-89.818
-83.975
-78.212
-72.582
-67.141
-61.933
-57.002
-52.394
-48.141
-44.258
-40.749
-37.599
-34.793
-32.313
-30.142
-28.267
-26.672
-25.337
-24.231
-23.312
-22.534
-21.854
-21.224
-20.597
-19.93
-19.188
-18.339
-17.364
-16.243
-14.955
-13.472
-11.758
-9.78
-7.504
-4.913
-2.008
1.212
4.742
8.573
12.699
17.113
21.802
26.764
31.997
37.494
43.245
49.233
55.418
61.765
68.232
74.784
81.396
88.038
94.676
101.28
107.81
114.223
120.475
126.508
132.264
137.695
142.751
147.392
151.593
155.335
158.601
161.379
163.661
165.446
166.745
167.569
167.942
167.899
167.487
166.773
165.818
164.677
163.402
162.043
160.638
159.221
157.822
156.463
155.158
153.913
152.725
151.587
150.485
149.396
148.284
147.098
145.797
144.353
142.742
140.954
138.985
136.841
134.536
132.094
129.552
126.955
124.356
121.816
119.396
117.158
115.172
113.516
112.254
111.441
111.117
111.307
112.026
113.279
115.06
117.349
120.116
123.316
126.895
130.79
134.941
139.29
143.779
148.341
152.921
157.466
161.937
166.305
170.546
174.642
178.581
182.356
185.973
189.442
192.781
196.013
199.159
202.23
205.239
208.199
211.119
214.009
216.87
219.7
222.497
225.258
227.983
230.667
233.302
235.879
238.386
240.808
243.135
245.364
247.493
249.524
251.46
253.302
255.056
256.725
258.312
259.813
261.227
262.549
263.778
264.919
265.979
266.972
267.91
268.807
269.67
270.502
271.306
272.084
272.843
273.588
274.332
275.092
275.889
276.745
277.677
278.693
279.787
280.943
282.137
283.34
284.528
285.685
286.795
287.845
288.818
289.7
290.468
291.096
291.552
291.797
291.801
291.545
291.025
290.255
289.258
288.071
286.723
285.237
283.635
281.931
280.14
278.274
276.349
274.38
272.392
270.416
268.48
266.605
264.802
263.066
261.388
259.746
258.125
256.51
254.89
253.258
251.61
249.945
248.263
246.569
244.863
243.137
241.385
239.598
237.773
235.907
234.002
232.056
230.065
228.029
225.949
223.83
221.678
219.496
217.284
215.043
212.764
210.447
208.092
205.697
203.262
200.796
198.309
195.823
193.365
190.951
188.591
186.286
184.018
181.774
179.538
177.292
175.039
172.772
170.475
168.133
165.723
163.221
160.616
157.872
154.924
151.749
148.345
144.763
141.13
137.506
133.875
130.233
126.557
122.79
118.877
114.651
109.827
104.29
98.111
91.427
84.463
77.476
70.706
64.552
59.559
56.052
54.103
53.679
54.642
56.767
59.788
63.243
66.46
68.956
70.486
70.844
69.886
67.606
64.088
59.645
54.844
50.114
45.711
41.915
38.988
37.1
36.364
36.71
37.872
39.688
42.104
45.065
48.531
52.475
56.852
61.687
67.077
73.046
79.555
86.534
93.863
101.427
109.123
116.828
124.398
131.703
138.614
145.003
150.767
155.811
160.044
163.411
165.866
167.387
167.979
167.66
166.471
164.46
161.677
158.181
154.034
149.301
144.05
138.364
132.313
125.969
119.408
112.683
105.841
98.91
91.892
84.781
77.556
70.206
62.715
55.048
47.192
39.166
31.019
22.874
14.856
6.994
-0.698
-8.218
-15.665
-23.115
-30.698
-38.731
-47.469
-56.978
-67.232
-77.961
-88.677
-98.995
-108.436
-116.34
-122.202
-125.653
-126.531
-125.203
-122.349
-118.614
-114.819
-111.809
-110.263
-110.901
-114.2
-120.1
-128.268
-138.229
-149.3
-160.93
-172.681
-183.993
-194.479
-204.03
-212.657
-220.562
-228.07
-235.328
-242.409
-249.427
-256.395
-263.28
-270.015
-276.423
-282.319
-287.626
-292.337
-296.49
-300.161
-303.399
-306.282
-308.941
-311.485
-314.001
-316.491
-318.86
-321.082
-323.222
-325.361
-327.61
-330.086
-332.856
-336.141
-340.321
-345.593
-351.999
-359.418
-367.476
-375.838
-384.262
-392.264
-399.229
-404.749
-408.518
-410.561
-411.38
-411.432
-411.139
-411.202
-412.309
-415.018
-419.932
-427.287
-436.833
-448.313
-461.355
-475.348
-489.819
-504.335
-518.344
-531.55
-543.93
-555.479
-566.365
-576.878
-587.131
-597.204
-607.218
-617.156
-626.938
-636.483
-645.605
-654.102
-661.885
-668.902
-675.134
-680.62
-685.38
-689.424
-692.796
-695.542
-697.695
-699.296
-700.371
-700.953
-701.106
-700.907
-700.437
-699.768
-698.952
-698.03
-697.027
-695.966
-694.856
-693.699
-692.506
-691.288
-690.033
-688.732
-687.381
-685.956
-684.445
-682.841
-681.09
-679.135
-677.019
-674.8
-672.418
-669.867
-667.161
-664.144
-661.281
-659.019
-656.744
-654.268
-650.454
-643.945
-636.292
-628.532
-622.206
-619.411
-618.334
-617.455
-615.737
-611.437
-605.826
-600.174
-594.752
-590.335
-586.461
-582.536
-578.643
-574.665
-570.6
-566.532
-562.352
-557.965
-553.349
-548.445
-543.187
-537.528
-531.44
-524.909
-517.933
-510.507
-502.612
-494.244
-485.43
-476.211
-466.631
-456.726
-446.532
-436.085
-425.441
-414.677
-403.871
-393.094
-382.402
-371.841
-361.455
-351.291
-341.399
-331.804
-322.516
-313.526
-304.82
-296.39
-288.221
-280.295
-272.577
-265.016
-257.553
-250.123
-242.672
-235.15
-227.509
-219.7
-211.67
-203.379
-194.804
-185.93
-176.75
-167.259
-157.459
-147.355
-136.967
-126.314
-115.425
-104.348
-93.137
-81.851
-70.549
-59.277
-48.069
-36.968
-26.016
-15.232
-4.59
5.994
16.612
27.31
38.063
48.829
59.633
70.508
81.432
92.286
102.92
113.317
123.677
134.313
145.424
157.152
169.664
183.215
198.13
214.544
232.253
250.844
269.956
289.307
308.633
327.605
345.773
362.788
378.535
393.07
406.442
418.604
429.469
438.953
447.041
453.77
459.137
463.102
465.713
467.075
467.265
466.415
464.663
462.04
458.612
454.436
449.422
443.583
437.124
430.259
423.299
416.705
410.842
406.111
403.05
401.996
403.101
406.485
412.105
419.757
429.262
440.336
452.558
465.597
479.083
492.496
505.269
516.894
526.865
534.789
540.425
543.545
544.127
542.478
539.147
534.782
530.154
526.017
522.977
521.69
522.649
526.067
531.987
540.226
550.289
561.6
573.678
585.81
597.215
607.128
614.673
619.215
620.49
618.274
612.286
602.626
589.723
574.309
557.522
540.428
523.876
508.864
496.525
487.632
482.567
481.314
483.358
488.096
494.963
503.136
511.586
519.515
526.378
531.882
536.077
539.093
541.053
542.253
543.12
543.943
544.897
546.053
547.326
548.623
549.881
550.969
551.742
552.128
552.108
551.705
550.994
550.036
548.878
547.586
546.21
544.774
543.29
541.75
540.141
538.464
536.717
534.894
532.988
530.993
528.898
526.695
524.366
521.883
519.221
516.359
513.287
510.01
506.529
502.841
498.944
494.835
490.512
485.98
481.238
476.271
471.08
465.673
460.073
454.324
448.46
442.507
436.487
430.406
424.287
418.166
412.071
406.032
400.072
394.197
388.437
382.854
377.462
372.242
367.164
362.175
357.253
352.434
347.725
343.08
338.538
334.249
330.247
326.486
322.982
319.561
316.513
314.798
314.209
313.824
312.163
306.419
296.716
285.905
276.822
273.502
276.274
281.284
285.535
285.818
281.507
275.494
269.576
264.907
261.924
259.645
257.606
255.813
254.229
252.779
251.679
251.668
252.52
253.449
253.06
248.665
240.536
231.678
225.278
225.514
232.586
242.528
252.072
257.837
259.095
258.203
256.191
253.735
251.08
247.457
243.083
238.511
234.016
230.217
227.795
227.194
228.663
231.989
236.503
241.719
247.391
253.27
259.067
264.414
269.05
273.074
276.863
280.695
284.702
288.918
293.327
298.012
303.035
308.312
313.697
319.072
324.286
329.248
334.035
338.641
343.026
347.328
351.088
353.876
356.332
358.666
362.03
367.791
374.426
380.917
385.761
386.891
386.139
385.057
384.708
386.865
390.33
393.881
397.265
399.703
401.551
403.287
404.737
405.901
406.725
407.201
407.593
408.274
409.658
412.092
415.841
421.12
427.899
435.865
444.465
452.865
460.116
465.434
468.157
467.732
463.972
457.069
447.606
436.579
425.142
414.353
405.148
398.347
394.449
393.622
395.649
399.934
405.726
412.264
418.908
425.129
430.566
435.059
438.663
441.619
444.269
446.985
450.007
453.466
457.42
461.815
466.54
471.439
476.296
480.874
485.006
488.576
491.51
493.793
495.405
496.333
496.591
496.204
495.205
493.641
491.551
488.973
485.963
482.578
478.892
474.996
470.966
466.871
462.771
458.704
454.707
450.815
447.048
443.418
439.928
436.564
433.319
430.187
427.155
424.205
421.311
418.434
415.545
412.625
409.657
406.636
403.556
400.412
397.209
393.957
390.667
387.356
384.035
380.713
377.403
374.119
370.879
367.702
364.603
361.592
358.676
355.859
353.146
350.538
348.033
345.626
343.312
341.085
338.941
336.877
334.886
332.961
331.094
329.277
327.502
325.763
324.052
322.363
320.689
319.023
317.361
315.697
314.026
312.34
310.634
308.9
307.131
305.321
303.463
301.549
299.576
297.537
295.429
293.25
290.997
288.669
286.264
283.779
281.213
278.565
275.834
273.018
270.117
267.131
264.064
260.921
257.706
254.421
251.063
247.63
244.118
240.522
236.838
233.059
229.183
225.209
221.143
216.998
212.786
208.516
204.193
199.813
195.377
190.891
186.363
181.803
177.227
172.65
168.089
163.57
159.11
154.715
150.378
146.078
141.784
137.479
133.151
128.791
124.398
119.957
115.457
110.888
106.234
101.477
96.598
91.557
86.331
80.913
75.31
69.55
63.671
57.701
51.661
45.571
39.445
33.301
27.158
21.025
14.915
8.848
2.845
-3.058
-8.829
-14.457
-19.938
-25.285
-30.523
-35.665
-40.72
-45.7
-50.61
-55.457
-60.253
-64.997
-69.688
-74.333
-78.942
-83.532
-88.126
-92.731
-97.343
-101.956
-106.555
-111.138
-115.705
-120.258
-124.799
-129.329
-133.843
-138.345
-142.848
-147.355
-151.865
-156.376
-160.874
-165.365
-169.874
-174.42
-179.024
-183.702
-188.455
-193.292
-198.223
-203.259
-208.414
-213.696
-219.101
-224.638
-230.322
-236.166
-242.195
-248.407
-254.782
-261.304
-267.956
-274.731
-281.628
-288.638
-295.747
-302.942
-310.214
-317.554
-324.959
-332.415
-339.9
-347.393
-354.871
-362.325
-369.765
-377.194
-384.611
-392.014
-399.398
-406.765
-414.121
-421.469
-428.807
-436.137
-443.465
-450.802
-458.161
-465.552
-472.978
-480.439
-487.927
-495.438
-502.97
-510.513
-518.06
-525.6
-533.124
-540.626
-548.1
-555.531
-562.896
-570.174
-577.349
-584.42
-591.394
-598.279
-605.087
-611.831
-618.524
-625.199
-631.886
-638.614
-645.41
-652.298
-659.307
-666.481
-673.873
-681.532
-689.494
-697.777
-706.387
-715.329
-724.604
-734.21
-744.138
-754.358
-764.84
-775.552
-786.463
-797.542
-808.745
-820.012
-831.269
-842.442
-853.466
-864.293
-874.885
-885.203
-895.213
-904.882
-914.184
-923.111
-931.654
-939.808
-947.565
-954.922
-961.897
-968.529
-974.862
-980.953
-986.851
-992.588
-998.221
-1003.806
-1009.343
-1014.843
-1020.307
-1025.707
-1031.097
-1036.547
-1042.039
-1047.565
-1053.194
-1058.946
-1064.893
-1071.117
-1077.473
-1083.798
-1090.057
-1096.191
-1102.106
-1107.766
-1113.03
-1117.749
-1122.091
-1126.237
-1130.257
-1134.264
-1138.339
-1142.518
-1146.962
-1151.856
-1157.138
-1162.758
-1168.741
-1175.053
-1181.722
-1188.793
-1196.202
-1203.879
-1211.852
-1220.122
-1228.661
-1237.473
-1246.508
-1255.716
-1265.094
-1274.621
-1284.257
-1293.962
-1303.685
-1313.375
-1323.014
-1332.582
-1342.058
-1351.437
-1360.713
-1369.892
-1378.998
-1388.042
-1397.026
-1405.947
-1414.79
-1423.545
-1432.205
-1440.757
-1449.193
-1457.5
-1465.662
-1473.666
-1481.495
-1489.128
-1496.54
-1503.7
-1510.571
-1517.117
-1523.312
-1529.129
-1534.547
-1539.545
-1544.1
-1548.197
-1551.818
-1554.949
-1557.573
-1559.675
-1561.236
-1562.244
-1562.687
-1562.554
-1561.84
-1560.537
-1558.639
-1556.14
-1553.035
-1549.321
-1544.994
-1540.052
-1534.491
-1528.31
-1521.51
-1514.094
-1506.066
-1497.43
-1488.192
-1478.359
-1467.94
-1456.943
-1445.379
-1433.258
-1420.59
-1407.388
-1393.665
-1379.434
-1364.708
-1349.503
-1333.833
-1317.714
-1301.161
-1284.192
-1266.821
-1249.065
-1230.94
-1212.463
-1193.649
-1174.516
-1155.078
-1135.352
-1115.353
-1095.097
-1074.6
-1053.876
-1032.94
-1011.807
-990.491
-969.006
-947.365
-925.581
-903.668
-881.638
-859.503
-837.274
-814.963
-792.581
-770.138
-747.643
-725.106
-702.537
-679.943
-657.333
-634.715
-612.097
-589.485
-566.887
-544.309
-521.758
-499.239
-476.76
-454.324
-431.939
-409.609
-387.34
-365.137
-343.004
-320.947
-298.97
-277.076
-255.268
-233.551
-211.927
-190.398
-168.968
-147.639
-126.416
-105.302
-84.3
-63.416
-42.653
-22.017
-1.512
18.858
39.089
59.179
79.121
98.914
118.552
138.033
157.352
176.501
195.475
214.267
232.874
251.291
269.515
287.538
305.35
322.943
340.304
357.424
374.284
390.864
407.145
423.105
438.732
454.018
468.958
483.543
497.768
511.624
525.109
538.233
550.998
563.408
575.466
587.179
598.561
609.642
620.445
630.987
641.275
651.303
661.062
670.546
679.737
688.618
697.157
705.312
713.051
720.352
727.192
733.549
739.39
744.667
749.342
753.393
756.807
759.59
761.75
763.297
764.258
764.673
764.593
764.085
763.202
761.981
760.465
758.693
756.713
754.586
752.364
750.082
747.776
745.469
743.183
740.941
738.747
736.594
734.466
732.338
730.198
728.04
725.862
723.659
721.429
719.163
716.857
714.515
712.138
709.73
707.296
704.843
702.384
699.942
697.542
695.213
692.985
690.88
688.919
687.118
685.485
684.025
682.743
681.639
680.717
679.976
679.405
678.993
678.729
678.597
678.581
678.658
678.793
678.959
679.137
679.313
679.492
679.68
679.883
680.11
680.377
680.702
681.118
681.658
682.345
683.207
684.271
685.574
687.168
689.094
691.381
694.041
697.075
700.473
704.229
708.331
712.754
717.467
722.434
727.618
732.992
738.529
744.196
749.942
755.706
761.424
767.047
772.539
777.871
783.017
787.948
792.639
797.074
801.239
805.122
808.695
811.92
814.751
817.154
819.113
820.626
821.697
822.326
822.501
822.212
821.45
820.211
818.488
816.268
813.531
810.268
806.494
802.246
797.581
792.55
787.188
781.527
775.593
769.419
763.054
756.543
749.931
743.267
736.609
730.028
723.614
717.448
711.58
706.039
700.829
695.953
691.422
687.246
683.427
679.956
676.813
673.977
671.43
669.141
667.064
665.133
663.262
661.366
659.387
657.28
655.015
652.568
649.907
647.01
643.864
640.461
636.799
632.872
628.671
624.195
619.453
614.47
609.282
603.92
598.401
592.736
586.93
580.982
574.894
568.66
562.267
555.701
548.948
542
534.852
527.496
519.921
512.111
504.049
495.722
487.121
478.244
469.087
459.651
449.938
439.957
429.717
419.232
408.51
397.563
386.4
375.03
363.466
351.719
339.804
327.73
315.511
303.158
290.684
278.101
265.424
252.665
239.837
226.952
214.026
201.071
188.103
175.135
162.179
149.249
136.357
123.519
110.746
98.053
85.453
72.961
60.59
48.355
36.268
24.341
12.583
1.003
-10.384
-21.563
-32.517
-43.224
-53.667
-63.825
-73.677
-83.203
-92.388
-101.222
-109.699
-117.818
-125.571
-132.946
-139.929
-146.502
-152.66
-158.395
-163.705
-168.592
-173.058
-177.108
-180.756
-184.009
-186.862
-189.301
-191.297
-192.815
-193.83
-194.325
-194.288
-193.712
-192.582
-190.885
-188.609
-185.741
-182.264
-178.16
-173.398
-167.957
-161.839
-155.055
-147.64
-139.643
-131.098
-122.039
-112.499
-102.503
-92.084
-81.274
-70.099
-58.588
-46.777
-34.707
-22.432
-10.003
2.547
15.193
27.922
40.735
53.62
66.565
79.558
92.582
105.619
118.65
131.648
144.585
157.442
170.201
182.853
195.39
207.798
220.058
232.148
244.041
255.716
267.153
278.331
289.233
299.844
310.153
320.155
329.849
339.233
348.305
357.061
365.501
373.625
381.437
388.941
396.143
403.047
409.659
415.988
422.041
427.828
433.361
438.648
443.695
448.51
453.097
457.461
461.603
465.521
469.211
472.674
475.914
478.937
481.756
484.381
486.822
489.091
491.193
493.135
494.927
496.572
498.077
499.452
500.709
501.872
502.973
504.028
505.049
506.043
507.002
507.92
508.789
509.591
510.311
510.938
511.454
511.854
512.135
512.284
512.288
512.12
511.734
511.098
510.188
508.978
507.459
505.614
503.428
500.909
498.067
494.91
491.455
487.705
483.66
479.331
474.727
469.876
464.834
459.647
454.367
449.061
443.793
438.639
433.689
429.003
424.635
420.64
417.058
413.94
411.338
409.292
407.84
407.005
406.783
407.16
408.111
409.579
411.494
413.764
416.273
418.919
421.608
424.24
426.723
428.965
430.877
432.378
433.39
433.842
433.682
432.871
431.386
429.229
426.424
423.013
419.059
414.628
409.785
404.601
399.149
393.49
387.684
381.781
375.831
369.881
363.969
358.125
352.368
346.706
341.135
335.643
330.207
324.798
319.386
313.933
308.403
302.767
297.005
291.102
285.047
278.829
272.442
265.886
259.167
252.291
245.268
238.11
230.831
223.449
215.985
208.461
200.901
193.323
185.741
178.168
170.611
163.078
155.574
148.101
140.658
133.244
125.861
118.505
111.178
103.875
96.591
89.322
82.059
74.799
67.536
60.263
52.977
45.672
38.343
30.986
23.594
16.162
8.681
1.144
-6.458
-14.132
-21.886
-29.726
-37.659
-45.692
-53.827
-62.07
-70.425
-78.896
-87.491
-96.213
-105.063
-114.04
-123.138
-132.348
-141.662
-151.072
-160.563
-170.125
-179.751
-189.434
-199.177
-208.98
-218.839
-228.746
-238.685
-248.642
-258.609
-268.579
-278.545
-288.509
-298.468
-308.422
-318.381
-328.346
-338.304
-348.238
-358.111
-367.882
-377.521
-387.002
-396.306
-405.419
-414.317
-422.979
-431.386
-439.514
-447.34
-454.835
-461.959
-468.683
-474.998
-480.906
-486.429
-491.605
-496.458
-501.01
-505.283
-509.291
-513.055
-516.597
-519.929
-523.069
-526.041
-528.871
-531.602
-534.269
-536.893
-539.483
-542.039
-544.547
-547.002
-549.403
-551.746
-554.031
-556.261
-558.439
-560.574
-562.677
-564.752
-566.799
-568.811
-570.78
-572.705
-574.589
-576.437
-578.261
-580.065
-581.853
-583.63
-585.397
-587.151
-588.887
-590.595
-592.262
-593.877
-595.432
-596.916
-598.322
-599.639
-600.855
-601.959
-602.938
-603.777
-604.465
-604.988
-605.332
-605.485
-605.437
-605.178
-604.7
-603.996
-603.057
-601.876
-600.448
-598.765
-596.825
-594.621
-592.151
-589.413
-586.407
-583.134
-579.596
-575.797
-571.742
-567.439
-562.894
-558.114
-553.11
-547.891
-542.465
-536.844
-531.038
-525.058
-518.917
-512.627
-506.202
-499.657
-493.007
-486.267
-479.453
-472.577
-465.656
-458.702
-451.729
-444.747
-437.77
-430.81
-423.88
-416.994
-410.166
-403.404
-396.716
-390.107
-383.577
-377.123
-370.741
-364.424
-358.17
-351.975
-345.843
-339.779
-333.79
-327.883
-322.06
-316.317
-310.652
-305.061
-299.544
-294.102
-288.742
-283.475
-278.314
-273.278
-268.376
-263.61
-258.97
-254.434
-249.974
-245.554
-241.146
-236.73
-232.286
-227.799
-223.251
-218.625
-213.897
-209.042
-204.026
-198.814
-193.374
-187.69
-181.761
-175.599
-169.233
-162.7
-156.034
-149.261
-142.407
-135.491
-128.532
-121.548
-114.56
-107.591
-100.671
-93.839
-87.128
-80.567
-74.169
-67.94
-61.873
-55.954
-50.169
-44.51
-38.972
-33.555
-28.264
-23.102
-18.075
-13.192
-8.452
-3.853
0.61
4.939
9.132
13.183
17.082
20.813
24.365
27.726
30.887
33.844
36.594
39.138
41.477
43.619
45.565
47.319
48.882
50.258
51.448
52.459
53.296
53.967
54.478
54.839
55.057
55.141
55.096
54.931
54.652
54.263
53.771
53.181
52.5
51.735
50.892
49.977
48.997
47.958
46.868
45.73
44.551
43.335
42.087
40.811
39.511
38.192
36.856
35.507
34.149
32.785
31.417
30.049
28.683
27.321
25.965
24.619
23.282
21.958
20.648
19.354
18.077
16.819
15.58
14.363
13.169
11.998
10.853
9.732
8.638
7.571
6.531
5.52
4.538
3.586
2.664
1.774
0.916
0.091
-0.701
-1.46
-2.185
-2.876
-3.533
-4.157
-4.747
-5.305
-5.83
-6.324
-6.787
-7.221
-7.626
-8.005
-8.358
-8.686
-8.992
-9.276
-9.541
-9.786
-10.015
-10.227
-10.424
-10.608
-10.779
-10.938
-11.087
-11.225
-11.354
-11.474
-11.586
-11.689
-11.784
-11.87
-11.948
-12.015
-12.072
-12.117
-12.149
-12.166
-12.165
-12.145
-12.102
-12.035
-11.939
-11.812
-11.65
-11.45
-11.208
-10.919
-10.582
-10.192
-9.745
-9.238
-8.668
-8.031
-7.325
-6.546
-5.691
-4.759
-3.746
-2.65
-1.47
-0.204
1.15
2.593
4.125
5.748
7.461
9.265
11.159
13.144
15.217
17.377
19.624
21.955
24.369
26.862
29.432
32.077
34.792
37.576
40.425
43.336
46.304
49.327
52.402
55.525
58.692
61.9
65.146
68.427
71.74
75.081
78.447
81.836
85.245
88.671
92.111
95.563
99.024
102.491
105.963
109.436
112.908
116.378
119.842
123.299
126.746
130.181
133.603
137.008
140.396
143.763
147.108
150.428
153.722
156.986
160.219
163.417
166.578
169.7
172.778
175.81
178.793
181.722
184.595
187.407
190.155
192.834
195.44
197.968
200.414
202.774
205.041
207.212
209.282
211.245
213.097
214.833
216.447
217.934
219.29
220.509
221.587
222.518
223.298
223.922
224.386
224.685
224.814
224.771
224.55
224.15
223.565
222.794
221.833
220.682
219.337
217.799
216.065
214.137
212.013
209.696
207.187
204.486
201.598
198.526
195.272
191.84
188.237
184.466
180.534
176.446
172.209
167.831
163.319
158.68
153.924
149.058
144.093
139.036
133.898
128.69
123.419
118.098
112.736
107.343
101.93
96.506
91.082
85.667
80.271
74.903
69.571
64.284
59.048
53.873
48.763
43.727
38.768
33.892
29.104
24.407
19.805
15.3
10.895
6.591
2.389
-1.709
-5.705
-9.599
-13.39
-17.082
-20.675
-24.172
-27.576
-30.888
-34.113
-37.253
-40.311
-43.292
-46.198
-49.032
-51.798
-54.499
-57.137
-59.714
-62.233
-64.697
-67.106
-69.461
-71.765
-74.016
-76.216
-78.364
-80.46
-82.502
-84.487
-86.415
-88.282
-90.087
-91.826
-93.497
-95.096
-96.62
-98.066
-99.431
-100.71
-101.898
-102.99
-103.98
-104.866
-105.648
-106.321
-106.883
-107.332
-107.665
-107.883
-107.986
-107.971
-107.832
-107.566
-107.167
-106.639
-105.983
-105.2
-104.294
-103.262
-102.099
-100.808
-99.392
-97.848
-96.178
-94.376
-92.437
-90.374
-88.198
-85.919
-83.548
-81.089
-78.545
-75.921
-73.226
-70.468
-67.658
-64.8
-61.899
-58.969
-56.02
-53.067
-50.128
-47.198
-44.271
-41.349
-38.426
-35.508
-32.603
-29.709
-26.826
-23.959
-21.109
-18.282
-15.486
-12.718
-9.977
-7.26
-4.563
-1.897
0.722
3.288
5.79
8.222
10.58
12.854
15.034
17.116
19.097
20.974
22.746
24.405
25.943
27.354
28.631
29.775
30.785
31.662
32.405
33.013
33.485
33.824
34.033
34.11
34.055
33.869
33.551
33.105
32.536
31.848
31.045
30.132
29.113
27.996
26.786
25.489
24.113
22.664
21.148
19.574
17.95
16.283
14.581
12.852
11.102
9.34
7.572
5.804
4.044
2.297
0.568
-1.138
-2.815
-4.461
-6.07
-7.641
-9.17
-10.655
-12.094
-13.488
-14.836
-16.14
-17.402
-18.624
-19.811
-20.968
-22.101
-23.215
-24.316
-25.413
-26.51
-27.617
-28.739
-29.883
-31.058
-32.269
-33.526
-34.839
-36.215
-37.663
-39.193
-40.812
-42.531
-44.356
-46.295
-48.352
-50.532
-52.841
-55.285
-57.873
-60.608
-63.493
-66.526
-69.708
-73.035
-76.501
-80.097
-83.804
-87.606
-91.492
-95.454
-99.49
-103.594
-107.762
-111.986
-116.26
-120.584
-124.96
-129.384
-133.852
-138.36
-142.91
-147.513
-152.192
-156.964
-161.834
-166.793
-171.827
-176.918
-182.045
-187.183
-192.296
-197.338
-202.264
-207.039
-211.638
-216.033
-220.19
-224.066
-227.606
-230.765
-233.517
-235.846
-237.752
-239.237
-240.315
-241.012
-241.376
-241.468
-241.343
-241.049
-240.624
-240.106
-239.539
-238.969
-238.451
-238.026
-237.729
-237.587
-237.621
-237.84
-238.245
-238.825
-239.552
-240.391
-241.313
-242.286
-243.292
-244.321
-245.357
-246.395
-247.433
-248.474
-249.522
-250.586
-251.676
-252.819
-254.052
-255.41
-256.938
-258.681
-260.678
-262.984
-265.636
-268.665
-272.099
-275.951
-280.225
-284.933
-290.079
-295.657
-301.665
-308.073
-314.834
-321.91
-329.252
-336.814
-344.544
-352.37
-360.224
-368.043
-375.763
-383.324
-390.665
-397.708
-404.385
-410.635
-416.397
-421.634
-426.324
-430.442
-433.968
-436.893
-439.207
-440.924
-442.061
-442.631
-442.659
-442.173
-441.211
-439.83
-438.082
-436.009
-433.659
-431.061
-428.235
-425.205
-421.987
-418.589
-415.021
-411.284
-407.37
-403.279
-399
-394.517
-389.813
-384.855
-379.619
-374.094
-368.267
-362.14
-355.726
-349.039
-342.099
-334.933
-327.564
-320.018
-312.324
-304.507
-296.599
-288.633
-280.634
-272.629
-264.638
-256.664
-248.703
-240.736
-232.725
-224.624
-216.385
-207.952
-199.278
-190.319
-181.03
-171.37
-161.3
-150.789
-139.819
-128.39
-116.51
-104.213
-91.55
-78.594
-65.448
-52.237
-39.09
-26.145
-13.54
-1.402
10.14
20.951
30.912
39.92
47.888
54.763
60.507
65.114
68.611
71.059
72.561
73.258
73.31
72.9
72.234
71.522
70.984
70.86
71.385
72.792
75.318
79.189
84.613
91.767
100.794
111.802
124.889
140.099
157.401
176.692
197.825
220.68
245.199
271.303
298.828
327.603
357.493
388.443
420.438
453.306
486.65
519.98
552.904
585.079
616.154
645.682
673.153
698.263
721.036
741.725
760.539
777.606
793.061
807.135
820.175
832.444
843.977
854.618
864.249
872.868
880.526
887.277
893.104
897.996
902.041
905.424
908.318
910.836
913.028
914.885
916.414
917.631
918.525
919.078
919.269
919.078
918.511
917.603
916.381
914.879
913.13
911.143
908.928
906.495
903.857
901.039
898.066
894.96
891.748
888.446
885.064
881.613
878.096
874.498
870.806
866.985
862.988
858.782
854.334
849.617
844.61
839.275
833.584
827.518
821.059
814.202
806.946
799.277
791.185
782.665
773.708
764.337
754.587
744.487
734.076
723.385
712.447
701.315
690.035
678.633
667.13
655.538
643.862
632.135
620.392
608.66
596.978
585.361
573.812
562.343
550.956
539.649
528.418
517.239
506.09
494.973
483.893
472.862
461.899
450.994
440.136
429.323
418.543
407.798
397.09
386.415
375.772
365.17
354.619
344.14
333.754
323.464
313.274
303.183
293.186
283.295
273.523
263.873
254.354
244.971
235.728
226.636
217.704
208.933
200.325
191.879
183.591
175.467
167.51
159.725
152.118
144.687
137.431
130.352
123.453
116.734
110.197
103.838
97.655
91.65
85.824
80.176
74.707
69.414
64.295
59.348
54.572
49.963
45.519
41.237
37.113
33.143
29.323
25.648
22.114
18.715
15.445
12.299
9.271
6.355
3.547
0.841
-1.77
-4.291
-6.726
-9.083
-11.365
-13.578
-15.726
-17.815
-19.847
-21.827
-23.758
-25.644
-27.487
-29.289
-31.054
-32.782
-34.476
-36.135
-37.76
-39.351
-40.905
-42.421
-43.895
-45.324
-46.705
-48.034
-49.308
-50.522
-51.672
-52.754
-53.766
-54.703
-55.562
-56.338
-57.024
-57.617
-58.11
-58.499
-58.777
-58.94
-58.982
-58.898
-58.688
-58.348
-57.875
-57.265
-56.512
-55.612
-54.566
-53.375
-52.04
-50.565
-48.956
-47.224
-45.387
-43.459
-41.454
-39.377
-37.23
-35.017
-32.739
-30.402
-28.009
-25.557
-23.041
-20.461
-17.818
-15.111
-12.336
-9.476
-6.505
-3.403
-0.161
3.218
6.718
10.327
14.026
17.789
21.583
25.364
29.09
32.729
36.257
39.649
42.873
45.884
48.627
51.058
53.148
54.883
56.259
57.275
57.939
58.273
58.317
58.121
57.731
57.176
56.481
55.667
54.764
53.813
52.859
51.936
51.071
50.283
49.585
48.991
48.505
48.117
47.805
47.537
47.291
47.055
46.825
46.596
46.36
46.107
45.826
45.512
45.163
44.775
44.346
43.871
43.352
42.796
42.217
41.633
41.053
40.482
39.924
39.379
38.848
38.33
37.82
37.311
36.797
36.272
35.73
35.169
34.583
33.966
33.312
32.612
31.862
31.055
30.187
29.252
28.243
27.156
25.993
24.754
23.439
22.049
20.582
19.036
17.403
15.672
13.828
11.853
9.729
7.44
4.973
2.319
-0.523
-3.556
-6.785
-10.216
-13.86
-17.722
-21.796
-26.068
-30.514
-35.095
-39.766
-44.471
-49.141
-53.738
-58.253
-62.718
-67.207
-71.789
-76.492
-81.335
-86.332
-91.407
-96.412
-101.146
-105.356
-108.88
-111.685
-113.829
-115.431
-116.793
-118.407
-120.851
-124.753
-130.567
-138.536
-148.78
-161.332
-175.996
-192.234
-209.318
-226.4
-242.812
-258.111
-271.92
-283.876
-293.733
-301.559
-307.688
-312.643
-316.8
-320.334
-323.381
-326.111
-328.754
-331.43
-334.063
-336.444
-338.453
-340.129
-341.59
-342.964
-344.293
-345.613
-347.036
-348.732
-350.866
-353.536
-356.791
-360.65
-365.136
-370.264
-376.031
-382.398
-389.3
-396.666
-404.415
-412.47
-420.775
-429.288
-437.973
-446.809
-455.766
-464.819
-473.95
-483.134
-492.355
-501.605
-510.876
-520.168
-529.495
-538.882
-548.364
-557.986
-567.773
-577.738
-587.889
-598.221
-608.732
-619.418
-630.268
-641.273
-652.421
-663.7
-675.098
-686.603
-698.194
-709.847
-721.528
-733.2
-744.83
-756.396
-767.876
-779.255
-790.521
-801.664
-812.679
-823.568
-834.331
-844.965
-855.465
-865.822
-876.028
-886.076
-895.962
-905.685
-915.237
-924.604
-933.773
-942.724
-951.438
-959.895
-968.07
-975.929
-983.443
-990.592
-997.361
-1003.746
-1009.749
-1015.375
-1020.638
-1025.551
-1030.142
-1034.445
-1038.504
-1042.364
-1046.074
-1049.675
-1053.219
-1056.759
-1060.345
-1064.018
-1067.806
-1071.724
-1075.781
-1079.976
-1084.298
-1088.731
-1093.243
-1097.792
-1102.324
-1106.782
-1111.11
-1115.257
-1119.169
-1122.789
-1126.066
-1128.954
-1131.418
-1133.435
-1134.984
-1136.052
-1136.631
-1136.717
-1136.321
-1135.457
-1134.148
-1132.422
-1130.302
-1127.805
-1124.951
-1121.758
-1118.243
-1114.42
-1110.296
-1105.874
-1101.157
-1096.15
-1090.855
-1085.275
-1079.407
-1073.25
-1066.798
-1060.046
-1052.995
-1045.646
-1038.005
-1030.079
-1021.876
-1013.407
-1004.685
-995.727
-986.548
-977.161
-967.582
-957.825
-947.903
-937.834
-927.631
-917.311
-906.887
-896.372
-885.78
-875.12
-864.406
-853.645
-842.847
-832.021
-821.173
-810.312
-799.444
-788.576
-777.715
-766.865
-756.031
-745.217
-734.427
-723.662
-712.924
-702.213
-691.531
-680.875
-670.247
-659.644
-649.065
-638.509
-627.972
-617.453
-606.948
-596.457
-585.974
-575.499
-565.027
-554.557
-544.085
-533.61
-523.13
-512.641
-502.143
-491.633
-481.111
-470.575
-460.025
-449.46
-438.879
-428.284
-417.675
-407.052
-396.418
-385.774
-375.122
-364.465
-353.806
-343.148
-332.495
-321.85
-311.217
-300.6
-290.004
-279.432
-268.888
-258.377
-247.903
-237.469
-227.08
-216.739
-206.45
-196.215
-186.038
-175.92
-165.865
-155.875
-145.949
-136.091
-126.3
-116.576
-106.919
-97.329
-87.805
-78.344
-68.944
-59.604
-50.319
-41.087
-31.903
-22.763
-13.664
-4.599
4.436
13.447
22.438
31.415
40.384
49.35
58.319
67.296
76.286
85.294
94.325
103.383
112.473
121.597
130.76
139.963
149.209
158.5
167.837
177.221
186.651
196.126
205.646
215.208
224.81
234.448
244.118
253.815
263.535
273.271
283.016
292.764
302.508
312.238
321.948
331.629
341.272
350.867
360.406
369.88
379.28
388.596
397.82
406.943
415.956
424.851
433.621
442.257
450.753
459.103
467.3
475.338
483.214
490.922
498.46
505.825
513.015
520.028
526.865
533.525
540.011
546.323
552.466
558.441
564.254
569.908
575.41
580.765
585.979
591.06
596.014
600.848
605.57
610.189
614.711
619.144
623.497
627.778
631.994
636.152
640.261
644.327
648.357
652.358
656.337
660.298
664.248
668.19
672.13
676.07
680.015
683.965
687.923
691.89
695.866
699.851
703.844
707.844
711.848
715.855
719.861
723.863
727.857
731.839
735.805
739.751
743.671
747.561
751.415
755.229
758.998
762.717
766.38
769.984
773.522
776.99
780.384
783.699
786.93
790.074
793.127
796.086
798.948
801.711
804.373
806.931
809.385
811.734
813.978
816.116
818.15
820.08
821.908
823.635
825.263
826.795
828.233
829.58
830.838
832.01
833.1
834.109
835.042
835.9
836.688
837.408
838.063
838.657
839.192
839.673
840.103
840.484
840.819
841.111
841.363
841.576
841.754
841.897
842.007
842.086
842.136
842.156
842.148
842.111
842.046
841.952
841.828
841.673
841.486
841.265
841.009
840.717
840.387
840.019
839.611
839.161
838.669
838.133
837.551
836.922
836.241
835.507
834.717
833.868
832.958
831.983
830.941
829.831
828.652
827.402
826.078
824.68
823.204
821.647
820.009
818.286
816.474
814.572
812.578
810.492
808.318
806.057
803.703
801.253
798.698
796.032
793.249
790.343
787.301
784.119
780.794
777.327
773.73
770.007
766.159
762.182
758.067
753.81
749.415
744.888
740.235
735.464
730.582
725.602
720.548
715.427
710.241
704.976
699.602
694.097
688.453
682.66
676.72
670.627
664.366
657.929
651.307
644.491
637.471
630.229
622.731
614.963
606.927
598.641
590.146
581.47
572.629
563.642
554.522
545.285
535.954
526.545
517.067
507.534
497.962
488.377
478.817
469.308
459.86
450.475
441.142
431.859
422.637
413.488
404.422
395.453
386.59
377.844
369.234
360.769
352.452
344.285
336.254
328.352
320.575
312.917
305.372
297.93
290.568
283.254
275.956
268.643
261.281
253.846
246.319
238.697
230.985
223.197
215.355
207.492
199.645
191.861
184.195
176.697
169.428
162.464
155.882
149.761
144.18
139.195
134.841
131.134
128.069
125.627
123.771
122.446
121.58
121.086
120.872
120.85
120.923
120.981
120.906
120.576
119.868
118.689
116.961
114.624
111.643
107.994
103.674
98.701
93.111
86.952
80.278
73.142
65.606
57.739
49.619
41.327
32.945
24.543
16.187
7.937
-0.157
-8.051
-15.708
-23.103
-30.209
-37.012
-43.501
-49.672
-55.522
-61.052
-66.261
-71.146
-75.71
-79.954
-83.888
-87.525
-90.872
-93.945
-96.763
-99.351
-101.743
-103.968
-106.046
-107.99
-109.813
-111.527
-113.157
-114.726
-116.252
-117.75
-119.231
-120.7
-122.168
-123.636
-125.098
-126.537
-127.928
-129.253
-130.502
-131.671
-132.756
-133.755
-134.658
-135.457
-136.151
-136.739
-137.221
-137.597
-137.863
-138.021
-138.078
-138.045
-137.939
-137.768
-137.539
-137.254
-136.915
-136.523
-136.078
-135.58
-135.023
-134.403
-133.718
-132.964
-132.141
-131.246
-130.275
-129.223
-128.084
-126.856
-125.534
-124.117
-122.603
-120.989
-119.275
-117.462
-115.551
-113.542
-111.438
-109.238
-106.943
-104.554
-102.073
-99.5
-96.837
-94.086
-91.25
-88.33
-85.331
-82.256
-79.107
-75.89
-72.607
-69.263
-65.862
-62.409
-58.907
-55.362
-51.776
-48.156
-44.504
-40.825
-37.123
-33.401
-29.664
-25.915
-22.156
-18.391
-14.621
-10.851
-7.081
-3.314
0.449
4.205
7.953
11.691
15.419
19.135
22.838
26.529
30.206
33.869
37.519
41.156
44.779
48.39
51.99
55.578
59.157
62.727
66.288
69.844
73.393
76.939
80.482
84.023
87.564
91.106
94.65
98.198
101.75
105.307
108.87
112.439
116.016
119.599
123.191
126.789
130.396
134.01
137.631
141.259
144.893
148.534
152.178
155.827
159.478
163.13
166.782
170.431
174.077
177.715
181.346
184.965
188.571
192.16
195.729
199.274
202.791
206.277
209.727
213.136
216.5
219.814
223.072
226.271
229.405
232.468
235.457
238.364
241.185
243.915
246.546
249.074
251.493
253.796
255.978
258.033
259.954
261.737
263.374
264.861
266.191
267.359
268.359
269.185
269.833
270.297
270.574
270.659
270.551
270.245
269.742
269.039
268.136
267.033
265.728
264.224
262.519
260.615
258.511
256.21
253.714
251.026
248.151
245.094
241.86
238.457
234.892
231.173
227.308
223.306
219.172
214.916
210.545
206.072
201.508
196.867
192.155
187.382
182.555
177.682
172.767
167.81
162.806
157.751
152.644
147.491
142.303
137.088
131.856
126.615
121.373
116.145
110.948
105.794
100.693
95.654
90.693
85.835
81.115
76.563
72.195
68.017
64.023
60.204
56.55
53.04
49.646
46.326
43.041
39.763
36.468
33.133
29.73
26.212
22.525
18.625
14.482
10.079
5.411
0.473
-4.728
-10.172
-15.82
-21.622
-27.534
-33.525
-39.573
-45.654
-51.741
-57.793
-63.765
-69.622
-75.338
-80.892
-86.27
-91.456
-96.445
-101.243
-105.874
-110.366
-114.741
-119.009
-123.174
-127.236
-131.2
-135.075
-138.867
-142.576
-146.2
-149.739
-153.191
-156.556
-159.83
-163
-166.048
-168.955
-171.707
-174.293
-176.709
-178.95
-181.014
-182.897
-184.601
-186.131
-187.488
-188.677
-189.7
-190.556
-191.251
-191.79
-192.18
-192.43
-192.546
-192.536
-192.405
-192.162
-191.812
-191.362
-190.818
-190.184
-189.468
-188.674
-187.812
-186.888
-185.909
-184.884
-183.819
-182.722
-181.6
-180.461
-179.311
-178.155
-176.999
-175.851
-174.714
-173.594
-172.497
-171.427
-170.389
-169.387
-168.425
-167.508
-166.639
-165.822
-165.061
-164.357
-163.716
-163.138
-162.628
-162.187
-161.818
-161.524
-161.305
-161.164
-161.102
-161.119
-161.218
-161.399
-161.663
-162.009
-162.438
-162.95
-163.546
-164.224
-164.986
-165.83
-166.757
-167.765
-168.855
-170.025
-171.275
-172.604
-174.011
-175.494
-177.052
-178.685
-180.389
-182.163
-184.005
-185.912
-187.882
-189.913
-192.002
-194.145
-196.34
-198.583
-200.871
-203.199
-205.564
-207.962
-210.387
-212.837
-215.305
-217.788
-220.281
-222.779
-225.278
-227.772
-230.256
-232.726
-235.176
-237.6
-239.992
-242.348
-244.662
-246.927
-249.139
-251.292
-253.381
-255.401
-257.346
-259.211
-260.993
-262.685
-264.284
-265.786
-267.187
-268.484
-269.675
-270.758
-271.732
-272.595
-273.349
-273.993
-274.527
-274.953
-275.27
-275.48
-275.584
-275.583
-275.479
-275.275
-274.975
-274.583
-274.106
-273.549
-272.918
-272.221
-271.467
-270.663
-269.816
-268.932
-268.019
-267.085
-266.139
-265.193
-264.256
-263.334
-262.434
-261.561
-260.719
-259.91
-259.131
-258.374
-257.634
-256.906
-256.195
-255.508
-254.851
-254.229
-253.648
-253.11
-252.628
-252.213
-251.875
-251.618
-251.449
-251.38
-251.431
-251.632
-252.008
-252.569
-253.315
-254.234
-255.316
-256.545
-257.899
-259.348
-260.85
-262.367
-263.868
-265.329
-266.726
-268.028
-269.192
-270.161
-270.894
-271.362
-271.55
-271.455
-271.074
-270.414
-269.494
-268.351
-267.032
-265.581
-264.026
-262.39
-260.695
-258.971
-257.259
-255.604
-254.043
-252.603
-251.305
-250.164
-249.198
-248.415
-247.811
-247.37
-247.067
-246.886
-246.824
-246.88
-247.058
-247.358
-247.776
-248.308
-248.959
-249.734
-250.639
-251.677
-252.854
-254.176
-255.658
-257.32
-259.185
-261.266
-263.577
-266.123
-268.912
-271.948
-275.234
-278.77
-282.552
-286.576
-290.839
-295.337
-300.064
-305.015
-310.18
-315.548
-321.107
-326.845
-332.75
-338.808
-345.009
-351.341
-357.792
-364.348
-370.999
-377.732
-384.536
-391.399
-398.308
-405.25
-412.209
-419.169
-426.116
-433.032
-439.895
-446.677
-453.348
-459.88
-466.245
-472.418
-478.372
-484.081
-489.519
-494.668
-499.514
-504.048
-508.255
-512.118
-515.632
-518.805
-521.66
-524.243
-526.599
-528.768
-530.81
-532.796
-534.758
-536.704
-538.599
-540.35
-541.905
-543.242
-544.306
-545.063
-545.551
-545.857
-546.192
-546.809
-547.791
-549.135
-550.84
-552.807
-554.852
-556.636
-557.524
-556.873
-554.333
-549.611
-542.457
-532.724
-520.259
-505.252
-488.409
-470.456
-451.945
-433.508
-415.785
-399.522
-385.702
-374.904
-367.167
-362.473
-360.754
-361.793
-365.341
-370.837
-377.323
-384.111
-390.844
-397.219
-403.084
-408.35
-412.877
-416.761
-420.37
-423.925
-427.514
-431.164
-434.753
-438.158
-441.325
-444.137
-446.434
-448.149
-449.26
-449.8
-449.885
-449.636
-449.17
-448.61
-448.044
-447.522
-447.081
-446.743
-446.53
-446.476
-446.593
-446.883
-447.34
-447.951
-448.703
-449.572
-450.516
-451.472
-452.371
-453.155
-453.789
-454.253
-454.531
-454.611
-454.477
-454.116
-453.53
-452.722
-451.695
-450.451
-448.991
-447.323
-445.465
-443.443
-441.284
-439.01
-436.636
-434.174
-431.634
-429.028
-426.363
-423.647
-420.881
-418.069
-415.217
-412.332
-409.418
-406.481
-403.521
-400.537
-397.531
-394.503
-391.454
-388.385
-385.296
-382.191
-379.069
-375.933
-372.78
-369.606
-366.408
-363.181
-359.925
-356.639
-353.326
-349.99
-346.635
-343.269
-339.896
-336.518
-333.131
-329.727
-326.294
-322.821
-319.304
-315.738
-312.121
-308.449
-304.712
-300.905
-297.013
-293.016
-288.891
-284.604
-280.129
-275.445
-270.547
-265.438
-260.134
-254.662
-249.042
-243.295
-237.444
-231.511
-225.519
-219.484
-213.428
-207.379
-201.368
-195.442
-189.65
-184.038
-178.638
-173.468
-168.512
-163.728
-159.072
-154.501
-149.978
-145.458
-140.868
-136.175
-131.384
-126.55
-121.784
-117.114
-112.449
-107.694
-102.777
-97.582
-91.999
-85.801
-78.561
-70.063
-60.374
-49.696
-38.376
-26.833
-15.427
-4.691
4.54
11.71
16.612
19.327
20.389
20.508
20.368
20.802
22.833
27.207
34.421
44.692
57.586
72.344
88.087
103.803
118.53
131.549
142.216
149.999
154.887
157.228
157.617
156.811
155.39
153.733
152.239
151.329
151.216
151.904
153.194
154.745
156.378
158.069
159.807
161.565
163.345
165.189
167.214
169.61
172.485
175.854
179.706
183.999
188.684
193.723
199.063
204.621
210.333
216.149
222.015
227.894
233.754
239.553
245.271
250.893
256.397
261.776
267.029
272.157
277.181
282.118
286.977
291.763
296.477
301.112
305.664
310.119
314.437
318.58
322.498
326.155
329.523
332.571
335.266
337.573
339.453
340.875
341.818
342.257
342.176
341.57
340.449
338.855
336.852
334.505
331.88
329.024
325.99
322.85
319.683
316.573
313.593
310.785
308.21
305.963
304.101
302.648
301.562
300.709
300.016
299.508
299.211
299.167
299.434
300.041
301.138
303.019
305.782
309.323
313.423
317.72
321.897
325.742
328.902
330.886
331.463
330.652
328.694
326.08
323.204
320.315
317.771
316.016
315.321
315.797
317.356
319.673
322.531
325.842
329.476
333.289
337.168
341.006
344.775
348.547
352.31
355.977
359.45
362.584
365.257
367.375
368.825
369.5
369.334
368.29
366.371
363.609
360.027
355.696
350.756
345.394
339.83
334.246
328.758
323.499
318.663
314.439
310.956
308.188
306.017
304.429
303.552
303.619
304.812
307.198
310.827
315.957
322.988
332.251
343.924
357.819
373.595
390.98
409.652
429.028
448.286
466.435
482.426
495.646
505.79
512.594
515.973
516.092
513.335
508.423
502.32
495.679
488.903
482.322
476.078
470.224
464.757
459.446
453.899
447.911
441.428
434.473
427.19
419.693
412.05
404.4
396.911
389.682
382.752
376.107
369.689
363.467
357.438
351.596
345.93
340.418
335.041
329.782
324.643
319.645
314.822
310.214
305.875
301.862
298.241
295.089
292.472
290.435
289.007
288.199
288.027
288.523
289.728
291.672
294.375
297.831
302.016
306.895
312.416
318.502
325.065
331.999
339.201
346.588
354.084
361.611
369.085
376.404
383.453
390.125
396.324
401.957
406.956
411.264
414.847
417.697
419.826
421.258
422.018
422.128
421.61
420.502
418.848
416.707
414.157
411.271
408.129
404.815
401.396
397.929
394.457
391.003
387.583
384.211
380.897
377.648
374.474
371.37
368.33
365.336
362.362
359.377
356.349
353.242
350.035
346.713
343.267
339.694
335.995
332.166
328.209
324.123
319.909
315.574
311.137
306.621
302.063
297.502
292.967
288.486
284.078
279.763
275.564
271.499
267.59
263.861
260.335
257.048
254.034
251.317
248.902
246.782
244.937
243.346
242.003
240.901
240.034
239.386
238.931
238.644
238.499
238.462
238.486
238.507
238.453
238.264
237.906
237.348
236.577
235.572
234.297
232.724
230.833
228.611
226.058
223.173
219.955
216.414
212.581
208.502
204.24
199.843
195.341
190.761
186.125
181.461
176.809
172.197
167.645
163.17
158.782
154.493
150.322
146.27
142.329
138.477
134.686
130.935
127.217
123.524
119.849
116.185
112.519
108.845
105.168
101.487
97.806
94.122
90.434
86.744
83.063
79.4
75.772
72.185
68.644
65.151
61.708
58.316
54.974
51.678
48.421
45.195
41.996
38.817
35.654
32.501
29.348
26.189
23.013
19.815
16.588
13.325
10.02
6.668
3.263
-0.197
-3.717
-7.3
-10.951
-14.674
-18.473
-22.353
-26.316
-30.367
-34.51
-38.746
-43.078
-47.508
-52.037
-56.665
-61.394
-66.223
-71.151
-76.177
-81.298
-86.513
-91.82
-97.214
-102.694
-108.255
-113.894
-119.607
-125.392
-131.243
-137.158
-143.132
-149.162
-155.243
-161.371
-167.542
-173.75
-179.992
-186.262
-192.555
-198.865
-205.187
-211.516
-217.847
-224.174
-230.493
-236.798
-243.084
-249.348
-255.584
-261.789
-267.96
-274.093
-280.185
-286.233
-292.236
-298.191
-304.096
-309.948
-315.743
-321.48
-327.154
-332.761
-338.299
-343.764
-349.152
-354.462
-359.689
-364.831
-369.886
-374.851
-379.723
-384.498
-389.171
-393.741
-398.202
-402.553
-406.793
-410.918
-414.923
-418.803
-422.551
-426.157
-429.613
-432.902
-436.005
-438.908
-441.597
-444.062
-446.292
-448.276
-449.997
-451.443
-452.599
-453.458
-454.021
-454.284
-454.245
-453.909
-453.288
-452.408
-451.302
-449.989
-448.477
-446.767
-444.864
-442.797
-440.602
-438.308
-435.923
-433.427
-430.806
-428.076
-425.23
-422.217
-418.926
-415.206
-410.957
-406.183
-400.92
-395.159
-388.889
-382.127
-375.018
-367.797
-360.598
-353.402
-346.054
-338.387
-330.279
-321.586
-311.963
-300.998
-288.426
-274.137
-258.338
-241.418
-223.746
-205.812
-188.364
-172.147
-157.801
-145.884
-136.546
-129.659
-125.066
-122.397
-121.077
-120.606
-120.499
-120.25
-119.641
-118.63
-117.192
-115.476
-113.701
-111.957
-110.337
-108.968
-107.852
-106.96
-106.251
-105.59
-104.841
-103.953
-102.894
-101.648
-100.234
-98.655
-96.928
-95.104
-93.245
-91.401
-89.599
-87.844
-86.128
-84.449
-82.804
-81.189
-79.586
-77.97
-76.318
-74.613
-72.843
-70.998
-69.062
-67.016
-64.846
-62.536
-60.084
-57.49
-54.757
-51.886
-48.878
-45.742
-42.494
-39.156
-35.747
-32.277
-28.743
-25.146
-21.502
-17.82
-14.115
-10.378
-6.555
-2.647
1.295
5.226
9.07
12.815
16.557
20.303
23.963
27.577
31.261
35.184
39.644
44.705
50.13
55.821
61.742
67.672
73.305
78.143
81.476
83
82.834
81.012
77.636
73.017
67.614
62.267
58.032
55.606
55.364
57.643
62.621
70.253
80.198
91.611
103.453
114.777
124.703
132.479
137.474
139.269
137.837
133.59
127.111
119.112
110.404
101.665
93.524
86.472
80.703
76.194
72.827
70.367
68.506
67.057
65.882
64.894
64.145
63.732
63.761
64.377
65.718
67.821
70.666
74.209
78.351
82.991
88.013
93.255
98.555
103.771
108.771
113.432
117.63
121.228
124.114
126.214
127.485
127.914
127.507
126.271
124.232
121.441
117.968
113.901
109.326
104.322
98.978
93.391
87.683
81.97
76.347
70.884
65.634
60.635
55.925
51.53
47.46
43.708
40.259
37.095
34.202
31.567
29.168
26.972
24.936
23.022
21.208
19.48
17.834
16.264
14.768
13.346
12.013
10.785
9.677
8.702
7.867
7.183
6.663
6.324
6.183
6.254
6.541
7.046
7.77
8.711
9.865
11.227
12.784
14.526
16.445
18.531
20.777
23.174
25.712
28.379
31.164
34.058
37.053
40.14
43.31
46.557
49.874
53.254
56.694
60.189
63.732
67.318
70.944
74.605
78.296
82.016
85.761
89.529
93.319
97.129
100.959
104.809
108.676
112.562
116.464
120.381
124.313
128.26
132.22
136.193
140.18
144.179
148.192
152.218
156.258
160.311
164.375
168.447
172.524
176.604
180.683
184.757
188.821
192.872
196.905
200.92
204.912
208.877
212.808
216.698
220.539
224.329
228.063
231.739
235.356
238.916
242.425
245.894
249.331
252.737
256.113
259.45
262.743
265.989
269.182
272.316
275.386
278.384
281.304
284.147
286.904
289.561
292.099
294.482
296.692
298.723
300.575
302.261
303.798
305.203
306.507
307.747
308.956
310.165
311.398
312.671
314.009
315.446
317.023
318.795
320.799
323.056
325.58
328.373
331.425
334.72
338.224
341.886
345.666
349.53
353.451
357.415
361.397
365.365
369.285
373.112
376.811
380.358
383.728
386.904
389.878
392.647
395.224
397.634
399.897
402.023
404.015
405.868
407.581
409.151
410.579
411.867
413.019
414.035
414.917
415.672
416.303
416.819
417.217
417.487
417.616
417.594
417.412
417.068
416.559
415.883
415.032
414
412.785
411.385
409.796
408.01
406.007
403.761
401.252
398.474
395.432
392.142
388.618
384.88
380.955
376.875
372.687
368.433
364.146
359.851
355.575
351.354
347.234
343.276
339.526
336.016
332.765
329.779
327.064
324.615
322.411
320.418
318.585
316.869
315.242
313.682
312.169
310.676
309.163
307.587
305.913
304.12
302.189
300.108
297.865
295.457
292.895
290.204
287.417
284.559
281.644
278.677
275.665
272.615
269.541
266.451
263.352
260.243
257.128
254.008
250.886
247.76
244.622
241.455
238.241
234.968
231.628
228.216
224.73
221.165
217.519
213.793
209.989
206.109
202.156
198.127
194.023
189.844
185.594
181.274
176.891
172.447
167.944
163.384
158.77
154.103
149.385
144.615
139.794
134.92
129.996
125.023
120.003
114.937
109.827
104.675
99.484
94.257
88.994
83.699
78.373
73.019
67.638
62.233
56.807
51.361
45.899
40.423
34.936
29.441
23.94
18.436
12.932
7.431
1.936
-3.551
-9.028
-14.49
-19.937
-25.365
-30.772
-36.154
-41.511
-46.839
-52.137
-57.403
-62.634
-67.831
-72.991
-78.114
-83.198
-88.243
-93.248
-98.211
-103.133
-108.014
-112.853
-117.65
-122.406
-127.121
-131.794
-136.428
-141.021
-145.576
-150.091
-154.569
-159.008
-163.41
-167.775
-172.104
-176.395
-180.649
-184.867
-189.047
-193.19
-197.296
-201.363
-205.391
-209.38
-213.327
-217.233
-221.096
-224.914
-228.686
-232.411
-236.087
-239.713
-243.285
-246.804
-250.266
-253.67
-257.013
-260.294
-263.51
-266.66
-269.742
-272.753
-275.693
-278.56
-281.353
-284.071
-286.713
-289.279
-291.768
-294.18
-296.515
-298.774
-300.958
-303.067
-305.102
-307.064
-308.955
-310.777
-312.531
-314.22
-315.845
-317.409
-318.914
-320.364
-321.759
-323.104
-324.401
-325.652
-326.861
-328.03
-329.163
-330.262
-331.33
-332.37
-333.383
-334.373
-335.34
-336.288
-337.217
-338.129
-339.025
-339.906
-340.773
-341.625
-342.463
-343.288
-344.098
-344.894
-345.673
-346.437
-347.182
-347.908
-348.613
-349.296
-349.954
-350.585
-351.187
-351.757
-352.294
-352.793
-353.252
-353.667
-354.036
-354.354
-354.619
-354.826
-354.972
-355.054
-355.069
-355.013
-354.883
-354.677
-354.39
-354.022
-353.568
-353.026
-352.393
-351.668
-350.847
-349.929
-348.912
-347.795
-346.576
-345.254
-343.829
-342.298
-340.663
-338.923
-337.077
-335.127
-333.074
-330.918
-328.662
-326.31
-323.863
-321.326
-318.704
-316.001
-313.22
-310.368
-307.448
-304.466
-301.426
-298.332
-295.19
-292.004
-288.783
-285.533
-282.261
-278.974
-275.68
-272.388
-269.105
-265.839
-262.596
-259.381
-256.2
-253.059
-249.965
-246.928
-243.953
-241.043
-238.201
-235.429
-232.726
-230.087
-227.505
-224.965
-222.457
-219.974
-217.514
-215.079
-212.669
-210.282
-207.918
-205.578
-203.261
-200.972
-198.707
-196.463
-194.241
-192.047
-189.895
-187.811
-185.809
-183.888
-182.041
-180.253
-178.506
-176.778
-175.04
-173.252
-171.38
-169.392
-167.263
-164.98
-162.516
-159.842
-156.919
-153.698
-150.144
-146.242
-141.981
-137.361
-132.392
-127.091
-121.49
-115.642
-109.589
-103.366
-97.002
-90.518
-83.939
-77.303
-70.65
-64.024
-57.464
-50.996
-44.646
-38.435
-32.375
-26.472
-20.716
-15.084
-9.561
-4.139
1.183
6.401
11.515
16.528
21.445
26.269
31.002
35.647
40.206
44.684
49.08
53.39
57.607
61.715
65.708
69.581
73.337
76.979
80.515
83.951
87.295
90.562
93.76
96.901
99.997
103.056
106.092
109.117
112.142
115.177
118.23
121.307
124.412
127.544
130.7
133.877
137.071
140.28
143.505
146.742
149.989
153.244
156.501
159.759
163.026
166.307
169.611
172.954
176.35
179.817
183.383
187.062
190.863
194.789
198.828
202.976
207.226
211.563
215.974
220.437
224.915
229.374
233.773
238.054
242.158
246.02
249.557
252.71
255.433
257.69
259.462
260.732
261.478
261.696
261.384
260.545
259.202
257.374
255.079
252.372
249.307
245.955
242.408
238.733
234.981
231.198
227.413
223.65
219.946
216.319
212.782
209.352
206.036
202.847
199.806
196.905
194.123
191.428
188.768
186.107
183.431
180.72
177.969
175.176
172.333
169.44
166.508
163.536
160.525
157.466
154.34
151.146
147.898
144.612
141.323
138.053
134.815
131.623
128.488
125.415
122.412
119.476
116.6
113.78
111.021
108.33
105.72
103.196
100.751
98.378
96.06
93.782
91.529
89.28
87.013
84.711
82.36
79.952
77.487
74.961
72.367
69.699
66.954
64.134
61.25
58.31
55.326
52.31
49.285
46.282
43.333
40.462
37.689
35.028
32.487
30.071
27.778
25.599
23.51
21.477
19.463
17.426
15.329
13.134
10.792
8.241
5.425
2.287
-1.221
-5.145
-9.534
-14.423
-19.833
-25.766
-32.202
-39.105
-46.428
-54.121
-62.133
-70.417
-78.918
-87.569
-96.297
-105.024
-113.666
-122.132
-130.32
-138.132
-145.486
-152.322
-158.598
-164.289
-169.383
-173.873
-177.749
-180.997
-183.595
-185.533
-186.818
-187.475
-187.55
-187.11
-186.234
-185.014
-183.541
-181.896
-180.152
-178.372
-176.606
-174.908
-173.343
-171.989
-170.953
-170.336
-170.216
-170.652
-171.68
-173.314
-175.566
-178.423
-181.853
-185.828
-190.313
-195.281
-200.723
-206.615
-212.913
-219.548
-226.417
-233.408
-240.431
-247.402
-254.245
-260.892
-267.265
-273.307
-278.992
-284.29
-289.181
-293.633
-297.594
-301.026
-303.917
-306.271
-308.122
-309.516
-310.485
-311.068
-311.315
-311.275
-311.019
-310.602
-310.053
-309.399
-308.666
-307.882
-307.088
-306.32
-305.59
-304.905
-304.258
-303.628
-303.002
-302.358
-301.662
-300.875
-299.948
-298.829
-297.488
-295.906
-294.065
-291.961
-289.589
-286.952
-284.066
-280.957
-277.658
-274.216
-270.681
-267.1
-263.527
-260.016
-256.627
-253.432
-250.488
-247.838
-245.517
-243.542
-241.922
-240.661
-239.749
-239.165
-238.876
-238.839
-238.999
-239.316
-239.749
-240.256
-240.796
-241.315
-241.763
-242.106
-242.316
-242.375
-242.272
-242
-241.554
-240.948
-240.202
-239.342
-238.402
-237.402
-236.354
-235.273
-234.171
-233.063
-231.967
-230.891
-229.839
-228.81
-227.805
-226.823
-225.86
-224.9
-223.921
-222.896
-221.805
-220.633
-219.374
-218.03
-216.601
-215.091
-213.507
-211.853
-210.138
-208.371
-206.553
-204.686
-202.779
-200.852
-198.934
-197.06
-195.257
-193.542
-191.928
-190.421
-189.022
-187.723
-186.505
-185.35
-184.245
-183.18
-182.157
-181.177
-180.232
-179.299
-178.346
-177.328
-176.211
-174.964
-173.555
-171.956
-170.149
-168.137
-165.947
-163.613
-161.163
-158.624
-156.012
-153.346
-150.655
-147.985
-145.395
-142.954
-140.734
-138.809
-137.265
-136.193
-135.673
-135.758
-136.467
-137.802
-139.758
-142.331
-145.524
-149.33
-153.734
-158.707
-164.211
-170.2
-176.617
-183.394
-190.45
-197.686
-205.004
-212.335
-219.643
-226.911
-234.141
-241.329
-248.468
-255.558
-262.6
-269.596
-276.551
-283.46
-290.321
-297.145
-303.949
-310.767
-317.633
-324.552
-331.498
-338.419
-345.239
-351.883
-358.281
-364.35
-370.006
-375.17
-379.773
-383.758
-387.083
-389.693
-391.528
-392.516
-392.59
-391.716
-389.896
-387.16
-383.565
-379.178
-374.077
-368.359
-362.137
-355.523
-348.627
-341.545
-334.371
-327.213
-320.193
-313.453
-307.128
-301.321
-296.108
-291.541
-287.649
-284.449
-281.938
-280.089
-278.852
-278.175
-278.002
-278.282
-278.962
-279.966
-281.201
-282.557
-283.924
-285.215
-286.359
-287.299
-287.992
-288.403
-288.511
-288.316
-287.831
-287.071
-286.05
-284.782
-283.282
-281.577
-279.707
-277.72
-275.662
-273.568
-271.461
-269.358
-267.269
-265.199
-263.144
-261.089
-259.016
-256.906
-254.74
-252.504
-250.182
-247.754
-245.196
-242.483
-239.591
-236.501
-233.2
-229.675
-225.919
-221.926
-217.694
-213.224
-208.521
-203.586
-198.422
-193.03
-187.411
-181.569
-175.507
-169.23
-162.741
-156.046
-149.149
-142.053
-134.765
-127.289
-119.63
-111.793
-103.783
-95.607
-87.272
-78.785
-70.157
-61.394
-52.507
-43.505
-34.397
-25.192
-15.9
-6.531
2.908
12.406
21.954
31.544
41.165
50.81
60.468
70.132
79.791
89.438
99.063
108.659
118.215
127.725
137.179
146.571
155.892
165.135
174.294
183.363
192.334
201.204
209.967
218.619
227.155
235.572
243.867
252.037
260.08
267.993
275.775
283.424
290.939
298.32
305.566
312.677
319.653
326.495
333.204
339.781
346.228
352.547
358.74
364.811
370.762
376.598
382.322
387.94
393.454
398.872
404.197
409.436
414.593
419.674
424.686
429.634
434.523
439.361
444.153
448.906
453.625
458.317
462.988
467.645
472.293
476.939
481.587
486.243
490.913
495.601
500.312
505.052
509.823
514.63
519.476
524.365
529.299
534.279
539.307
544.383
549.508
554.68
559.899
565.161
570.465
575.808
581.185
586.592
592.023
597.473
602.934
608.399
613.859
619.305
624.725
630.112
635.454
640.74
645.96
651.102
656.156
661.111
665.956
670.677
675.261
679.694
683.964
688.055
691.954
695.646
699.118
702.357
705.352
708.092
710.567
712.765
714.674
716.283
717.587
718.579
719.257
719.619
719.662
719.393
718.821
717.955
716.806
715.378
713.67
711.683
709.421
706.885
704.082
701.009
697.657
694.021
690.099
685.885
681.376
676.561
671.414
665.921
660.075
653.874
647.332
640.46
633.268
625.774
618.001
609.983
601.768
593.4
584.916
576.361
567.778
559.222
550.755
542.426
534.267
526.31
518.567
511.052
503.786
496.767
489.986
483.425
477.046
470.809
464.679
458.602
452.52
446.375
440.101
433.654
427.003
420.117
412.97
405.542
397.803
389.742
381.359
372.645
363.615
354.29
344.694
334.879
324.903
314.818
304.672
294.5
284.317
274.147
264.013
253.929
243.912
233.965
224.086
214.29
204.581
194.955
185.398
175.869
166.317
156.71
147.02
137.235
127.355
117.372
107.284
97.107
86.863
76.595
66.349
56.155
46.04
36.04
26.201
16.597
7.304
-1.624
-10.14
-18.211
-25.815
-32.917
-39.497
-45.565
-51.147
-56.295
-61.074
-65.531
-69.715
-73.683
-77.507
-81.28
-85.098
-89.031
-93.142
-97.484
-102.107
-107.077
-112.434
-118.194
-124.353
-130.887
-137.763
-144.964
-152.47
-160.244
-168.245
-176.417
-184.706
-193.086
-201.533
-210.025
-218.537
-227.033
-235.502
-243.952
-252.397
-260.858
-269.346
-277.854
-286.385
-294.948
-303.547
-312.178
-320.826
-329.44
-337.983
-346.426
-354.738
-362.902
-370.868
-378.579
-385.985
-393.044
-399.728
-406.027
-411.922
-417.385
-422.421
-427.052
-431.329
-435.334
-439.129
-442.759
-446.268
-449.695
-453.1
-456.551
-460.099
-463.783
-467.635
-471.681
-475.959
-480.515
-485.362
-490.484
-495.841
-501.364
-507.01
-512.754
-518.569
-524.434
-530.317
-536.182
-542.013
-547.804
-553.547
-559.226
-564.816
-570.28
-575.607
-580.806
-585.902
-590.933
-595.921
-600.871
-605.789
-610.682
-615.558
-620.425
-625.281
-630.1
-634.854
-639.516
-644.068
-648.508
-652.834
-657.021
-661.017
-664.788
-668.352
-671.771
-675.119
-678.4
-681.53
-684.421
-687.067
-689.475
-691.584
-693.225
-694.17
-694.339
-693.893
-693.083
-692.031
-690.773
-689.368
-688.03
-687.134
-686.883
-687.108
-687.456
-687.704
-687.806
-687.758
-687.391
-686.249
-683.916
-680.378
-675.833
-670.326
-663.704
-655.672
-646.018
-634.924
-622.724
-609.433
-594.985
-579.518
-563.352
-547.088
-531.431
-516.718
-503.099
-490.924
-480.468
-471.81
-464.917
-459.418
-454.728
-450.493
-446.452
-442.229
-437.576
-432.339
-426.387
-419.816
-412.868
-405.651
-398.24
-390.744
-383.173
-375.519
-367.782
-359.868
-351.652
-343.085
-334.147
-324.83
-315.176
-305.224
-295.006
-284.595
-274.064
-263.457
-252.808
-242.14
-231.462
-220.803
-210.198
-199.664
-189.217
-178.865
-168.609
-158.457
-148.411
-138.455
-128.571
-118.723
-108.867
-98.967
-88.982
-78.865
-68.57
-58.043
-47.216
-36.038
-24.463
-12.44
0.071
13.119
26.749
40.976
55.8
71.21
87.169
103.639
120.574
137.908
155.577
173.509
191.615
209.818
228.036
246.171
264.129
281.803
299.086
315.905
332.201
347.923
363.041
377.53
391.367
404.553
417.085
428.955
440.179
450.771
460.761
470.204
479.163
487.712
495.927
503.86
511.556
519.063
526.423
533.678
540.879
548.071
555.307
562.66
570.182
577.914
585.882
594.083
602.509
611.152
619.998
629.048
638.315
647.794
657.479
667.359
677.397
687.549
697.754
707.916
717.963
727.832
737.466
746.834
755.905
764.628
772.956
780.83
788.169
794.905
800.971
806.301
810.863
814.638
817.62
819.837
821.3
822.011
821.967
821.15
819.546
817.167
814.036
810.19
805.7
800.64
795.091
789.144
782.872
776.336
769.6
762.717
755.758
748.811
741.983
735.394
729.167
723.403
718.186
713.585
709.639
706.372
703.797
701.906
700.697
700.179
700.347
701.197
702.69
704.751
707.269
710.107
713.129
716.226
719.29
722.208
724.907
727.339
729.502
731.474
733.261
734.773
735.935
736.652
736.808
736.353
735.157
732.949
729.637
725.273
719.94
713.923
707.552
701.06
694.856
689.509
685.334
682.552
681.312
681.336
682.263
683.757
685.219
686.01
685.746
684.029
680.524
675.336
668.663
660.782
652.244
643.491
634.77
626.4
618.669
611.619
605.237
599.381
593.704
588
582.178
576.103
569.664
562.808
555.49
547.753
539.743
531.527
523.129
514.578
505.871
497.028
488.101
479.118
470.096
461.084
452.129
443.294
434.668
426.308
418.261
410.574
403.28
396.412
390.01
384.094
378.684
373.797
369.423
365.54
362.117
359.096
356.427
354.057
351.911
349.933
348.067
346.251
344.428
342.537
340.497
338.236
335.692
332.798
329.516
325.826
321.707
317.164
312.196
306.809
301.025
294.864
288.335
281.461
274.272
266.815
259.171
251.414
243.602
235.797
228.035
220.346
212.762
205.302
197.979
190.801
183.771
176.891
170.18
163.653
157.304
151.106
145.002
138.94
132.887
126.813
120.702
114.537
108.299
101.98
95.583
89.116
82.582
75.98
69.296
62.518
55.647
48.705
41.729
34.752
27.796
20.878
14.012
7.216
0.507
-6.107
-12.629
-19.062
-25.401
-31.641
-37.766
-43.762
-49.625
-55.354
-60.958
-66.441
-71.806
-77.053
-82.185
-87.208
-92.126
-96.937
-101.636
-106.22
-110.69
-115.046
-119.294
-123.439
-127.483
-131.43
-135.284
-139.048
-142.727
-146.325
-149.846
-153.293
-156.673
-159.99
-163.254
-166.471
-169.648
-172.792
-175.911
-179.012
-182.101
-185.185
-188.27
-191.361
-194.466
-197.589
-200.736
-203.913
-207.123
-210.372
-213.662
-216.998
-220.383
-223.818
-227.306
-230.849
-234.447
-238.101
-241.811
-245.577
-249.397
-253.272
-257.199
-261.177
-265.203
-269.274
-273.388
-277.54
-281.729
-285.949
-290.196
-294.466
-298.755
-303.058
-307.37
-311.687
-316.004
-320.317
-324.622
-328.916
-333.193
-337.452
-341.686
-345.893
-350.068
-354.209
-358.313
-362.377
-366.398
-370.374
-374.304
-378.188
-382.024
-385.812
-389.55
-393.236
-396.868
-400.449
-403.981
-407.466
-410.905
-414.3
-417.651
-420.96
-424.227
-427.454
-430.64
-433.78
-436.874
-439.918
-442.914
-445.866
-448.772
-451.626
-454.416
-457.122
-459.739
-462.27
-464.721
-467.099
-469.399
-471.607
-473.727
-475.781
-477.777
-479.684
-481.431
-482.937
-484.182
-485.224
-486.145
-486.971
-487.741
-488.561
-489.622
-491.129
-493.186
-495.712
-498.506
-501.472
-504.488
-507.299
-509.607
-511.101
-511.554
-510.992
-509.611
-507.46
-504.692
-501.675
-498.72
-496.136
-494.204
-492.969
-492.365
-492.495
-493.274
-494.358
-495.528
-496.573
-497.285
-497.64
-497.608
-497.015
-495.879
-494.414
-492.734
-490.96
-489.187
-487.394
-485.614
-483.961
-482.447
-481.002
-479.587
-478.15
-476.674
-475.195
-473.717
-472.219
-470.699
-469.166
-467.629
-466.108
-464.607
-463.113
-461.618
-460.117
-458.608
-457.095
-455.578
-454.053
-452.517
-450.971
-449.415
-447.851
-446.282
-444.709
-443.132
-441.555
-439.978
-438.405
-436.837
-435.276
-433.72
-432.171
-430.63
-429.102
-427.587
-426.087
-424.599
-423.12
-421.647
-420.176
-418.697
-417.196
-415.659
-414.078
-412.45
-410.779
-409.066
-407.314
-405.521
-403.689
-401.827
-399.943
-398.046
-396.138
-394.223
-392.313
-390.428
-388.603
-386.861
-385.215
-383.662
-382.192
-380.799
-379.471
-378.192
-376.939
-375.676
-374.373
-373.016
-371.596
-370.103
-368.514
-366.793
-364.894
-362.784
-360.449
-357.887
-355.099
-352.079
-348.83
-345.367
-341.714
-337.907
-333.961
-329.868
-325.62
-321.215
-316.664
-311.997
-307.24
-302.406
-297.502
-292.539
-287.536
-282.528
-277.543
-272.606
-267.739
-262.969
-258.355
-253.975
-249.902
-246.199
-242.915
-240.086
-237.756
-235.979
-234.8
-234.242
-234.307
-234.981
-236.244
-238.063
-240.394
-243.169
-246.284
-249.62
-253.065
-256.508
-259.857
-263.026
-265.916
-268.429
-270.479
-272.004
-272.957
-273.31
-273.044
-272.148
-270.628
-268.521
-265.907
-262.885
-259.562
-256.04
-252.388
-248.677
-244.999
-241.419
-237.979
-234.68
-231.441
-228.232
-225.097
-222.072
-219.205
-216.562
-214.153
-212.059
-210.514
-209.593
-209.23
-209.334
-209.66
-209.908
-209.88
-209.221
-207.351
-203.936
-198.814
-191.869
-183.325
-173.537
-162.803
-151.706
-141.11
-131.632
-123.789
-118.081
-114.587
-113.198
-113.778
-115.837
-118.67
-121.78
-124.676
-126.859
-128.206
-128.763
-128.674
-128.359
-128.239
-128.502
-129.321
-130.784
-132.634
-134.403
-135.418
-134.815
-131.894
-126.155
-117.13
-104.544
-88.503
-69.44
-48.144
-25.605
-2.724
19.611
40.414
58.841
74.37
86.812
96.332
103.292
108.069
111.183
113.347
115.239
117.335
119.915
123.053
126.722
130.877
135.384
139.976
144.442
148.714
152.817
156.866
161.017
165.39
170.142
175.494
181.559
188.33
195.765
203.75
212.203
221.148
230.517
240.132
249.935
259.937
270.148
280.667
291.414
302.058
312.444
322.59
332.363
341.572
349.973
357.169
363.044
367.845
371.596
374.112
375.39
375.511
374.725
373.574
372.36
371.072
369.923
369.379
369.795
371.457
374.424
378.384
383.119
388.564
394.481
400.363
405.627
409.707
412.181
412.884
411.672
408.392
402.965
395.557
386.567
376.437
365.668
354.808
344.42
335.047
327.286
321.551
318.05
316.939
318.119
321.17
325.526
330.565
335.549
339.81
342.734
343.702
342.392
338.82
333.221
325.93
317.328
307.828
297.922
288.174
278.976
270.572
263.054
256.496
251.125
247.149
244.666
243.708
244.344
246.656
250.837
256.986
264.805
273.932
284.049
294.791
305.824
316.7
326.694
335.194
342.033
347.091
350.269
351.533
350.738
348.021
343.993
339.186
333.858
328.38
323.177
318.787
316.034
315.453
317.141
321.298
328.24
337.988
350.314
364.633
379.896
395.158
409.696
422.58
432.756
439.532
442.571
441.972
438.34
432.308
424.431
415.536
406.604
398.289
390.938
384.553
378.768
373.28
367.886
362.199
355.801
348.598
340.805
332.962
325.821
319.977
315.902
314.141
315.146
319.006
325.425
333.72
343.01
352.493
361.391
368.825
373.999
376.437
376.004
372.912
367.591
360.499
352.206
343.458
334.966
327.234
320.574
315.091
310.764
307.502
305.055
302.991
300.87
298.412
295.492
292.065
288.143
283.828
279.336
275.071
271.489
268.802
266.991
265.964
265.499
265.26
264.829
263.503
260.483
255.302
247.713
237.567
224.922
209.883
192.657
173.891
154.369
134.644
115.246
96.669
79.331
63.825
50.668
39.921
31.524
25.452
21.546
19.635
19.424
20.296
21.665
23.216
24.687
25.872
26.645
26.845
26.427
25.551
24.315
22.699
20.637
17.984
14.592
10.361
5.163
-1.167
-8.727
-17.539
-27.558
-38.663
-50.71
-63.549
-77.01
-90.898
-105.012
-119.161
-133.155
-146.81
-159.939
-172.351
-183.883
-194.388
-203.725
-211.806
-218.585
-224.083
-228.405
-231.626
-233.766
-234.871
-234.998
-234.18
-232.485
-229.892
-226.264
-221.654
-216.3
-210.509
-204.711
-199.31
-194.599
-191.001
-189.07
-189.088
-191.11
-194.982
-200.271
-206.627
-213.831
-221.514
-229.215
-236.611
-243.474
-249.775
-255.708
-261.325
-266.556
-271.36
-275.683
-279.463
-282.649
-285.089
-286.564
-286.939
-286.163
-284.248
-281.273
-277.314
-272.443
-266.753
-260.361
-253.401
-246.019
-238.351
-230.532
-222.692
-214.971
-207.526
-200.509
-194.051
-188.252
-183.168
-178.833
-175.273
-172.514
-170.578
-169.466
-169.156
-169.602
-170.755
-172.556
-174.94
-177.82
-181.083
-184.61
-188.285
-192.013
-195.721
-199.331
-202.756
-205.887
-208.61
-210.823
-212.441
-213.385
-213.574
-212.923
-211.353
-208.807
-205.245
-200.637
-194.947
-188.115
-180.111
-170.959
-160.733
-149.577
-137.642
-125.036
-111.866
-98.249
-84.228
-69.789
-54.876
-39.359
-23.185
-6.437
10.696
27.928
44.79
60.699
75.076
87.33
97.015
103.885
107.862
109.046
107.786
104.632
100.119
94.785
89.064
83.237
77.526
72.068
66.86
61.782
56.747
51.708
46.695
41.853
37.347
33.346
30.04
27.643
26.332
26.211
27.32
29.59
32.876
37.048
41.988
47.54
53.579
60.071
67.025
74.555
82.846
91.93
101.758
112.262
123.221
134.297
145.033
154.763
162.859
168.94
172.733
174.101
173.126
169.928
164.846
158.488
151.326
143.701
135.998
128.469
121.353
115.064
109.8
105.59
102.631
101.009
100.686
101.699
103.878
106.8
110.233
113.971
117.748
121.56
125.358
128.944
132.255
135.242
137.727
139.569
140.526
140.121
138.1
134.436
129.196
122.678
115.185
106.931
98.267
89.65
81.376
73.606
66.366
59.476
52.866
46.602
40.706
35.197
30.135
25.6
21.693
18.541
16.18
14.536
13.567
13.284
13.625
14.464
15.728
17.38
19.399
21.828
24.501
27.007
29.054
30.467
31.009
30.462
28.559
24.932
19.529
12.649
4.504
-4.746
-14.915
-25.891
-37.451
-49.205
-60.96
-72.737
-84.498
-96.195
-107.747
-118.966
-129.716
-139.971
-149.637
-158.56
-166.64
-173.769
-179.877
-184.966
-189.045
-192.128
-194.29
-195.636
-196.268
-196.311
-195.895
-195.166
-194.299
-193.454
-192.747
-192.272
-192.104
-192.326
-193.038
-194.32
-196.22
-198.761
-201.946
-205.776
-210.246
-215.322
-220.931
-226.957
-233.264
-239.734
-246.285
-252.853
-259.378
-265.788
-271.997
-277.938
-283.565
-288.842
-293.728
-298.163
-302.09
-305.482
-308.353
-310.76
-312.775
-314.461
-315.868
-317.04
-318.028
-318.894
-319.71
-320.53
-321.4
-322.371
-323.505
-324.894
-326.636
-328.811
-331.476
-334.649
-338.332
-342.523
-347.214
-352.381
-357.987
-363.977
-370.288
-376.866
-383.647
-390.548
-397.471
-404.293
-410.885
-417.136
-422.929
-428.15
-432.728
-436.636
-439.905
-442.588
-444.695
-446.176
-446.989
-447.161
-446.718
-445.631
-443.786
-441.045
-437.436
-433.223
-428.777
-424.356
-420.165
-416.436
-413.511
-411.824
-411.604
-412.738
-414.891
-417.787
-421.24
-425.088
-429.093
-432.89
-436.217
-439.052
-441.565
-443.919
-446.176
-448.339
-450.394
-452.393
-454.377
-456.299
-458.041
-459.496
-460.611
-461.391
-461.891
-462.163
-462.26
-462.252
-462.203
-462.164
-462.168
-462.229
-462.349
-462.526
-462.758
-463.036
-463.348
-463.682
-464.029
-464.359
-464.621
-464.742
-464.623
-464.167
-463.291
-461.915
-459.97
-457.395
-454.141
-450.173
-445.476
-440.035
-433.834
-426.852
-419.053
-410.426
-400.982
-390.753
-379.801
-368.192
-355.99
-343.278
-330.148
-316.683
-302.965
-289.058
-275.008
-260.871
-246.718
-232.636
-218.742
-205.141
-191.922
-179.175
-166.969
-155.371
-144.447
-134.233
-124.744
-115.998
-108.011
-100.815
-94.462
-88.98
-84.375
-80.631
-77.691
-75.49
-73.961
-73.014
-72.557
-72.491
-72.707
-73.121
-73.675
-74.291
-74.885
-75.354
-75.564
-75.397
-74.751
-73.531
-71.676
-69.146
-65.907
-61.959
-57.327
-52.036
-46.124
-39.614
-32.509
-24.84
-16.658
-8.033
0.932
10.127
19.45
28.78
38.01
47.057
55.846
64.334
72.501
80.323
87.778
94.84
101.464
107.631
113.339
118.595
123.436
127.906
132.06
135.972
139.722
143.37
146.96
150.521
154.058
157.586
161.123
164.682
168.289
171.96
175.701
179.515
183.4
187.338
191.305
195.263
199.163
202.972
206.669
210.24
213.686
217.005
220.191
223.249
226.176
228.975
231.647
234.195
236.62
238.932
241.143
243.274
245.351
247.394
249.417
251.433
253.452
255.48
257.527
259.596
261.689
263.813
265.97
268.169
270.416
272.715
275.072
277.487
279.962
282.497
285.095
287.755
290.479
293.268
296.123
299.045
302.037
305.099
308.232
311.435
314.708
318.047
321.454
324.925
328.458
332.051
335.702
339.409
343.171
346.984
350.846
354.756
358.711
362.709
366.747
370.823
374.934
379.077
383.25
387.45
391.672
395.916
400.176
404.451
408.737
413.031
417.329
421.628
425.925
430.215
434.494
438.76
443.007
447.232
451.43
455.598
459.731
463.824
467.874
471.875
475.822
479.712
483.538
487.296
490.98
494.586
498.107
501.54
504.88
508.12
511.258
514.288
517.206
520.009
522.693
525.255
527.691
530
532.179
534.227
536.143
537.925
539.574
541.09
542.473
543.725
544.847
545.842
546.711
547.459
548.088
548.603
549.007
549.304
549.501
549.601
549.611
549.537
549.384
549.159
548.868
548.518
548.114
547.664
547.174
546.649
546.096
545.519
544.925
544.319
543.705
543.087
542.47
541.857
541.25
540.652
540.065
539.489
538.925
538.372
537.831
537.3
536.779
536.265
535.755
535.246
534.733
534.212
533.68
533.13
532.555
531.952
531.313
530.637
529.917
529.147
528.321
527.43
526.467
525.431
524.316
523.12
521.837
520.461
518.99
517.42
515.751
513.979
512.096
510.094
507.965
505.708
503.321
500.811
498.174
495.402
492.483
489.404
486.161
482.764
479.221
475.538
471.712
467.73
463.605
459.381
455.078
450.672
446.085
441.218
436.051
430.667
425.165
419.586
413.97
408.387
403.072
398.349
394.372
391.063
388.161
385.388
382.579
379.616
376.163
371.735
366.024
358.97
350.919
342.401
333.718
325.036
316.666
309.026
302.471
297.244
293.105
289.517
286.17
282.906
279.551
275.949
271.876
267.072
261.613
255.826
249.904
243.968
238.067
232.163
226.313
220.649
215.177
209.806
204.469
199.095
193.668
188.229
182.776
177.282
171.727
166.091
160.372
154.585
148.744
142.862
136.949
131.007
125.037
119.042
113.031
107.019
101.023
95.052
89.118
83.233
77.416
71.704
66.117
60.662
55.345
50.14
45.028
39.997
35.026
30.102
25.223
20.358
15.462
10.526
5.543
0.555
-4.342
-9.138
-13.887
-18.642
-23.463
-28.421
-33.577
-39.116
-45.35
-52.411
-60.254
-68.715
-77.49
-86.318
-95.023
-103.288
-110.656
-116.885
-121.941
-126.008
-129.517
-132.8
-136.038
-139.498
-143.513
-148.284
-153.895
-160.252
-167.053
-174.1
-181.325
-188.637
-195.952
-203.216
-210.385
-217.489
-224.63
-231.854
-239.144
-246.472
-253.784
-261.03
-268.168
-275.138
-281.864
-288.287
-294.361
-300.047
-305.319
-310.141
-314.464
-318.263
-321.544
-324.319
-326.622
-328.487
-329.931
-330.987
-331.695
-332.086
-332.207
-332.081
-331.695
-331.062
-330.218
-329.236
-328.275
-327.462
-326.798
-326.256
-325.769
-325.18
-324.363
-323.097
-320.959
-317.579
-312.773
-306.555
-299.213
-291.243
-283.06
-275.129
-268.104
-262.611
-259.152
-257.868
-258.382
-259.971
-261.927
-263.627
-264.433
-263.703
-260.794
-255.423
-247.829
-238.639
-228.607
-218.299
-208.125
-198.498
-189.88
-182.543
-176.468
-171.353
-166.717
-162.247
-157.808
-153.28
-148.537
-143.48
-138.066
-132.379
-126.61
-120.874
-115.201
-109.595
-104.034
-98.523
-93.088
-87.731
-82.431
-77.176
-71.966
-66.816
-61.755
-56.804
-51.969
-47.258
-42.673
-38.217
-33.9
-29.729
-25.71
-21.844
-18.132
-14.573
-11.166
-7.911
-4.806
-1.849
0.965
3.639
6.176
8.579
10.847
12.983
14.991
16.876
18.642
20.293
21.835
23.272
24.608
25.851
27.004
28.074
29.066
29.986
30.839
31.631
32.369
33.057
33.702
34.307
34.878
35.418
35.931
36.422
36.892
37.346
37.784
38.21
38.624
39.028
39.423
39.81
40.188
40.557
40.917
41.267
41.607
41.934
42.247
42.544
42.823
43.081
43.315
43.522
43.699
43.841
43.947
44.01
44.028
43.996
43.91
43.768
43.564
43.297
42.963
42.557
42.076
41.517
40.875
40.148
39.33
38.417
37.403
36.285
35.061
33.728
32.281
30.712
29.015
27.183
25.213
23.101
20.842
18.433
15.869
13.149
10.275
7.249
4.074
0.75
-2.727
-6.358
-10.138
-14.056
-18.09
-22.231
-26.478
-30.836
-35.315
-39.916
-44.623
-49.434
-54.373
-59.44
-64.628
-69.892
-75.119
-80.26
-85.348
-90.424
-95.558
-100.854
-106.375
-112.275
-118.87
-126.316
-134.64
-143.823
-153.626
-163.753
-173.989
-183.956
-193.114
-201.152
-207.828
-212.962
-216.802
-219.695
-221.956
-224.151
-226.863
-230.443
-235.282
-241.733
-249.706
-258.999
-269.313
-280.077
-290.849
-301.385
-311.36
-320.476
-328.673
-335.954
-342.465
-348.552
-354.412
-360.12
-365.777
-371.459
-377.202
-383.044
-388.949
-394.796
-400.524
-406.116
-411.555
-416.845
-421.988
-426.981
-431.844
-436.623
-441.364
-446.109
-450.918
-455.838
-460.895
-466.101
-471.445
-476.89
-482.413
-487.998
-493.626
-499.291
-504.974
-510.643
-516.271
-521.823
-527.236
-532.438
-537.326
-541.781
-545.724
-549.096
-551.856
-553.987
-555.466
-556.263
-556.36
-555.731
-554.346
-552.195
-549.268
-545.569
-541.136
-536.026
-530.317
-524.108
-517.479
-510.506
-503.27
-495.842
-488.299
-480.731
-473.226
-465.884
-458.827
-452.161
-445.971
-440.333
-435.285
-430.853
-427.061
-423.919
-421.431
-419.596
-418.387
-417.757
-417.65
-417.978
-418.646
-419.55
-420.552
-421.508
-422.33
-422.958
-423.397
-423.713
-423.893
-423.839
-423.46
-422.656
-421.324
-419.388
-416.665
-412.854
-407.863
-401.813
-394.947
-387.639
-380.201
-372.827
-365.858
-359.781
-354.867
-351.177
-348.545
-346.547
-344.868
-343.35
-341.727
-339.653
-336.903
-333.352
-329.077
-324.392
-319.502
-314.489
-309.459
-304.509
-299.713
-295.131
-290.722
-286.338
-281.884
-277.322
-272.625
-267.805
-262.861
-257.784
-252.595
-247.338
-242.056
-236.787
-231.563
-226.392
-221.282
-216.246
-211.291
-206.433
-201.678
-197.035
-192.519
-188.154
-183.974
-180.008
-176.278
-172.787
-169.53
-166.486
-163.627
-160.93
-158.374
-155.936
-153.61
-151.39
-149.285
-147.315
-145.488
-143.799
-142.229
-140.75
-139.331
-137.948
-136.569
-135.165
-133.72
-132.217
-130.648
-129.01
-127.276
-125.414
-123.376
-121.091
-118.494
-115.532
-112.147
-108.309
-104.007
-99.242
-94.047
-88.472
-82.554
-76.34
-69.861
-63.139
-56.222
-49.158
-42.003
-34.842
-27.762
-20.85
-14.214
-7.933
-2.054
3.393
8.421
13.068
17.363
21.353
25.083
28.588
31.916
35.121
38.252
41.382
44.597
47.986
51.659
55.709
60.193
65.155
70.612
76.563
83.007
89.928
97.294
105.074
113.23
121.712
130.472
139.436
148.506
157.585
166.559
175.325
183.799
191.899
199.544
206.656
213.156
218.969
224.037
228.3
231.703
234.198
235.757
236.379
236.086
234.906
232.864
229.982
226.281
221.786
216.536
210.575
203.946
196.703
188.9
180.6
171.875
162.79
153.388
143.685
133.686
123.399
112.847
102.06
91.065
79.888
68.557
57.1
45.561
33.974
22.357
10.719
-0.941
-12.62
-24.29
-35.902
-47.41
-58.776
-69.975
-80.988
-91.795
-102.377
-112.731
-122.867
-132.814
-142.591
-152.203
-161.642
-170.899
-179.967
-188.855
-197.585
-206.166
-214.604
-222.898
-231.047
-239.051
-246.908
-254.601
-262.099
-269.361
-276.354
-283.059
-289.462
-295.552
-301.315
-306.737
-311.799
-316.495
-320.82
-324.769
-328.336
-331.516
-334.307
-336.715
-338.753
-340.438
-341.783
-342.796
-343.484
-343.854
-343.913
-343.67
-343.13
-342.294
-341.168
-339.757
-338.069
-336.112
-333.894
-331.42
-328.697
-325.73
-322.526
-319.094
-315.441
-311.576
-307.507
-303.245
-298.8
-294.182
-289.402
-284.469
-279.392
-274.179
-268.839
-263.379
-257.806
-252.128
-246.35
-240.478
-234.519
-228.477
-222.358
-216.165
-209.903
-203.575
-197.184
-190.733
-184.223
-177.656
-171.034
-164.357
-157.625
-150.84
-144.001
-137.107
-130.159
-123.155
-116.095
-108.978
-101.802
-94.567
-87.269
-79.91
-72.487
-64.999
-57.446
-49.826
-42.141
-34.389
-26.57
-18.686
-10.737
-2.724
5.353
13.491
21.689
29.944
38.255
46.619
55.033
63.493
71.997
80.542
89.123
97.738
106.384
115.056
123.752
132.468
141.201
149.947
158.703
167.464
176.228
184.99
193.747
202.496
211.233
219.956
228.661
237.347
246.009
254.648
263.259
271.841
280.393
288.912
297.397
305.847
314.261
322.637
330.976
339.276
347.537
355.758
363.938
372.077
380.173
388.226
396.234
404.195
412.109
419.975
427.792
435.56
443.279
450.95
458.571
466.143
473.666
481.138
488.56
495.929
503.244
510.502
517.703
524.845
531.927
538.949
545.911
552.812
559.652
566.43
573.147
579.8
586.387
592.905
599.351
605.726
612.03
618.263
624.422
630.505
636.505
642.416
648.231
653.941
659.526
664.971
670.258
675.376
680.322
685.092
689.682
694.089
698.306
702.336
706.188
709.871
713.39
716.749
719.95
723.006
725.948
728.801
731.589
734.322
736.992
739.593
742.118
744.555
746.883
749.062
751.033
752.745
754.164
755.258
756.002
756.36
756.269
755.677
754.539
752.829
750.54
747.663
744.186
740.109
735.457
730.285
724.68
718.713
712.431
705.878
699.087
692.104
684.998
677.826
670.633
663.452
656.307
649.228
642.261
635.433
628.747
622.174
615.657
609.154
602.646
596.121
589.572
582.984
576.335
569.611
562.815
555.951
549.022
542.019
534.924
527.723
520.423
513.051
505.651
498.255
490.884
483.553
476.276
469.071
461.955
454.934
448.004
441.163
434.411
427.759
421.222
414.816
408.544
402.402
396.378
390.466
384.663
378.964
373.365
367.857
362.434
357.1
351.862
346.728
341.702
336.78
331.957
327.227
322.588
318.041
313.591
309.235
304.97
300.801
296.73
292.763
288.908
285.155
281.491
277.91
274.399
270.959
267.588
264.282
261.037
257.847
254.703
251.606
248.555
245.54
242.554
239.585
236.619
233.665
230.733
227.827
224.955
222.115
219.307
216.537
213.809
211.125
208.49
205.902
203.359
200.871
198.444
196.086
193.808
191.604
189.465
187.391
185.378
183.424
181.533
179.698
177.916
176.19
174.518
172.905
171.351
169.854
168.411
167.018
165.672
164.376
163.133
161.944
160.811
159.734
158.712
157.745
156.836
155.982
155.18
154.428
153.721
153.06
152.444
151.874
151.348
150.864
150.421
150.017
149.65
149.318
149.019
148.752
148.51
148.293
148.102
147.937
147.797
147.682
147.582
147.493
147.411
147.332
147.249
147.157
147.045
146.911
146.757
146.584
146.397
146.194
145.967
145.71
145.417
145.088
144.727
144.338
143.916
143.463
142.984
142.485
141.98
141.466
140.926
140.343
139.701
138.993
138.22
137.381
136.472
135.486
134.413
133.248
131.993
130.641
129.181
127.598
125.871
124.001
122.01
119.918
117.74
115.49
113.167
110.778
108.338
105.855
103.338
100.792
98.217
95.622
93.025
90.444
87.9
85.4
82.93
80.482
78.05
75.629
73.22
70.821
68.423
66.025
63.627
61.229
58.833
56.434
54.023
51.588
49.118
46.607
44.057
41.47
38.845
36.182
33.478
30.73
27.934
25.083
22.167
19.188
16.142
13.035
9.864
6.614
3.278
-0.148
-3.67
-7.284
-11.003
-14.87
-18.878
-22.982
-27.14
-31.29
-35.439
-39.695
-44.101
-48.624
-53.323
-58.308
-63.702
-69.711
-76.336
-83.335
-90.576
-98.025
-105.564
-113.082
-120.401
-127.212
-133.485
-139.508
-145.452
-151.418
-157.522
-163.803
-170.384
-177.526
-185.257
-193.367
-201.717
-210.189
-218.7
-227.268
-235.844
-244.291
-252.584
-260.79
-268.953
-277.128
-285.335
-293.53
-301.702
-309.865
-318.009
-326.115
-334.168
-342.138
-350.014
-357.796
-365.476
-373.05
-380.517
-387.868
-395.101
-402.208
-409.176
-415.995
-422.651
-429.139
-435.46
-441.607
-447.574
-453.356
-458.953
-464.366
-469.605
-474.662
-479.514
-484.146
-488.537
-492.679
-496.572
-500.211
-503.59
-506.7
-509.529
-512.07
-514.326
-516.288
-517.946
-519.285
-520.288
-520.956
-521.317
-521.391
-521.199
-520.756
-520.066
-519.139
-517.995
-516.647
-515.11
-513.397
-511.513
-509.476
-507.315
-505.056
-502.729
-500.349
-497.907
-495.406
-492.85
-490.247
-487.615
-484.969
-482.318
-479.682
-477.086
-474.551
-472.099
-469.738
-467.466
-465.281
-463.178
-461.164
-459.254
-457.464
-455.802
-454.274
-452.883
-451.626
-450.5
-449.489
-448.574
-447.738
-446.974
-446.288
-445.7
-445.233
-444.915
-444.77
-444.809
-445.045
-445.488
-446.148
-447.035
-448.166
-449.558
-451.237
-453.235
-455.575
-458.269
-461.312
-464.686
-468.357
-472.283
-476.429
-480.764
-485.262
-489.902
-494.661
-499.521
-504.458
-509.448
-514.461
-519.455
-524.396
-529.256
-534.019
-538.683
-543.258
-547.761
-552.201
-556.582
-560.903
-565.155
-569.331
-573.419
-577.403
-581.268
-585.008
-588.63
-592.145
-595.559
-598.868
-602.059
-605.107
-607.992
-610.702
-613.227
-615.558
-617.696
-619.636
-621.387
-622.966
-624.382
-625.631
-626.694
-627.535
-628.128
-628.46
-628.522
-628.312
-627.826
-627.049
-625.974
-624.596
-622.905
-620.893
-618.54
-615.813
-612.697
-609.197
-605.331
-601.143
-596.663
-591.914
-586.916
-581.688
-576.252
-570.633
-564.852
-558.92
-552.857
-546.684
-540.434
-534.153
-527.87
-521.599
-515.346
-509.099
-502.852
-496.613
-490.38
-484.157
-477.945
-471.746
-465.567
-459.425
-453.328
-447.279
-441.277
-435.312
-429.379
-423.484
-417.63
-411.83
-406.089
-400.41
-394.797
-389.254
-383.781
-378.376
-373.033
-367.74
-362.487
-357.266
-352.07
-346.892
-341.724
-336.554
-331.373
-326.168
-320.927
-315.638
-310.289
-304.867
-299.359
-293.753
-288.04
-282.211
-276.257
-270.169
-263.939
-257.56
-251.025
-244.328
-237.463
-230.425
-223.211
-215.818
-208.244
-200.49
-192.555
-184.443
-176.156
-167.698
-159.076
-150.294
-141.361
-132.285
-123.076
-113.744
-104.299
-94.756
-85.125
-75.422
-65.66
-55.854
-46.021
-36.174
-26.332
-16.509
-6.723
3.009
12.672
22.248
31.72
41.073
50.29
59.355
68.252
76.968
85.487
93.795
101.881
109.732
117.336
124.684
131.766
138.573
145.099
151.337
157.283
162.93
168.278
173.323
178.065
182.505
186.642
190.48
194.022
197.272
200.236
202.918
205.327
207.471
209.358
210.997
212.4
213.576
214.538
215.298
215.867
216.26
216.489
216.569
216.512
216.333
216.046
215.664
215.202
214.672
214.088
213.462
212.808
212.136
211.46
210.789
210.134
209.506
208.912
208.363
207.866
207.428
207.056
206.756
206.533
206.391
206.334
206.364
206.483
206.692
206.992
207.382
207.86
208.425
209.075
209.804
210.611
211.489
212.435
213.444
214.508
215.623
216.783
217.98
219.209
220.463
221.735
223.019
224.308
225.595
226.873
228.137
229.38
230.595
231.776
232.918
234.015
235.062
236.053
236.984
237.851
238.65
239.378
240.031
240.609
241.109
241.53
241.871
242.132
242.313
242.414
242.436
242.381
242.248
242.041
241.762
241.412
240.995
240.513
239.97
239.369
238.714
238.009
237.256
236.462
235.629
234.764
233.871
232.955
232.023
231.08
230.132
229.185
228.246
227.319
226.411
225.527
224.673
223.855
223.079
222.35
221.675
221.06
220.511
220.035
219.637
219.323
219.099
218.968
218.936
219.008
219.187
219.477
219.882
220.406
221.054
221.829
222.736
223.777
224.956
226.275
227.736
229.339
231.081
232.962
234.979
237.132
239.423
241.849
244.407
247.091
249.896
252.815
255.838
258.95
262.132
265.363
268.629
271.921
275.232
278.556
281.885
285.214
288.534
291.846
295.148
298.437
301.705
304.949
308.175
311.399
314.651
317.957
321.334
324.794
328.337
331.965
335.673
339.445
343.256
347.073
350.864
354.614
358.31
361.928
365.435
368.779
371.891
374.708
377.174
379.233
380.837
381.945
382.538
382.618
382.211
381.356
380.083
378.408
376.35
373.944
371.247
368.332
365.29
362.21
359.189
356.336
353.769
351.593
349.894
348.727
348.124
348.108
348.714
349.987
351.959
354.638
358.004
362.022
366.645
371.82
377.48
383.526
389.839
396.292
402.769
409.172
415.411
421.397
427.023
432.162
436.694
440.522
443.579
445.819
447.212
447.716
447.276
445.89
443.623
440.594
436.942
432.741
427.993
422.701
416.96
410.884
404.511
397.762
390.482
382.648
374.468
366.272
358.304
350.743
343.786
337.731
332.957
329.653
327.682
326.681
326.315
326.326
326.471
326.446
325.884
324.546
322.441
319.777
316.705
313.25
309.427
305.282
300.916
296.445
291.828
286.851
281.412
275.573
269.365
262.813
255.88
248.412
240.456
232.316
224.179
216.133
208.327
200.898
194.057
188.162
183.283
179.176
175.675
172.652
169.937
167.423
164.914
162.097
158.903
155.51
152.036
148.575
145.189
141.845
138.566
135.456
132.503
129.593
126.643
123.59
120.418
117.191
113.95
110.691
107.428
104.18
100.958
97.781
94.648
91.536
88.43
85.322
82.215
79.126
76.065
73.033
70.021
67.017
64.002
60.967
57.906
54.812
51.686
48.53
45.353
42.173
39.006
35.864
32.754
29.671
26.61
23.567
20.541
17.536
14.555
11.597
8.657
5.732
2.811
-0.117
-3.064
-6.059
-9.121
-12.268
-15.522
-18.875
-22.308
-25.792
-29.284
-32.759
-36.214
-39.621
-42.934
-46.126
-49.171
-52.104
-55.028
-57.958
-60.831
-63.569
-66.059
-68.211
-69.982
-71.179
-71.459
-70.622
-68.609
-65.569
-61.895
-57.945
-53.998
-50.52
-48.125
-47.317
-48.491
-51.617
-56.202
-61.741
-67.749
-73.665
-78.93
-82.995
-85.32
-85.803
-84.801
-82.761
-80.217
-77.623
-75.262
-73.472
-72.636
-72.89
-74.138
-76.169
-78.638
-81.34
-84.246
-87.283
-90.361
-93.438
-96.487
-99.556
-102.767
-106.159
-109.713
-113.41
-117.228
-121.159
-125.205
-129.331
-133.471
-137.552
-141.515
-145.304
-148.847
-152.099
-155.054
-157.742
-160.29
-162.828
-165.382
-167.963
-170.568
-173.085
-175.423
-177.448
-178.862
-179.469
-179.31
-178.511
-177.362
-176.34
-175.81
-176.155
-177.908
-181.403
-186.704
-193.731
-202.13
-211.33
-220.9
-230.435
-239.427
-247.547
-254.639
-260.635
-265.692
-270.093
-273.98
-277.445
-280.64
-283.626
-286.434
-289.093
-291.524
-293.63
-295.426
-296.958
-298.27
-299.427
-300.46
-301.383
-302.257
-303.144
-304.095
-305.154
-306.335
-307.64
-309.09
-310.699
-312.471
-314.383
-316.371
-318.364
-320.31
-322.173
-323.936
-325.584
-327.093
-328.443
-329.621
-330.615
-331.42
-332.024
-332.401
-332.528
-332.388
-331.98
-331.331
-330.471
-329.42
-328.19
-326.789
-325.221
-323.498
-321.626
-319.601
-317.418
-315.073
-312.569
-309.918
-307.132
-304.223
-301.196
-298.047
-294.773
-291.376
-287.857
-284.219
-280.466
-276.596
-272.616
-268.537
-264.369
-260.124
-255.81
-251.432
-246.997
-242.512
-237.982
-233.416
-228.822
-224.204
-219.571
-214.929
-210.285
-205.648
-201.022
-196.411
-191.82
-187.251
-182.707
-178.191
-173.704
-169.249
-164.824
-160.431
-156.071
-151.743
-147.445
-143.178
-138.939
-134.727
-130.538
-126.372
-122.224
-118.094
-113.976
-109.87
-105.772
-101.679
-97.59
-93.5
-89.409
-85.313
-81.21
-77.098
-72.976
-68.841
-64.694
-60.533
-56.358
-52.169
-47.968
-43.755
-39.532
-35.302
-31.067
-26.83
-22.595
-18.365
-14.143
-9.936
-5.746
-1.578
2.563
6.673
10.748
14.783
18.775
22.72
26.612
30.451
34.231
37.951
41.606
45.195
48.714
52.162
55.537
58.837
62.061
65.208
68.279
71.275
74.198
77.05
79.833
82.549
85.201
87.793
90.33
92.813
95.245
97.628
99.968
102.27
104.541
106.784
108.998
111.181
113.332
115.45
117.536
119.586
121.596
123.564
125.493
127.39
129.265
131.12
132.952
134.754
136.517
138.238
139.921
141.572
143.192
144.783
146.349
147.898
149.441
150.977
152.489
153.953
155.339
156.631
157.821
158.912
159.908
160.817
161.633
162.348
162.957
163.445
163.793
163.977
163.962
163.732
163.291
162.659
161.868
160.942
159.888
158.702
157.363
155.836
154.102
152.148
149.965
147.579
144.995
142.235
139.385
136.508
133.659
130.896
128.182
125.469
122.808
120.236
117.734
115.357
113.077
110.82
108.705
106.785
105.027
103.493
102.265
101.378
101.014
101.38
102.5
104.527
107.539
111.37
115.782
120.428
124.854
128.689
131.628
133.236
133.272
131.778
128.964
125.291
121.211
117.009
112.967
109.437
106.643
104.691
103.503
102.765
102.259
101.901
101.688
101.706
101.992
102.512
103.369
104.785
106.924
109.947
113.791
118.116
122.715
127.505
132.309
136.924
141.086
144.399
146.743
148.337
149.286
149.615
149.387
148.604
147.38
145.999
144.535
142.832
140.8
138.37
135.511
132.299
128.756
124.81
120.495
115.934
111.229
106.5
101.825
97.211
92.678
88.26
83.956
79.757
75.654
71.62
67.64
63.709
59.807
55.926
52.062
48.207
44.361
40.519
36.677
32.836
29.005
25.193
21.408
17.657
13.943
10.266
6.635
3.056
-0.456
-3.886
-7.223
-10.454
-13.569
-16.557
-19.405
-22.097
-24.627
-26.987
-29.165
-31.149
-32.914
-34.423
-35.645
-36.551
-37.12
-37.346
-37.229
-36.774
-36.004
-34.949
-33.651
-32.169
-30.55
-28.835
-27.077
-25.32
-23.625
-22.074
-20.74
-19.693
-19.008
-18.735
-18.92
-19.6
-20.772
-22.413
-24.48
-26.896
-29.596
-32.517
-35.579
-38.718
-41.859
-44.912
-47.8
-50.452
-52.777
-54.701
-56.153
-57.062
-57.405
-57.188
-56.439
-55.225
-53.614
-51.676
-49.508
-47.199
-44.835
-42.504
-40.274
-38.205
-36.379
-34.875
-33.773
-33.159
-33.085
-33.568
-34.618
-36.216
-38.338
-40.957
-44.01
-47.419
-51.102
-54.984
-59.017
-63.185
-67.439
-71.699
-75.911
-80.017
-84.039
-88.088
-92.196
-96.316
-100.385
-104.314
-108.025
-111.491
-114.53
-116.782
-118.029
-118.194
-117.4
-116.021
-114.401
-112.809
-111.685
-111.606
-113.027
-116.302
-121.382
-127.76
-134.913
-142.325
-149.416
-155.635
-160.446
-163.31
-164.113
-163.179
-160.936
-157.926
-154.613
-151.298
-148.337
-146.128
-144.831
-144.373
-144.554
-145.012
-145.514
-145.998
-146.36
-146.48
-146.288
-145.746
-144.904
-143.923
-142.877
-141.746
-140.538
-139.242
-137.907
-136.655
-135.514
-134.411
-133.285
-132.069
-130.685
-129.095
-127.138
-124.522
-121.144
-117.083
-112.525
-107.797
-103.178
-98.859
-95.184
-92.649
-91.522
-91.849
-93.451
-95.897
-98.866
-102.179
-105.551
-108.61
-111.107
-112.916
-114.123
-115.049
-115.911
-116.79
-117.775
-118.93
-120.297
-121.929
-123.794
-125.762
-127.76
-129.762
-131.747
-133.758
-135.859
-138.062
-140.361
-142.691
-144.892
-146.867
-148.609
-150.131
-151.455
-152.598
-153.582
-154.593
-156.01
-158.093
-160.892
-164.266
-167.877
-171.41
-174.564
-176.821
-177.442
-175.785
-171.456
-164.423
-155.112
-144.054
-131.909
-119.622
-108.319
-99.143
-93.035
-90.55
-91.703
-96.211
-103.459
-112.473
-122.129
-131.187
-138.542
-143.381
-145.291
-144.216
-140.486
-134.748
-127.777
-120.484
-113.681
-107.971
-103.732
-101.088
-99.898
-99.909
-100.845
-102.306
-103.924
-105.516
-107.009
-108.459
-110.066
-111.878
-113.76
-115.709
-117.757
-119.811
-121.753
-123.377
-124.35
-124.638
-124.506
-124.106
-123.53
-122.9
-122.27
-121.787
-121.731
-122.135
-122.789
-123.555
-124.321
-125.01
-125.65
-126.193
-126.507
-126.57
-126.456
-126.219
-125.923
-125.591
-125.185
-124.7
-124.16
-123.571
-122.934
-122.245
-121.493
-120.679
-119.821
-118.933
-118.023
-117.099
-116.162
-115.212
-114.255
-113.294
-112.333
-111.378
-110.429
-109.489
-108.559
-107.641
-106.737
-105.847
-104.97
-104.107
-103.257
-102.417
-101.589
-100.773
-99.968
-99.173
-98.384
-97.599
-96.816
-96.033
-95.246
-94.453
-93.649
-92.832
-91.999
-91.148
-90.275
-89.379
-88.457
-87.507
-86.527
-85.515
-84.471
-83.392
-82.278
-81.128
-79.941
-78.717
-77.455
-76.155
-74.819
-73.446
-72.037
-70.594
-69.118
-67.612
-66.077
-64.516
-62.931
-61.325
-59.701
-58.063
-56.414
-54.757
-53.096
-51.434
-49.776
-48.124
-46.483
-44.854
-43.242
-41.65
-40.08
-38.537
-37.023
-35.54
-34.093
-32.684
-31.317
-29.994
-28.719
-27.494
-26.323
-25.208
-24.153
-23.161
-22.234
-21.375
-20.586
-19.869
-19.226
-18.66
-18.174
-17.771
-17.451
-17.218
-17.073
-17.018
-17.056
-17.187
-17.41
-17.725
-18.13
-18.628
-19.221
-19.909
-20.69
-21.561
-22.517
-23.553
-24.67
-25.865
-27.133
-28.471
-29.871
-31.332
-32.858
-34.451
-36.113
-37.839
-39.618
-41.443
-43.317
-45.245
-47.245
-49.321
-51.462
-53.655
-55.878
-58.121
-60.398
-62.693
-64.965
-67.192
-69.356
-71.509
-73.781
-76.23
-78.824
-81.496
-84.129
-86.622
-88.927
-90.842
-92.011
-92.189
-91.247
-89.287
-86.675
-83.747
-80.773
-78.183
-76.514
-76.272
-77.921
-81.521
-86.689
-92.946
-99.723
-106.392
-112.345
-116.9
-119.34
-119.313
-116.84
-112.27
-106.291
-99.58
-92.738
-86.412
-81.232
-77.7
-76.199
-76.689
-78.696
-81.718
-85.264
-88.959
-92.57
-95.759
-98.062
-99.254
-99.429
-98.786
-97.579
-95.84
-93.404
-90.311
-86.872
-83.462
-80.31
-77.502
-75.065
-73.199
-72.285
-72.525
-73.813
-75.827
-78.28
-80.996
-83.855
-86.661
-89.084
-90.876
-91.989
-92.544
-92.664
-92.38
-91.663
-90.465
-88.785
-86.611
-83.862
-80.388
-76.051
-70.802
-64.662
-57.732
-50.172
-42.152
-33.847
-25.436
-17.049
-8.71
-0.375
8.089
16.909
26.312
36.484
47.464
59.088
70.974
82.564
93.152
101.916
108.011
110.608
109.214
103.748
94.487
82.128
67.656
52.234
37.219
24.136
14.184
8.175
6.601
9.395
16.129
26.197
38.598
51.956
64.998
76.562
85.638
91.699
94.465
93.745
89.78
83.268
75.022
65.989
57.071
48.877
42.019
37.217
34.92
35.217
38.024
43.095
50.216
59.32
70.094
81.887
94.063
106.103
117.521
127.915
136.789
143.501
147.692
149.361
148.589
145.584
140.674
134.139
126.387
118.028
109.553
101.362
93.901
87.423
82.045
77.964
75.309
74.049
74.135
75.369
77.381
79.94
82.895
86.048
89.215
92.289
95.22
98.108
101.194
104.635
108.513
112.886
117.782
123.175
128.981
135.064
141.23
147.341
153.331
159.144
164.739
170.095
175.199
180.043
184.635
188.935
192.855
196.337
199.341
201.862
203.939
205.582
206.775
207.513
207.794
207.626
207.032
205.997
204.455
202.394
199.869
197.018
194.025
190.985
187.887
184.698
181.443
178.149
174.779
171.169
167.089
162.469
157.483
152.448
147.613
143.139
139.183
135.985
133.842
132.903
132.997
133.714
134.725
135.821
136.864
137.774
138.386
138.531
138.24
137.698
136.943
135.926
134.483
132.232
128.898
124.444
118.875
112.314
105.164
97.865
91.005
85.506
82.167
81.422
83.493
88.244
95.155
103.622
112.791
121.437
128.467
133.055
134.588
132.791
127.671
119.48
108.907
96.969
84.619
72.739
62.114
53.488
47.657
45.107
45.832
49.615
56.229
65.398
76.869
90.131
104.282
118.573
132.539
145.715
157.633
167.862
175.914
181.611
185.216
187.008
187.233
186.279
184.567
182.496
180.544
178.999
177.89
177.225
176.954
176.923
176.973
176.991
176.851
176.515
176.032
175.446
174.841
174.341
174.068
174.114
174.527
175.314
176.46
177.946
179.73
181.751
183.912
186.094
188.217
190.232
192.11
193.844
195.415
196.79
197.967
198.98
199.837
200.521
200.965
201.028
200.619
199.772
198.563
197.085
195.506
194.002
192.828
192.436
193.214
195.266
198.521
202.753
207.539
212.448
216.928
220.076
221.003
219.208
214.497
206.994
197.131
185.422
172.579
159.786
148.348
139.277
133.273
130.669
131.481
135.558
142.456
151.242
160.712
169.711
177.232
182.543
185.13
184.678
181.164
174.949
166.693
157.173
147.189
137.394
128.317
120.332
113.633
108.213
103.884
100.397
97.437
94.704
91.985
89.132
85.999
82.539
78.75
74.502
69.74
64.536
58.928
53.1
47.42
42.138
37.53
34.146
32.472
32.867
35.659
40.782
47.814
56.454
66.325
76.727
86.879
95.872
102.775
107.07
108.614
107.265
102.983
95.987
86.794
76.286
65.471
55.244
46.284
39.101
34.153
31.773
31.932
34.256
38.272
43.27
48.548
53.686
58.214
61.639
63.763
64.539
63.888
62.108
59.622
56.545
53.136
49.78
46.622
43.838
41.787
40.537
39.997
40.337
41.527
43.406
46.052
49.376
52.982
56.567
59.917
62.684
64.713
65.912
65.952
64.728
62.46
59.456
56.021
52.447
48.882
45.464
42.491
40.119
38.284
36.799
35.461
34.152
32.846
31.531
30.133
28.611
27.017
25.471
24.09
22.918
21.94
21.129
20.491
20.045
19.758
19.536
19.273
18.927
18.565
18.294
18.162
18.2
18.482
19.2
20.635
22.975
26.183
30.04
34.333
38.868
43.47
47.847
51.546
54.188
55.658
56.185
56.149
55.943
55.846
56.143
57.253
59.597
63.436
68.682
74.972
81.857
89.022
96.269
103.358
110.015
115.97
121.143
125.698
129.925
134.047
138.146
142.256
146.411
150.687
155.14
159.731
164.324
168.77
173.004
177.023
180.905
184.774
188.663
192.531
196.338
200.036
203.559
206.82
209.57
211.404
212.081
211.567
209.993
207.659
204.841
201.834
199.174
197.555
197.494
199.243
202.726
207.559
213.403
219.807
225.982
231.062
234.298
235.133
233.335
228.925
221.833
212.202
200.613
187.684
174.01
160.21
146.814
134.376
123.704
115.464
109.909
107.315
107.99
112.045
119.441
129.817
142.343
156.126
170.46
184.398
196.792
206.603
212.852
214.907
212.611
205.88
194.693
179.476
160.985
140.119
118.041
95.827
74.404
54.906
38.425
25.652
17.072
12.935
13.045
17.038
24.32
33.783
44.154
54.271
62.894
68.898
71.523
70.207
64.798
55.726
43.673
29.538
14.558
0.01
-12.927
-23.137
-29.865
-32.71
-31.404
-26.082
-17.33
-5.894
7.285
21.132
34.717
47.067
57.12
64.171
67.869
68.072
64.958
58.936
50.536
40.641
30.393
20.804
12.745
6.878
3.637
3.272
5.794
10.842
17.752
25.753
34.07
42.112
49.4
55.557
60.341
63.632
65.559
66.467
66.771
66.795
66.764
66.833
67.211
68.248
70.12
72.758
75.895
79.133
82.161
84.707
86.303
86.285
84.122
79.565
72.757
64.237
54.561
44.353
34.496
25.964
19.643
16.161
15.692
17.952
22.552
28.947
36.371
44.109
51.474
57.905
63.151
67.223
70.234
72.439
74.187
75.678
77.099
78.638
80.406
82.477
84.836
87.301
89.638
91.78
93.726
95.42
96.7
97.279
96.986
95.962
94.573
93.124
91.762
90.641
90.108
90.739
93.042
97.123
102.587
108.865
115.576
122.401
128.835
134.18
137.639
138.668
137.362
134.216
129.668
124.191
118.407
112.986
108.851
106.958
107.726
111.189
117.244
125.543
135.574
146.853
158.543
169.591
179.269
186.946
192.136
194.678
194.494
191.602
186.443
179.658
171.764
163.51
155.662
148.887
144.031
141.742
142.275
145.843
152.632
162.441
174.902
189.399
204.852
220.292
234.91
247.751
257.979
265.093
268.798
269.198
266.876
262.419
256.466
249.854
243.291
237.284
232.198
228.096
224.758
221.984
219.53
217.059
214.361
211.282
207.639
203.421
198.77
193.76
188.418
182.771
176.669
170.038
163.064
155.877
148.512
141.114
133.898
127.107
121.204
116.544
113.073
110.638
109.058
107.964
106.88
105.342
102.728
98.458
92.348
84.414
74.8
63.913
52.298
40.41
28.744
17.794
7.793
-1.182
-9.152
-16.364
-23.167
-29.792
-36.435
-43.29
-50.425
-57.87
-65.64
-73.633
-81.715
-89.826
-97.934
-106.023
-114.117
-122.222
-130.326
-138.448
-146.604
-154.794
-163.018
-171.261
-179.503
-187.737
-195.961
-204.176
-212.383
-220.582
-228.765
-236.928
-245.067
-253.178
-261.26
-269.313
-277.333
-285.319
-293.269
-301.182
-309.056
-316.891
-324.681
-332.422
-340.108
-347.732
-355.294
-362.796
-370.239
-377.627
-384.961
-392.239
-399.467
-406.654
-413.813
-420.953
-428.067
-435.133
-442.125
-449.014
-455.789
-462.441
-468.935
-475.257
-481.418
-487.439
-493.419
-499.447
-505.503
-511.556
-517.565
-523.377
-528.881
-533.968
-538.321
-541.688
-544.017
-545.27
-545.611
-545.472
-545.15
-544.974
-545.579
-547.475
-551.024
-556.579
-564.012
-572.803
-582.596
-592.912
-603.011
-612.266
-619.923
-625.218
-627.974
-628.331
-626.313
-622.075
-615.801
-607.659
-598.247
-588.245
-577.97
-567.699
-557.788
-548.631
-540.879
-535.137
-531.534
-530.064
-530.746
-533.442
-537.94
-543.843
-550.4
-556.911
-562.971
-568.292
-572.702
-576.166
-578.673
-580.367
-581.605
-582.682
-583.752
-584.904
-586.126
-587.369
-588.611
-589.776
-590.731
-591.398
-591.765
-591.86
-591.758
-591.539
-591.25
-590.947
-590.695
-590.544
-590.522
-590.646
-590.916
-591.331
-591.902
-592.632
-593.507
-594.513
-595.613
-596.76
-597.901
-598.971
-599.893
-600.596
-601.001
-601.027
-600.613
-599.696
-598.219
-596.131
-593.377
-589.912
-585.713
-580.766
-575.068
-568.634
-561.495
-553.709
-545.364
-536.552
-527.382
-517.964
-508.395
-498.78
-489.216
-479.798
-470.638
-461.83
-453.454
-445.574
-438.244
-431.519
-425.457
-420.064
-415.271
-410.945
-406.926
-403.103
-399.452
-395.962
-392.554
-389.146
-385.757
-382.551
-379.77
-377.556
-375.782
-374.098
-372.253
-370.074
-367.27
-363.434
-358.031
-350.541
-340.893
-329.527
-316.888
-303.451
-289.854
-276.658
-264.582
-254.495
-246.797
-241.359
-237.888
-235.801
-234.381
-233.184
-231.711
-229.363
-225.903
-221.395
-216.192
-211.061
-206.799
-203.899
-202.65
-203.138
-205.22
-208.412
-211.734
-213.979
-213.816
-210.534
-204.451
-195.281
-182.542
-165.474
-142.65
-115.959
-89.733
-68.507
-57.457
-57.121
-64.005
-74.951
-85.972
-95.769
-105.923
-116.624
-128.053
-139.888
-150.549
-159.491
-166.862
-172.73
-177.605
-182.02
-185.982
-189.402
-192.28
-194.425
-195.73
-196.266
-195.824
-194.104
-191.097
-186.839
-181.233
-174.246
-165.608
-154.83
-141.908
-127.074
-110.458
-92.366
-73.329
-53.963
-35.301
-18.682
-4.907
5.557
12.336
15.377
14.853
11.097
4.92
-2.519
-10.399
-18.156
-25.356
-31.815
-37.412
-42.072
-45.988
-49.544
-52.948
-56.242
-59.346
-62.038
-64.111
-65.401
-65.683
-64.709
-62.329
-58.475
-53.143
-46.396
-38.29
-28.869
-18.205
-6.369
6.59
20.577
35.441
50.991
66.987
83.189
99.429
115.564
131.454
147.083
162.529
177.913
193.447
209.263
225.303
241.393
257.308
272.619
286.8
299.341
309.595
317.075
321.628
323.284
322.193
318.789
313.615
307.19
300.281
293.54
287.286
281.747
277.055
273.133
269.892
267.298
265.039
262.863
260.749
258.667
256.64
254.784
253.111
251.555
250.238
249.234
248.479
247.947
247.545
247.131
246.67
246.184
245.621
244.987
244.379
243.855
243.525
243.532
243.917
244.638
245.631
246.71
247.586
248.041
247.845
246.76
244.821
242.243
239.326
236.755
235.442
236.082
239.532
246.206
255.468
267.357
282.139
300.194
322.864
348.695
373.717
393.812
404.242
404.427
397.832
387.659
377.622
368.887
359.83
350.074
339.318
327.824
317.063
307.54
299.213
292.06
285.535
279.189
273.063
267.1
261.205
255.391
249.469
243.437
237.674
232.437
227.835
224.117
221.536
220.509
221.761
225.592
231.849
240.362
250.745
262.368
274.491
285.934
295.214
301.25
303.35
301.074
294.467
283.904
270.1
254.339
238.143
222.87
209.645
199.214
191.888
187.676
186.191
186.616
187.989
189.328
189.796
188.902
186.402
182.231
176.576
169.788
162.29
154.575
147.03
139.841
133.1
126.814
120.913
115.322
109.932
104.603
99.264
93.9
88.517
83.162
77.874
72.672
67.599
62.69
57.954
53.405
49.045
44.856
40.833
36.971
33.267
29.737
26.375
23.141
20.021
17.023
14.203
11.639
9.34
7.244
5.28
3.415
1.624
-0.16
-2.14
-4.581
-7.639
-11.313
-15.408
-19.724
-24.097
-28.301
-31.977
-34.699
-36.09
-35.948
-34.459
-31.925
-28.663
-25.114
-21.718
-18.917
-17.2
-16.956
-18.182
-20.698
-24.204
-28.209
-32.345
-36.331
-39.806
-42.451
-44.158
-44.938
-44.947
-44.509
-43.826
-43.007
-42.206
-41.561
-41.149
-41
-41.072
-41.268
-41.532
-41.849
-42.139
-42.256
-42.128
-41.782
-41.275
-40.68
-40.057
-39.454
-39.096
-39.423
-40.707
-42.946
-46.008
-49.673
-53.642
-57.527
-60.743
-62.304
-61.804
-59.831
-56.343
-51.037
-43.13
-30.645
-14.58
1.293
13.314
17.04
11.933
1.952
-9.629
-19.214
-25.309
-29.76
-33.423
-36.769
-39.959
-42.009
-42.622
-42.182
-41.042
-39.607
-38.132
-36.631
-35.086
-33.493
-31.792
-29.859
-27.571
-24.931
-22.029
-18.942
-15.739
-12.384
-8.768
-4.896
-0.874
3.188
7.164
10.936
14.414
17.375
19.457
20.504
20.571
19.865
18.756
17.552
16.449
15.787
16.039
17.454
20.062
23.667
27.825
32.213
36.667
40.927
44.658
47.652
49.826
51.298
52.403
53.36
54.25
55.173
56.244
57.562
59.222
61.208
63.371
65.605
67.864
70.13
72.439
74.803
77.182
79.573
82.024
84.637
87.536
90.786
94.332
98.07
101.941
105.898
109.876
113.692
117.098
119.932
122.197
124.09
125.821
127.567
129.551
132.113
135.638
140.447
146.691
154.15
162.493
171.381
180.345
188.883
196.498
202.664
206.98
209.461
210.297
209.768
208.335
206.368
204.185
202.211
200.819
200.131
200.141
200.71
201.562
202.574
203.706
204.855
205.926
206.883
207.727
208.562
209.57
210.831
212.346
214.095
216.045
218.182
220.505
222.968
225.485
227.991
230.447
232.851
235.229
237.591
239.913
242.162
244.299
246.296
248.16
249.895
251.467
252.876
254.138
255.3
256.497
257.845
259.346
260.977
262.688
264.315
265.729
266.786
267.142
266.503
264.77
261.897
258.037
253.613
248.966
244.442
240.678
238.264
237.589
238.996
242.47
247.581
253.964
261.249
268.73
275.64
281.327
285.113
286.635
285.966
283.169
278.296
271.747
264.134
256.055
248.225
241.27
235.494
231.241
228.942
228.681
230.275
233.521
238.052
243.434
249.364
255.371
260.8
265.291
268.685
270.84
271.733
271.389
269.838
267.371
264.497
261.537
258.686
256.125
253.976
252.412
251.572
251.371
251.574
252.039
252.711
253.58
254.671
255.938
257.347
258.969
260.924
263.304
266.138
269.389
272.988
276.89
281.056
285.433
289.945
294.483
298.943
303.223
307.223
310.855
313.999
316.499
318.248
319.18
319.284
318.652
317.366
315.416
312.805
309.516
305.446
300.53
294.626
287.403
278.609
268.193
256.243
243.064
229.134
214.852
200.745
187.601
176.151
166.961
160.32
156.113
153.981
153.529
154.121
154.82
154.587
152.352
147.306
138.985
127.094
111.634
92.953
71.682
48.731
25.184
2.031
-19.697
-38.929
-55.02
-67.605
-76.489
-81.738
-83.459
-81.863
-77.596
-71.518
-64.218
-56.288
-48.351
-41.016
-35.174
-31.584
-30.541
-32.187
-36.685
-43.934
-53.649
-65.312
-77.927
-90.468
-102.033
-111.633
-118.35
-121.557
-120.842
-116.053
-107.48
-95.679
-81.445
-65.846
-49.993
-34.866
-21.348
-10.257
-2.125
2.929
5.044
4.581
1.999
-2.287
-7.804
-13.898
-20.127
-26.432
-32.765
-39.069
-45.237
-50.97
-56.107
-60.743
-64.757
-67.751
-69.469
-69.767
-68.712
-66.689
-63.936
-60.484
-56.51
-52.319
-48.131
-44.113
-40.244
-36.256
-32.002
-27.484
-22.687
-17.603
-12.255
-6.667
-0.962
4.627
9.918
14.803
19.189
23.022
26.264
28.876
30.853
32.228
33.019
33.228
32.876
31.975
30.553
28.672
26.388
23.765
20.896
17.868
14.776
11.735
8.824
6.102
3.622
1.416
-0.473
-1.979
-3.06
-3.689
-3.843
-3.527
-2.744
-1.496
0.174
2.198
4.488
6.934
9.456
12.005
14.54
17.034
19.452
21.731
23.826
25.708
27.34
28.697
29.744
30.432
30.76
30.769
30.526
30.123
29.631
29.088
28.523
27.957
27.404
26.895
26.45
26.072
25.785
25.617
25.607
25.815
26.27
26.958
27.846
28.878
29.993
31.161
32.361
33.577
34.814
36.066
37.328
38.604
39.894
41.194
42.495
43.763
44.953
46.035
47
47.876
48.7
49.444
50.017
50.32
50.284
49.926
49.295
48.343
47.016
45.364
43.572
41.917
40.61
39.608
38.727
37.901
37.039
35.901
34.086
30.983
26.062
19.222
10.602
0.259
-11.595
-24.468
-37.6
-49.818
-59.96
-67.379
-71.643
-72.218
-68.825
-61.615
-51.154
-38.681
-25.716
-13.238
-2.042
6.714
12.588
15.459
14.736
11.167
4.902
-4.533
-14.839
-24.068
-29.722
-28.789
-22.664
-13.437
-3.259
5.132
12.066
17.844
21.678
23.058
20.488
13.183
1.672
-13.421
-31.063
-50.095
-69.359
-87.243
-102.087
-112.747
-118.573
-119.43
-115.698
-107.944
-97.101
-84.7
-72.485
-62.065
-54.718
-51.231
-51.949
-56.955
-65.948
-78.011
-91.808
-105.968
-119.368
-131.19
-140.869
-148.015
-152.389
-154.235
-154.254
-153.132
-151.397
-149.438
-147.472
-145.715
-144.394
-143.375
-142.285
-140.868
-138.894
-136.203
-132.774
-128.473
-123.283
-117.547
-111.603
-105.676
-100.06
-94.985
-90.667
-87.472
-85.485
-84.436
-84.148
-84.506
-85.348
-86.587
-88.048
-89.408
-90.58
-91.722
-92.909
-94.183
-95.558
-96.951
-98.348
-99.841
-101.41
-102.939
-104.342
-105.537
-106.489
-107.241
-107.81
-108.181
-108.363
-108.381
-108.263
-108.058
-107.791
-107.455
-107.053
-106.587
-106.057
-105.477
-104.849
-104.169
-103.436
-102.648
-101.803
-100.901
-99.936
-98.893
-97.76
-96.523
-95.167
-93.691
-92.086
-90.339
-88.438
-86.373
-84.132
-81.708
-79.086
-76.242
-73.164
-69.84
-66.268
-62.455
-58.402
-54.117
-49.626
-44.963
-40.177
-35.328
-30.447
-25.579
-20.791
-16.118
-11.593
-7.219
-2.927
1.289
5.353
9.197
12.737
15.867
18.516
20.506
21.545
21.54
20.575
18.83
16.623
14.228
11.844
9.829
8.677
8.651
9.787
11.912
14.62
17.612
20.717
23.649
26.032
27.626
28.333
28.269
27.769
27.055
26.214
25.34
24.52
23.819
23.293
22.906
22.526
22.072
21.524
20.918
20.355
19.911
19.609
19.419
19.244
19.044
18.856
18.721
18.686
18.809
19.128
19.803
21.133
23.247
26.08
29.417
32.856
36.047
38.77
40.74
41.615
41.212
39.478
36.573
32.893
28.733
24.25
19.552
14.656
9.619
4.593
-0.31
-5.028
-9.422
-13.337
-16.502
-18.489
-19.074
-18.28
-16.299
-13.516
-10.299
-6.896
-3.621
-0.9
0.995
1.96
2.069
1.665
1.061
0.364
-0.374
-1.118
-1.914
-2.832
-3.973
-5.651
-8.266
-11.998
-16.874
-22.768
-29.338
-36.222
-43.124
-49.627
-55.162
-59.341
-61.905
-62.803
-62.406
-61.209
-59.68
-58.308
-57.619
-58.024
-59.901
-63.493
-68.601
-74.836
-81.745
-88.902
-95.996
-102.794
-109.026
-114.463
-119.127
-123.184
-126.894
-130.567
-134.382
-138.334
-142.491
-146.965
-151.631
-156.935
-163.232
-169.752
-176.279
-181.58
-184.189
-185.765
-187.385
-190.671
-197.897
-207.09
-216.534
-225.07
-230.796
-234.96
-238.855
-242.856
-247.777
-253.084
-258.392
-263.388
-267.451
-271.308
-275.302
-280.448
-288.653
-298.692
-308.802
-317.099
-320.11
-318.473
-315.453
-313.268
-315.406
-322.554
-331.411
-340.072
-346.584
-349.659
-351.214
-352.41
-353.6
-355.507
-357.532
-359.173
-360.615
-361.769
-362.665
-363.412
-363.939
-364.218
-364.287
-364.138
-363.69
-362.815
-361.466
-359.686
-357.561
-355.209
-352.721
-350.148
-347.687
-345.712
-344.48
-344.071
-344.373
-345.021
-345.671
-346.141
-346.116
-345.108
-342.702
-338.589
-332.776
-325.746
-318.067
-310.182
-302.584
-295.768
-290.246
-286.589
-285.121
-285.76
-288.148
-291.765
-296.023
-300.442
-304.459
-307.43
-308.802
-308.068
-305.081
-300.165
-293.812
-286.592
-279.253
-272.434
-266.723
-262.95
-261.65
-262.867
-266.45
-271.86
-278.227
-284.973
-291.602
-297.386
-301.828
-304.695
-305.858
-305.671
-304.8
-303.569
-302.229
-301.102
-300.19
-299.452
-298.881
-298.013
-296.786
-295.572
-294.027
-292.148
-289.187
-283.815
-276.915
-269.865
-265.209
-266.454
-274.165
-286.702
-300.255
-309.203
-310.08
-302.892
-291.003
-280.207
-275.026
-276.965
-284.084
-292.393
-299.413
-304.151
-308.097
-313.026
-317.138
-317.512
-308.637
-286.067
-252.164
-212.161
-175.789
-153.638
-148.624
-159.608
-180.768
-202.807
-221.528
-235.852
-246.411
-256.408
-266.624
-275.56
-281.612
-282.608
-277.21
-266.194
-251.409
-234.264
-215.763
-195.178
-170.724
-143.277
-115.975
-93.999
-83.259
-85.517
-99.258
-120.919
-144.517
-165.571
-179.832
-182.769
-173.868
-153.901
-125.754
-93.803
-58.009
-18.287
24.589
67.491
101.046
117.325
112.883
91.031
63.371
41.283
31.908
35.989
47.34
58.775
65.601
66.554
63.857
60.533
58.054
56.467
54.714
51.389
46.065
39.012
30.753
22.108
13.756
6.313
0.676
-2.255
-1.901
1.981
9.121
18.803
30.221
42.421
54.071
63.626
69.811
71.686
69.405
64.283
56.957
47.851
37.036
23.741
10.043
-0.096
-3.094
5.124
24.298
50.137
78.747
105.405
127.726
146.589
162.007
173.823
182.101
185.916
184.654
179.393
170.535
158.405
145.934
135.146
128.554
129.134
135.311
144.945
155.828
165.026
172.717
179.188
183.737
186.196
185.641
181.725
175.521
168.114
160.686
154.623
150.999
150.768
154.856
163.737
177.172
194.635
215.288
237.908
261.463
284.951
307.043
326.449
342.17
353.31
359.428
360.488
356.281
346.852
332.88
315.363
295.542
274.931
254.781
236.194
220.476
208.564
200.778
196.963
196.605
198.899
202.939
208.295
214.433
220.283
225.541
229.151
229.588
227.731
224.804
223.236
226.635
235.378
247.02
256.971
259.978
253.091
237.52
217.823
198.545
183.764
174.94
170.786
170.332
172.156
176.136
183.672
195.816
213.786
235.716
257.054
273.238
279.388
275.053
263.799
248.782
233.855
220.339
206.768
193.085
179.197
165.452
153.46
143.913
136.862
132.271
129.429
127.45
125.909
124.472
122.807
120.724
118.007
114.582
110.713
106.787
103.067
99.744
96.991
94.971
93.818
93.466
93.676
94.228
94.917
95.599
96.122
96.228
95.731
94.621
92.917
90.642
87.922
84.89
81.756
78.934
76.855
76.01
77.059
80.637
87.184
97.05
110.462
127.492
148.082
171.814
197.863
225.295
253.248
280.916
307.491
332.062
353.787
372.226
387.362
399.414
408.658
415.351
419.892
422.958
425.246
427.241
429.144
430.886
432.385
433.65
434.554
434.795
434.059
432.066
428.779
424.455
419.339
413.622
407.604
401.636
396.094
391.424
387.869
385.443
384.075
383.58
383.616
383.764
383.575
382.551
380.273
376.411
370.79
363.452
354.644
344.775
334.222
323.3
312.326
301.608
291.339
281.573
272.198
262.94
253.615
244.168
234.563
224.8
214.919
204.986
195.143
185.621
176.6
168.196
160.484
153.499
147.294
141.941
137.488
133.973
131.405
129.765
129.051
129.268
130.306
132.027
134.415
137.378
140.797
144.734
148.642
151.992
155.316
158.698
163.157
169.928
177.388
184.437
189.502
190.459
189.067
186.81
184.681
184.416
184.817
184.702
183.943
181.918
179.133
176.249
173.253
170.216
167.107
163.741
159.916
155.488
150.428
144.787
138.824
133.023
127.729
123.395
120.756
120.394
122.705
127.929
135.817
145.691
157.018
169.16
181.046
191.685
200.277
205.986
208.864
210.068
209.695
207.386
202.514
192.481
177.161
159.599
143.414
134.924
137.535
148.523
163.012
172.887
172.037
160.816
142.762
124.406
111.277
104.593
103.099
103.645
103.676
102.549
100.546
98.543
96.999
95.701
94.296
92.689
91.15
89.894
89.233
89.007
88.242
87.162
86.656
87.773
93.15
103.039
114.776
125.456
129.435
122.738
106.076
81.289
54.798
35.572
29.899
43.03
74.697
116.584
157.947
187.203
195.796
184.501
158.89
125.581
92.581
62.576
36.121
16.56
4.266
1.592
11.185
29.045
52.049
73.927
85.123
81.831
61.26
26.849
-10.432
-40.654
-53.35
-45.453
-22.181
8.943
36.564
54.976
64.096
65.426
65.305
67.25
71.935
80.304
90.042
99.702
109.402
118.478
127.571
137.278
146.974
156.331
165.137
172.749
179.274
185.689
191.614
196.188
198.428
195.179
185.626
173.122
161.497
156.462
161.387
171.766
181.406
184.599
176.95
161.491
143.237
124.944
109.733
97.835
90.01
89.544
99.173
121.294
153.883
191.498
225.452
244.839
243.59
218.98
176.029
126.808
82.125
53.505
45.327
53.69
73.289
93.356
105.457
107.343
98.037
82.551
67.347
55.119
48.088
45.302
43.705
42.192
39.959
36.909
34.059
31.661
29.609
27.844
26.044
24.062
21.86
19.346
16.546
13.427
9.886
5.959
1.097
-5.217
-12.419
-20.327
-27.821
-33.604
-39.245
-45.756
-54.559
-67.583
-82.913
-99.037
-114.923
-128.62
-141.145
-153.714
-166.622
-180.943
-196.224
-210.916
-224.968
-239.021
-254.519
-274.199
-297.605
-321.217
-341.303
-353.509
-357.75
-358.091
-357.834
-360.606
-367.608
-377.255
-388.981
-401.548
-414.009
-426.88
-441.653
-461.439
-487.854
-520.197
-553.894
-580.109
-593.23
-590.549
-572.925
-548.476
-524.196
-506.049
-500.411
-507.28
-524.814
-551.089
-582.047
-615.398
-650.015
-682.611
-708.101
-723.222
-725.921
-718.184
-708.463
-702.458
-703.563
-712.812
-724.46
-734.974
-743.341
-748.429
-752.914
-758.571
-764.924
-771.717
-777.835
-782.833
-788.356
-797.281
-811.945
-831.662
-852.019
-865.89
-866.5
-852.775
-829.828
-807.614
-797.984
-807.861
-838.631
-884.631
-934.415
-977.272
-1003.722
-1010.633
-1002.143
-984.49
-965.545
-949.721
-936.803
-924.948
-911.11
-894.198
-874.925
-855.203
-838.348
-825.523
-816.484
-809.627
-800.872
-789.982
-780.586
-777.647
-788.174
-813.082
-845.465
-875.983
-894.467
-896.657
-886.893
-872.846
-861.716
-857.049
-857.238
-858.231
-857.216
-853.385
-847.463
-841.358
-836.532
-832.544
-828.425
-822.932
-813.956
-802.433
-791.761
-785.044
-786.74
-797.886
-814.781
-834.144
-852.115
-866.691
-879.57
-891.703
-902.974
-912.519
-918.816
-920.502
-917.022
-909.303
-897.304
-882.713
-869.076
-856.074
-843.649
-828.084
-803.853
-776.769
-742.714
-693.347
-659.2
-667.729
-688.419
-687.937
-674.61
-659.861
-642.972
-628.333
-618.782
-608.806
-588.677
-548.519
-486.948
-412.272
-339.935
-288.281
-267.379
-277.663
-309.899
-347.957
-378.754
-393.088
-389.269
-372.522
-348.818
-325.354
-305.642
-289.102
-274.547
-259.372
-242.818
-226.453
-212.048
-201.634
-196.207
-195.419
-198.322
-203.432
-209.315
-214.688
-218.185
-219.203
-217.263
-211.315
-201.404
-187.074
-167.943
-146.531
-124.563
-104.2
-88.112
-74.636
-62.065
-48.887
-32.493
-13.98
5.171
25.295
45.559
67.123
91.319
115.564
137.953
156.1
167.333
173.69
177.278
179.867
184.221
190.206
197.604
207.116
218.634
232.886
250.436
270.931
293.796
318.049
342.635
366.537
388.981
409.496
427.514
443.142
456.906
468.689
478.971
487.467
493.429
498.605
504.297
512.207
524.241
538.234
552.014
563.728
571.213
575.666
578.411
580.077
582.08
584.752
588.578
594.762
603.886
616.189
631.677
649.686
669.178
689.059
707.979
724.608
738.014
747.657
753.348
755.409
754.643
752.004
748.621
745.58
743.733
743.727
745.921
750.257
756.233
763.228
770.573
777.655
783.876
788.549
791.254
791.971
791.103
789.252
786.994
784.855
783.601
784.322
787.843
794.55
804.278
816.381
830.233
845.049
859.506
872.058
881.211
886.251
887.758
885.898
880.404
870.559
854.863
835.109
815.623
800.764
795.473
799.927
810.081
822.501
833.058
840.375
846.386
851.764
857.205
863.089
868.388
872.869
876.982
881.055
885.621
890.977
896.718
902.074
906.227
908.358
907.703
903.538
895.316
882.917
866.785
847.872
827.435
806.783
787.274
770.402
757.487
749.3
746.039
747.473
752.999
761.685
772.481
784.233
795.627
806.317
816.624
826.156
835.012
842.688
847.903
851.485
854.961
860.5
870.931
886.508
904.464
919.873
927.431
924.005
910.849
892.701
874.474
860.166
850.912
845.441
843.011
843.093
845.958
852.665
863.233
877.107
893.274
910.125
926.475
941.456
954.34
964.692
972.145
976.517
978.119
977.576
975.518
972.606
969.264
965.733
962.357
959.344
956.648
954.097
951.402
948.222
944.43
940.045
935.034
929.439
923.372
916.966
910.481
904.253
898.513
893.408
889.074
885.6
883.053
881.503
880.91
881.133
882.089
883.744
886.079
889.109
892.837
897.221
902.309
908.235
914.961
922.298
929.952
937.511
944.611
950.974
956.214
959.841
961.6
961.463
959.606
956.449
952.333
947.477
942.214
936.976
932.06
927.638
923.702
920.02
916.453
912.997
909.596
906.186
902.728
899.182
895.595
892.114
888.813
885.694
882.745
879.903
877.11
874.331
871.497
868.531
865.375
861.974
858.297
854.336
850.082
845.526
840.672
835.514
830.056
824.311
818.286
811.992
805.444
798.654
791.642
784.435
777.057
769.542
761.927
754.235
746.487
738.697
730.864
722.985
715.05
707.035
698.932
690.736
682.44
674.051
665.557
656.936
648.161
639.188
629.961
620.435
610.555
600.272
589.564
578.42
566.851
554.887
542.547
529.84
516.776
503.367
489.64
475.65
461.456
447.134
432.783
418.508
404.435
390.699
377.405
364.638
352.466
340.933
330.094
320.019
310.762
302.362
294.841
288.183
282.367
277.356
273.08
269.448
266.35
263.646
261.211
258.939
256.712
254.418
251.94
249.136
245.886
242.098
237.666
232.514
226.629
219.988
212.603
204.515
195.694
186.124
175.877
165.008
153.505
141.4
128.676
115.325
101.557
87.584
73.48
59.333
45.259
31.331
17.724
4.637
-8.028
-20.393
-32.468
-44.307
-55.945
-67.371
-78.703
-90.092
-101.462
-112.734
-123.89
-134.853
-145.587
-156.085
-166.257
-176.033
-185.478
-194.656
-203.606
-212.375
-221.009
-229.606
-238.309
-247.258
-256.499
-265.999
-275.804
-286.066
-296.899
-308.371
-320.519
-333.286
-346.794
-361.414
-377.363
-394.716
-413.573
-433.94
-455.929
-479.863
-505.775
-533.377
-562.5
-592.979
-624.706
-657.767
-691.961
-726.766
-761.809
-796.809
-831.472
-865.605
-898.847
-930.625
-960.678
-989.036
-1015.826
-1041.353
-1065.863
-1089.478
-1112.497
-1135.355
-1158.342
-1181.633
-1205.238
-1228.972
-1252.739
-1276.548
-1300.364
-1324.125
-1347.796
-1371.354
-1394.848
-1418.408
-1442.089
-1465.857
-1489.648
-1513.358
-1536.868
-1560.057
-1582.781
-1604.862
-1626.158
-1646.566
-1665.992
-1684.376
-1701.652
-1717.751
-1732.633
