Name,Criss Capps
Date of Birth,"Feb 5, 1952"
Recorded Date,2024-09-10 21:03:36 -0400
Classification,Sinus Rhythm
Symptoms,
Software Version,1.90
Device,"Watch5,4"
Sample Rate,512.844 hertz


Lead,Lead I
Unit,µV

684.3
923.314
1080.087
1137.688
1113.339
1047.453
980.872
938.128
925.186
931.033
939.393
938.945
924.087
898.004
868.29
841.339
822.195
811.575
806.953
805.602
804.797
802.629
798.094
790.237
778.184
761.602
740.663
715.792
687.552
656.608
623.547
588.986
553.592
517.638
481.09
443.833
405.623
366.233
325.51
283.243
239.224
193.437
145.986
97.05
46.892
-4.238
-56.096
-108.399
-160.867
-213.257
-265.362
-316.997
-367.985
-418.134
-467.263
-515.222
-561.917
-607.307
-651.371
-694.121
-735.602
-775.898
-815.138
-853.413
-890.737
-927.054
-962.243
-996.197
-1028.885
-1060.255
-1090.185
-1118.647
-1145.733
-1171.656
-1196.83
-1221.62
-1246.165
-1270.581
-1295.031
-1319.478
-1343.593
-1366.722
-1387.793
-1405.622
-1419.223
-1427.646
-1429.865
-1425.147
-1413.362
-1394.949
-1370.951
-1342.928
-1312.564
-1281.672
-1252.604
-1227.681
-1208.423
-1196.025
-1190.776
-1191.653
-1198.234
-1210.035
-1226.217
-1246.841
-1269.473
-1289.36
-1301.72
-1301.113
-1286.218
-1260.127
-1226.209
-1188.598
-1148.803
-1105.502
-1058.653
-1008.63
-956.592
-904.569
-853.276
-802.614
-752.475
-702.47
-652.288
-601.762
-550.57
-498.577
-445.983
-393.132
-340.468
-288.43
-237.403
-187.759
-139.879
-94.034
-50.375
-8.989
30.121
66.995
101.694
134.32
164.998
193.826
220.898
246.329
270.249
292.807
314.152
334.415
353.718
372.188
389.954
407.142
423.858
440.164
456.089
471.646
486.831
501.642
516.07
530.086
543.651
556.729
569.278
581.265
592.667
603.444
613.558
622.972
631.643
639.553
646.706
653.114
658.808
663.821
668.191
671.963
675.189
677.915
680.192
682.068
683.576
684.763
685.672
686.343
686.838
687.207
687.483
687.702
687.887
688.056
688.231
688.428
688.655
688.924
689.244
689.626
690.088
690.645
691.305
692.084
692.981
693.996
695.138
696.408
697.801
699.313
700.934
702.646
704.439
706.29
708.17
710.053
711.911
713.72
715.46
717.104
718.627
720.007
721.217
722.239
723.066
723.69
724.109
724.334
724.372
724.244
723.979
723.59
723.076
722.436
721.65
720.705
719.583
718.245
716.649
714.744
712.465
709.75
706.528
702.706
698.195
692.906
686.741
679.633
671.525
662.362
652.101
640.705
628.154
614.464
599.672
583.819
566.96
549.157
530.488
511.055
490.957
470.285
449.124
427.547
405.638
383.496
361.229
338.947
316.741
294.67
272.782
251.118
229.719
208.622
187.841
167.384
147.266
127.52
108.201
89.362
71.025
53.192
35.837
18.925
2.437
-13.632
-29.284
-44.518
-59.333
-73.728
-87.681
-101.174
-114.2
-126.774
-138.935
-150.718
-162.13
-173.165
-183.799
-193.992
-203.722
-212.973
-221.723
-229.962
-237.683
-244.883
-251.577
-257.783
-263.505
-268.745
-273.489
-277.725
-281.459
-284.701
-287.472
-289.799
-291.705
-293.211
-294.344
-295.126
-295.574
-295.7
-295.512
-295.013
-294.209
-293.113
-291.734
-290.088
-288.184
-286.031
-283.636
-281.007
-278.15
-275.07
-271.773
-268.264
-264.549
-260.638
-256.54
-252.265
-247.824
-243.226
-238.48
-233.596
-228.58
-223.44
-218.185
-212.819
-207.349
-201.784
-196.128
-190.39
-184.575
-178.69
-172.742
-166.735
-160.675
-154.567
-148.416
-142.226
-136.001
-129.746
-123.464
-117.157
-110.829
-104.481
-98.116
-91.734
-85.337
-78.925
-72.498
-66.057
-59.6
-53.127
-46.636
-40.128
-33.601
-27.054
-20.487
-13.898
-7.285
-0.648
6.014
12.704
19.421
26.168
32.945
39.752
46.588
53.451
60.342
67.26
74.203
81.169
88.159
95.171
102.208
109.27
116.356
123.466
130.598
137.751
144.926
152.122
159.339
166.574
173.83
181.108
188.414
195.75
203.117
210.512
217.929
225.366
232.824
240.307
247.818
255.364
262.954
270.603
278.34
286.186
294.158
302.274
310.541
318.977
327.603
336.437
345.498
354.801
364.35
374.141
384.171
394.418
404.853
415.441
426.12
436.827
447.505
458.082
468.501
478.715
488.652
498.235
507.428
516.231
524.707
533.013
541.298
549.702
558.41
567.621
577.487
588.071
599.239
610.659
621.974
632.882
643.122
652.464
660.781
668.167
675.101
682.442
691.242
702.574
717.379
736.534
760.852
790.886
826.524
867.058
910.82
955.21
998.424
1038.843
1075.284
1107.986
1134.747
1152.018
1156.895
1144.96
1116.366
1075.27
1025.494
974.341
926.427
883.292
847.901
819.592
798.022
783.91
775.81
773.985
778.384
787.538
800.348
814.67
828.352
840.487
850.671
858.983
865.832
871.568
876.645
881.715
887.399
893.923
901.184
908.954
916.921
924.825
932.446
939.471
945.579
950.608
954.534
957.409
959.335
960.387
960.643
960.233
959.336
958.153
956.857
955.554
954.307
953.158
952.147
951.316
950.687
950.258
950.02
949.976
950.151
950.57
951.228
952.097
953.113
954.192
955.264
956.281
957.203
958.007
958.676
959.2
959.586
959.852
960.015
960.077
960.03
959.86
959.568
959.166
958.677
958.131
957.552
956.961
956.379
955.822
955.303
954.827
954.392
953.99
953.618
953.273
952.96
952.682
952.441
952.234
952.061
951.916
951.795
951.694
951.605
951.52
951.433
951.338
951.232
951.112
950.974
950.815
950.63
950.414
950.164
949.873
949.537
949.149
948.706
948.203
947.637
947.004
946.301
945.527
944.679
943.756
942.759
941.686
940.538
939.316
938.021
936.655
935.22
933.719
932.154
930.53
928.851
927.121
925.345
923.528
921.676
919.793
917.885
915.958
914.016
912.064
910.108
908.152
906.201
904.26
902.332
900.422
898.533
896.667
894.826
893.012
891.225
889.465
887.73
886.019
884.329
882.657
880.998
879.346
877.695
876.039
874.369
872.675
870.948
869.177
867.351
865.456
863.479
861.406
859.222
856.911
854.457
851.844
849.054
846.069
842.871
839.443
835.764
831.817
827.582
823.041
818.176
812.968
807.399
801.452
795.111
788.361
781.185
773.571
765.506
756.977
747.974
738.488
728.511
718.037
707.06
695.577
683.586
671.087
658.082
644.574
630.568
616.071
601.091
585.639
569.727
553.369
536.581
519.38
501.785
483.818
465.499
446.854
427.908
408.686
389.216
369.526
349.647
329.608
309.439
289.174
268.842
248.477
228.111
207.777
187.507
167.333
147.289
127.405
107.714
88.246
69.031
50.099
31.478
13.197
-4.719
-22.243
-39.352
-56.022
-72.233
-87.965
-103.199
-117.919
-132.109
-145.756
-158.848
-171.376
-183.33
-194.704
-205.493
-215.693
-225.303
-234.322
-242.752
-250.595
-257.857
-264.543
-270.661
-276.219
-281.227
-285.698
-289.642
-293.076
-296.014
-298.472
-300.468
-302.022
-303.151
-303.878
-304.222
-304.207
-303.853
-303.184
-302.223
-300.994
-299.52
-297.825
-295.935
-293.872
-291.661
-289.327
-286.894
-284.385
-281.824
-279.232
-276.633
-274.049
-271.5
-269.009
-266.594
-264.277
-262.079
-260.018
-258.112
-256.379
-254.832
-253.489
-252.359
-251.455
-250.783
-250.351
-250.163
-250.227
-250.546
-251.123
-251.959
-253.051
-254.4
-256.001
-257.849
-259.934
-262.245
-264.769
-267.496
-270.42
-273.536
-276.835
-280.303
-283.925
-287.684
-291.561
-295.532
-299.567
-303.627
-307.675
-311.68
-315.614
-319.455
-323.176
-326.745
-330.131
-333.302
-336.23
-338.895
-341.289
-343.404
-345.25
-346.843
-348.208
-349.393
-350.455
-351.444
-352.422
-353.442
-354.542
-355.787
-357.256
-358.988
-360.99
-363.199
-365.451
-367.58
-369.432
-370.813
-371.518
-371.383
-370.337
-368.528
-366.331
-364.164
-362.416
-361.408
-361.399
-362.534
-364.736
-367.49
-369.868
-370.713
-368.776
-362.963
-352.307
-335.934
-313.23
-284.165
-249.356
-210.545
-170.485
-131.658
-96.069
-64.189
-35.651
-11.697
4.532
7.268
-8.673
-44.371
-97.072
-159.344
-224.046
-287.184
-345.314
-397.789
-443.133
-478.111
-502.964
-517.868
-524.006
-524.33
-518.818
-507.951
-493.31
-475.708
-457.113
-439.167
-422.247
-406.941
-393.914
-383.244
-374.813
-368.345
-363.256
-359.162
-355.912
-353.065
-349.902
-346.007
-341.251
-335.696
-329.681
-323.478
-317.223
-311.242
-306.018
-301.852
-298.865
-297.03
-296.132
-295.954
-296.347
-297.094
-297.913
-298.612
-299.059
-299.166
-298.924
-298.322
-297.334
-295.96
-294.223
-292.138
-289.736
-287.053
-284.123
-281.002
-277.753
-274.436
-271.12
-267.855
-264.677
-261.617
-258.701
-255.939
-253.344
-250.919
-248.655
-246.547
-244.582
-242.743
-241.01
-239.358
-237.754
-236.168
-234.562
-232.905
-231.174
-229.349
-227.413
-225.352
-223.154
-220.808
-218.31
-215.654
-212.831
-209.833
-206.654
-203.287
-199.729
-195.979
-192.035
-187.897
-183.565
-179.037
-174.314
-169.396
-164.285
-158.983
-153.492
-147.816
-141.962
-135.938
-129.756
-123.426
-116.96
-110.374
-103.683
-96.904
-90.053
-83.149
-76.21
-69.256
-62.307
-55.384
-48.508
-41.702
-34.988
-28.387
-21.922
-15.616
-9.49
-3.566
2.135
7.593
12.788
17.702
22.317
26.616
30.585
34.21
37.479
40.382
42.912
45.063
46.829
48.211
49.207
49.821
50.058
49.923
49.428
48.582
47.398
45.893
44.083
41.988
39.628
37.027
34.207
31.195
28.018
24.704
21.281
17.78
14.23
10.662
7.107
3.596
0.159
-3.174
-6.373
-9.41
-12.257
-14.888
-17.28
-19.408
-21.253
-22.794
-24.015
-24.901
-25.44
-25.62
-25.436
-24.881
-23.952
-22.651
-20.979
-18.941
-16.545
-13.801
-10.721
-7.321
-3.615
0.376
4.631
9.129
13.845
18.753
23.826
29.036
34.354
39.75
45.194
50.656
56.105
61.511
66.843
72.072
77.169
82.106
86.856
91.393
95.693
99.731
103.488
106.942
110.077
112.875
115.324
117.41
119.124
120.459
121.408
121.967
122.137
121.917
121.31
120.321
118.959
117.231
115.15
112.728
109.98
106.922
103.572
99.949
96.074
91.968
87.653
83.154
78.493
73.696
68.788
63.794
58.741
53.653
48.557
43.479
38.443
33.476
28.6
23.841
19.221
14.764
10.49
6.421
2.576
-1.027
-4.37
-7.437
-10.215
-12.692
-14.855
-16.697
-18.208
-19.384
-20.22
-20.713
-20.862
-20.668
-20.132
-19.258
-18.053
-16.522
-14.675
-12.521
-10.071
-7.34
-4.339
-1.086
2.405
6.114
10.023
14.112
18.359
22.742
27.237
31.82
36.463
41.142
45.831
50.502
55.131
59.69
64.155
68.5
72.704
76.744
80.596
84.239
87.651
90.812
93.704
96.309
98.611
100.594
102.245
103.551
104.505
105.102
105.334
105.196
104.679
103.78
102.503
100.855
98.847
96.492
93.808
90.822
87.572
84.097
80.435
76.621
72.681
68.645
64.545
60.42
56.312
52.251
48.261
44.356
40.544
36.833
33.221
29.682
26.16
22.592
18.921
15.107
11.129
6.966
2.596
-2.021
-6.921
-12.121
-17.625
-23.407
-29.447
-35.76
-42.297
-48.906
-55.355
-61.296
-66.379
-70.36
-72.979
-73.916
-73.035
-70.352
-66.06
-60.736
-54.993
-49.306
-44.244
-40.283
-37.497
-35.649
-34.172
-31.942
-27.6
-19.711
-6.76
12.58
38.553
70.147
106.671
147.116
190.496
236.635
282.022
320.67
347.03
355.025
343.407
316.328
277.644
232.107
181.203
121.887
54.342
-19.084
-91.817
-152.461
-194.467
-216.259
-221.295
-218.683
-214.525
-211.056
-208.424
-203.878
-196.364
-186.949
-176.645
-166.781
-157.792
-149.344
-141.261
-133.384
-125.734
-118.392
-111.532
-105.426
-100.29
-96.109
-92.59
-89.39
-86.192
-82.831
-79.222
-75.29
-71.027
-66.574
-62.27
-58.416
-55.214
-52.713
-50.805
-49.347
-48.192
-47.174
-46.09
-44.792
-43.19
-41.249
-39.014
-36.526
-33.811
-30.885
-27.751
-24.407
-20.867
-17.16
-13.328
-9.437
-5.56
-1.755
1.928
5.455
8.811
11.989
14.998
17.851
20.561
23.127
25.539
27.786
29.863
31.775
33.537
35.175
36.717
38.193
39.631
41.056
42.482
43.921
45.378
46.857
48.357
49.883
51.442
53.044
54.699
56.415
58.197
60.05
61.974
63.969
66.034
68.166
70.363
72.626
74.953
77.344
79.8
82.32
84.902
87.545
90.242
92.991
95.784
98.616
101.479
104.365
107.268
110.178
113.089
115.991
118.877
121.737
124.563
127.344
130.073
132.738
135.33
137.84
140.258
142.572
144.775
146.857
148.809
150.622
152.289
153.801
155.152
156.334
157.34
158.166
158.806
159.253
159.505
159.558
159.409
159.057
158.499
157.737
156.769
155.597
154.224
152.65
150.88
148.917
146.765
144.431
141.919
139.237
136.392
133.393
130.248
126.967
123.56
120.036
116.408
112.685
108.878
105
101.061
97.071
93.044
88.988
84.916
80.837
76.763
72.701
68.663
64.657
60.69
56.77
52.905
49.1
45.361
41.693
38.1
34.585
31.152
27.801
24.534
21.352
18.254
15.239
12.304
9.447
6.665
3.953
1.308
-1.277
-3.805
-6.283
-8.715
-11.109
-13.469
-15.802
-18.114
-20.41
-22.697
-24.979
-27.263
-29.553
-31.853
-34.168
-36.501
-38.856
-41.234
-43.639
-46.072
-48.534
-51.025
-53.546
-56.096
-58.673
-61.275
-63.9
-66.544
-69.203
-71.873
-74.549
-77.226
-79.897
-82.557
-85.198
-87.815
-90.401
-92.947
-95.448
-97.895
-100.282
-102.601
-104.846
-107.008
-109.082
-111.061
-112.938
-114.707
-116.363
-117.9
-119.314
-120.599
-121.751
-122.767
-123.644
-124.379
-124.971
-125.417
-125.718
-125.874
-125.885
-125.753
-125.479
-125.066
-124.516
-123.835
-123.027
-122.096
-121.048
-119.889
-118.626
-117.267
-115.819
-114.29
-112.688
-111.022
-109.301
-107.536
-105.735
-103.909
-102.069
-100.224
-98.388
-96.569
-94.781
-93.033
-91.336
-89.701
-88.14
-86.662
-85.279
-84
-82.835
-81.796
-80.893
-80.136
-79.532
-79.09
-78.818
-78.722
-78.807
-79.075
-79.528
-80.167
-80.993
-82.008
-83.212
-84.6
-86.17
-87.917
-89.837
-91.922
-94.163
-96.544
-99.053
-101.676
-104.404
-107.232
-110.148
-113.138
-116.186
-119.274
-122.381
-125.486
-128.559
-131.562
-134.457
-137.213
-139.803
-142.207
-144.398
-146.345
-148.014
-149.367
-150.383
-151.044
-151.332
-151.24
-150.773
-149.947
-148.805
-147.39
-145.746
-143.922
-141.966
-139.934
-137.89
-135.886
-133.997
-132.316
-130.881
-129.699
-128.713
-127.757
-126.65
-125.232
-123.27
-120.517
-116.823
-112.125
-106.599
-100.683
-94.817
-89.401
-84.802
-81.32
-79.144
-78.227
-78.012
-77.479
-75.396
-70.486
-61.596
-47.626
-27.641
-1.003
32.362
71.719
115.679
161.947
207.545
249.492
285.261
313.934
335.771
350.639
357.121
350.769
326.245
280.292
213.278
132.207
47.769
-29.029
-89.449
-131.266
-157.344
-173.603
-185.637
-195.568
-202.634
-204.059
-198.499
-187.057
-171.966
-156.193
-141.537
-128.501
-117.538
-108.976
-102.805
-98.856
-96.65
-95.416
-94.675
-94.09
-93.09
-91.17
-88.097
-83.801
-78.464
-72.479
-66.113
-59.623
-53.425
-47.809
-42.909
-38.797
-35.377
-32.456
-29.883
-27.462
-24.938
-22.163
-19.062
-15.59
-11.781
-7.677
-3.299
1.298
6.047
10.903
15.826
20.785
25.763
30.723
35.616
40.397
45.017
49.443
53.659
57.65
61.409
64.935
68.23
71.303
74.168
76.834
79.305
81.591
83.698
85.635
87.417
89.057
90.57
91.97
93.266
94.471
95.594
96.645
97.633
98.567
99.454
100.302
101.124
101.929
102.729
103.535
104.356
105.201
106.082
107.006
107.981
109.014
110.112
111.281
112.525
113.849
115.258
116.755
118.342
120.021
121.792
123.656
125.612
127.659
129.793
132.012
134.311
136.685
139.129
141.635
144.198
146.81
149.46
152.141
154.843
157.554
160.265
162.963
165.637
168.275
170.864
173.392
175.847
178.217
180.49
182.653
184.695
186.605
188.372
189.986
191.435
192.712
193.806
194.711
195.418
195.923
196.218
196.3
196.166
195.812
195.238
194.442
193.426
192.19
190.739
189.075
187.203
185.131
182.864
180.411
177.78
174.982
172.026
168.924
165.688
162.329
158.861
155.296
151.649
147.932
144.159
140.344
136.501
132.643
128.782
124.932
121.106
117.314
113.567
109.878
106.254
102.706
99.242
95.869
92.594
89.422
86.359
83.408
80.571
77.851
75.248
72.763
70.394
68.14
65.999
63.967
62.04
60.213
58.481
56.839
55.279
53.796
52.381
51.029
49.73
48.479
47.266
46.085
44.927
43.786
42.654
41.524
40.388
39.241
38.076
36.888
35.671
34.42
33.131
31.8
30.424
29.001
27.527
26.002
24.425
22.794
21.11
19.373
17.586
15.748
13.864
11.934
9.964
7.955
5.911
3.838
1.738
-0.383
-2.521
-4.67
-6.825
-8.98
-11.131
-13.271
-15.393
-17.494
-19.565
-21.602
-23.598
-25.548
-27.446
-29.285
-31.061
-32.768
-34.4
-35.952
-37.418
-38.795
-40.076
-41.26
-42.341
-43.317
-44.185
-44.942
-45.586
-46.116
-46.531
-46.829
-47.01
-47.074
-47.021
-46.853
-46.572
-46.18
-45.679
-45.072
-44.365
-43.561
-42.666
-41.685
-40.625
-39.492
-38.295
-37.042
-35.742
-34.405
-33.042
-31.666
-30.287
-28.919
-27.575
-26.266
-25.006
-23.807
-22.682
-21.641
-20.697
-19.859
-19.138
-18.547
-18.095
-17.794
-17.652
-17.678
-17.88
-18.265
-18.838
-19.599
-20.55
-21.69
-23.021
-24.548
-26.273
-28.194
-30.305
-32.6
-35.067
-37.692
-40.453
-43.319
-46.262
-49.254
-52.273
-55.303
-58.326
-61.32
-64.258
-67.108
-69.842
-72.441
-74.895
-77.181
-79.297
-81.256
-83.086
-84.845
-86.584
-88.326
-90.095
-91.92
-93.826
-95.868
-98.094
-100.534
-103.242
-106.28
-109.668
-113.401
-117.371
-121.335
-125.025
-128.173
-130.482
-131.685
-131.604
-130.194
-127.701
-124.647
-121.633
-119.23
-117.935
-118.183
-120.22
-123.915
-128.582
-132.989
-135.58
-134.776
-129.098
-117.105
-97.687
-70.19
-34.813
7.175
53.878
102.402
149.573
192.697
228.534
255.132
271.259
274.275
263.485
237.428
194.395
137.13
67.684
-9.041
-84.952
-155.488
-215.176
-261.518
-296.996
-322.911
-341.803
-355.329
-362.164
-362.13
-355.816
-344.522
-330.986
-317.154
-303.657
-290.736
-278.335
-266.667
-256.304
-247.401
-239.633
-232.629
-226.292
-220.631
-215.645
-211.048
-206.106
-200.367
-193.82
-186.578
-178.834
-170.781
-162.51
-154.283
-146.643
-139.923
-134.22
-129.534
-125.694
-122.541
-120.007
-117.948
-116.141
-114.452
-112.78
-111.052
-109.251
-107.305
-105.137
-102.72
-100.041
-97.103
-93.923
-90.51
-86.881
-83.084
-79.157
-75.133
-71.034
-66.867
-62.652
-58.425
-54.233
-50.143
-46.208
-42.46
-38.929
-35.63
-32.57
-29.752
-27.166
-24.782
-22.578
-20.536
-18.64
-16.885
-15.256
-13.732
-12.286
-10.886
-9.502
-8.116
-6.706
-5.257
-3.754
-2.185
-0.548
1.157
2.928
4.769
6.68
8.669
10.738
12.887
15.116
17.423
19.809
22.271
24.809
27.42
30.1
32.848
35.661
38.538
41.476
44.47
47.515
50.605
53.732
56.891
60.072
63.267
66.468
69.664
72.849
76.011
79.144
82.237
85.281
88.266
91.185
94.028
96.785
99.449
102.011
104.462
106.795
109
111.071
112.999
114.778
116.402
117.864
119.158
120.281
121.227
121.993
122.575
122.973
123.183
123.205
123.039
122.686
122.147
121.426
120.525
119.448
118.2
116.786
115.213
113.487
111.615
109.605
107.467
105.209
102.841
100.375
97.819
95.186
92.487
89.734
86.939
84.113
81.268
78.418
75.573
72.746
69.948
67.19
64.483
61.838
59.263
56.769
54.364
52.055
49.849
47.753
45.772
43.911
42.174
40.562
39.079
37.726
36.501
35.406
34.438
33.594
32.872
32.266
31.773
31.387
31.101
30.908
30.8
30.77
30.809
30.908
31.057
31.247
31.468
31.71
31.964
32.218
32.464
32.692
32.893
33.058
33.178
33.245
33.251
33.19
33.055
32.84
32.539
32.149
31.665
31.084
30.404
29.624
28.742
27.758
26.674
25.491
24.211
22.836
21.371
19.82
18.188
16.48
14.703
12.863
10.969
9.027
7.046
5.034
3.001
0.954
-1.097
-3.143
-5.175
-7.184
-9.161
-11.096
-12.981
-14.808
-16.569
-18.255
-19.859
-21.374
-22.794
-24.111
-25.322
-26.421
-27.404
-28.266
-29.005
-29.618
-30.104
-30.461
-30.69
-30.789
-30.761
-30.607
-30.331
-29.934
-29.422
-28.799
-28.071
-27.244
-26.325
-25.321
-24.24
-23.09
-21.882
-20.623
-19.325
-17.998
-16.653
-15.302
-13.958
-12.633
-11.34
-10.09
-8.897
-7.773
-6.728
-5.774
-4.92
-4.175
-3.548
-3.05
-2.69
-2.477
-2.417
-2.516
-2.779
-3.212
-3.817
-4.592
-5.534
-6.642
-7.915
-9.357
-10.969
-12.748
-14.689
-16.783
-19.018
-21.381
-23.851
-26.397
-28.992
-31.605
-34.214
-36.801
-39.35
-41.834
-44.224
-46.484
-48.581
-50.501
-52.227
-53.744
-55.05
-56.16
-57.107
-57.95
-58.738
-59.511
-60.313
-61.19
-62.197
-63.4
-64.85
-66.609
-68.765
-71.353
-74.372
-77.758
-81.311
-84.819
-88.079
-90.807
-92.699
-93.575
-93.327
-92.087
-90.32
-88.433
-86.777
-85.896
-86.194
-87.829
-90.926
-94.533
-97.117
-98.002
-96.002
-90.835
-82.507
-68.332
-46.456
-14.99
27.147
75.835
127.046
176.714
221.524
263.156
301.435
334.063
356.339
359.456
339.225
295.894
234.168
162.604
85.344
5.445
-74.657
-152.142
-218.724
-268.495
-299.27
-312.487
-315.813
-314.676
-311.089
-305.751
-296.563
-283.193
-267.391
-250.681
-234.943
-221.376
-210.426
-202.175
-196.201
-191.92
-188.727
-186.147
-183.909
-181.516
-178.165
-173.387
-167.052
-159.249
-150.369
-140.762
-130.682
-120.619
-111.225
-102.914
-95.909
-90.257
-85.783
-82.332
-79.796
-77.954
-76.547
-75.4
-74.397
-73.495
-72.709
-72.007
-71.313
-70.531
-69.593
-68.454
-67.083
-65.464
-63.581
-61.432
-59.041
-56.457
-53.718
-50.851
-47.875
-44.791
-41.618
-38.391
-35.158
-31.99
-28.942
-26.048
-23.333
-20.81
-18.482
-16.352
-14.404
-12.608
-10.935
-9.367
-7.887
-6.49
-5.161
-3.876
-2.609
-1.324
0.007
1.404
2.885
4.466
6.156
7.966
9.896
11.94
14.093
16.355
18.724
21.203
23.79
26.48
29.268
32.149
35.117
38.166
41.289
44.478
47.725
51.022
54.364
57.743
61.153
64.584
68.027
71.472
74.908
78.326
81.714
85.062
88.358
91.592
94.755
97.836
100.826
103.716
106.496
109.158
111.694
114.096
116.357
118.47
120.428
122.228
123.862
125.327
126.618
127.733
128.668
129.422
129.993
130.382
130.587
130.611
130.454
130.12
129.61
128.928
128.079
127.067
125.898
124.577
123.111
121.507
119.772
117.913
115.94
113.86
111.682
109.416
107.07
104.654
102.179
99.653
97.087
94.49
91.872
89.243
86.612
83.988
81.381
78.799
76.25
73.741
71.281
68.875
66.531
64.253
62.047
59.918
57.869
55.905
54.028
52.241
50.545
48.942
47.432
46.016
44.692
43.46
42.317
41.262
40.292
39.404
38.594
37.857
37.191
36.589
36.047
35.56
35.122
34.728
34.371
34.046
33.748
33.469
33.206
32.951
32.7
32.446
32.185
31.912
31.619
31.304
30.96
30.583
30.169
29.712
29.21
28.658
28.052
27.39
26.669
25.886
25.039
24.125
23.144
22.095
20.975
19.787
18.528
17.2
15.803
14.34
12.81
11.217
9.562
7.848
6.078
4.255
2.383
0.466
-1.491
-3.483
-5.504
-7.548
-9.61
-11.682
-13.758
-15.829
-17.889
-19.93
-21.942
-23.918
-25.848
-27.725
-29.538
-31.28
-32.942
-34.515
-35.991
-37.363
-38.621
-39.76
-40.772
-41.651
-42.39
-42.984
-43.428
-43.717
-43.849
-43.819
-43.627
-43.27
-42.75
-42.066
-41.221
-40.217
-39.059
-37.749
-36.296
-34.706
-32.987
-31.149
-29.202
-27.159
-25.032
-22.837
-20.587
-18.298
-15.984
-13.663
-11.348
-9.056
-6.8
-4.596
-2.459
-0.403
1.554
3.397
5.113
6.687
8.105
9.355
10.426
11.312
12.007
12.504
12.797
12.875
12.728
12.355
11.754
10.926
9.879
8.622
7.174
5.566
3.825
1.979
0.052
-1.941
-3.98
-6.041
-8.096
-10.115
-12.07
-13.948
-15.733
-17.409
-18.974
-20.449
-21.872
-23.311
-24.826
-26.453
-28.232
-30.207
-32.424
-34.944
-37.823
-41.084
-44.767
-48.923
-53.563
-58.661
-64.092
-69.589
-74.86
-79.636
-83.622
-86.529
-88.173
-88.473
-87.598
-86.039
-84.316
-82.881
-82.176
-82.542
-84.119
-86.784
-89.875
-92.179
-92.406
-89.169
-81.03
-66.817
-45.418
-16.563
18.473
57.944
99.829
142.738
186.897
231.557
273.868
308.722
328.612
327.719
304.134
259.897
200.413
130.837
55.688
-20.989
-94.826
-159.448
-210.217
-245.195
-266.004
-278.379
-286.487
-292.195
-295.233
-292.97
-284.803
-272.055
-256.457
-240.22
-224.288
-208.655
-193.701
-179.987
-168.008
-158.029
-149.87
-143.244
-138.091
-134.341
-131.671
-129.364
-126.588
-122.889
-118.207
-112.691
-106.51
-99.79
-92.71
-85.694
-79.308
-73.886
-69.53
-66.183
-63.677
-61.892
-60.749
-60.084
-59.667
-59.325
-58.93
-58.39
-57.679
-56.768
-55.623
-54.241
-52.632
-50.809
-48.794
-46.616
-44.308
-41.9
-39.414
-36.859
-34.256
-31.635
-29.038
-26.527
-24.149
-21.935
-19.909
-18.086
-16.475
-15.081
-13.895
-12.894
-12.048
-11.335
-10.736
-10.239
-9.827
-9.475
-9.154
-8.828
-8.47
-8.057
-7.567
-6.982
-6.285
-5.461
-4.5
-3.402
-2.162
-0.776
0.763
2.462
4.326
6.358
8.561
10.934
13.478
16.196
19.086
22.146
25.373
28.766
32.321
36.035
39.904
43.922
48.081
52.373
56.787
61.314
65.944
70.664
75.461
80.324
85.239
90.194
95.174
100.165
105.154
110.126
115.065
119.957
124.788
129.541
134.204
138.76
143.197
147.499
151.654
155.647
159.467
163.102
166.541
169.774
172.791
175.585
178.148
180.473
182.555
184.388
185.97
187.298
188.369
189.183
189.739
190.04
190.087
189.882
189.429
188.734
187.8
186.636
185.247
183.641
181.827
179.815
177.614
175.235
172.688
169.984
167.134
164.151
161.046
157.829
154.513
151.108
147.626
144.077
140.472
136.821
133.133
129.419
125.686
121.943
118.198
114.459
110.732
107.024
103.341
99.688
96.069
92.49
88.954
85.463
82.021
78.629
75.29
72.004
68.772
65.595
62.471
59.402
56.386
53.423
50.512
47.652
44.842
42.082
39.37
36.705
34.086
31.513
28.986
26.502
24.063
21.667
19.315
17.006
14.741
12.519
10.341
8.207
6.119
4.076
2.08
0.131
-1.768
-3.617
-5.414
-7.158
-8.846
-10.478
-12.051
-13.562
-15.012
-16.397
-17.715
-18.965
-20.145
-21.254
-22.288
-23.248
-24.13
-24.934
-25.658
-26.3
-26.859
-27.333
-27.722
-28.023
-28.236
-28.359
-28.39
-28.33
-28.175
-27.926
-27.581
-27.14
-26.602
-25.967
-25.235
-24.406
-23.48
-22.458
-21.34
-20.129
-18.824
-17.428
-15.941
-14.367
-12.709
-10.969
-9.15
-7.256
-5.292
-3.262
-1.171
0.974
3.169
5.406
7.678
9.977
12.294
14.62
16.946
19.259
21.55
23.806
26.015
28.165
30.245
32.242
34.144
35.94
37.621
39.175
40.592
41.864
42.978
43.925
44.697
45.285
45.682
45.881
45.875
45.663
45.245
44.621
43.794
42.763
41.526
40.084
38.446
36.619
34.616
32.45
30.14
27.714
25.208
22.658
20.093
17.54
15.017
12.545
10.15
7.861
5.71
3.722
1.909
0.284
-1.138
-2.353
-3.373
-4.238
-5.013
-5.76
-6.517
-7.308
-8.155
-9.091
-10.165
-11.428
-12.918
-14.655
-16.66
-18.978
-21.631
-24.575
-27.659
-30.601
-33.082
-34.845
-35.648
-35.231
-33.421
-30.183
-25.726
-20.564
-15.286
-10.375
-6.273
-3.392
-1.945
-1.87
-2.623
-3.096
-1.987
1.934
9.948
23.366
43.262
70.451
104.346
142.767
183.472
223.993
263.74
304.013
343.337
378.302
401.84
403.921
380.586
332.579
265.614
189.234
107.381
22.374
-63.663
-147.626
-220.21
-274.318
-307.397
-321.661
-325.921
-326.438
-325.45
-323.135
-316.763
-305.735
-291.779
-276.558
-262.083
-249.527
-239.259
-231.355
-225.433
-220.973
-217.441
-214.415
-211.687
-208.864
-205.237
-200.376
-194.173
-186.727
-178.438
-169.692
-160.74
-151.996
-144.036
-137.216
-131.705
-127.543
-124.546
-122.536
-121.387
-120.858
-120.669
-120.646
-120.663
-120.639
-120.547
-120.302
-119.795
-118.98
-117.836
-116.353
-114.541
-112.394
-109.913
-107.137
-104.122
-100.927
-97.602
-94.173
-90.661
-87.101
-83.54
-80.046
-76.689
-73.515
-70.553
-67.829
-65.351
-63.128
-61.157
-59.414
-57.869
-56.495
-55.264
-54.162
-53.177
-52.285
-51.462
-50.674
-49.883
-49.062
-48.189
-47.24
-46.198
-45.048
-43.777
-42.381
-40.861
-39.215
-37.44
-35.53
-33.478
-31.283
-28.942
-26.455
-23.824
-21.049
-18.132
-15.075
-11.883
-8.558
-5.106
-1.53
2.166
5.978
9.896
13.914
18.021
22.208
26.463
30.776
35.132
39.52
43.927
48.339
52.744
57.128
61.476
65.777
70.016
74.18
78.254
82.228
86.086
89.817
93.408
96.848
100.125
103.229
106.148
108.874
111.397
113.711
115.807
117.68
119.325
120.737
121.913
122.852
123.551
124.012
124.235
124.222
123.978
123.506
122.812
121.904
120.787
119.471
117.964
116.278
114.421
112.407
110.246
107.952
105.538
103.018
100.405
97.714
94.959
92.156
89.318
86.46
83.597
80.743
77.911
75.114
72.366
69.679
67.065
64.534
62.096
59.761
57.537
55.431
53.451
51.6
49.885
48.307
46.87
45.575
44.422
43.41
42.539
41.805
41.206
40.737
40.393
40.169
40.059
40.055
40.15
40.336
40.605
40.948
41.355
41.818
42.328
42.874
43.448
44.039
44.64
45.239
45.83
46.402
46.949
47.461
47.933
48.357
48.727
49.038
49.285
49.463
49.57
49.601
49.555
49.43
49.225
48.939
48.573
48.128
47.605
47.006
46.334
45.592
44.783
43.912
42.982
42
40.968
39.894
38.783
37.641
36.474
35.288
34.091
32.888
31.686
30.492
29.313
28.153
27.021
25.922
24.861
23.844
22.878
21.967
21.116
20.33
19.612
18.966
18.395
17.901
17.486
17.153
16.902
16.734
16.65
16.648
16.729
16.891
17.131
17.448
17.839
18.299
18.825
19.411
20.053
20.744
21.478
22.25
23.05
23.872
24.706
25.545
26.377
27.193
27.981
28.73
29.428
30.064
30.627
31.105
31.487
31.762
31.922
31.956
31.858
31.617
31.225
30.673
29.953
29.058
27.983
26.721
25.268
23.622
21.785
19.76
17.549
15.152
12.567
9.794
6.839
3.711
0.418
-3.025
-6.599
-10.279
-14.028
-17.81
-21.594
-25.351
-29.062
-32.706
-36.256
-39.681
-42.949
-46.031
-48.912
-51.582
-54.02
-56.228
-58.224
-60.047
-61.77
-63.461
-65.162
-66.918
-68.771
-70.766
-72.965
-75.428
-78.184
-81.271
-84.724
-88.552
-92.744
-97.203
-101.699
-105.949
-109.665
-112.56
-114.374
-114.893
-113.989
-111.781
-108.652
-105.138
-101.754
-98.845
-96.776
-95.92
-96.387
-97.816
-98.899
-97.46
-91.589
-80.343
-64.466
-45.625
-24.737
-1.264
28.219
67.292
117.574
178.217
242.793
303.035
350.244
376.317
378.311
355.26
309.571
245.576
165.614
75.158
-20.229
-113.676
-194.55
-257.442
-300.534
-326.092
-342.491
-354.744
-364.642
-371.807
-372.261
-364.738
-350.789
-332.525
-313.062
-294.077
-275.721
-258.441
-242.854
-229.466
-218.767
-210.723
-204.835
-200.852
-198.651
-197.786
-197.534
-197.106
-195.736
-193.14
-189.508
-184.98
-179.673
-173.821
-167.727
-161.841
-156.686
-152.491
-149.208
-146.73
-144.907
-143.61
-142.758
-142.183
-141.645
-140.979
-140.075
-138.865
-137.36
-135.56
-133.455
-131.064
-128.423
-125.573
-122.567
-119.456
-116.262
-113.001
-109.682
-106.312
-102.917
-99.535
-96.216
-93.016
-89.977
-87.125
-84.483
-82.062
-79.865
-77.887
-76.106
-74.495
-73.03
-71.696
-70.48
-69.375
-68.363
-67.422
-66.525
-65.638
-64.735
-63.792
-62.787
-61.7
-60.516
-59.222
-57.809
-56.278
-54.624
-52.842
-50.925
-48.864
-46.654
-44.292
-41.775
-39.103
-36.276
-33.294
-30.16
-26.875
-23.445
-19.873
-16.164
-12.321
-8.351
-4.261
-0.059
4.243
8.635
13.106
17.643
22.232
26.86
31.51
36.17
40.824
45.457
50.053
54.596
59.072
63.465
67.759
71.941
75.995
79.907
83.664
87.253
90.661
93.878
96.892
99.694
102.275
104.628
106.747
108.626
110.261
111.648
112.787
113.675
114.313
114.702
114.845
114.745
114.407
113.838
113.043
112.032
110.812
109.394
107.787
106.005
104.057
101.957
99.717
97.352
94.876
92.302
89.644
86.918
84.136
81.315
78.466
75.603
72.74
69.889
67.062
64.27
61.524
58.834
56.209
53.658
51.189
48.809
46.523
44.338
42.257
40.284
38.422
36.672
35.035
33.512
32.101
30.802
29.611
28.527
27.545
26.661
25.871
25.169
24.55
24.007
23.535
23.126
22.776
22.476
22.221
22.003
21.817
21.655
21.513
21.383
21.26
21.138
21.012
20.878
20.73
20.565
20.379
20.168
19.929
19.661
19.36
19.026
18.655
18.249
17.804
17.322
16.803
16.246
15.654
15.026
14.364
13.67
12.945
12.193
11.414
10.612
9.789
8.947
8.09
7.221
6.342
5.458
4.57
3.683
2.799
1.923
1.056
0.201
-0.637
-1.457
-2.256
-3.03
-3.776
-4.492
-5.175
-5.821
-6.427
-6.991
-7.511
-7.982
-8.404
-8.773
-9.088
-9.345
-9.544
-9.682
-9.757
-9.769
-9.716
-9.597
-9.412
-9.162
-8.847
-8.466
-8.022
-7.516
-6.951
-6.327
-5.647
-4.914
-4.131
-3.302
-2.432
-1.525
-0.586
0.379
1.361
2.353
3.347
4.333
5.303
6.248
7.158
8.023
8.837
9.59
10.275
10.882
11.404
11.829
12.151
12.361
12.451
12.416
12.249
11.946
11.507
10.931
10.217
9.36
8.353
7.189
5.865
4.382
2.742
0.952
-0.979
-3.034
-5.185
-7.408
-9.678
-11.97
-14.273
-16.568
-18.833
-21.04
-23.157
-25.152
-27.009
-28.709
-30.24
-31.612
-32.841
-33.965
-35.049
-36.142
-37.294
-38.565
-40.002
-41.666
-43.625
-45.925
-48.635
-51.845
-55.583
-59.831
-64.485
-69.305
-74.038
-78.459
-82.274
-85.168
-86.942
-87.526
-87.133
-86.275
-85.479
-85.16
-85.68
-87.384
-90.42
-94.595
-99.182
-102.887
-104.23
-101.876
-94.562
-80.928
-59.888
-30.886
5.392
46.882
91.291
136.606
182.102
227.465
270.383
306.504
329.104
331.467
311.502
272.003
219.306
160.713
99.598
35.079
-33.644
-105.364
-174.485
-231.51
-270.328
-289.608
-292.769
-287.561
-279.11
-269.659
-259.831
-248.021
-234.18
-219.436
-204.707
-191.536
-180.872
-172.752
-166.924
-162.732
-159.462
-156.836
-154.724
-152.854
-150.731
-147.786
-143.736
-138.677
-132.9
-126.67
-120.207
-113.755
-107.71
-102.577
-98.658
-96.013
-94.563
-94.145
-94.613
-95.877
-97.777
-100.083
-102.646
-105.367
-108.172
-111.029
-113.845
-116.49
-118.879
-120.959
-122.692
-124.071
-125.086
-125.725
-126.014
-125.977
-125.634
-125.008
-124.108
-122.941
-121.534
-119.928
-118.18
-116.367
-114.546
-112.755
-111.026
-109.371
-107.795
-106.302
-104.875
-103.49
-102.132
-100.783
-99.436
-98.086
-96.719
-95.317
-93.855
-92.3
-90.627
-88.82
-86.864
-84.747
-82.464
-80.01
-77.389
-74.61
-71.678
-68.596
-65.368
-61.991
-58.468
-54.803
-51.001
-47.067
-43.007
-38.826
-34.528
-30.122
-25.613
-21.006
-16.308
-11.522
-6.654
-1.713
3.293
8.356
13.464
18.609
23.78
28.964
34.152
39.331
44.491
49.62
54.707
59.74
64.709
69.601
74.405
79.11
83.705
88.178
92.518
96.714
100.757
104.636
108.341
111.863
115.195
118.328
121.255
123.972
126.471
128.749
130.803
132.629
134.227
135.595
136.735
137.647
138.333
138.799
139.046
139.082
138.912
138.542
137.98
137.236
136.318
135.235
134
132.622
131.114
129.489
127.758
125.935
124.034
122.067
120.049
117.993
115.911
113.818
111.725
109.646
107.593
105.576
103.607
101.696
99.852
98.085
96.403
94.812
93.32
91.933
90.654
89.488
88.438
87.507
86.696
86.006
85.436
84.986
84.654
84.438
84.335
84.341
84.453
84.665
84.973
85.371
85.854
86.415
87.049
87.749
88.508
89.321
90.181
91.081
92.016
92.979
93.965
94.968
95.982
97.003
98.026
99.047
100.061
101.065
102.056
103.031
103.987
104.923
105.836
106.724
107.589
108.427
109.24
110.027
110.789
111.526
112.24
112.93
113.6
114.249
114.88
115.494
116.094
116.681
117.259
117.828
118.393
118.955
119.517
120.082
120.653
121.231
121.821
122.424
123.044
123.683
124.345
125.031
125.745
126.49
127.268
128.082
128.934
129.825
130.759
131.736
132.758
133.828
134.945
136.112
137.33
138.599
139.921
141.296
142.723
144.202
145.733
147.315
148.946
150.625
152.349
154.115
155.922
157.766
159.642
161.547
163.476
165.422
167.381
169.346
171.308
173.261
175.195
177.103
178.977
180.81
182.593
184.319
185.982
187.577
189.096
190.533
191.88
193.132
194.282
195.325
196.259
197.078
197.781
198.366
198.838
199.199
199.451
199.596
199.628
199.549
199.364
199.077
198.697
198.237
197.71
197.136
196.544
195.958
195.402
194.894
194.442
194.062
193.773
193.595
193.556
193.676
193.961
194.427
195.08
195.91
196.898
198.006
199.169
200.351
201.512
202.606
203.599
204.434
205.044
205.399
205.442
205.099
204.349
203.18
201.637
199.922
198.245
196.773
195.755
195.427
195.92
197.337
199.573
202.187
204.695
206.73
207.902
207.754
206.058
202.779
198.108
193.467
190.472
189.66
192.22
198.394
207.91
223.404
246.008
275.693
312.811
353.53
394.946
436.453
475.677
510.992
538.266
549.609
539.353
505.156
449.061
377.836
297.421
211.649
123.884
37.164
-42.424
-107.357
-153.649
-181.188
-194.997
-202.809
-209.11
-215.291
-220.404
-222.032
-220.01
-215.823
-210.723
-205.813
-201.341
-196.95
-192.611
-188.652
-185.146
-181.956
-179.245
-177.296
-176.329
-176.521
-177.584
-178.742
-179.565
-179.965
-179.818
-179.108
-177.858
-176.037
-173.904
-172.006
-170.647
-169.888
-169.713
-169.929
-170.347
-170.891
-171.402
-171.643
-171.494
-170.904
-169.86
-168.438
-166.683
-164.585
-162.169
-159.473
-156.528
-153.395
-150.143
-146.835
-143.572
-140.44
-137.496
-134.79
-132.349
-130.181
-128.301
-126.712
-125.41
-124.406
-123.709
-123.326
-123.265
-123.521
-124.075
-124.901
-125.96
-127.213
-128.631
-130.186
-131.856
-133.624
-135.473
-137.389
-139.363
-141.38
-143.421
-145.466
-147.491
-149.475
-151.4
-153.248
-155.004
-156.654
-158.184
-159.578
-160.825
-161.908
-162.813
-163.525
-164.029
-164.31
-164.355
-164.157
-163.706
-162.997
-162.025
-160.788
-159.284
-157.515
-155.481
-153.187
-150.635
-147.832
-144.785
-141.503
-137.995
-134.272
-130.349
-126.237
-121.953
-117.513
-112.933
-108.233
-103.429
-98.541
-93.59
-88.593
-83.572
-78.547
-73.539
-68.568
-63.654
-58.819
-54.082
-49.461
-44.977
-40.645
-36.482
-32.504
-28.724
-25.156
-21.811
-18.7
-15.832
-13.214
-10.853
-8.753
-6.916
-5.346
-4.04
-2.997
-2.214
-1.687
-1.409
-1.372
-1.568
-1.988
-2.619
-3.45
-4.468
-5.659
-7.007
-8.498
-10.116
-11.846
-13.671
-15.575
-17.54
-19.551
-21.594
-23.65
-25.698
-27.722
-29.702
-31.63
-33.501
-35.298
-37.003
-38.623
-40.164
-41.628
-43.025
-44.338
-45.537
-46.634
-47.654
-48.529
-49.178
-49.652
-49.949
-50.058
-50.158
-49.784
-48.486
-46.923
-45.301
-44.825
-46.939
-50.063
-53.148
-54.627
-52.343
-48.222
-43.894
-40.48
-39.828
-40.63
-41.564
-42.338
-42.15
-41.475
-40.926
-40.392
-39.953
-39.574
-39.135
-38.716
-38.385
-38.121
-37.919
-37.785
-37.718
-37.709
-37.755
-37.841
-37.949
-38.082
-38.24
-38.418
-38.61
-38.811
-39.015
-39.217
-39.415
-39.602
-39.771
-39.917
-40.034
-40.117
-40.16
-40.159
-40.108
-40.002
-39.838
-39.61
-39.315
-38.949
-38.509
-37.991
-37.394
-36.716
-35.954
-35.109
-34.179
-33.165
-32.066
-30.883
-29.617
-28.27
-26.842
-25.336
-23.754
-22.101
-20.378
-18.589
-16.739
-14.832
-12.873
-10.868
-8.822
-6.742
-4.634
-2.507
-0.369
1.771
3.904
6.018
8.103
10.148
12.141
14.069
15.922
17.687
19.351
20.903
22.333
23.629
24.78
25.775
26.601
27.25
27.712
27.976
28.034
27.878
27.499
26.894
26.062
24.999
23.705
22.18
20.421
18.429
16.211
13.775
11.129
8.289
5.268
2.089
-1.214
-4.611
-8.073
-11.575
-15.098
-18.618
-22.109
-25.545
-28.891
-32.118
-35.211
-38.146
-40.903
-43.477
-45.857
-48.056
-50.124
-52.097
-54.012
-55.9
-57.758
-59.599
-61.46
-63.375
-65.394
-67.564
-69.893
-72.417
-75.204
-78.266
-81.563
-84.945
-88.096
-90.705
-92.528
-93.318
-92.834
-90.923
-87.566
-83.063
-78.023
-73.15
-69.075
-66.234
-65.009
-65.737
-68.295
-71.907
-75.43
-76.853
-74.079
-66.159
-51.709
-30.31
-2.999
30.308
68.801
111.706
160.067
213.599
270.204
325.117
369.689
393.869
390.6
359.178
304.296
234.949
158.93
78.098
-6.482
-93.869
-179.88
-254.288
-310.267
-345.468
-362.538
-370.275
-374.385
-376.875
-378.04
-375.392
-368.565
-359.618
-350.338
-342.863
-338.615
-337.537
-339.143
-342.828
-347.73
-352.952
-357.909
-361.917
-364.098
-364.044
-361.675
-357.035
-350.496
-342.516
-333.406
-323.625
-313.783
-304.219
-295.109
-286.543
-278.437
-270.707
-263.312
-256.125
-248.951
-241.692
-234.325
-226.855
-219.358
-211.897
-204.496
-197.204
-190.081
-183.167
-176.485
-170.041
-163.8
-157.717
-151.78
-145.977
-140.304
-134.756
-129.303
-123.924
-118.611
-113.358
-108.164
-103.031
-97.954
-92.928
-87.972
-83.105
-78.365
-73.803
-69.446
-65.316
-61.428
-57.793
-54.426
-51.34
-48.531
-45.984
-43.685
-41.616
-39.762
-38.111
-36.631
-35.29
-34.049
-32.865
-31.701
-30.529
-29.32
-28.049
-26.692
-25.227
-23.642
-21.928
-20.076
-18.077
-15.922
-13.602
-11.114
-8.455
-5.628
-2.634
0.525
3.846
7.325
10.955
14.731
18.648
22.698
26.874
31.167
35.566
40.057
44.627
49.26
53.941
58.653
63.379
68.1
72.8
77.459
82.062
86.59
91.026
95.352
99.552
103.61
107.51
111.237
114.777
118.118
121.246
124.151
126.822
129.252
131.431
133.354
135.014
136.408
137.533
138.387
138.97
139.282
139.327
139.108
138.631
137.901
136.927
135.717
134.281
132.631
130.778
128.733
126.512
124.127
121.593
118.926
116.139
113.25
110.273
107.224
104.12
100.975
97.805
94.624
91.448
88.29
85.163
82.08
79.054
76.095
73.214
70.421
67.725
65.132
62.65
60.285
58.041
55.922
53.93
52.068
50.337
48.735
47.262
45.916
44.695
43.594
42.609
41.736
40.968
40.3
39.725
39.237
38.827
38.488
38.213
37.995
37.824
37.695
37.598
37.527
37.474
37.432
37.393
37.353
37.303
37.239
37.156
37.048
36.911
36.742
36.538
36.294
36.01
35.683
35.313
34.898
34.438
33.935
33.388
32.8
32.172
31.506
30.806
30.073
29.311
28.524
27.714
26.887
26.044
25.192
24.335
23.476
22.62
21.772
20.938
20.12
19.324
18.555
17.816
17.111
16.446
15.823
15.248
14.723
14.252
13.838
13.485
13.195
12.971
12.815
12.728
12.712
12.768
12.896
13.099
13.374
13.723
14.145
14.639
15.205
15.84
16.543
17.311
18.142
19.032
19.977
20.974
22.017
23.102
24.223
25.376
26.553
27.747
28.952
30.161
31.365
32.555
33.722
34.856
35.946
36.983
37.957
38.858
39.676
40.401
41.027
41.547
41.952
42.236
42.39
42.408
42.283
42.011
41.588
41.01
40.274
39.38
38.334
37.138
35.796
34.308
32.67
30.881
28.946
26.871
24.664
22.338
19.903
17.381
14.802
12.193
9.583
6.995
4.439
1.94
-0.476
-2.778
-4.925
-6.89
-8.657
-10.208
-11.532
-12.632
-13.518
-14.223
-14.801
-15.295
-15.755
-16.236
-16.783
-17.462
-18.335
-19.474
-20.994
-22.952
-25.353
-28.148
-31.17
-34.218
-37.125
-39.64
-41.443
-42.336
-42.197
-41.118
-39.579
-38.028
-36.873
-36.593
-37.548
-40
-44.091
-49.41
-54.86
-59.241
-61.205
-59.236
-51.999
-38.092
-16.177
13.884
50.884
93.38
139.353
187.556
238.018
289.097
337.863
379.09
405.138
410.442
392.264
351.501
292.95
220.982
138.637
49.485
-42.73
-131.258
-206.372
-261.966
-296.108
-312.197
-318.801
-321.63
-322.855
-322.054
-316.238
-304.93
-289.961
-273.27
-257.006
-242.029
-228.236
-215.905
-205.178
-195.857
-187.673
-180.276
-173.521
-167.473
-162.032
-156.713
-150.945
-144.506
-137.517
-130.259
-122.952
-115.692
-108.598
-102.004
-96.381
-92.003
-88.891
-86.917
-85.861
-85.545
-85.856
-86.611
-87.538
-88.422
-89.088
-89.419
-89.396
-89.012
-88.247
-87.104
-85.603
-83.762
-81.633
-79.277
-76.744
-74.091
-71.357
-68.579
-65.807
-63.104
-60.544
-58.19
-56.077
-54.22
-52.627
-51.306
-50.259
-49.479
-48.938
-48.599
-48.429
-48.4
-48.492
-48.68
-48.931
-49.208
-49.468
-49.676
-49.809
-49.846
-49.767
-49.555
-49.194
-48.674
-47.994
-47.153
-46.146
-44.968
-43.613
-42.076
-40.358
-38.459
-36.383
-34.13
-31.702
-29.102
-26.335
-23.405
-20.318
-17.079
-13.693
-10.166
-6.507
-2.726
1.166
5.157
9.237
13.391
17.607
21.871
26.169
30.488
34.815
39.135
43.435
47.702
51.922
56.083
60.17
64.173
68.078
71.875
75.552
79.099
82.507
85.765
88.865
91.799
94.56
97.141
99.536
101.74
103.75
105.561
107.172
108.58
109.786
110.789
111.59
112.192
112.597
112.808
112.831
112.669
112.33
111.818
111.142
110.309
109.327
108.205
106.952
105.576
104.089
102.499
100.817
99.053
97.218
95.321
93.375
91.388
89.372
87.336
85.291
83.246
81.21
79.193
77.202
75.246
73.332
71.467
69.657
67.908
66.224
64.611
63.071
61.607
60.222
58.917
57.692
56.547
55.483
54.497
53.59
52.758
52
51.312
50.691
50.134
49.638
49.197
48.807
48.465
48.165
47.902
47.673
47.471
47.292
47.132
46.986
46.849
46.717
46.586
46.451
46.31
46.159
45.994
45.814
45.615
45.397
45.157
44.893
44.606
44.295
43.958
43.596
43.208
42.796
42.358
41.897
41.413
40.906
40.379
39.832
39.267
38.685
38.088
37.478
36.855
36.223
35.583
34.936
34.284
33.63
32.976
32.323
31.674
31.03
30.394
29.767
29.152
28.549
27.963
27.393
26.844
26.315
25.811
25.333
24.885
24.468
24.085
23.738
23.431
23.165
22.943
22.768
22.641
22.566
22.544
22.579
22.672
22.825
23.042
23.323
23.67
24.085
24.569
25.122
25.745
26.438
27.201
28.032
28.932
29.899
30.93
32.022
33.172
34.376
35.628
36.923
38.254
39.612
40.992
42.385
43.783
45.177
46.56
47.923
49.26
50.562
51.822
53.03
54.177
55.254
56.254
57.168
57.989
58.71
59.326
59.837
60.24
60.535
60.718
60.784
60.727
60.549
60.252
59.839
59.316
58.695
57.992
57.233
56.441
55.638
54.84
54.057
53.3
52.586
51.937
51.375
50.923
50.589
50.384
50.324
50.41
50.626
50.94
51.294
51.642
51.961
52.227
52.411
52.483
52.39
52.083
51.535
50.699
49.513
47.955
46.03
43.846
41.643
39.687
38.233
37.551
37.889
39.405
42.115
45.762
49.81
53.651
56.723
58.558
58.749
57.093
53.768
49.471
45.415
43.108
44.09
49.735
61.335
79.966
106.146
139.672
179.615
223.736
268.782
311.659
349.083
379.537
403.665
421.26
431.704
431.14
412.447
370.611
303.11
214.688
117.144
23.23
-54.052
-108.73
-142.711
-161.236
-172.968
-183.007
-191.653
-197.554
-197.648
-191.241
-180.34
-167.268
-154.3
-142.456
-131.774
-122.394
-114.429
-107.772
-102.113
-96.998
-92.122
-87.397
-82.692
-77.607
-71.71
-64.834
-57.07
-48.705
-40.054
-31.333
-22.799
-14.877
-7.937
-2.172
2.346
5.719
8.122
9.699
10.656
11.246
11.662
12.037
12.482
13.065
13.841
14.883
16.215
17.829
19.73
21.916
24.381
27.114
30.073
33.189
36.398
39.648
42.894
46.091
49.18
52.089
54.758
57.145
59.221
60.973
62.385
63.445
64.153
64.523
64.578
64.348
63.856
63.124
62.176
61.039
59.748
58.345
56.864
55.333
53.774
52.211
50.663
49.152
47.694
46.297
44.971
43.727
42.577
41.537
40.617
39.826
39.172
38.662
38.302
38.1
38.061
38.191
38.492
38.969
39.623
40.458
41.476
42.673
44.046
45.59
47.299
49.166
51.18
53.333
55.612
58.007
60.504
63.091
65.754
68.478
71.248
74.049
76.864
79.677
82.47
85.228
87.932
90.567
93.115
95.561
97.888
100.081
102.124
104.005
105.708
107.223
108.537
109.639
110.522
111.176
111.596
111.775
111.711
111.401
110.844
110.039
108.99
107.698
106.168
104.406
102.419
100.213
97.8
95.188
92.39
89.418
86.286
83.007
79.597
76.071
72.445
68.736
64.961
61.137
57.28
53.407
49.537
45.684
41.865
38.096
34.391
30.764
27.229
23.797
20.48
17.289
14.231
11.316
8.55
5.939
3.487
1.198
-0.927
-2.885
-4.679
-6.308
-7.776
-9.086
-10.243
-11.251
-12.118
-12.851
-13.457
-13.945
-14.324
-14.604
-14.795
-14.907
-14.95
-14.935
-14.872
-14.773
-14.646
-14.503
-14.352
-14.202
-14.063
-13.942
-13.847
-13.785
-13.762
-13.783
-13.853
-13.978
-14.159
-14.399
-14.701
-15.065
-15.492
-15.982
-16.533
-17.143
-17.812
-18.534
-19.308
-20.128
-20.992
-21.893
-22.827
-23.788
-24.771
-25.769
-26.777
-27.789
-28.798
-29.798
-30.784
-31.749
-32.688
-33.596
-34.466
-35.295
-36.077
-36.807
-37.483
-38.099
-38.652
-39.139
-39.558
-39.905
-40.179
-40.378
-40.501
-40.547
-40.516
-40.408
-40.223
-39.962
-39.626
-39.218
-38.737
-38.188
-37.572
-36.892
-36.151
-35.352
-34.499
-33.597
-32.649
-31.659
-30.632
-29.573
-28.488
-27.381
-26.259
-25.127
-23.992
-22.861
-21.739
-20.636
-19.558
-18.513
-17.512
-16.561
-15.671
-14.85
-14.106
-13.448
-12.884
-12.421
-12.066
-11.826
-11.708
-11.718
-11.863
-12.149
-12.582
-13.166
-13.906
-14.805
-15.864
-17.082
-18.458
-19.987
-21.67
-23.507
-25.498
-27.64
-29.924
-32.344
-34.887
-37.54
-40.28
-43.079
-45.908
-48.74
-51.549
-54.318
-57.026
-59.65
-62.162
-64.527
-66.718
-68.713
-70.497
-72.056
-73.383
-74.483
-75.387
-76.149
-76.823
-77.451
-78.064
-78.692
-79.385
-80.202
-81.212
-82.463
-83.994
-85.871
-88.124
-90.758
-93.716
-96.796
-99.736
-102.304
-104.25
-105.301
-105.288
-104.092
-101.747
-98.672
-95.348
-92.121
-89.412
-87.648
-87.099
-87.946
-89.563
-90.167
-87.999
-82.061
-72.902
-61.988
-49.56
-33.423
-8.56
29.247
80.196
140.437
201.934
257.729
305.523
344.899
376.371
398.466
405.187
390.247
350.588
286.394
202.963
109.636
15.248
-71.352
-143.494
-199.799
-241.527
-272.465
-296.608
-314.94
-326.715
-330.13
-324.471
-311.446
-293.733
-274.217
-255.038
-237.11
-221.064
-207.628
-197.075
-189.189
-183.521
-179.395
-176.088
-173.18
-170.14
-166.099
-160.607
-153.62
-145.246
-135.913
-126.141
-116.263
-106.739
-98.213
-91.02
-85.29
-81.058
-78.114
-76.234
-75.266
-74.947
-74.978
-75.195
-75.477
-75.741
-75.967
-76.071
-75.943
-75.541
-74.843
-73.839
-72.539
-70.939
-69.042
-66.892
-64.542
-62.052
-59.471
-56.821
-54.119
-51.398
-48.698
-46.083
-43.62
-41.348
-39.295
-37.479
-35.904
-34.574
-33.483
-32.602
-31.897
-31.338
-30.896
-30.553
-30.294
-30.097
-29.934
-29.771
-29.568
-29.297
-28.935
-28.457
-27.847
-27.087
-26.167
-25.082
-23.834
-22.421
-20.841
-19.09
-17.165
-15.065
-12.79
-10.345
-7.732
-4.959
-2.029
1.049
4.267
7.617
11.089
14.675
18.366
22.154
26.024
29.967
33.966
38.009
42.082
46.168
50.252
54.32
58.355
62.343
66.268
70.116
73.872
77.521
81.05
84.445
87.692
90.779
93.694
96.427
98.967
101.305
103.433
105.342
107.027
108.483
109.705
110.689
111.434
111.938
112.201
112.224
112.009
111.557
110.874
109.962
108.828
107.477
105.917
104.155
102.199
100.059
97.744
95.265
92.633
89.86
86.957
83.938
80.816
77.604
74.315
70.963
67.561
64.123
60.662
57.19
53.721
50.267
46.839
43.449
40.107
36.824
33.609
30.47
27.416
24.454
21.591
18.833
16.186
13.654
11.241
8.951
6.786
4.747
2.837
1.053
-0.604
-2.137
-3.547
-4.839
-6.015
-7.081
-8.04
-8.898
-9.662
-10.34
-10.942
-11.475
-11.944
-12.357
-12.725
-13.056
-13.349
-13.601
-13.804
-13.963
-14.094
-14.214
-14.319
-14.419
-14.551
-14.762
-15.103
-15.591
-16.203
-16.915
-17.752
-18.688
-19.577
-20.308
-20.861
-21.262
-21.683
-21.804
-20.697
-18.071
-14.52
-12.251
-14.544
-22.568
-34.535
-45.847
-51.112
-48.251
-39.383
-29.603
-23.898
-24.161
-29.026
-35.242
-40.256
-43.294
-44.839
-45.966
-47.195
-48.466
-49.66
-50.675
-51.56
-52.448
-53.366
-54.293
-55.23
-56.174
-57.113
-58.024
-58.873
-59.636
-60.309
-60.902
-61.416
-61.846
-62.192
-62.451
-62.626
-62.718
-62.727
-62.65
-62.487
-62.238
-61.904
-61.486
-60.988
-60.41
-59.756
-59.03
-58.235
-57.376
-56.458
-55.487
-54.47
-53.413
-52.325
-51.214
-50.092
-48.966
-47.849
-46.751
-45.683
-44.655
-43.679
-42.764
-41.92
-41.156
-40.482
-39.909
-39.448
-39.108
-38.897
-38.825
-38.898
-39.124
-39.508
-40.05
-40.75
-41.61
-42.631
-43.821
-45.184
-46.719
-48.422
-50.289
-52.31
-54.474
-56.765
-59.155
-61.618
-64.131
-66.673
-69.232
-71.792
-74.329
-76.815
-79.215
-81.495
-83.639
-85.633
-87.456
-89.108
-90.6
-91.957
-93.232
-94.469
-95.697
-96.951
-98.267
-99.687
-101.28
-103.096
-105.2
-107.692
-110.607
-113.938
-117.634
-121.498
-125.3
-128.837
-131.818
-133.927
-134.999
-134.936
-133.856
-132.243
-130.569
-129.263
-128.82
-129.604
-131.843
-135.625
-140.513
-145.418
-149.074
-150.086
-147.059
-138.713
-123.67
-100.769
-69.387
-30.383
13.833
60.76
107.853
154.053
200.435
246.171
287.799
319.443
331.803
317.789
276.371
210.155
126.031
33.562
-60.556
-149.685
-226.594
-288.564
-334.103
-364.35
-385.002
-399.118
-407.921
-411.634
-408.04
-397.218
-381.289
-362.372
-343.08
-324.854
-308.036
-293.191
-280.693
-270.447
-262.172
-255.382
-249.492
-244.163
-239.12
-233.749
-227.397
-219.79
-210.94
-201.114
-190.76
-180.212
-169.752
-159.862
-151.045
-143.588
-137.605
-133.014
-129.598
-127.176
-125.568
-124.538
-123.846
-123.314
-122.813
-122.259
-121.579
-120.682
-119.502
-118.003
-116.182
-114.049
-111.606
-108.869
-105.874
-102.669
-99.316
-95.864
-92.342
-88.774
-85.196
-81.654
-78.214
-74.945
-71.888
-69.071
-66.514
-64.222
-62.198
-60.435
-58.903
-57.568
-56.397
-55.361
-54.439
-53.614
-52.861
-52.149
-51.444
-50.706
-49.907
-49.021
-48.026
-46.903
-45.638
-44.218
-42.64
-40.906
-39.014
-36.961
-34.746
-32.363
-29.813
-27.096
-24.215
-21.175
-17.98
-14.636
-11.149
-7.527
-3.777
0.09
4.069
8.151
12.326
16.584
20.913
25.299
29.73
34.192
38.67
43.15
47.617
52.056
56.454
60.796
65.067
69.255
73.346
77.325
81.181
84.901
88.472
91.885
95.127
98.19
101.063
103.739
106.211
108.47
110.513
112.333
113.928
115.293
116.428
117.331
118.002
118.441
118.651
118.634
118.394
117.934
117.26
116.378
115.295
114.019
112.557
110.919
109.115
107.154
105.047
102.805
100.441
97.966
95.392
92.733
90.001
87.21
84.373
81.502
78.611
75.712
72.819
69.943
67.097
64.291
61.538
58.848
56.231
53.697
51.254
48.911
46.675
44.554
42.553
40.677
38.932
37.32
35.846
34.51
33.315
32.26
31.346
30.572
29.935
29.434
29.066
28.826
28.709
28.712
28.828
29.052
29.377
29.797
30.304
30.891
31.55
32.275
33.057
33.888
34.761
35.667
36.598
37.548
38.508
39.472
40.431
41.379
42.31
43.217
44.095
44.938
45.741
46.498
47.206
47.862
48.46
48.999
49.476
49.889
50.237
50.518
50.732
50.879
50.959
50.972
50.921
50.806
50.629
50.393
50.099
49.752
49.354
48.91
48.423
47.897
47.337
46.748
46.135
45.502
44.855
44.2
43.542
42.887
42.24
41.607
40.995
40.408
39.852
39.334
38.859
38.432
38.058
37.742
37.489
37.302
37.186
37.145
37.181
37.298
37.498
37.783
38.155
38.615
39.164
39.801
40.525
41.336
42.232
43.211
44.268
45.401
46.604
47.874
49.205
50.59
52.023
53.496
55.002
56.532
58.076
59.624
61.165
62.688
64.183
65.638
67.044
68.388
69.662
70.857
71.965
72.978
73.886
74.68
75.352
75.897
76.307
76.578
76.706
76.687
76.52
76.212
75.764
75.179
74.457
73.593
72.588
71.446
70.174
68.782
67.282
65.687
64.02
62.31
60.585
58.87
57.187
55.543
53.961
52.464
51.079
49.842
48.776
47.896
47.218
46.751
46.49
46.421
46.514
46.718
46.992
47.294
47.573
47.79
47.886
47.813
47.512
46.887
45.895
44.544
42.892
41.11
39.388
37.883
36.815
36.469
37.006
38.51
40.85
43.549
46.176
48.364
49.711
49.906
48.724
46.089
42.471
38.95
36.649
36.749
40.501
49.047
63.663
85.447
114.248
148.706
187.324
228.603
272.191
318.299
364.854
407.37
438.919
452.34
444.545
417.354
376.034
326.349
270.576
207.085
134.76
55.349
-24.335
-93.184
-143.629
-173.384
-185.858
-189.479
-189.853
-188.929
-186.228
-179.027
-166.888
-151.445
-134.434
-117.772
-102.285
-88.011
-75.304
-64.35
-55.049
-47.185
-40.449
-34.697
-29.881
-25.787
-21.861
-17.47
-12.323
-6.468
-0.119
6.531
13.347
20.181
26.682
32.377
37.02
40.576
43.143
44.901
45.963
46.392
46.331
45.991
45.52
45.032
44.609
44.274
44.091
44.125
44.401
44.926
45.684
46.648
47.79
49.085
50.508
52.042
53.675
55.388
57.174
59.004
60.842
62.646
64.359
65.939
67.361
68.606
69.673
70.57
71.312
71.922
72.427
72.851
73.211
73.526
73.808
74.077
74.356
74.674
75.066
75.562
76.184
76.951
77.88
78.981
80.261
81.723
83.364
85.183
87.18
89.355
91.712
94.25
96.967
99.86
102.921
106.146
109.527
113.057
116.725
120.524
124.443
128.471
132.6
136.819
141.114
145.471
149.875
154.309
158.758
163.204
167.628
172.013
176.34
180.591
184.75
188.797
192.717
196.49
200.102
203.535
206.773
209.802
212.606
215.173
217.487
219.538
221.314
222.804
224
224.894
225.48
225.752
225.706
225.341
224.656
223.651
222.328
220.692
218.747
216.501
213.962
211.139
208.044
204.689
201.088
197.255
193.206
188.957
184.525
179.93
175.188
170.32
165.345
160.284
155.156
149.981
144.781
139.575
134.383
129.225
124.12
119.085
114.139
109.298
104.577
99.992
95.555
91.278
87.173
83.248
79.511
75.967
72.623
69.481
66.543
63.809
61.277
58.945
56.81
54.866
53.106
51.523
50.109
48.855
47.749
46.781
45.938
45.209
44.58
44.038
43.57
43.161
42.797
42.466
42.153
41.845
41.529
41.193
40.826
40.415
39.952
39.427
38.831
38.158
37.4
36.553
35.613
34.577
33.443
32.209
30.877
29.448
27.923
26.305
24.599
22.81
20.942
19.002
16.997
14.935
12.823
10.671
8.486
6.28
4.06
1.837
-0.379
-2.579
-4.754
-6.892
-8.987
-11.027
-13.005
-14.913
-16.742
-18.486
-20.138
-21.693
-23.145
-24.491
-25.727
-26.85
-27.858
-28.751
-29.528
-30.188
-30.733
-31.164
-31.482
-31.692
-31.796
-31.798
-31.704
-31.519
-31.248
-30.897
-30.475
-29.987
-29.441
-28.845
-28.206
-27.535
-26.839
-26.127
-25.408
-24.693
-23.989
-23.308
-22.657
-22.047
-21.486
-20.982
-20.544
-20.181
-19.9
-19.709
-19.616
-19.628
-19.753
-19.998
-20.373
-20.885
-21.539
-22.342
-23.299
-24.416
-25.695
-27.137
-28.743
-30.512
-32.444
-34.54
-36.796
-39.209
-41.772
-44.483
-47.333
-50.314
-53.415
-56.622
-59.923
-63.309
-66.772
-70.31
-73.917
-77.584
-81.301
-85.056
-88.839
-92.632
-96.413
-100.147
-103.801
-107.347
-110.76
-114.019
-117.093
-119.948
-122.544
-124.842
-126.813
-128.436
-129.692
-130.567
-131.061
-131.185
-130.977
-130.503
-129.83
-129.037
-128.209
-127.415
-126.744
-126.316
-126.223
-126.528
-127.236
-128.23
-129.354
-130.481
-131.433
-132.002
-132.025
-131.343
-129.978
-128.324
-126.879
-126.109
-126.427
-128.143
-131.526
-136.789
-143.764
-150.987
-156.127
-157.231
-152.997
-144.177
-132.686
-118.28
-98.874
-70.569
-28.948
26.021
90.661
159.019
223.477
278.868
321.297
347.02
353.831
339.595
304.175
250.024
180.016
98.158
9.153
-81.45
-166.014
-237.454
-291.62
-328.58
-353.111
-370.336
-383.194
-391.91
-393.986
-388.451
-376.729
-361.204
-344.908
-329.591
-315.55
-303.103
-292.76
-284.598
-278.36
-273.551
-269.447
-265.641
-262.06
-258.374
-253.917
-248.343
-241.652
-234.03
-225.935
-217.736
-209.59
-201.831
-194.969
-189.299
-184.955
-181.93
-179.989
-178.92
-178.57
-178.683
-178.969
-179.22
-179.247
-178.943
-178.28
-177.204
-175.681
-173.714
-171.31
-168.492
-165.295
-161.742
-157.877
-153.763
-149.467
-145.068
-140.641
-136.252
-131.986
-127.908
-124.066
-120.507
-117.257
-114.325
-111.728
-109.468
-107.531
-105.909
-104.58
-103.515
-102.694
-102.086
-101.657
-101.371
-101.186
-101.066
-100.983
-100.909
-100.823
-100.705
-100.536
-100.298
-99.983
-99.577
-99.066
-98.44
-97.682
-96.781
-95.727
-94.511
-93.128
-91.57
-89.83
-87.902
-85.781
-83.462
-80.943
-78.22
-75.291
-72.155
-68.814
-65.273
-61.537
-57.614
-53.512
-49.242
-44.814
-40.243
-35.541
-30.722
-25.802
-20.796
-15.723
-10.599
-5.443
-0.274
4.888
10.025
15.115
20.14
25.08
29.916
34.63
39.203
43.617
47.857
51.905
55.746
59.367
62.754
65.895
68.779
71.395
73.736
75.796
77.567
79.046
80.23
81.119
81.711
82.01
82.017
81.738
81.177
80.344
79.245
77.892
76.295
74.467
72.421
70.171
67.733
65.122
62.356
59.449
56.42
53.285
50.063
46.769
43.422
40.039
36.636
33.229
29.836
26.47
23.146
19.88
16.683
13.569
10.549
7.633
4.832
2.153
-0.396
-2.809
-5.08
-7.207
-9.186
-11.015
-12.695
-14.226
-15.61
-16.849
-17.949
-18.913
-19.747
-20.456
-21.049
-21.531
-21.911
-22.197
-22.397
-22.519
-22.574
-22.569
-22.513
-22.415
-22.285
-22.131
-21.961
-21.785
-21.609
-21.443
-21.292
-21.165
-21.067
-21.004
-20.982
-21.006
-21.078
-21.204
-21.385
-21.624
-21.921
-22.279
-22.696
-23.173
-23.709
-24.301
-24.949
-25.648
-26.397
-27.193
-28.031
-28.909
-29.821
-30.765
-31.735
-32.727
-33.736
-34.757
-35.785
-36.816
-37.845
-38.865
-39.872
-40.862
-41.828
-42.768
-43.676
-44.549
-45.381
-46.169
-46.91
-47.6
-48.235
-48.814
-49.333
-49.79
-50.184
-50.513
-50.777
-50.974
-51.103
-51.166
-51.16
-51.088
-50.948
-50.742
-50.471
-50.136
-49.738
-49.28
-48.764
-48.192
-47.568
-46.895
-46.175
-45.414
-44.615
-43.782
-42.919
-42.033
-41.127
-40.207
-39.28
-38.351
-37.429
-36.52
-35.632
-34.772
-33.949
-33.17
-32.441
-31.771
-31.164
-30.627
-30.164
-29.78
-29.483
-29.278
-29.171
-29.164
-29.262
-29.468
-29.784
-30.212
-30.747
-31.385
-32.125
-32.964
-33.907
-34.956
-36.107
-37.357
-38.699
-40.123
-41.617
-43.164
-44.735
-46.302
-47.839
-49.32
-50.731
-52.055
-53.264
-54.331
-55.222
-55.905
-56.365
-56.59
-56.561
-56.282
-55.768
-55.056
-54.209
-53.28
-52.32
-51.385
-50.538
-49.85
-49.406
-49.262
-49.491
-50.193
-51.405
-53.131
-55.306
-57.71
-60.115
-62.336
-64.095
-65.074
-65.087
-64.007
-61.94
-59.392
-56.808
-54.458
-52.802
-52.31
-53.145
-55.411
-58.29
-59.708
-58.447
-53.878
-45.831
-35.336
-20.999
0.579
32.288
76.486
130.805
189.283
246.192
297.063
341.907
381.569
414.493
436.176
438.338
415.556
367.504
298.404
216.265
127.455
36.668
-51.916
-133.481
-201.666
-252.254
-284.257
-300.794
-307.975
-309.649
-307.369
-301.125
-289.625
-273.552
-254.871
-235.226
-216.411
-199.499
-185.046
-173.465
-164.554
-157.715
-152.281
-147.803
-143.991
-140.456
-136.508
-131.405
-124.798
-116.772
-107.696
-97.97
-87.912
-77.85
-68.274
-59.729
-52.537
-46.78
-42.347
-39.026
-36.629
-34.97
-33.821
-32.938
-32.142
-31.32
-30.394
-29.297
-27.95
-26.29
-24.285
-21.934
-19.245
-16.221
-12.879
-9.253
-5.395
-1.364
2.792
7.042
11.358
15.703
20.026
24.258
28.325
32.183
35.797
39.141
42.206
44.983
47.475
49.707
51.709
53.509
55.13
56.591
57.904
59.092
60.182
61.205
62.199
63.19
64.202
65.257
66.372
67.563
68.843
70.217
71.683
73.247
74.912
76.685
78.574
80.583
82.715
84.973
87.357
89.867
92.506
95.27
98.159
101.171
104.303
107.553
110.919
114.398
117.983
121.668
125.446
129.308
133.245
137.247
141.304
145.405
149.538
153.692
157.856
162.017
166.163
170.282
174.36
178.384
182.343
186.222
190.01
193.693
197.26
200.697
203.994
207.138
210.12
212.928
215.553
217.987
220.22
222.246
224.057
225.649
227.015
228.152
229.057
229.726
230.16
230.357
230.318
230.045
229.54
228.806
227.849
226.672
225.283
223.688
221.895
219.913
217.751
215.42
212.93
210.293
207.52
204.625
201.619
198.516
195.33
192.073
188.76
185.403
182.017
178.615
175.21
171.814
168.441
165.101
161.808
158.571
155.401
152.309
149.302
146.39
143.58
140.878
138.291
135.822
133.477
131.258
129.168
127.208
125.378
123.677
122.106
120.66
119.338
118.136
117.049
116.072
115.199
114.423
113.739
113.137
112.61
112.15
111.747
111.394
111.08
110.796
110.533
110.281
110.031
109.772
109.497
109.194
108.857
108.476
108.044
107.552
106.994
106.362
105.65
104.853
103.966
102.984
101.903
100.72
99.433
98.04
96.539
94.931
93.216
91.394
89.466
87.436
85.306
83.079
80.759
78.352
75.862
73.296
70.659
67.96
65.204
62.4
59.557
56.681
53.783
50.871
47.954
45.043
42.146
39.274
36.437
33.645
30.906
28.232
25.631
23.112
20.685
18.358
16.139
14.036
12.058
10.211
8.502
6.939
5.525
4.268
3.17
2.237
1.47
0.874
0.449
0.197
0.117
0.209
0.471
0.901
1.494
2.247
3.152
4.205
5.395
6.713
8.148
9.688
11.322
13.035
14.815
16.646
18.516
20.409
22.312
24.21
26.088
27.928
29.715
31.431
33.058
34.58
35.982
37.246
38.358
39.306
40.079
40.667
41.055
41.227
41.167
40.864
40.311
39.502
38.438
37.123
35.57
33.8
31.836
29.699
27.408
24.973
22.406
19.722
16.944
14.101
11.22
8.322
5.417
2.516
-0.382
-3.293
-6.258
-9.341
-12.604
-16.096
-19.854
-23.913
-28.312
-33.103
-38.34
-44.063
-50.323
-57.193
-64.69
-72.784
-81.356
-90.148
-98.861
-107.212
-114.884
-121.552
-127.013
-131.178
-134.215
-136.609
-138.883
-141.487
-144.8
-149.085
-154.451
-160.785
-167.447
-173.262
-176.812
-176.653
-171.611
-160.636
-142.762
-117.361
-84.318
-44.814
-1.427
43.116
86.201
126.903
166.208
203.268
235.597
257.326
259.784
239.022
195.009
132.765
61.282
-14.947
-92.836
-170.325
-245.716
-312.198
-364.225
-399.479
-418.829
-428.528
-433.474
-435.605
-435.023
-429.644
-419.18
-405.144
-389.18
-373.215
-358.146
-344.255
-332.182
-322.097
-313.798
-307.073
-301.513
-296.817
-292.906
-289.375
-285.436
-280.633
-274.87
-268.258
-261.181
-253.94
-246.679
-239.736
-233.655
-228.781
-225.269
-223.108
-222.068
-221.93
-222.536
-223.671
-225.065
-226.505
-227.819
-228.857
-229.554
-229.864
-229.746
-229.197
-228.224
-226.83
-225.026
-222.847
-220.331
-217.533
-214.512
-211.306
-207.953
-204.5
-201.008
-197.552
-194.199
-190.984
-187.927
-185.04
-182.334
-179.814
-177.475
-175.293
-173.236
-171.274
-169.381
-167.541
-165.731
-163.921
-162.078
-160.163
-158.145
-156.002
-153.716
-151.272
-148.656
-145.854
-142.86
-139.678
-136.308
-132.749
-128.999
-125.054
-120.913
-116.579
-112.057
-107.349
-102.461
-97.397
-92.161
-86.762
-81.206
-75.501
-69.654
-63.674
-57.568
-51.348
-45.027
-38.618
-32.134
-25.59
-19.002
-12.383
-5.752
0.877
7.489
14.068
20.599
27.067
33.456
39.751
45.939
52.005
57.934
63.714
69.333
74.777
80.037
85.1
89.957
94.599
99.018
103.205
107.156
110.863
114.324
117.534
120.491
123.193
125.642
127.836
129.778
131.471
132.918
134.124
135.094
135.834
136.352
136.653
136.748
136.643
136.349
135.875
135.23
134.426
133.473
132.381
131.163
129.829
128.391
126.86
125.247
123.564
121.821
120.03
118.2
116.341
114.464
112.578
110.69
108.81
106.945
105.102
103.287
101.507
99.765
98.066
96.415
94.814
93.265
91.771
90.332
88.95
87.625
86.356
85.143
83.984
82.879
81.825
80.821
79.863
78.95
78.078
77.245
76.448
75.682
74.947
74.237
73.55
72.884
72.234
71.598
70.974
70.357
69.747
69.141
68.536
67.932
67.326
66.718
66.106
65.491
64.873
64.25
63.624
62.995
62.364
61.731
61.098
60.466
59.836
59.211
58.591
57.979
57.376
56.784
56.204
55.639
55.09
54.557
54.044
53.552
53.081
52.635
52.213
51.818
51.451
51.112
50.803
50.525
50.277
50.06
49.875
49.721
49.597
49.504
49.44
49.405
49.398
49.418
49.463
49.532
49.623
49.733
49.861
50.004
50.16
50.327
50.501
50.681
50.864
51.046
51.226
51.4
51.564
51.716
51.851
51.967
52.059
52.123
52.157
52.155
52.115
52.033
51.903
51.723
51.488
51.193
50.833
50.403
49.897
49.31
48.636
47.87
47.006
46.042
44.971
43.793
42.505
41.104
39.59
37.959
36.209
34.339
32.349
30.238
28.009
25.662
23.2
20.63
17.958
15.191
12.333
9.384
6.345
3.222
0.025
-3.235
-6.544
-9.883
-13.231
-16.554
-19.818
-22.991
-26.041
-28.947
-31.687
-34.23
-36.544
-38.592
-40.34
-41.771
-42.876
-43.642
-44.078
-44.204
-44.055
-43.702
-43.213
-42.649
-42.08
-41.573
-41.192
-41.025
-41.14
-41.609
-42.526
-43.905
-45.72
-47.914
-50.32
-52.75
-55.028
-56.881
-58.008
-58.252
-57.472
-55.661
-53.09
-49.949
-46.444
-42.888
-39.412
-36.119
-33.204
-30.51
-27.46
-23.037
-15.554
-3.546
13.502
34.599
57.892
82.316
108.368
139.498
179.4
229.569
288.989
351.865
411.061
459.437
489.77
497.644
480.536
439.771
380.35
308.765
230.973
148.834
63.505
-23.443
-107.567
-179.216
-231.779
-262.741
-274.202
-274.38
-268.819
-259.646
-247.682
-231
-209.603
-185.727
-161.18
-138.175
-118.312
-102.029
-89.433
-80.261
-73.831
-69.421
-66.625
-64.936
-63.636
-62.092
-59.68
-56.128
-51.648
-46.555
-41.08
-35.512
-30.197
-25.53
-21.992
-19.79
-18.83
-18.921
-19.793
-21.203
-22.942
-24.721
-26.217
-27.202
-27.556
-27.248
-26.314
-24.778
-22.643
-19.947
-16.744
-13.112
-9.131
-4.869
-0.397
4.218
8.896
13.54
18.068
22.414
26.529
30.388
33.978
37.283
40.297
43.027
45.479
47.675
49.638
51.384
52.936
54.322
55.572
56.723
57.81
58.854
59.873
60.882
61.889
62.905
63.938
64.991
66.066
67.169
68.306
69.485
70.716
72.003
73.35
74.761
76.24
77.793
79.425
81.141
82.947
84.846
86.844
88.945
91.155
93.474
95.903
98.44
101.085
103.835
106.687
109.636
112.678
115.808
119.019
122.307
125.665
129.085
132.559
136.078
139.634
143.217
146.816
150.419
154.016
157.595
161.143
164.648
168.098
171.479
174.779
177.985
181.084
184.063
186.911
189.614
192.162
194.542
196.745
198.76
200.577
202.189
203.586
204.761
205.708
206.421
206.893
207.122
207.103
206.833
206.31
205.534
204.506
203.225
201.694
199.917
197.898
195.642
193.155
190.444
187.517
184.383
181.051
177.531
173.834
169.972
165.956
161.798
157.511
153.107
148.6
144.003
139.329
134.591
129.803
124.977
120.127
115.265
110.403
105.554
100.729
95.939
91.196
86.508
81.886
77.339
72.875
68.502
64.227
60.055
55.994
52.047
48.22
44.514
40.935
37.483
34.161
30.97
27.911
24.983
22.187
19.521
16.983
14.573
12.287
10.122
8.074
6.141
4.318
2.602
0.987
-0.53
-1.954
-3.287
-4.535
-5.702
-6.792
-7.809
-8.756
-9.639
-10.46
-11.223
-11.931
-12.588
-13.195
-13.754
-14.269
-14.74
-15.17
-15.561
-15.913
-16.228
-16.507
-16.749
-16.954
-17.122
-17.25
-17.336
-17.377
-17.372
-17.314
-17.201
-17.029
-16.796
-16.498
-16.134
-15.701
-15.197
-14.62
-13.968
-13.239
-12.428
-11.531
-10.543
-9.462
-8.285
-7.011
-5.639
-4.169
-2.602
-0.942
0.809
2.648
4.575
6.594
8.706
10.902
13.171
15.498
17.861
20.24
22.613
24.953
27.236
29.448
31.578
33.628
35.604
37.498
39.298
40.98
42.521
43.913
45.148
46.223
47.144
47.917
48.551
49.074
49.499
49.815
50.001
50.003
49.759
49.226
48.371
47.172
45.615
43.674
41.323
38.544
35.308
31.589
27.356
22.555
17.149
11.139
4.539
-2.595
-10.18
-18.156
-26.468
-35.053
-43.865
-52.841
-61.909
-71.016
-80.101
-89.1
-97.947
-106.552
-114.827
-122.715
-130.163
-137.149
-143.684
-149.758
-155.365
-160.522
-165.246
-169.569
-173.549
-177.215
-180.591
-183.727
-186.67
-189.491
-192.279
-195.088
-197.993
-201.097
-204.429
-207.985
-211.683
-215.285
-218.537
-221.21
-222.995
-223.575
-222.786
-220.582
-217.196
-213.227
-209.292
-205.949
-203.778
-203.251
-204.575
-207.629
-211.726
-215.518
-217.437
-215.868
-209.124
-195.678
-174.381
-144.517
-106.117
-60.169
-8.221
47.106
102.083
153.048
196.327
230.109
254.791
269.999
275.253
267.175
239.361
188.219
111.868
14.042
-94.153
-201.327
-295.032
-366.304
-414.699
-443.119
-458.054
-466.711
-471.314
-471.853
-467.024
-455.019
-436.825
-414.948
-391.886
-370.139
-351.163
-335.577
-323.786
-315.658
-310.715
-308.364
-307.885
-308.517
-309.411
-309.612
-308.208
-304.719
-299.091
-291.507
-282.323
-271.959
-260.934
-249.915
-239.595
-230.394
-222.44
-215.696
-210.009
-205.212
-201.136
-197.55
-194.188
-190.887
-187.597
-184.312
-181.059
-177.829
-174.548
-171.159
-167.643
-163.984
-160.178
-156.229
-152.128
-147.889
-143.554
-139.163
-134.749
-130.335
-125.925
-121.527
-117.166
-112.88
-108.726
-104.759
-101.014
-97.513
-94.268
-91.281
-88.552
-86.069
-83.804
-81.725
-79.805
-78.023
-76.368
-74.821
-73.36
-71.954
-70.565
-69.162
-67.717
-66.209
-64.617
-62.923
-61.113
-59.178
-57.116
-54.928
-52.609
-50.157
-47.565
-44.83
-41.951
-38.93
-35.77
-32.472
-29.039
-25.477
-21.789
-17.984
-14.068
-10.046
-5.926
-1.716
2.576
6.937
11.356
15.82
20.317
24.832
29.35
33.859
38.342
42.786
47.176
51.5
55.743
59.891
63.931
67.85
71.635
75.276
78.759
82.074
85.212
88.161
90.914
93.461
95.796
97.912
99.802
101.463
102.89
104.08
105.033
105.746
106.221
106.46
106.464
106.237
105.784
105.11
104.223
103.129
101.837
100.355
98.695
96.865
94.876
92.741
90.471
88.078
85.576
82.976
80.292
77.538
74.727
71.871
68.984
66.08
63.17
60.267
57.383
54.53
51.719
48.96
46.262
43.636
41.088
38.626
36.256
33.985
31.817
29.756
27.805
25.965
24.239
22.627
21.129
19.743
18.468
17.301
16.24
15.279
14.416
13.645
12.962
12.36
11.834
11.378
10.985
10.65
10.364
10.122
9.918
9.743
9.593
9.46
9.34
9.226
9.112
8.994
8.868
8.729
8.572
8.395
8.194
7.966
7.709
7.42
7.097
6.74
6.346
5.915
5.446
4.939
4.394
3.811
3.19
2.532
1.837
1.106
0.34
-0.46
-1.293
-2.158
-3.053
-3.977
-4.929
-5.908
-6.913
-7.942
-8.995
-10.07
-11.168
-12.286
-13.423
-14.579
-15.752
-16.94
-18.142
-19.355
-20.578
-21.807
-23.04
-24.276
-25.51
-26.74
-27.963
-29.175
-30.374
-31.555
-32.714
-33.849
-34.956
-36.03
-37.067
-38.065
-39.018
-39.925
-40.781
-41.583
-42.326
-43.007
-43.623
-44.171
-44.647
-45.049
-45.375
-45.625
-45.797
-45.893
-45.913
-45.861
-45.74
-45.554
-45.309
-45.011
-44.667
-44.284
-43.87
-43.432
-42.98
-42.522
-42.067
-41.625
-41.207
-40.824
-40.485
-40.202
-39.987
-39.851
-39.807
-39.863
-40.029
-40.313
-40.724
-41.272
-41.972
-42.832
-43.859
-45.057
-46.428
-47.968
-49.674
-51.531
-53.513
-55.594
-57.75
-59.959
-62.204
-64.469
-66.734
-68.974
-71.16
-73.27
-75.288
-77.207
-79.023
-80.735
-82.352
-83.913
-85.49
-87.155
-88.983
-91.022
-93.299
-95.85
-98.718
-101.961
-105.629
-109.743
-114.308
-119.329
-124.838
-130.841
-137.249
-143.838
-150.262
-156.174
-161.275
-165.292
-167.898
-168.845
-168.104
-165.914
-162.802
-159.274
-155.775
-152.829
-150.852
-150.098
-150.047
-149.113
-146.099
-140.346
-131.865
-121.839
-109.077
-90.222
-62.381
-22.413
28.512
84.241
138.591
185.077
220.216
245.695
263.322
273.755
275.637
263.121
230.806
176.989
102.687
14.788
-77.413
-165.861
-241.688
-299.519
-338.413
-359.651
-368.52
-371.128
-370.463
-367.602
-361.965
-352.113
-338.575
-323.059
-307.138
-292.404
-279.686
-269.177
-260.701
-253.773
-247.845
-242.29
-236.727
-230.889
-224.3
-216.573
-207.608
-197.445
-186.362
-174.84
-163.227
-151.89
-141.344
-131.928
-123.806
-117.065
-111.611
-107.266
-103.886
-101.248
-99.055
-97.116
-95.299
-93.505
-91.691
-89.778
-87.676
-85.323
-82.697
-79.791
-76.6
-73.119
-69.343
-65.296
-61.03
-56.612
-52.112
-47.571
-43.032
-38.533
-34.13
-29.894
-25.885
-22.142
-18.693
-15.55
-12.724
-10.224
-8.045
-6.164
-4.556
-3.185
-2.024
-1.05
-0.239
0.438
1.014
1.531
2.025
2.521
3.044
3.613
4.249
4.97
5.79
6.715
7.75
8.904
10.184
11.602
13.165
14.878
16.746
18.77
20.952
23.296
25.803
28.473
31.307
34.301
37.454
40.767
44.234
47.852
51.612
55.508
59.531
63.671
67.918
72.262
76.691
81.193
85.756
90.369
95.019
99.693
104.378
109.061
113.728
118.367
122.963
127.503
131.975
136.365
140.661
144.851
148.923
152.866
156.668
160.322
163.816
167.144
170.298
173.271
176.058
178.655
181.057
183.262
185.268
187.074
188.68
190.087
191.296
192.31
193.132
193.767
194.218
194.492
194.596
194.535
194.319
193.955
193.453
192.823
192.074
191.218
190.266
189.228
188.118
186.946
185.724
184.463
183.176
181.873
180.566
179.264
177.978
176.717
175.491
174.308
173.177
172.104
171.096
170.16
169.301
168.524
167.832
167.229
166.717
166.298
165.974
165.743
165.607
165.564
165.611
165.747
165.967
166.269
166.648
167.098
167.614
168.19
168.82
169.498
170.217
170.97
171.751
172.552
173.366
174.188
175.01
175.826
176.63
177.415
178.176
178.909
179.607
180.266
180.882
181.451
181.97
182.436
182.847
183.2
183.494
183.729
183.903
184.018
184.073
184.07
184.012
183.898
183.734
183.52
183.262
182.962
182.624
182.252
181.852
181.429
180.986
180.528
180.061
179.589
179.117
178.65
178.192
177.748
177.323
176.921
176.546
176.204
175.897
175.63
175.405
175.225
175.092
175.011
174.984
175.014
175.103
175.253
175.465
175.74
176.079
176.48
176.941
177.458
178.031
178.657
179.339
180.073
180.857
181.683
182.546
183.436
184.349
185.278
186.216
187.155
188.09
189.019
189.943
190.86
191.768
192.658
193.514
194.327
195.096
195.825
196.533
197.228
197.907
198.56
199.174
199.741
200.273
200.755
201.145
201.437
201.647
201.853
202.223
202.818
203.583
204.445
205.298
206.009
206.471
206.413
205.387
203.186
199.853
195.591
190.807
185.851
180.952
176.539
173.236
171.376
171.02
171.941
173.58
175.527
177.579
179.407
180.592
180.888
180.199
178.691
176.811
174.838
172.861
170.97
169.236
167.702
166.386
165.172
163.804
162.091
159.921
157.231
153.989
150.128
145.602
140.422
134.708
128.702
122.673
116.857
111.493
106.862
103.202
100.672
99.196
98.409
97.815
97.018
95.795
93.788
90.611
86.238
81.002
76.182
74.004
75.674
81.588
91.69
104.686
121.191
143.236
172.584
211.569
260.048
315.364
372.774
425.186
464.942
484.67
480.668
453.58
407.833
350.659
286.784
217.059
140.343
55.829
-32.898
-117.156
-187.602
-238.913
-271.771
-291.228
-302.441
-307.254
-303.86
-291.444
-272.375
-250.915
-233.252
-222.254
-216.191
-213.151
-210.314
-206.501
-203.474
-201.841
-201.564
-202.149
-201.737
-199.157
-194.242
-187.008
-177.874
-167.434
-156.146
-144.56
-133.435
-123.341
-114.56
-107.243
-101.365
-96.778
-93.344
-90.856
-89.002
-87.556
-86.399
-85.461
-84.739
-84.231
-83.895
-83.676
-83.514
-83.329
-83.023
-82.522
-81.768
-80.728
-79.409
-77.833
-76.038
-74.068
-71.961
-69.744
-67.442
-65.075
-62.665
-60.254
-57.895
-55.649
-53.59
-51.773
-50.232
-48.991
-48.058
-47.428
-47.089
-47.018
-47.189
-47.578
-48.167
-48.939
-49.879
-50.964
-52.163
-53.442
-54.76
-56.08
-57.375
-58.618
-59.791
-60.877
-61.862
-62.74
-63.508
-64.162
-64.693
-65.096
-65.36
-65.479
-65.448
-65.265
-64.929
-64.439
-63.795
-62.998
-62.05
-60.952
-59.708
-58.319
-56.789
-55.12
-53.32
-51.395
-49.354
-47.206
-44.962
-42.631
-40.228
-37.764
-35.252
-32.704
-30.135
-27.556
-24.982
-22.427
-19.903
-17.425
-15.006
-12.658
-10.395
-8.229
-6.172
-4.235
-2.43
-0.767
0.746
2.1
3.287
4.302
5.139
5.794
6.263
6.543
6.635
6.536
6.249
5.776
5.118
4.282
3.271
2.094
0.756
-0.733
-2.364
-4.128
-6.013
-8.008
-10.102
-12.281
-14.533
-16.844
-19.201
-21.589
-23.995
-26.404
-28.803
-31.178
-33.516
-35.804
-38.028
-40.177
-42.24
-44.205
-46.063
-47.803
-49.416
-50.896
-52.234
-53.425
-54.463
-55.344
-56.066
-56.625
-57.021
-57.253
-57.324
-57.233
-56.985
-56.582
-56.03
-55.333
-54.497
-53.528
-52.435
-51.224
-49.904
-48.483
-46.971
-45.377
-43.709
-41.979
-40.195
-38.367
-36.506
-34.621
-32.722
-30.819
-28.921
-27.037
-25.178
-23.351
-21.565
-19.828
-18.147
-16.529
-14.98
-13.507
-12.114
-10.805
-9.586
-8.458
-7.426
-6.49
-5.654
-4.918
-4.283
-3.749
-3.317
-2.986
-2.754
-2.621
-2.584
-2.64
-2.789
-3.025
-3.347
-3.749
-4.229
-4.782
-5.402
-6.084
-6.823
-7.613
-8.447
-9.319
-10.223
-11.152
-12.099
-13.058
-14.022
-14.985
-15.941
-16.884
-17.807
-18.704
-19.571
-20.4
-21.188
-21.928
-22.616
-23.248
-23.818
-24.324
-24.761
-25.126
-25.417
-25.63
-25.765
-25.82
-25.793
-25.685
-25.497
-25.23
-24.887
-24.471
-23.987
-23.442
-22.841
-22.194
-21.507
-20.79
-20.052
-19.303
-18.553
-17.812
-17.09
-16.397
-15.742
-15.137
-14.594
-14.123
-13.735
-13.442
-13.255
-13.185
-13.243
-13.439
-13.778
-14.269
-14.917
-15.733
-16.726
-17.904
-19.269
-20.823
-22.565
-24.488
-26.583
-28.833
-31.209
-33.68
-36.218
-38.796
-41.395
-43.99
-46.556
-49.066
-51.488
-53.798
-55.982
-58.023
-59.914
-61.656
-63.259
-64.76
-66.23
-67.736
-69.345
-71.122
-73.104
-75.341
-77.893
-80.806
-84.139
-87.929
-92.184
-96.928
-102.195
-107.961
-114.158
-120.612
-127.008
-133.034
-138.401
-142.784
-145.873
-147.405
-147.206
-145.365
-142.24
-138.265
-133.879
-129.502
-125.534
-122.298
-119.922
-118.085
-115.975
-112.498
-106.498
-96.781
-82.066
-61.241
-33.345
1.471
41.47
84.622
128.628
172.262
216.143
259.428
298.965
329.007
340.959
328.689
290.858
230.394
153.779
66.68
-26.322
-120.847
-211.138
-288.485
-346.59
-383.079
-400.88
-408.495
-412.056
-414.145
-414.368
-409.395
-398.358
-382.841
-364.872
-346.837
-329.644
-313.279
-298.117
-284.42
-272.457
-262.341
-253.773
-246.637
-241.024
-236.731
-233.264
-229.965
-226.082
-221.283
-215.66
-209.272
-202.189
-194.603
-186.773
-179.137
-172.251
-166.38
-161.533
-157.653
-154.589
-152.208
-150.418
-149.025
-147.782
-146.513
-145.1
-143.471
-141.61
-139.495
-137.1
-134.432
-131.521
-128.403
-125.12
-121.713
-118.214
-114.652
-111.047
-107.422
-103.796
-100.203
-96.686
-93.294
-90.079
-87.081
-84.327
-81.834
-79.608
-77.645
-75.93
-74.439
-73.142
-72.016
-71.038
-70.19
-69.454
-68.808
-68.224
-67.669
-67.109
-66.51
-65.849
-65.1
-64.245
-63.27
-62.163
-60.917
-59.53
-58
-56.322
-54.491
-52.5
-50.347
-48.028
-45.544
-42.897
-40.09
-37.125
-34.008
-30.744
-27.339
-23.801
-20.136
-16.351
-12.455
-8.46
-4.376
-0.218
4
8.264
12.559
16.867
21.173
25.46
29.712
33.914
38.049
42.101
46.055
49.895
53.606
57.174
60.584
63.821
66.873
69.727
72.37
74.792
76.981
78.93
80.628
82.07
83.248
84.159
84.798
85.164
85.254
85.069
84.612
83.885
82.892
81.639
80.132
78.381
76.393
74.179
71.749
69.115
66.29
63.285
60.115
56.794
53.338
49.76
46.078
42.308
38.465
34.566
30.627
26.665
22.697
18.736
14.8
10.904
7.061
3.285
-0.41
-4.013
-7.511
-10.896
-14.157
-17.288
-20.281
-23.131
-25.832
-28.382
-30.778
-33.018
-35.103
-37.032
-38.807
-40.43
-41.905
-43.235
-44.426
-45.483
-46.411
-47.218
-47.911
-48.497
-48.985
-49.382
-49.696
-49.937
-50.114
-50.234
-50.307
-50.341
-50.344
-50.325
-50.291
-50.249
-50.206
-50.168
-50.14
-50.127
-50.134
-50.164
-50.22
-50.304
-50.419
-50.566
-50.746
-50.958
-51.203
-51.479
-51.785
-52.12
-52.481
-52.866
-53.271
-53.695
-54.133
-54.583
-55.039
-55.499
-55.959
-56.413
-56.857
-57.286
-57.696
-58.083
-58.44
-58.765
-59.052
-59.297
-59.496
-59.646
-59.742
-59.781
-59.76
-59.676
-59.525
-59.306
-59.015
-58.651
-58.21
-57.693
-57.097
-56.421
-55.664
-54.826
-53.906
-52.904
-51.82
-50.654
-49.407
-48.079
-46.671
-45.187
-43.628
-41.996
-40.295
-38.528
-36.7
-34.815
-32.878
-30.894
-28.869
-26.81
-24.722
-22.613
-20.49
-18.362
-16.236
-14.122
-12.029
-9.969
-7.951
-5.986
-4.084
-2.256
-0.513
1.135
2.679
4.113
5.427
6.613
7.663
8.567
9.32
9.915
10.348
10.614
10.709
10.633
10.391
9.986
9.423
8.702
7.822
6.783
5.591
4.25
2.77
1.163
-0.556
-2.366
-4.235
-6.133
-8.033
-9.91
-11.749
-13.528
-15.22
-16.8
-18.23
-19.483
-20.544
-21.389
-22.001
-22.388
-22.563
-22.561
-22.447
-22.258
-22.037
-21.841
-21.714
-21.725
-21.944
-22.408
-23.176
-24.324
-25.886
-27.869
-30.184
-32.586
-34.822
-36.691
-37.941
-38.311
-37.602
-35.705
-32.834
-29.549
-26.423
-23.866
-22.221
-21.902
-23.255
-26.361
-30.204
-32.73
-32.043
-26.909
-17.879
-6.329
8.014
26.836
53.318
90.841
139.553
197.039
259.518
321.342
376.721
419.603
442.705
440.783
412.697
361.113
292.499
213.234
127.205
37.733
-51.704
-134.824
-203.456
-252.637
-281.449
-294.413
-299.186
-300.395
-299.766
-296.608
-288.748
-276.46
-261.59
-245.633
-230.102
-215.527
-201.758
-189.052
-177.574
-167.067
-157.227
-148.031
-139.612
-132.133
-125.613
-119.573
-113.411
-107
-100.486
-94.01
-87.709
-81.645
-75.902
-70.884
-67.115
-64.849
-64.118
-64.817
-66.747
-69.747
-73.679
-78.288
-83.232
-88.22
-93.028
-97.503
-101.547
-105.081
-108.029
-110.345
-112.028
-113.091
-113.554
-113.452
-112.813
-111.675
-110.087
-108.093
-105.75
-103.131
-100.314
-97.377
-94.408
-91.462
-88.581
-85.797
-83.122
-80.557
-78.097
-75.726
-73.417
-71.15
-68.906
-66.667
-64.417
-62.134
-59.79
-57.354
-54.795
-52.089
-49.222
-46.182
-42.964
-39.568
-35.997
-32.259
-28.367
-24.33
-20.156
-15.851
-11.42
-6.867
-2.203
2.564
7.425
12.37
17.392
22.481
27.63
32.83
38.074
43.354
48.666
54.001
59.35
64.705
70.056
75.39
80.699
85.972
91.197
96.363
101.46
106.477
111.404
116.231
120.948
125.546
130.015
134.344
138.526
142.551
146.409
150.093
153.593
156.902
160.012
162.916
165.608
168.081
170.331
172.353
174.142
175.696
177.013
178.09
178.927
179.524
179.883
180.006
179.894
179.553
178.988
178.204
177.207
176.005
174.605
173.017
171.25
169.313
167.216
164.972
162.591
160.086
157.468
154.752
151.949
149.073
146.138
143.157
140.142
137.107
134.065
131.029
128.011
125.022
122.074
119.178
116.344
113.581
110.899
108.304
105.804
103.405
101.112
98.93
96.862
94.911
93.079
91.368
89.777
88.305
86.953
85.717
84.595
83.584
82.68
81.879
81.175
80.562
80.037
79.591
79.219
78.914
78.669
78.477
78.331
78.225
78.15
78.1
78.069
78.05
78.036
78.022
78.001
77.97
77.923
77.855
77.762
77.641
77.488
77.3
77.076
76.812
76.509
76.164
75.777
75.348
74.877
74.366
73.815
73.227
72.602
71.944
71.256
70.54
69.8
69.04
68.264
67.475
66.68
65.881
65.084
64.295
63.516
62.755
62.014
61.3
60.617
59.97
59.364
58.804
58.295
57.841
57.448
57.119
56.858
56.669
56.555
56.52
56.566
56.695
56.909
57.209
57.596
58.071
58.633
59.283
60.018
60.836
61.736
62.715
63.77
64.895
66.088
67.342
68.653
70.016
71.424
72.87
74.346
75.847
77.362
78.883
80.4
81.902
83.378
84.817
86.209
87.543
88.809
89.996
91.097
92.103
93.008
93.803
94.48
95.031
95.45
95.731
95.871
95.864
95.706
95.397
94.942
94.341
93.599
92.715
91.685
90.509
89.192
87.739
86.159
84.467
82.678
80.815
78.913
77.003
75.116
73.279
71.507
69.823
68.255
66.828
65.58
64.534
63.699
63.09
62.715
62.558
62.598
62.787
63.049
63.328
63.57
63.71
63.702
63.481
62.973
62.131
60.892
59.192
57.026
54.406
51.405
48.215
45.057
42.166
39.837
38.334
37.829
38.444
40.11
42.518
45.307
48.073
50.436
52.168
53.077
53.048
52.416
51.881
52.763
57.032
65.75
79.372
97.565
118.778
143.309
172.32
206.81
248.515
296.18
346.798
397.135
441.538
474.548
490.751
484.989
455.974
405.889
339.234
261.24
176.523
88.85
2.943
-74.246
-137.269
-183.048
-212.435
-230.972
-242.862
-250.138
-252.762
-248.269
-236.384
-218.839
-197.742
-175.956
-155.124
-135.829
-118.953
-104.972
-93.83
-85.354
-79.045
-74.26
-70.611
-67.632
-64.486
-60.43
-55.14
-48.6
-41.109
-33.075
-24.767
-16.486
-8.719
-1.976
3.444
7.48
10.285
12.117
13.201
13.727
13.926
14.077
14.407
15.057
16.112
17.573
19.42
21.656
24.266
27.214
30.466
33.964
37.636
41.422
45.258
49.076
52.824
56.427
59.803
62.886
65.624
67.979
69.941
71.497
72.632
73.348
73.658
73.582
73.154
72.403
71.351
70.028
68.467
66.705
64.789
62.756
60.637
58.458
56.242
54.011
51.79
49.597
47.445
45.348
43.32
41.377
39.538
37.819
36.232
34.789
33.502
32.379
31.433
30.675
30.113
29.754
29.606
29.674
29.966
30.484
31.229
32.2
33.395
34.808
36.436
38.27
40.301
42.519
44.915
47.475
50.189
53.042
56.019
59.105
62.285
65.541
68.856
72.213
75.592
78.977
82.348
85.688
88.979
92.203
95.342
98.381
101.302
104.09
106.73
109.209
111.515
113.634
115.558
117.277
118.783
120.069
121.131
121.964
122.566
122.935
123.071
122.975
122.649
122.096
121.321
120.33
119.13
117.728
116.132
114.353
112.401
110.286
108.021
105.617
103.086
100.443
97.698
94.866
91.959
88.99
85.972
82.917
79.837
76.742
73.644
70.553
67.478
64.427
61.408
58.429
55.495
52.613
49.786
47.019
44.313
41.672
39.097
36.587
34.144
31.765
29.45
27.195
24.999
22.858
20.769
18.727
16.727
14.767
12.839
10.941
9.066
7.211
5.37
3.539
1.714
-0.109
-1.933
-3.763
-5.599
-7.446
-9.304
-11.175
-13.059
-14.958
-16.871
-18.797
-20.735
-22.684
-24.642
-26.606
-28.573
-30.54
-32.504
-34.461
-36.405
-38.334
-40.243
-42.125
-43.977
-45.792
-47.567
-49.295
-50.971
-52.591
-54.15
-55.642
-57.064
-58.411
-59.678
-60.862
-61.96
-62.968
-63.883
-64.704
-65.427
-66.052
-66.577
-67.001
-67.323
-67.543
-67.661
-67.677
-67.593
-67.407
-67.123
-66.742
-66.266
-65.698
-65.041
-64.298
-63.473
-62.569
-61.591
-60.544
-59.431
-58.259
-57.031
-55.754
-54.434
-53.076
-51.689
-50.277
-48.848
-47.409
-45.967
-44.529
-43.102
-41.695
-40.315
-38.97
-37.669
-36.421
-35.235
-34.121
-33.09
-32.15
-31.311
-30.582
-29.972
-29.493
-29.151
-28.955
-28.909
-29.021
-29.298
-29.745
-30.37
-31.173
-32.158
-33.324
-34.673
-36.206
-37.923
-39.816
-41.875
-44.091
-46.455
-48.965
-51.618
-54.402
-57.302
-60.304
-63.392
-66.549
-69.756
-72.98
-76.189
-79.349
-82.425
-85.402
-88.267
-91.006
-93.606
-96.035
-98.254
-100.234
-101.956
-103.401
-104.584
-105.508
-106.162
-106.593
-106.888
-107.184
-107.635
-108.313
-109.175
-110.182
-111.35
-112.7
-114.214
-115.666
-116.723
-117.196
-117.042
-116.349
-115.14
-113.286
-110.676
-107.505
-104.163
-101.048
-98.543
-96.721
-95.658
-95.626
-96.798
-99.128
-102.284
-105.523
-107.762
-108.045
-105.296
-98.3
-85.905
-66.892
-40.357
-5.934
35.622
82.314
131.771
181.312
229.065
275.149
319.129
358.562
389.492
404.33
394.906
358.12
293.483
204.909
102.952
-3.175
-103.357
-186.071
-248.342
-290.435
-315.039
-330.846
-341.119
-345.402
-344.789
-337.282
-324.211
-310.132
-295.884
-282.694
-270.878
-259.008
-248.478
-240.203
-233.915
-229.727
-226.369
-222.763
-218.713
-213.677
-207.324
-199.703
-190.877
-181.164
-171.132
-161.185
-151.655
-143.013
-135.603
-129.571
-124.977
-121.706
-119.498
-118.144
-117.405
-116.949
-116.551
-116.056
-115.309
-114.254
-112.855
-111.042
-108.804
-106.161
-103.113
-99.683
-95.901
-91.784
-87.39
-82.8
-78.084
-73.336
-68.632
-64.041
-59.648
-55.52
-51.703
-48.246
-45.17
-42.486
-40.206
-38.333
-36.852
-35.755
-35.019
-34.615
-34.52
-34.701
-35.124
-35.753
-36.546
-37.465
-38.481
-39.565
-40.693
-41.846
-43
-44.139
-45.249
-46.315
-47.321
-48.253
-49.092
-49.824
-50.435
-50.915
-51.252
-51.437
-51.46
-51.31
-50.98
-50.463
-49.751
-48.84
-47.722
-46.396
-44.861
-43.118
-41.17
-39.023
-36.682
-34.156
-31.453
-28.585
-25.563
-22.399
-19.107
-15.7
-12.194
-8.606
-4.951
-1.247
2.489
6.237
9.98
13.699
17.375
20.989
24.525
27.962
31.285
34.476
37.518
40.396
43.095
45.601
47.902
49.986
51.842
53.462
54.838
55.964
56.834
57.445
57.795
57.884
57.712
57.282
56.596
55.659
54.478
53.059
51.411
49.544
47.467
45.192
42.732
40.099
37.308
34.373
31.309
28.131
24.855
21.497
18.072
14.598
11.089
7.561
4.029
0.509
-2.986
-6.442
-9.845
-13.183
-16.445
-19.62
-22.698
-25.67
-28.529
-31.268
-33.881
-36.363
-38.711
-40.921
-42.991
-44.921
-46.711
-48.36
-49.87
-51.244
-52.484
-53.594
-54.578
-55.441
-56.188
-56.825
-57.357
-57.791
-58.132
-58.389
-58.566
-58.672
-58.713
-58.696
-58.627
-58.513
-58.36
-58.175
-57.963
-57.73
-57.48
-57.218
-56.948
-56.675
-56.401
-56.13
-55.864
-55.605
-55.357
-55.119
-54.894
-54.682
-54.483
-54.298
-54.126
-53.968
-53.822
-53.689
-53.566
-53.453
-53.35
-53.253
-53.162
-53.074
-52.988
-52.902
-52.814
-52.72
-52.62
-52.511
-52.391
-52.258
-52.11
-51.945
-51.76
-51.554
-51.325
-51.071
-50.79
-50.48
-50.14
-49.768
-49.363
-48.925
-48.452
-47.944
-47.4
-46.82
-46.203
-45.548
-44.857
-44.129
-43.364
-42.564
-41.73
-40.862
-39.964
-39.036
-38.081
-37.103
-36.104
-35.088
-34.057
-33.017
-31.973
-30.929
-29.892
-28.869
-27.864
-26.888
-25.949
-25.055
-24.214
-23.436
-22.728
-22.1
-21.561
-21.117
-20.775
-20.543
-20.427
-20.436
-20.578
-20.86
-21.289
-21.87
-22.608
-23.508
-24.574
-25.803
-27.193
-28.744
-30.454
-32.329
-34.37
-36.574
-38.936
-41.448
-44.1
-46.877
-49.755
-52.702
-55.687
-58.684
-61.667
-64.622
-67.533
-70.374
-73.12
-75.739
-78.204
-80.501
-82.617
-84.534
-86.25
-87.787
-89.183
-90.507
-91.822
-93.162
-94.565
-96.074
-97.731
-99.603
-101.758
-104.223
-107.045
-110.284
-113.95
-118.027
-122.4
-126.79
-130.884
-134.422
-137.131
-138.746
-139.107
-138.162
-136.114
-133.51
-130.975
-128.952
-127.713
-127.61
-128.881
-131.362
-134.504
-136.707
-135.544
-129.849
-119.19
-103.618
-84.721
-61.645
-32.143
4.52
49.928
101.866
154.984
205.819
249.75
283.868
307.225
316.302
307.358
277.113
222.953
145.633
51.107
-51.382
-150.825
-235.38
-299.095
-341.928
-367.691
-384.313
-396.519
-404.915
-408.291
-403.518
-390.176
-370.582
-347.461
-323.939
-301.801
-281.678
-264.411
-250.526
-239.967
-232.41
-227.195
-223.494
-220.751
-218.411
-215.556
-211.332
-205.365
-197.631
-188.456
-178.369
-167.769
-157.042
-146.774
-137.533
-129.645
-123.234
-118.205
-114.337
-111.446
-109.349
-107.807
-106.583
-105.504
-104.454
-103.362
-102.159
-100.758
-99.092
-97.125
-94.852
-92.279
-89.401
-86.227
-82.779
-79.097
-75.233
-71.224
-67.094
-62.863
-58.564
-54.244
-49.974
-45.826
-41.849
-38.077
-34.533
-31.229
-28.171
-25.357
-22.764
-20.361
-18.123
-16.025
-14.051
-12.191
-10.422
-8.719
-7.048
-5.374
-3.668
-1.909
-0.076
1.846
3.869
6.002
8.247
10.598
13.055
15.617
18.287
21.066
23.956
26.953
30.054
33.256
36.553
39.941
43.415
46.967
50.592
54.284
58.036
61.843
65.699
69.595
73.523
77.472
81.432
85.393
89.344
93.273
97.169
101.022
104.821
108.555
112.216
115.792
119.276
122.657
125.927
129.078
132.102
134.991
137.739
140.339
142.785
145.072
147.195
149.15
150.934
152.542
153.973
155.226
156.298
157.19
157.901
158.432
158.786
158.963
158.966
158.801
158.47
157.978
157.332
156.537
155.599
154.525
153.322
151.999
150.562
149.02
147.382
145.657
143.855
141.984
140.054
138.075
136.057
134.009
131.941
129.863
127.785
125.715
123.664
121.64
119.653
117.711
115.822
113.994
112.234
110.55
108.947
107.431
106.006
104.678
103.45
102.325
101.305
100.392
99.588
98.893
98.307
97.828
97.455
97.185
97.017
96.946
96.969
97.081
97.278
97.554
97.904
98.321
98.801
99.335
99.917
100.541
101.198
101.882
102.585
103.3
104.02
104.738
105.446
106.139
106.81
107.452
108.061
108.63
109.155
109.63
110.053
110.419
110.725
110.968
111.147
111.26
111.306
111.284
111.193
111.036
110.811
110.521
110.166
109.748
109.271
108.735
108.145
107.504
106.815
106.082
105.31
104.502
103.664
102.799
101.913
101.009
100.092
99.168
98.24
97.313
96.392
95.481
94.585
93.708
92.854
92.028
91.232
90.469
89.744
89.058
88.415
87.816
87.265
86.764
86.314
85.917
85.576
85.291
85.064
84.894
84.784
84.732
84.739
84.805
84.928
85.109
85.345
85.637
85.984
86.382
86.831
87.327
87.869
88.454
89.077
89.733
90.418
91.128
91.856
92.6
93.354
94.113
94.873
95.633
96.388
97.137
97.874
98.595
99.295
99.971
100.62
101.24
101.829
102.382
102.902
103.393
103.856
104.294
104.702
105.074
105.404
105.695
105.948
106.167
106.36
106.534
106.706
106.902
107.144
107.455
107.848
108.328
108.91
109.612
110.452
111.459
112.65
114.028
115.601
117.369
119.316
121.418
123.629
125.88
128.113
130.264
132.266
134.062
135.575
136.745
137.514
137.786
137.53
136.764
135.538
134.018
132.41
130.864
129.582
128.847
128.809
129.564
131.057
132.892
134.669
136.124
137.037
137.139
136.175
134.115
131.223
128.749
128.681
132.012
139.073
149.457
161.562
176.422
197.115
226.158
266.105
314.661
365.485
412.862
452.334
484.109
509.779
528.858
537.692
528.069
494.829
437.026
357.387
265.157
168.758
75.498
-5.501
-68.888
-112.287
-135.777
-145.112
-147.164
-145.618
-142.133
-135.857
-124.804
-109.507
-91.783
-73.319
-55.97
-40.628
-27.597
-17.122
-8.952
-2.567
2.521
6.587
9.789
12.411
15.042
18.376
22.766
28.182
34.397
41.189
48.371
55.725
62.833
69.159
74.401
78.506
81.568
83.79
85.354
86.406
87.175
87.923
88.797
89.87
91.149
92.588
94.184
95.947
97.852
99.863
101.937
104.027
106.094
108.088
109.931
111.539
112.826
113.728
114.211
114.252
113.835
112.947
111.574
109.711
107.367
104.551
101.274
97.552
93.402
88.856
83.959
78.76
73.312
67.664
61.851
55.909
49.873
43.773
37.641
31.505
25.388
19.315
13.317
7.422
1.66
-3.942
-9.362
-14.581
-19.579
-24.338
-28.84
-33.068
-37.009
-40.647
-43.97
-46.964
-49.619
-51.926
-53.882
-55.482
-56.728
-57.622
-58.167
-58.371
-58.241
-57.788
-57.024
-55.961
-54.614
-52.996
-51.125
-49.019
-46.696
-44.175
-41.479
-38.626
-35.64
-32.541
-29.353
-26.097
-22.794
-19.466
-16.134
-12.818
-9.538
-6.313
-3.16
-0.098
2.859
5.695
8.396
10.951
13.348
15.579
17.634
19.509
21.196
22.694
23.998
25.108
26.024
26.746
27.276
27.619
27.778
27.759
27.569
27.215
26.706
26.051
25.26
24.344
23.313
22.178
20.951
19.643
18.266
16.832
15.351
13.836
12.298
10.746
9.191
7.643
6.112
4.605
3.13
1.695
0.307
-1.028
-2.305
-3.52
-4.667
-5.745
-6.749
-7.679
-8.533
-9.31
-10.012
-10.639
-11.193
-11.676
-12.091
-12.442
-12.731
-12.965
-13.146
-13.279
-13.371
-13.426
-13.449
-13.446
-13.422
-13.384
-13.336
-13.284
-13.233
-13.189
-13.156
-13.139
-13.143
-13.173
-13.231
-13.324
-13.453
-13.623
-13.836
-14.095
-14.401
-14.757
-15.163
-15.619
-16.126
-16.683
-17.289
-17.944
-18.644
-19.388
-20.174
-20.998
-21.857
-22.747
-23.664
-24.605
-25.564
-26.537
-27.519
-28.505
-29.49
-30.467
-31.432
-32.379
-33.302
-34.195
-35.052
-35.868
-36.636
-37.351
-38.008
-38.602
-39.126
-39.578
-39.952
-40.244
-40.451
-40.571
-40.601
-40.539
-40.384
-40.136
-39.795
-39.36
-38.834
-38.218
-37.514
-36.725
-35.855
-34.907
-33.887
-32.8
-31.652
-30.45
-29.201
-27.912
-26.593
-25.251
-23.896
-22.539
-21.188
-19.856
-18.553
-17.29
-16.079
-14.935
-13.87
-12.896
-12.026
-11.272
-10.647
-10.163
-9.828
-9.652
-9.642
-9.806
-10.149
-10.681
-11.407
-12.332
-13.461
-14.795
-16.336
-18.085
-20.041
-22.196
-24.543
-27.076
-29.79
-32.686
-35.762
-39.009
-42.418
-45.979
-49.67
-53.473
-57.361
-61.292
-65.23
-69.137
-72.979
-76.733
-80.375
-83.872
-87.193
-90.296
-93.145
-95.72
-98.001
-99.972
-101.645
-103.037
-104.193
-105.19
-106.091
-106.961
-107.878
-108.897
-110.091
-111.545
-113.305
-115.444
-118.054
-121.163
-124.769
-128.801
-133.025
-137.184
-141.058
-144.351
-146.755
-148.044
-148.048
-146.867
-144.947
-142.806
-140.861
-139.381
-138.688
-139.104
-140.672
-143.026
-144.73
-143.482
-138.069
-127.975
-113.235
-95.176
-72.425
-42.449
-4.562
42.59
96.56
152.392
208.29
261.024
306.959
342.9
360.938
353.515
318.157
255.457
171.145
74.52
-27.138
-127.121
-217.924
-293.983
-351.615
-389.726
-412.436
-425.859
-433.777
-437.898
-437.18
-429.46
-415.201
-396.443
-375.712
-355.691
-337.709
-322.441
-310.521
-301.886
-296.147
-292.798
-291.05
-290.303
-290.081
-289.558
-287.905
-284.717
-279.913
-273.739
-266.674
-259.092
-251.331
-243.945
-237.501
-232.324
-228.53
-226.004
-224.483
-223.725
-223.486
-223.462
-223.331
-222.871
-221.953
-220.522
-218.572
-216.095
-213.088
-209.568
-205.582
-201.176
-196.394
-191.289
-185.919
-180.366
-174.73
-169.105
-163.584
-158.239
-153.123
-148.284
-143.762
-139.588
-135.777
-132.339
-129.272
-126.572
-124.236
-122.248
-120.589
-119.23
-118.138
-117.275
-116.602
-116.084
-115.693
-115.406
-115.199
-115.054
-114.952
-114.878
-114.82
-114.764
-114.691
-114.585
-114.428
-114.204
-113.899
-113.499
-112.993
-112.367
-111.609
-110.707
-109.647
-108.419
-107.012
-105.415
-103.618
-101.613
-99.395
-96.961
-94.31
-91.443
-88.361
-85.068
-81.571
-77.875
-73.989
-69.922
-65.684
-61.287
-56.744
-52.069
-47.279
-42.389
-37.417
-32.381
-27.302
-22.198
-17.089
-11.998
-6.943
-1.946
2.973
7.794
12.496
17.059
21.465
25.695
29.732
33.559
37.161
40.524
43.636
46.485
49.062
51.359
53.369
55.088
56.512
57.639
58.469
59.005
59.25
59.208
58.887
58.296
57.443
56.341
55.002
53.441
51.674
49.715
47.584
45.298
42.876
40.337
37.702
34.989
32.221
29.416
26.596
23.779
20.986
18.234
15.542
12.928
10.406
7.992
5.7
3.542
1.53
-0.326
-2.017
-3.538
-4.882
-6.046
-7.026
-7.823
-8.436
-8.868
-9.122
-9.203
-9.117
-8.872
-8.474
-7.933
-7.26
-6.466
-5.561
-4.558
-3.47
-2.31
-1.091
0.172
1.468
2.781
4.099
5.41
6.699
7.956
9.169
10.327
11.42
12.439
13.374
14.22
14.968
15.614
16.152
16.58
16.894
17.094
17.176
17.143
16.995
16.732
16.358
15.876
15.289
14.602
13.819
12.946
11.989
10.955
9.849
8.68
7.453
6.178
4.86
3.509
2.131
0.734
-0.673
-2.085
-3.492
-4.888
-6.266
-7.619
-8.942
-10.229
-11.473
-12.67
-13.814
-14.902
-15.928
-16.889
-17.779
-18.597
-19.337
-19.998
-20.575
-21.068
-21.473
-21.788
-22.012
-22.143
-22.179
-22.119
-21.964
-21.711
-21.361
-20.915
-20.372
-19.735
-19.004
-18.183
-17.272
-16.276
-15.197
-14.039
-12.804
-11.497
-10.124
-8.687
-7.194
-5.651
-4.065
-2.445
-0.8
0.861
2.53
4.196
5.85
7.483
9.087
10.655
12.178
13.647
15.052
16.383
17.633
18.793
19.855
20.812
21.657
22.387
23.004
23.505
23.889
24.152
24.282
24.273
24.124
23.831
23.398
22.829
22.129
21.315
20.413
19.445
18.437
17.407
16.364
15.328
14.323
13.374
12.519
11.781
11.175
10.719
10.42
10.271
10.256
10.336
10.45
10.544
10.558
10.424
10.08
9.447
8.458
7.048
5.115
2.619
-0.431
-3.971
-7.817
-11.731
-15.521
-18.951
-21.715
-23.638
-24.64
-24.817
-24.62
-24.571
-25.059
-26.418
-28.985
-32.97
-38.39
-44.859
-50.849
-54.126
-52.914
-46.036
-34.036
-18.478
0.367
23.475
53.926
94.937
147.275
209.409
275.896
339.872
394.097
430.273
442.615
427.864
386.507
324.127
247.611
162.748
73.697
-16.678
-104.758
-184.121
-247.892
-292.139
-316.13
-322.92
-317.364
-302.925
-283.059
-261.928
-242.78
-227.983
-217.543
-208.261
-197.351
-184.033
-169.388
-156.094
-145.838
-138.615
-133.562
-129.371
-125.223
-120.573
-114.906
-108.101
-100.211
-91.447
-82.204
-72.769
-63.383
-54.489
-46.583
-39.968
-34.767
-30.901
-28.159
-26.354
-25.324
-24.862
-24.726
-24.727
-24.724
-24.609
-24.332
-23.857
-23.159
-22.235
-21.104
-19.777
-18.268
-16.612
-14.848
-13.028
-11.206
-9.414
-7.685
-6.059
-4.583
-3.323
-2.332
-1.635
-1.242
-1.155
-1.371
-1.889
-2.691
-3.745
-5.009
-6.447
-8.024
-9.714
-11.488
-13.308
-15.134
-16.918
-18.621
-20.214
-21.67
-22.965
-24.076
-24.982
-25.671
-26.136
-26.372
-26.373
-26.131
-25.637
-24.886
-23.879
-22.617
-21.103
-19.341
-17.334
-15.091
-12.619
-9.928
-7.03
-3.934
-0.652
2.802
6.415
10.168
14.045
18.027
22.096
26.231
30.412
34.62
38.833
43.031
47.195
51.306
55.343
59.289
63.125
66.832
70.395
73.797
77.023
80.058
82.89
85.507
87.898
90.054
91.967
93.631
95.041
96.193
97.086
97.717
98.089
98.202
98.061
97.67
97.034
96.16
95.057
93.733
92.199
90.466
88.547
86.452
84.197
81.796
79.262
76.611
73.86
71.023
68.117
65.16
62.167
59.156
56.142
53.143
50.175
47.252
44.39
41.603
38.904
36.307
33.822
31.461
29.234
27.15
25.217
23.441
21.829
20.386
19.114
18.017
17.097
16.352
15.783
15.389
15.166
15.111
15.219
15.486
15.905
16.469
17.17
17.999
18.948
20.008
21.167
22.415
23.743
25.14
26.594
28.096
29.635
31.202
32.786
34.378
35.97
37.553
39.119
40.661
42.173
43.65
45.085
46.475
47.817
49.107
50.343
51.523
52.647
53.714
54.724
55.679
56.578
57.425
58.222
58.972
59.678
60.344
60.974
61.574
62.146
62.696
63.229
63.749
64.261
64.768
65.276
65.789
66.31
66.842
67.389
67.953
68.536
69.139
69.765
70.413
71.084
71.777
72.492
73.229
73.986
74.763
75.558
76.37
77.197
78.037
78.889
79.75
80.616
81.487
82.359
83.23
84.098
84.958
85.81
86.651
87.479
88.292
89.087
89.863
90.619
91.351
92.061
92.747
93.409
94.046
94.659
95.248
95.815
96.359
96.88
97.38
97.859
98.316
98.75
99.16
99.545
99.904
100.233
100.532
100.798
101.03
101.225
101.384
101.504
101.584
101.624
101.62
101.571
101.474
101.327
101.128
100.874
100.563
100.194
99.769
99.287
98.751
98.156
97.499
96.774
95.982
95.125
94.204
93.229
92.207
91.156
90.107
89.084
88.115
87.221
86.416
85.714
85.139
84.71
84.453
84.394
84.537
84.888
85.454
86.228
87.188
88.283
89.432
90.55
91.577
92.462
93.156
93.61
93.752
93.512
92.839
91.692
90.046
87.85
85.081
81.797
78.162
74.473
71.08
68.272
66.32
65.545
66.162
68.214
71.551
75.659
79.956
84.067
87.606
90.181
91.666
92.215
92.393
93.498
96.926
103.751
115.242
132.591
156.651
188.081
226.07
268.036
311.494
353.967
394.586
434.508
472.232
504.383
524.483
523.256
497.231
447.42
379.492
303.207
223.205
141.633
60.23
-19.355
-90.489
-145.958
-181.708
-197.662
-198.553
-190.382
-178.679
-166.524
-155.257
-145.64
-136.173
-126.391
-116.35
-105.858
-97.137
-91.267
-88.015
-87.473
-88.306
-89.443
-90.622
-91.043
-90.081
-87.582
-83.451
-77.852
-71.192
-63.742
-55.751
-47.714
-40.174
-33.484
-27.823
-23.179
-19.373
-16.252
-13.677
-11.414
-9.209
-6.874
-4.265
-1.331
1.901
5.412
9.186
13.2
17.448
21.942
26.679
31.652
36.843
42.213
47.719
53.3
58.889
64.406
69.764
74.901
79.778
84.37
88.664
92.644
96.284
99.559
102.462
104.989
107.141
108.925
110.343
111.413
112.162
112.63
112.862
112.895
112.755
112.466
112.048
111.526
110.922
110.257
109.544
108.803
108.052
107.314
106.613
105.972
105.405
104.928
104.555
104.303
104.188
104.225
104.428
104.809
105.384
106.17
107.187
108.447
109.95
111.697
113.682
115.895
118.323
120.944
123.726
126.641
129.667
132.783
135.975
139.222
142.492
145.757
148.99
152.171
155.29
158.341
161.318
164.228
167.089
169.932
172.798
175.709
178.661
181.643
184.631
187.614
190.583
193.521
196.399
199.181
201.826
204.295
206.54
208.486
210.026
211.041
211.41
211.045
209.898
207.935
205.128
201.441
196.842
191.321
184.882
177.524
169.24
160.01
149.844
138.804
127.002
114.574
101.648
88.331
74.705
60.851
46.864
32.851
18.91
5.129
-8.4
-21.561
-34.203
-46.15
-57.265
-67.472
-76.739
-85.064
-92.438
-98.845
-104.273
-108.73
-112.244
-114.854
-116.595
-117.499
-117.629
-117.078
-115.986
-114.527
-112.839
-111.017
-109.133
-107.236
-105.381
-103.624
-102.001
-100.528
-99.212
-98.062
-97.092
-96.32
-95.738
-95.318
-95.003
-94.716
-94.404
-94.037
-93.592
-93.061
-92.436
-91.71
-90.892
-90.008
-89.077
-88.115
-87.129
-86.122
-85.108
-84.107
-83.145
-82.255
-81.456
-80.761
-80.177
-79.708
-79.353
-79.109
-78.963
-78.895
-78.891
-78.938
-79.023
-79.139
-79.275
-79.416
-79.551
-79.666
-79.75
-79.794
-79.788
-79.722
-79.59
-79.385
-79.103
-78.742
-78.3
-77.774
-77.161
-76.459
-75.668
-74.786
-73.813
-72.751
-71.6
-70.362
-69.042
-67.644
-66.173
-64.635
-63.035
-61.383
-59.684
-57.948
-56.182
-54.394
-52.593
-50.789
-48.99
-47.205
-45.444
-43.715
-42.027
-40.39
-38.812
-37.303
-35.868
-34.517
-33.257
-32.095
-31.038
-30.091
-29.262
-28.557
-27.983
-27.547
-27.255
-27.112
-27.123
-27.293
-27.626
-28.122
-28.783
-29.607
-30.593
-31.739
-33.047
-34.514
-36.136
-37.91
-39.829
-41.89
-44.086
-46.408
-48.843
-51.38
-54.007
-56.717
-59.511
-62.384
-65.324
-68.321
-71.359
-74.423
-77.495
-80.548
-83.543
-86.445
-89.218
-91.834
-94.278
-96.524
-98.54
-100.293
-101.739
-102.851
-103.618
-104.028
-104.079
-103.786
-103.172
-102.287
-101.214
-100.023
-98.791
-97.598
-96.508
-95.607
-94.975
-94.697
-94.895
-95.611
-96.829
-98.487
-100.409
-102.393
-104.264
-105.757
-106.547
-106.461
-105.383
-103.376
-100.856
-98.176
-95.661
-93.7
-92.477
-92.103
-92.717
-94.024
-95.152
-94.749
-90.879
-81.782
-66.645
-46.22
-21.982
4.997
34.602
69.57
112.72
165.243
226.686
291.811
353.787
404.777
436.243
443.227
422.275
374.116
303.481
214.768
115.266
12.122
-88.602
-178.233
-250.475
-302.334
-332.387
-344.361
-344.49
-338.053
-331.247
-327.773
-327.612
-329.547
-329.786
-324.925
-314.403
-299.457
-283.462
-269.483
-258.651
-250.742
-244.531
-239.312
-235.21
-232.395
-230.786
-229.706
-228.264
-226.117
-223.328
-220.015
-216.301
-212.327
-208.421
-205.247
-203.472
-203.263
-204.349
-206.379
-208.887
-211.376
-213.358
-214.135
-213.072
-209.928
-204.76
-197.78
-189.454
-180.343
-170.925
-161.805
-153.509
-146.381
-140.666
-136.393
-133.284
-130.903
-128.907
-126.974
-124.851
-122.347
-119.238
-115.463
-111.202
-106.785
-102.47
-98.412
-94.687
-91.338
-88.461
-86.109
-84.215
-82.627
-81.217
-79.925
-78.737
-77.669
-76.708
-75.816
-74.984
-74.217
-73.523
-72.899
-72.325
-71.766
-71.192
-70.59
-69.946
-69.25
-68.491
-67.653
-66.721
-65.681
-64.522
-63.234
-61.807
-60.236
-58.512
-56.632
-54.593
-52.396
-50.041
-47.532
-44.868
-42.051
-39.083
-35.968
-32.713
-29.324
-25.81
-22.18
-18.443
-14.612
-10.699
-6.717
-2.68
1.398
5.501
9.614
13.72
17.804
21.849
25.837
29.754
33.581
37.304
40.907
44.373
47.69
50.842
53.818
56.605
59.192
61.569
63.728
65.661
67.36
68.822
70.04
71.013
71.739
72.217
72.448
72.435
72.181
71.692
70.974
70.033
68.879
67.521
65.97
64.238
62.337
60.281
58.083
55.758
53.321
50.789
48.176
45.498
42.771
40.012
37.236
34.457
31.691
28.953
26.255
23.612
21.036
18.537
16.128
13.817
11.614
9.526
7.56
5.722
4.016
2.445
1.011
-0.283
-1.439
-2.456
-3.337
-4.085
-4.703
-5.197
-5.572
-5.833
-5.989
-6.047
-6.014
-5.9
-5.713
-5.462
-5.157
-4.807
-4.421
-4.01
-3.582
-3.147
-2.713
-2.29
-1.886
-1.509
-1.166
-0.864
-0.61
-0.41
-0.268
-0.19
-0.179
-0.239
-0.372
-0.58
-0.864
-1.225
-1.664
-2.179
-2.77
-3.434
-4.169
-4.974
-5.844
-6.776
-7.766
-8.811
-9.906
-11.046
-12.227
-13.444
-14.691
-15.964
-17.257
-18.564
-19.88
-21.199
-22.517
-23.828
-25.127
-26.408
-27.668
-28.901
-30.104
-31.271
-32.4
-33.487
-34.527
-35.519
-36.458
-37.342
-38.168
-38.936
-39.641
-40.284
-40.863
-41.375
-41.821
-42.199
-42.508
-42.747
-42.916
-43.014
-43.042
-42.999
-42.887
-42.705
-42.455
-42.138
-41.757
-41.312
-40.806
-40.242
-39.62
-38.946
-38.221
-37.448
-36.633
-35.778
-34.888
-33.971
-33.032
-32.077
-31.113
-30.146
-29.184
-28.232
-27.298
-26.385
-25.498
-24.642
-23.823
-23.049
-22.326
-21.659
-21.054
-20.515
-20.048
-19.657
-19.343
-19.104
-18.941
-18.852
-18.843
-18.925
-19.105
-19.387
-19.773
-20.261
-20.847
-21.528
-22.288
-23.106
-23.958
-24.822
-25.685
-26.54
-27.376
-28.178
-28.923
-29.578
-30.123
-30.545
-30.833
-30.992
-31.034
-30.985
-30.893
-30.821
-30.832
-31.003
-31.405
-32.099
-33.151
-34.606
-36.536
-39.055
-42.233
-46.079
-50.502
-55.286
-60.215
-65.127
-69.775
-73.832
-77.027
-79.197
-80.548
-81.6
-82.808
-84.594
-87.388
-91.6
-97.639
-105.161
-112.655
-118.472
-121.43
-121.968
-121.578
-119.865
-113.994
-98.418
-68.148
-23.144
32.271
90.246
144.232
192.754
236.205
274.855
305.425
319.434
309.286
271.766
209.026
129.009
39.459
-54.785
-149.683
-241.981
-325.977
-393.191
-438.167
-459.481
-460.419
-449.885
-435.751
-422.518
-412.912
-404.675
-394.3
-380.775
-362.877
-341.884
-321.245
-302.517
-286.71
-274.061
-263.193
-253.241
-244.132
-235.744
-227.944
-220.571
-213.19
-205.347
-197.063
-188.563
-179.926
-171.302
-162.918
-154.918
-147.608
-141.39
-136.357
-132.447
-129.571
-127.531
-126.161
-125.349
-124.868
-124.421
-123.8
-122.845
-121.476
-119.707
-117.536
-114.956
-111.995
-108.696
-105.118
-101.331
-97.39
-93.337
-89.212
-85.048
-80.9
-76.839
-72.935
-69.264
-65.874
-62.788
-60.026
-57.594
-55.491
-53.709
-52.222
-50.995
-49.998
-49.204
-48.591
-48.138
-47.816
-47.591
-47.424
-47.272
-47.104
-46.893
-46.616
-46.252
-45.783
-45.197
-44.483
-43.641
-42.665
-41.545
-40.274
-38.841
-37.241
-35.467
-33.518
-31.39
-29.082
-26.593
-23.922
-21.071
-18.039
-14.83
-11.445
-7.886
-4.156
-0.261
3.792
7.993
12.333
16.803
21.389
26.08
30.862
35.721
40.643
45.615
50.62
55.646
60.675
65.692
70.683
75.631
80.52
85.335
90.06
94.68
99.18
103.545
107.76
111.813
115.689
119.377
122.864
126.139
129.192
132.014
134.595
136.929
139.008
140.827
142.382
143.67
144.69
145.44
145.922
146.137
146.088
145.779
145.216
144.403
143.348
142.058
140.543
138.812
136.876
134.745
132.434
129.954
127.319
124.544
121.642
118.628
115.517
112.324
109.066
105.759
102.421
99.066
95.712
92.373
89.067
85.807
82.608
79.481
76.439
73.493
70.655
67.936
65.35
62.902
60.599
58.445
56.445
54.603
52.923
51.406
50.052
48.862
47.838
46.982
46.296
45.781
45.433
45.243
45.198
45.3
45.556
45.972
46.561
47.312
48.195
49.205
50.34
51.576
52.906
54.299
55.675
57.053
58.519
60.115
61.897
63.911
66.074
68.276
70.558
72.843
74.809
76.71
78.681
80.099
81.11
80.768
77.768
73.75
69.853
67.784
69.994
74.72
80.036
84.652
86.703
87.245
87.463
87.452
87.6
87.422
86.639
85.549
84.238
82.853
81.478
80.104
78.854
77.779
76.787
75.798
74.734
73.573
72.376
71.169
69.942
68.695
67.438
66.193
64.99
63.84
62.736
61.67
60.643
59.66
58.733
57.873
57.085
56.374
55.744
55.199
54.744
54.381
54.115
53.947
53.878
53.91
54.043
54.278
54.615
55.054
55.589
56.215
56.927
57.719
58.585
59.517
60.508
61.55
62.634
63.753
64.897
66.059
67.232
68.407
69.575
70.728
71.856
72.95
74.002
75.004
75.949
76.829
77.641
78.381
79.051
79.649
80.17
80.609
80.957
81.215
81.383
81.461
81.456
81.374
81.228
81.041
80.835
80.63
80.445
80.286
80.166
80.103
80.119
80.239
80.49
80.881
81.42
82.122
82.982
83.984
85.089
86.236
87.367
88.442
89.41
90.223
90.816
91.113
91.06
90.605
89.665
88.201
86.197
83.695
80.894
78.03
75.308
72.986
71.357
70.612
70.91
72.199
74.01
75.862
77.416
78.222
77.824
75.91
72.209
67.508
63.949
63.313
66.534
72.893
80.418
89.071
101.926
124.357
160.927
212.323
274.063
338.282
399.049
452.746
497.353
531.487
549.773
545.871
516.814
463.038
390.891
309.561
225.538
143.245
64.604
-10.084
-78.669
-138.208
-186.067
-219.947
-239.372
-245.259
-239.083
-223.032
-199.664
-171.547
-141.212
-110.84
-82.065
-56.193
-34.19
-16.526
-3.036
6.919
14.217
19.722
24.13
28.185
32.729
38.54
45.986
54.942
64.959
75.495
86.144
96.481
105.921
113.728
119.336
122.665
124.097
124.255
123.643
122.671
121.804
121.687
123.001
126.065
130.728
136.519
143.047
150.079
157.399
164.694
171.516
177.571
182.87
187.653
192.106
196.267
200.114
203.632
206.901
209.994
212.859
215.344
217.32
218.736
219.596
219.945
219.796
219.14
218.001
216.436
214.512
212.297
209.839
207.161
204.292
201.27
198.129
194.899
191.597
188.22
184.765
181.244
177.672
174.081
170.498
166.936
163.402
159.902
156.431
152.986
149.564
146.139
142.702
139.263
135.848
132.514
129.327
126.333
123.564
121.042
118.78
116.807
115.148
113.821
112.857
112.285
112.141
112.485
113.358
114.765
116.686
119.066
121.825
124.906
128.26
131.835
135.594
139.491
143.48
147.529
151.599
155.643
159.603
163.399
166.962
170.253
173.251
175.958
178.4
180.583
182.514
184.201
185.644
186.842
187.794
188.482
188.894
189.026
188.881
188.479
187.839
186.967
185.862
184.519
182.923
181.068
178.953
176.571
173.925
171.023
167.877
164.507
160.94
157.195
153.294
149.253
145.09
140.823
136.475
132.069
127.628
123.174
118.732
114.324
109.973
105.698
101.519
97.448
93.499
89.683
86.011
82.493
79.136
75.949
72.936
70.102
67.452
64.986
62.704
60.604
58.683
56.935
55.353
53.93
52.658
51.525
50.522
49.636
48.856
48.17
47.565
47.026
46.542
46.099
45.684
45.284
44.887
44.48
44.052
43.594
43.096
42.548
41.945
41.28
40.546
39.74
38.859
37.9
36.862
35.744
34.548
33.275
31.93
30.515
29.037
27.501
25.914
24.284
22.617
20.924
19.212
17.49
15.767
14.054
12.359
10.691
9.059
7.473
5.939
4.466
3.06
1.729
0.477
-0.691
-1.771
-2.76
-3.656
-4.458
-5.167
-5.784
-6.31
-6.75
-7.108
-7.39
-7.602
-7.751
-7.846
-7.897
-7.912
-7.903
-7.881
-7.859
-7.848
-7.862
-7.914
-8.017
-8.185
-8.432
-8.771
-9.216
-9.778
-10.472
-11.31
-12.303
-13.464
-14.802
-16.329
-18.053
-19.983
-22.126
-24.49
-27.08
-29.9
-32.953
-36.242
-39.767
-43.528
-47.524
-51.755
-56.217
-60.909
-65.826
-70.962
-76.312
-81.869
-87.623
-93.564
-99.679
-105.954
-112.375
-118.928
-125.599
-132.371
-139.228
-146.152
-153.124
-160.126
-167.139
-174.139
-181.103
-188.006
-194.828
-201.553
-208.169
-214.664
-221.022
-227.227
-233.263
-239.112
-244.757
-250.172
-255.323
-260.177
-264.705
-268.883
-272.694
-276.115
-279.124
-281.688
-283.774
-285.359
-286.428
-286.972
-286.992
-286.499
-285.517
-284.086
-282.277
-280.168
-277.843
-275.398
-272.918
-270.48
-268.176
-266.137
-264.46
-263.207
-262.364
-261.771
-261.255
-260.685
-259.881
-258.593
-256.615
-253.776
-250.133
-246.184
-242.427
-239.212
-236.972
-236.114
-236.973
-239.843
-243.959
-247.213
-247.722
-244.338
-237.699
-229.642
-220.115
-206.237
-182.226
-142.936
-87.828
-21.328
47.676
111.371
166.668
212.976
251.081
279.033
290.062
277.959
239.73
176.869
96.165
4.505
-92.937
-191.082
-284.936
-367.303
-430.617
-471.344
-490.393
-493.649
-488.789
-480.342
-470.138
-457.672
-441.427
-422.08
-401.396
-381.2
-363.51
-349.102
-337.866
-329.435
-323.012
-317.841
-313.397
-309.186
-304.703
-299.454
-292.973
-285.111
-276.089
-266.281
-256.099
-245.934
-236.142
-227.131
-219.353
-213.045
-208.216
-204.751
-202.437
-201.064
-200.451
-200.381
-200.596
-200.912
-201.201
-201.352
-201.302
-200.972
-200.295
-199.246
-197.826
-196.046
-193.926
-191.496
-188.791
-185.861
-182.765
-179.547
-176.243
-172.886
-169.517
-166.193
-162.974
-159.924
-157.086
-154.484
-152.135
-150.045
-148.207
-146.608
-145.22
-144.008
-142.94
-141.991
-141.136
-140.354
-139.621
-138.902
-138.164
-137.367
-136.478
-135.473
-134.328
-133.025
-131.546
-129.883
-128.028
-125.981
-123.741
-121.302
-118.662
-115.814
-112.758
-109.492
-106.02
-102.345
-98.472
-94.406
-90.154
-85.724
-81.126
-76.369
-71.463
-66.416
-61.242
-55.953
-50.564
-45.092
-39.554
-33.967
-28.348
-22.717
-17.093
-11.495
-5.94
-0.447
4.965
10.279
15.477
20.542
25.457
30.205
34.773
39.144
43.306
47.245
50.95
54.409
57.614
60.556
63.228
65.624
67.74
69.573
71.122
72.386
73.367
74.067
74.49
74.641
74.527
74.156
73.536
72.676
71.589
70.286
68.779
67.081
65.206
63.168
60.983
58.666
56.231
53.696
51.076
48.388
45.647
42.869
40.071
37.267
34.473
31.703
28.97
26.287
23.667
21.121
18.66
16.293
14.028
11.873
9.834
7.916
6.123
4.459
2.923
1.519
0.245
-0.899
-1.916
-2.808
-3.58
-4.236
-4.781
-5.221
-5.564
-5.816
-5.986
-6.081
-6.111
-6.084
-6.009
-5.896
-5.754
-5.591
-5.418
-5.243
-5.074
-4.921
-4.79
-4.689
-4.626
-4.605
-4.633
-4.715
-4.855
-5.056
-5.322
-5.654
-6.054
-6.522
-7.06
-7.666
-8.34
-9.079
-9.881
-10.742
-11.661
-12.631
-13.65
-14.711
-15.808
-16.938
-18.092
-19.265
-20.45
-21.641
-22.829
-24.01
-25.174
-26.316
-27.429
-28.506
-29.541
-30.527
-31.459
-32.331
-33.138
-33.875
-34.536
-35.119
-35.619
-36.033
-36.357
-36.59
-36.728
-36.77
-36.715
-36.561
-36.308
-35.955
-35.504
-34.953
-34.306
-33.562
-32.725
-31.796
-30.778
-29.674
-28.488
-27.222
-25.88
-24.466
-22.984
-21.439
-19.835
-18.177
-16.47
-14.718
-12.928
-11.103
-9.25
-7.374
-5.48
-3.575
-1.665
0.246
2.149
4.04
5.912
7.757
9.568
11.338
13.059
14.725
16.327
17.86
19.317
20.692
21.981
23.18
24.285
25.292
26.196
26.994
27.683
28.26
28.725
29.076
29.312
29.436
29.453
29.368
29.186
28.908
28.535
28.065
27.504
26.858
26.137
25.353
24.52
23.659
22.799
21.966
21.188
20.488
19.88
19.382
19.016
18.806
18.785
18.98
19.406
20.076
21
22.167
23.56
25.139
26.838
28.603
30.383
32.114
33.747
35.215
36.444
37.39
37.995
38.171
37.886
37.13
35.958
34.574
33.185
31.948
31.092
30.874
31.462
33.011
35.46
38.371
41.361
44.21
46.618
48.268
48.924
48.359
47.239
47.427
50.493
57.118
66.381
76.289
86.381
99.203
119.815
152.454
198.162
253.344
310.844
365.438
413.853
453.996
484.694
501.285
498.185
472.66
424.237
356.521
275.669
187.137
96.831
11.191
-64.601
-126.861
-174.694
-210.605
-237.363
-256.392
-267.533
-269.344
-261.729
-246.382
-226.255
-205.014
-185.048
-167.853
-154.029
-142.69
-133.8
-127.783
-125.109
-127.46
-133.568
-139.411
-141.166
-134.236
-118.437
-98.227
-77.534
-60.685
-49.049
-40.334
-33.257
-26.813
-20.774
-16.392
-14.044
-13.452
-14.371
-16.272
-18.862
-22.157
-26.082
-30.522
-35.39
-40.568
-45.929
-51.364
-56.733
-61.876
-66.681
-71.078
-75.027
-78.532
-81.608
-84.279
-86.579
-88.542
-90.203
-91.596
-92.758
-93.729
-94.561
-95.305
-96.022
-96.779
-97.621
-98.572
-99.638
-100.804
-102.048
-103.347
-104.668
-105.972
-107.226
-108.396
-109.454
-110.375
-111.128
-111.677
-111.985
-112.01
-111.72
-111.092
-110.11
-108.767
-107.058
-104.981
-102.542
-99.754
-96.626
-93.167
-89.386
-85.29
-80.89
-76.201
-71.24
-66.024
-60.572
-54.902
-49.035
-42.991
-36.79
-30.453
-24
-17.45
-10.823
-4.142
2.572
9.294
16.003
22.677
29.293
35.828
42.262
48.574
54.745
60.755
66.588
72.227
77.654
82.857
87.82
92.53
96.978
101.151
105.041
108.639
111.94
114.938
117.629
120.011
122.083
123.846
125.301
126.453
127.304
127.861
128.131
128.121
127.84
127.299
126.508
125.479
124.224
122.756
121.091
119.242
117.224
115.052
112.744
110.313
107.778
105.154
102.457
99.705
96.913
94.098
91.276
88.462
85.672
82.92
80.22
77.585
75.027
72.558
70.188
67.928
65.784
63.766
61.88
60.131
58.524
57.062
55.748
54.583
53.568
52.701
51.981
51.406
50.972
50.675
50.509
50.468
50.547
50.737
51.031
51.421
51.897
52.45
53.072
53.752
54.48
55.248
56.043
56.858
57.683
58.508
59.324
60.122
60.895
61.635
62.334
62.985
63.583
64.121
64.594
64.997
65.328
65.582
65.757
65.851
65.862
65.791
65.637
65.399
65.081
64.682
64.204
63.652
63.026
62.332
61.571
60.749
59.87
58.938
57.958
56.935
55.875
54.781
53.66
52.517
51.357
50.186
49.01
47.834
46.664
45.506
44.366
43.249
42.161
41.107
40.094
39.126
38.209
37.347
36.546
35.811
35.146
34.555
34.044
33.616
33.276
33.028
32.873
32.817
32.862
33.011
33.267
33.632
34.109
34.699
35.405
36.227
37.167
38.224
39.398
40.688
42.092
43.609
45.236
46.971
48.809
50.745
52.773
54.885
57.075
59.336
61.661
64.036
66.452
68.909
71.402
73.927
76.474
79.014
81.531
84.025
86.471
88.822
91.042
93.09
94.949
96.649
98.192
99.524
100.675
101.789
102.898
103.947
104.949
105.746
106.616
108.534
111.373
114.217
115.657
112.945
106.053
97.791
90.895
89.259
93.406
99.625
105.036
106.608
103.608
98.813
93.987
90.264
88.089
86.358
84.547
82.731
80.903
79.292
77.972
76.763
75.537
74.156
72.484
70.448
67.958
64.969
61.578
57.99
54.591
51.849
50.004
49.181
49.496
50.92
53.357
56.504
59.645
62.05
63.388
63.455
62.18
59.547
55.271
49.389
42.513
35.15
27.536
19.781
11.791
4.286
-0.801
-2.047
1.036
7.543
15.661
25.334
39.223
61.935
97.255
146.118
205.2
268.209
330.067
386.472
434.74
472.731
495.71
499.423
481.105
440.521
381.328
307.991
224.006
132.241
36.244
-58.447
-143.481
-210.227
-254.876
-278.407
-285.678
-283.996
-276.609
-263.782
-246.602
-224.617
-200.092
-177.199
-156.263
-138.045
-122.615
-108.373
-96.338
-87.056
-79.974
-75.114
-71.334
-67.347
-62.554
-56.265
-48.262
-38.81
-28.227
-16.959
-5.519
5.613
15.926
24.899
32.243
37.914
42.006
44.723
46.298
46.944
46.9
46.433
45.727
44.905
44.078
43.312
42.683
42.259
42.06
42.083
42.319
42.753
43.357
44.099
44.927
45.781
46.619
47.402
48.098
48.666
49.047
49.181
49.003
48.473
47.57
46.281
44.607
42.556
40.153
37.433
34.439
31.212
27.789
24.203
20.486
16.675
12.813
8.946
5.124
1.39
-2.219
-5.67
-8.932
-11.983
-14.799
-17.365
-19.673
-21.71
-23.463
-24.92
-26.066
-26.891
-27.388
-27.55
-27.377
-26.867
-26.021
-24.842
-23.335
-21.508
-19.371
-16.932
-14.2
-11.187
-7.909
-4.381
-0.621
3.354
7.525
11.869
16.361
20.975
25.684
30.463
35.282
40.112
44.925
49.693
54.389
58.989
63.468
67.799
71.954
75.902
79.617
83.079
86.269
89.169
91.769
94.062
96.051
97.751
99.169
100.304
101.152
101.7
101.937
101.857
101.453
100.717
99.645
98.225
96.457
94.348
91.889
89.07
85.861
82.218
78.116
73.558
68.557
63.147
57.37
51.272
44.915
38.382
31.743
25.069
18.417
11.826
5.356
-0.92
-6.915
-12.522
-17.658
-22.275
-26.333
-29.813
-32.715
-35.05
-36.859
-38.215
-39.175
-39.782
-40.071
-40.055
-39.764
-39.245
-38.549
-37.741
-36.874
-35.98
-35.087
-34.221
-33.384
-32.574
-31.76
-30.887
-29.918
-28.834
-27.623
-26.289
-24.833
-23.245
-21.522
-19.661
-17.659
-15.521
-13.248
-10.843
-8.315
-5.685
-2.979
-0.239
2.502
5.225
7.911
10.55
13.132
15.647
18.091
20.465
22.766
24.993
27.143
29.21
31.193
33.093
34.914
36.663
38.344
39.962
41.522
43.026
44.478
45.882
47.238
48.549
49.814
51.036
52.221
53.371
54.492
55.588
56.664
57.725
58.777
59.823
60.867
61.913
62.962
64.018
65.082
66.156
67.241
68.338
69.447
70.568
71.701
72.846
74.001
75.165
76.336
77.511
78.686
79.859
81.025
82.18
83.32
84.44
85.534
86.598
87.624
88.607
89.539
90.412
91.219
91.951
92.598
93.153
93.606
93.948
94.172
94.267
94.227
94.043
93.706
93.209
92.544
91.705
90.681
89.467
88.052
86.432
84.6
82.549
80.276
77.777
75.05
72.095
68.916
65.512
61.886
58.041
53.981
49.712
45.243
40.582
35.738
30.722
25.55
20.241
14.812
9.28
3.656
-2.052
-7.83
-13.664
-19.534
-25.422
-31.308
-37.167
-42.967
-48.666
-54.222
-59.6
-64.771
-69.709
-74.386
-78.767
-82.81
-86.478
-89.743
-92.583
-94.984
-96.941
-98.462
-99.571
-100.313
-100.754
-100.965
-101.023
-101.005
-100.993
-101.055
-101.269
-101.754
-102.59
-103.819
-105.43
-107.27
-109.159
-110.959
-112.467
-113.41
-113.584
-112.792
-111.028
-108.724
-106.32
-104.141
-102.645
-102.236
-103.238
-106.033
-110.048
-113.467
-114.709
-112.706
-107.938
-101.969
-94.406
-82.365
-60.323
-23.58
27.671
89.047
152.517
211.663
265.668
315.18
360.1
396.699
414.915
404.916
362.98
290.694
196.231
91.11
-17.04
-121.536
-215.88
-296.629
-359.201
-400.847
-424.116
-431.93
-428.715
-420.039
-407.997
-394.455
-380.986
-366.462
-351.278
-336.104
-321.043
-308.314
-298.937
-292.56
-289.063
-287.032
-285.138
-282.877
-279.408
-274.099
-266.838
-257.619
-246.691
-234.563
-221.73
-208.645
-195.906
-184.141
-173.702
-164.748
-157.284
-151.141
-146.139
-142.117
-138.831
-136
-133.463
-131.138
-128.987
-127.022
-125.22
-123.511
-121.851
-120.209
-118.53
-116.75
-114.819
-112.699
-110.389
-107.93
-105.36
-102.715
-100.023
-97.295
-94.551
-91.814
-89.106
-86.453
-83.885
-81.434
-79.145
-77.08
-75.277
-73.758
-72.528
-71.57
-70.866
-70.4
-70.15
-70.087
-70.185
-70.416
-70.757
-71.189
-71.685
-72.213
-72.735
-73.206
-73.588
-73.853
-73.975
-73.937
-73.718
-73.303
-72.68
-71.845
-70.79
-69.508
-67.989
-66.222
-64.202
-61.927
-59.395
-56.603
-53.548
-50.226
-46.645
-42.811
-38.736
-34.436
-29.925
-25.224
-20.365
-15.376
-10.286
-5.118
0.111
5.378
10.654
15.909
21.103
26.207
31.203
36.07
40.793
45.361
49.773
54.04
58.193
62.254
66.226
70.107
73.879
77.528
81.055
84.458
87.736
90.879
93.868
96.689
99.332
101.773
103.977
105.884
107.417
108.529
109.196
109.409
109.174
108.489
107.348
105.763
103.751
101.346
98.573
95.429
91.933
88.133
84.057
79.727
75.119
70.11
64.604
58.56
51.884
44.484
36.354
27.546
18.301
9.057
0.177
-8.061
-15.373
-21.491
-26.189
-29.299
-30.918
-31.447
-31.35
-31.02
-30.75
-30.893
-31.747
-34.282
-40.235
-50.465
-64.787
-79.743
-87.393
-81.072
-58.816
-27.296
-3.901
