Name,Criss Capps
Date of Birth,"Feb 5, 1952"
Recorded Date,2025-04-19 18:53:09 -0400
Classification,Inconclusive
Symptoms,
Software Version,1.90
Device,"Watch5,4"
Sample Rate,512.844 hertz


Lead,Lead I
Unit,µV

23.816
30.7
36.206
40.238
42.784
43.884
43.644
42.182
39.604
36.016
31.554
26.361
20.608
14.497
8.184
1.828
-4.39
-10.324
-15.843
-20.84
-25.266
-29.103
-32.355
-35.044
-37.199
-38.844
-40.03
-40.819
-41.282
-41.519
-41.6
-41.582
-41.532
-41.498
-41.514
-41.613
-41.8
-42.058
-42.377
-42.737
-43.114
-43.493
-43.845
-44.134
-44.328
-44.379
-44.258
-43.945
-43.423
-42.685
-41.727
-40.551
-39.167
-37.596
-35.854
-33.958
-31.925
-29.769
-27.509
-25.164
-22.756
-20.306
-17.835
-15.359
-12.893
-10.453
-8.051
-5.7
-3.41
-1.187
0.961
3.025
4.996
6.865
8.623
10.265
11.784
13.173
14.427
15.545
16.523
17.362
18.061
18.622
19.047
19.338
19.498
19.531
19.443
19.238
18.923
18.504
17.988
17.382
16.695
15.932
15.101
14.211
13.268
12.279
11.252
10.193
9.111
8.011
6.9
5.785
4.671
3.563
2.468
1.39
0.334
-0.697
-1.7
-2.671
-3.609
-4.512
-5.379
-6.209
-7.004
-7.762
-8.485
-9.175
-9.834
-10.462
-11.064
-11.641
-12.196
-12.733
-13.255
-13.764
-14.265
-14.76
-15.253
-15.747
-16.245
-16.749
-17.263
-17.789
-18.329
-18.886
-19.46
-20.054
-20.67
-21.307
-21.967
-22.651
-23.357
-24.085
-24.835
-25.605
-26.392
-27.193
-28.006
-28.827
-29.651
-30.475
-31.293
-32.098
-32.887
-33.652
-34.386
-35.083
-35.735
-36.334
-36.874
-37.346
-37.743
-38.055
-38.276
-38.398
-38.413
-38.315
-38.094
-37.746
-37.262
-36.637
-35.864
-34.94
-33.857
-32.612
-31.202
-29.623
-27.876
-25.958
-23.869
-21.611
-19.185
-16.596
-13.848
-10.946
-7.897
-4.708
-1.39
2.047
5.59
9.227
12.944
16.725
20.551
24.403
28.263
32.109
35.923
39.682
43.365
46.952
50.424
53.762
56.947
59.96
62.781
65.391
67.771
69.906
71.779
73.378
74.687
75.699
76.412
76.823
76.932
76.735
76.22
75.387
74.238
72.781
71.027
68.995
66.707
64.201
61.529
58.738
55.875
52.979
50.074
47.195
44.384
41.684
39.15
36.823
34.726
32.886
31.331
30.055
29.028
28.184
27.412
26.628
25.773
24.778
23.588
22.126
20.291
18.004
15.202
11.819
7.792
3.093
-2.236
-7.966
-13.683
-18.916
-23.168
-25.992
-26.984
-25.817
-22.376
-16.965
-10.323
-3.351
3.033
8.139
11.565
12.889
11.876
9.324
6.74
6.871
13.842
29.722
55.136
89.459
129.375
174.636
227.287
289.163
363.899
450.514
544.141
638.065
719.786
777.232
798.623
773.421
701.073
585.803
435.164
262.151
77.873
-104.873
-267.164
-393.209
-474.211
-509.718
-512.837
-501.023
-484.113
-465.976
-444.04
-412.365
-371.08
-324.237
-276.124
-231.915
-194.5
-164.285
-141.367
-125.1
-114.15
-107.346
-103.923
-102.823
-102.698
-102.345
-100.528
-96.65
-90.999
-84.027
-76.082
-67.689
-59.497
-52.275
-46.967
-44.012
-43.296
-44.547
-47.355
-51.313
-56.058
-61.061
-65.699
-69.58
-72.521
-74.476
-75.531
-75.727
-75.064
-73.614
-71.489
-68.812
-65.703
-62.255
-58.546
-54.679
-50.777
-46.995
-43.471
-40.295
-37.525
-35.189
-33.295
-31.856
-30.87
-30.31
-30.139
-30.315
-30.794
-31.542
-32.521
-33.679
-34.957
-36.288
-37.613
-38.891
-40.094
-41.197
-42.183
-43.035
-43.743
-44.308
-44.729
-45.004
-45.126
-45.085
-44.876
-44.496
-43.946
-43.23
-42.346
-41.295
-40.077
-38.693
-37.145
-35.436
-33.565
-31.534
-29.345
-27.005
-24.522
-21.904
-19.163
-16.307
-13.35
-10.303
-7.18
-3.993
-0.754
2.525
5.83
9.149
12.469
15.776
19.058
22.3
25.489
28.612
31.654
34.602
37.444
40.166
42.754
45.196
47.48
49.594
51.525
53.264
54.799
56.12
57.219
58.087
58.717
59.103
59.238
59.118
58.738
58.095
57.187
56.012
54.57
52.859
50.882
48.64
46.136
43.373
40.356
37.092
33.586
29.848
25.885
21.708
17.327
12.754
8.003
3.086
-1.981
-7.184
-12.508
-17.935
-23.449
-29.034
-34.672
-40.347
-46.041
-51.736
-57.416
-63.065
-68.665
-74.201
-79.656
-85.016
-90.265
-95.391
-100.38
-105.22
-109.898
-114.406
-118.733
-122.87
-126.81
-130.546
-134.073
-137.386
-140.483
-143.36
-146.017
-148.454
-150.673
-152.676
-154.465
-156.046
-157.423
-158.601
-159.588
-160.39
-161.016
-161.473
-161.77
-161.917
-161.924
-161.8
-161.556
-161.202
-160.749
-160.206
-159.584
-158.893
-158.142
-157.34
-156.497
-155.622
-154.722
-153.806
-152.882
-151.957
-151.036
-150.127
-149.235
-148.364
-147.519
-146.703
-145.92
-145.173
-144.464
-143.796
-143.171
-142.59
-142.055
-141.565
-141.123
-140.728
-140.379
-140.077
-139.822
-139.613
-139.45
-139.333
-139.263
-139.24
-139.268
-139.347
-139.481
-139.673
-139.925
-140.24
-140.623
-141.074
-141.594
-142.186
-142.85
-143.589
-144.406
-145.304
-146.284
-147.35
-148.505
-149.752
-151.092
-152.526
-154.045
-155.647
-157.329
-159.089
-160.937
-162.875
-164.897
-166.999
-169.175
-171.413
-173.697
-175.995
-178.259
-180.448
-182.522
-184.449
-186.207
-187.774
-189.112
-190.188
-190.955
-191.379
-191.449
-191.156
-190.486
-189.449
-188.079
-186.46
-184.715
-182.963
-181.292
-179.764
-178.444
-177.419
-176.791
-176.675
-177.171
-178.339
-180.239
-182.96
-186.486
-190.695
-195.326
-199.901
-203.964
-207.14
-208.987
-209.155
-207.619
-204.555
-200.43
-196.043
-191.912
-188.476
-186.413
-185.95
-186.59
-187.276
-186.366
-182.073
-172.991
-157.49
-133.511
-99.718
-56.948
-8.23
43.048
94.585
147.192
202.762
259.125
309.625
343.105
348.746
322.649
268.64
197.761
121.903
48.621
-19.734
-86.021
-152.923
-220.165
-285.429
-345.241
-397.692
-443.235
-483.09
-518.099
-548.36
-573.872
-595.105
-612.87
-628.094
-641.06
-651.445
-659.159
-664.312
-666.907
-666.858
-663.777
-656.969
-646.215
-631.805
-614.073
-593.48
-570.508
-545.553
-519.217
-492.307
-465.384
-438.79
-412.785
-387.482
-363.062
-339.82
-317.955
-297.608
-278.918
-261.968
-246.819
-233.529
-222.057
-212.282
-204.06
-197.192
-191.528
-186.98
-183.435
-180.775
-178.855
-177.484
-176.474
-175.664
-174.864
-173.88
-172.568
-170.812
-168.563
-165.838
-162.665
-159.087
-155.143
-150.857
-146.264
-141.412
-136.35
-131.142
-125.858
-120.569
-115.367
-110.368
-105.647
-101.252
-97.198
-93.459
-90.007
-86.811
-83.822
-80.985
-78.246
-75.552
-72.857
-70.117
-67.275
-64.285
-61.088
-57.616
-53.82
-49.653
-45.067
-40.055
-34.619
-28.714
-22.316
-15.418
-7.996
-0.082
8.271
17.089
26.415
36.105
45.988
56.137
66.523
77.098
88.177
98.845
108.213
117.505
127.074
139.189
156.567
176.153
195.903
212.785
222.642
229.096
235.22
243.084
256.142
271.898
287.814
303.32
316.877
329.333
341.767
353.962
366.087
377.897
388.971
399.536
409.694
419.367
428.891
437.369
443.915
449.8
455.405
463.025
475.403
489.426
503.011
513.072
515.385
513.678
511.131
509.902
513.558
519.528
525.159
529.827
531.935
532.304
531.995
530.739
528.673
525.771
521.955
517.504
512.525
507.115
501.634
496.192
490.689
485.22
479.567
474.222
471.053
469.932
469.108
465.651
454.295
434.188
409.999
388.56
378.172
381.945
395.137
408.684
414.188
407.202
389.048
367.038
346.685
330.918
321.031
313.303
305.19
296.071
284.762
272.362
259.817
246.861
233.747
220.428
206.684
192.701
178.635
164.503
150.392
136.398
122.555
108.882
95.401
82.1
68.949
55.967
43.166
30.543
18.114
5.899
-6.08
-17.783
-29.169
-40.207
-50.874
-61.149
-71.017
-80.456
-89.444
-97.961
-105.985
-113.498
-120.479
-126.911
-132.776
-138.066
-142.773
-146.895
-150.435
-153.396
-155.781
-157.596
-158.85
-159.549
-159.704
-159.324
-158.423
-157.015
-155.118
-152.751
-149.934
-146.693
-143.053
-139.041
-134.684
-130.011
-125.047
-119.823
-114.367
-108.705
-102.865
-96.874
-90.761
-84.554
-78.286
-71.984
-65.68
-59.4
-53.172
-47.023
-40.979
-35.063
-29.292
-23.685
-18.26
-13.041
-8.055
-3.319
1.157
5.37
9.317
13.004
16.442
19.654
22.679
25.549
28.293
30.93
33.473
35.944
38.372
40.791
43.243
45.755
48.346
51.035
53.84
56.764
59.797
62.901
66.01
69.082
72.094
75.038
77.919
80.721
83.427
86.029
88.512
90.871
93.108
95.208
97.164
99.004
100.768
102.532
104.387
106.389
108.558
110.897
113.404
116.092
118.979
122.067
125.355
128.844
132.558
136.543
140.818
145.412
150.323
155.515
161.052
167.062
173.738
181.411
190.358
200.686
212.562
226.104
241.106
257.298
274.071
290.299
304.953
317.154
326.018
330.818
331.151
326.633
317.231
305.056
293.972
287.588
289.264
297.031
302.04
297.039
277.07
246.728
224.612
227.708
267.291
339.32
415.026
457.046
426.343
293.938
58.04
-262.977
-634.172
-1009.325
-1348.533
-1621.908
-1809.419
-1907.482
-1923.861
-1869.162
-1762.299
-1624.514
-1472.617
-1330.016
-1216.009
-1138.319
-1100.231
-1088.451
-1079.663
-1057.044
-1009.504
-939.487
-862.662
-793.749
-741.578
-707.524
-684.61
-664.059
-641.43
-615.415
-587.136
-559.452
-533.389
-508.707
-485.66
-464.021
-443.243
-424.401
-408.181
-393.28
-379.857
-365.731
-347.842
-329.045
-311.086
-296.768
-290.37
-288.036
-285.948
-281.561
-271.134
-256.963
-241.681
-225.866
-210.893
-195.995
-180.374
-164.523
-148.576
-132.806
-117.477
-102.541
-88.021
-74.02
-60.591
-47.748
-35.497
-23.894
-12.98
-2.76
6.777
15.717
24.163
32.199
39.921
47.433
54.824
62.178
69.574
77.065
84.714
92.583
100.727
109.208
118.078
127.372
137.123
147.341
158.014
169.129
180.674
192.627
204.965
217.65
230.625
243.842
257.28
270.901
284.612
298.309
311.902
325.327
338.588
351.732
364.739
377.713
391.034
404.939
419.401
434.376
449.559
465.603
484.214
505.72
528.772
548.39
557.621
553.679
538.705
522.918
519.712
535.849
571.681
616.024
652.665
672.45
670.985
654.551
635.816
621.961
617.913
622.707
630.035
636.81
641.136
642.55
643.165
643.831
644.462
645.096
645.397
645.36
645.549
646.598
648.798
652.104
656.503
662.153
669.074
677.033
685.203
692.039
697.519
703.414
710.738
719.1
724.865
722.312
710.432
694.9
686.572
697.071
730.89
782.486
839.62
890.404
927.717
952.029
969.114
981.777
991.322
996.089
992.493
984.176
975.874
972.249
978.371
991.951
1009.427
1029.648
1051.496
1075.626
1102.049
1127.008
1146.036
1158.839
1170.313
1190.219
1229.624
1295.131
1385.346
1492.83
1608.035
1720.636
1825.884
1923.302
2014.234
2103.985
2190.93
2268.009
2323.353
2336.881
2298.343
2205.673
2064.327
1895.487
1717.398
1546.841
1402.173
1288.321
1206.927
1155.328
1121.052
1097.749
1082.69
1075.172
1080.892
1101.079
1132.445
1171.145
1211.529
1250.723
1288.841
1325.973
1361.862
1395.81
1426.886
1454.612
1479.2
1500.539
1518.134
1531.737
1541.705
1549.136
1555.427
1561.78
1568.713
1576.428
1585.161
1594.989
1605.692
1616.604
1626.71
1635.014
1641.036
1644.765
1646.328
1645.914
1643.722
1640.003
1635.2
1629.892
1624.462
1619.068
1613.759
1608.513
1603.367
1598.467
1593.939
1589.817
1586.112
1582.796
1579.834
1577.275
1575.142
1573.359
1571.801
1570.294
1568.666
1566.832
1564.752
1562.281
1559.225
1555.547
1551.233
1546.083
1540.039
1533.065
1524.757
1515.953
1507.491
1498.148
1487.641
1473.737
1453.827
1431.234
1408.316
1388.641
1376.91
1369.673
1364.034
1358.04
1348.083
1336.716
1326.423
1317.278
1310.504
1305.268
1300.652
1297.481
1296.557
1298.701
1304.887
1315.932
1332.354
1354.152
1380.518
1409.839
1439.919
1468.549
1493.771
1513.584
1526.953
1534.765
1539.104
1543.162
1548.251
1550.723
1544.957
1524.436
1486.417
1438.634
1395.08
1373.172
1387.8
1436.702
1496.621
1525.167
1467.525
1279.215
946.266
493.042
-18.51
-507.229
-898.937
-1143.291
-1223.213
-1154.396
-973.108
-727.493
-471.77
-255.716
-122.153
-99.795
-191.086
-376.735
-618.425
-868.205
-1089.937
-1263.29
-1383.109
-1457.069
-1493.201
-1496.254
-1473.061
-1435.068
-1398.386
-1380.811
-1393.381
-1431.739
-1477.35
-1507.077
-1500.813
-1451.724
-1372.862
-1287.687
-1221.554
-1194.408
-1208.283
-1248.905
-1294.891
-1323.542
-1322.54
-1295.315
-1254.721
-1217.096
-1194.341
-1188.791
-1195.921
-1208.76
-1222.416
-1235.591
-1249.309
-1265.319
-1284.116
-1305.21
-1328.093
-1352.279
-1377.669
-1404.404
-1432.415
-1461.534
-1491.585
-1522.329
-1553.506
-1584.881
-1616.271
-1647.566
-1678.715
-1709.692
-1740.459
-1770.99
-1801.262
-1831.249
-1860.888
-1890.073
-1918.675
-1946.571
-1973.663
-1999.872
-2025.109
-2049.282
-2072.251
-2093.84
-2113.9
-2132.304
-2148.945
-2163.741
-2176.627
-2187.555
-2196.54
-2203.657
-2209.006
-2212.705
-2214.862
-2215.573
-2214.964
-2213.174
-2210.375
-2206.766
-2202.509
-2197.734
-2192.559
-2187.082
-2181.39
-2175.568
-2169.648
-2163.622
-2157.479
-2151.199
-2144.779
-2138.232
-2131.544
-2124.676
-2117.579
-2110.189
-2102.467
-2094.399
-2085.964
-2077.134
-2067.891
-2058.221
-2048.139
-2037.694
-2026.915
-2015.818
-2004.411
-1992.68
-1980.647
-1968.366
-1955.889
-1943.289
-1930.644
-1918.038
-1905.584
-1893.427
-1881.705
-1870.552
-1860.105
-1850.477
-1841.795
-1834.173
-1827.743
-1822.694
-1819.094
-1816.869
-1815.838
-1815.636
-1815.889
-1816.375
-1816.761
-1816.479
-1815.199
-1812.907
-1809.904
-1807.023
-1805.038
-1804.049
-1804.134
-1805.909
-1809.53
-1814.375
-1819.372
-1821.361
-1817.259
-1806.723
-1788.467
-1762.696
-1730.281
-1688.676
-1639.012
-1581.636
-1515.953
-1445.256
-1368.682
-1290.068
-1217.545
-1158.524
-1127.435
-1132.841
-1177.007
-1258.034
-1361.132
-1470.577
-1571.704
-1652.864
-1714.426
-1762.02
-1804.403
-1849.469
-1898.492
-1948.582
-1993.995
-2030.575
-2057.418
-2075.55
-2088.035
-2096.774
-2102.235
-2105.003
-2104.905
-2101.728
-2095.904
-2087.551
-2076.404
-2062.426
-2045.329
-2024.541
-2000.026
-1972.002
-1940.666
-1906.478
-1869.939
-1831.423
-1791.489
-1750.793
-1709.711
-1668.475
-1627.22
-1585.923
-1544.627
-1503.431
-1462.376
-1421.525
-1380.987
-1340.854
-1301.252
-1262.288
-1223.976
-1186.299
-1149.204
-1112.612
-1076.507
-1040.907
-1005.833
-971.325
-937.413
-904.103
-871.41
-839.3
-807.68
-776.444
-745.465
-714.652
-683.98
-653.448
-623.081
-592.926
-563.014
-533.371
-504.031
-475.014
-446.335
-418.013
-390.061
-362.518
-335.462
-308.985
-283.195
-258.168
-233.94
-210.528
-187.928
-166.117
-145.067
-124.734
-105.059
-85.992
-67.487
-49.502
-31.999
-14.926
1.782
18.198
34.403
50.466
66.441
82.377
98.315
114.287
130.32
146.427
162.615
178.892
195.269
211.756
228.366
245.104
261.973
278.971
296.092
313.33
330.676
348.119
365.644
383.237
400.881
418.558
436.252
453.939
471.596
489.196
506.709
524.104
541.351
558.415
575.263
591.861
608.172
624.165
639.805
655.06
669.897
684.285
698.193
711.592
724.453
736.75
748.457
759.549
770.003
779.798
788.914
797.334
805.044
812.03
818.281
823.791
828.553
832.564
835.824
838.335
840.101
841.129
841.43
841.014
839.896
838.093
835.626
832.514
828.782
824.454
819.557
814.119
808.171
801.742
794.865
787.573
779.901
771.883
763.554
754.952
746.112
737.07
727.865
718.531
709.105
699.623
690.119
680.627
671.181
661.814
652.555
643.435
634.481
625.721
617.179
608.878
600.839
593.082
585.624
578.48
571.664
565.185
559.054
553.278
547.861
542.805
538.113
533.783
529.812
526.195
522.927
519.998
517.4
515.121
513.149
511.471
510.072
508.935
508.046
507.384
506.934
506.676
506.591
506.659
506.861
507.178
507.59
508.077
508.622
509.205
509.808
510.415
511.009
511.574
512.096
512.562
512.958
513.273
513.498
513.622
513.637
513.538
513.317
512.97
512.493
511.885
511.142
510.264
509.251
508.105
506.828
505.421
503.889
502.236
500.466
498.585
496.597
494.51
492.329
490.061
487.712
485.29
482.801
480.252
477.649
474.998
472.306
469.579
466.821
464.039
461.235
458.416
455.583
452.742
449.895
447.044
444.192
441.34
438.492
435.647
432.808
429.974
427.146
424.324
421.509
418.7
415.897
413.1
410.307
407.519
404.734
401.953
399.174
396.397
393.623
390.849
388.078
385.307
382.538
379.771
377.006
374.245
371.487
368.734
365.987
363.247
360.515
357.792
355.079
352.378
349.688
347.012
344.349
341.701
339.069
336.453
333.853
331.271
328.707
326.16
323.632
321.121
318.628
316.152
313.692
311.247
308.816
306.398
303.99
301.592
299.199
296.812
294.426
292.039
289.649
287.253
284.848
282.432
280.002
277.557
275.094
272.612
270.109
267.583
265.035
262.462
259.864
257.24
254.59
251.913
249.209
246.478
243.72
240.936
238.126
235.29
232.43
229.548
226.645
223.722
220.783
217.828
214.862
211.886
208.904
205.919
202.934
199.953
196.979
194.014
191.062
188.126
185.207
182.308
179.431
176.578
173.75
170.948
168.175
165.431
162.717
160.036
157.388
154.774
152.196
149.655
147.152
144.688
142.264
139.881
137.54
135.241
132.984
130.771
128.602
126.476
124.393
122.353
120.356
118.401
116.488
114.618
112.789
111.003
109.261
107.562
105.907
104.299
102.738
101.226
99.763
98.351
96.991
95.684
94.432
93.233
92.09
91.003
89.971
88.995
88.075
87.211
86.401
85.646
84.945
84.296
83.7
83.156
82.663
82.221
81.828
81.484
81.187
80.938
80.733
80.572
80.452
80.372
80.328
80.318
80.34
80.39
80.467
80.567
80.688
80.829
80.987
81.16
81.347
81.546
81.757
81.979
82.212
82.456
82.712
82.981
83.263
83.561
83.875
84.208
84.561
84.937
85.337
85.765
86.223
86.715
87.246
87.818
88.437
89.108
89.838
90.631
91.493
92.43
93.447
94.551
95.746
97.039
98.432
99.932
101.542
103.267
105.109
107.07
109.153
111.358
113.686
116.136
118.707
121.397
124.203
127.123
130.153
133.289
136.525
139.854
143.269
146.761
150.319
153.932
157.585
161.262
164.947
168.623
172.272
175.875
179.412
182.866
186.216
189.445
192.535
195.465
198.217
200.77
203.103
205.2
207.041
208.611
209.894
210.872
211.533
211.869
211.873
211.534
210.844
209.789
208.36
206.563
204.406
201.902
199.073
195.944
192.553
188.955
185.202
181.35
177.452
173.548
169.686
165.919
162.303
158.901
155.766
152.928
150.411
148.231
146.384
144.858
143.611
142.556
141.604
140.669
139.657
138.504
137.139
135.481
133.468
131.033
128.117
124.707
120.799
116.402
111.59
106.446
101.063
95.682
90.638
86.326
83.295
82.086
83.103
86.788
93.662
104.01
117.852
134.947
154.504
175.597
197.673
220.264
242.626
264.138
284.613
304.179
325.003
350.891
384.208
425.724
472.893
519.729
562.784
604.706
653.953
721.998
815.733
929.032
1044.362
1140.996
1201.266
1219.343
1200.591
1149.782
1070.149
961.189
818.102
647.601
464.447
286.53
136.998
24.081
-53.788
-99.018
-119.735
-111.867
-67.737
10.741
117.554
233.077
335.926
417.542
478.367
529.699
582.974
640.652
699.267
750.682
789.496
815.675
831.793
842.927
852.645
862.369
873.635
886.979
902.201
919.58
938.013
954.559
968.8
981.766
995.4
1015.133
1040.987
1067.294
1088.688
1097.147
1092.063
1082.112
1074.295
1075.921
1087.862
1102.12
1114.292
1123.272
1132.957
1152.85
1186.227
1228.591
1269.967
1297.944
1307.646
1304.235
1298.748
1301.744
1317.432
1341.766
1365.8
1384.489
1397.771
1409.667
1427.776
1452.657
1478.98
1501.18
1511.513
1509.979
1503.94
1498.925
1500.912
1510.71
1523.022
1534.636
1543.207
1548.073
1551.355
1553.952
1555.786
1556.883
1556.842
1555.589
1553.491
1550.586
1546.664
1541.584
1535.165
1527.388
1518.5
1508.565
1497.43
1485.219
1472.253
1458.892
1445.67
1432.6
1419.082
1404.803
1389.721
1373.583
1356.079
1336.72
1314.739
1290.142
1263.592
1235.427
1206.067
1175.87
1144.965
1114.108
1083.055
1050.971
1018.764
986.547
956.648
931.995
909.299
886.234
859.129
823.337
783.223
742.471
703.688
670.939
641.357
612.116
582.688
551.384
519.246
487.6
456.195
425.231
394.694
364.376
334.495
305.226
276.538
248.437
220.957
194.108
167.894
142.322
117.375
93.029
69.294
46.172
23.651
1.72
-19.637
-40.438
-60.701
-80.446
-99.69
-118.449
-136.737
-154.568
-171.964
-188.954
-205.57
-221.851
-237.818
-253.479
-268.842
-283.905
-298.69
-313.248
-327.609
-341.793
-355.822
-369.688
-383.436
-397.187
-410.929
-424.534
-437.891
-450.837
-463.392
-475.858
-488.351
-500.785
-513.325
-526.268
-539.954
-554.941
-571.236
-588.176
-605.402
-622.82
-640.11
-656.96
-672.892
-687.055
-699.37
-710.615
-721.255
-731.561
-741.849
-752.222
-763.014
-774.935
-788.058
-801.814
-815.824
-829.767
-843.424
-856.85
-869.918
-882.269
-893.841
-904.829
-915.372
-925.632
-935.67
-945.381
-954.745
-963.815
-972.594
-981.061
-989.195
-996.951
-1004.323
-1011.344
-1018.031
-1024.394
-1030.441
-1036.164
-1041.561
-1046.626
-1051.356
-1055.745
-1059.794
-1063.51
-1066.897
-1069.951
-1072.666
-1075.034
-1077.048
-1078.707
-1080.003
-1080.912
-1081.417
-1081.493
-1081.118
-1080.3
-1079.035
-1077.333
-1075.213
-1072.652
-1069.632
-1066.147
-1062.171
-1057.708
-1052.822
-1047.527
-1041.82
-1035.802
-1029.588
-1023.428
-1017.722
-1012.665
-1008.257
-1004.456
-1001.208
-998.475
-996.171
-993.804
-990.422
-985.35
-978.371
-969.631
-959.542
-948.333
-936.165
-923.783
-912.804
-904.808
-900.781
-901.054
-905.09
-912.386
-922.781
-935.466
-948.354
-958.806
-964.175
-962.143
-951.724
-932.202
-901.998
-860.017
-806.722
-743.692
-674.701
-605.203
-537.77
-474.303
-416.97
-365.353
-324.057
-300.244
-297.914
-323.676
-378.528
-457.545
-558.098
-672.217
-790.044
-902.946
-999.874
-1075.2
-1130.978
-1174.454
-1214.499
-1256.039
-1298.376
-1336.07
-1364.712
-1383.956
-1395.822
-1403.935
-1410.825
-1416.577
-1420.573
-1422.517
-1422.32
-1419.876
-1415.04
-1407.178
-1395.477
-1379.881
-1360.697
-1338.244
-1313.046
-1285.581
-1256.238
-1225.659
-1194.573
-1163.4
-1132.406
-1101.711
-1071.259
-1041.094
-1011.303
-981.948
-953.126
-924.918
-897.376
-870.583
-844.635
-819.601
-795.553
-772.529
-750.507
-729.501
-709.539
-690.653
-672.913
-656.358
-640.992
-626.799
-613.712
-601.648
-590.542
-580.313
-570.859
-562.079
-553.844
-546.023
-538.55
-531.364
-524.409
-517.645
-511.012
-504.461
-497.971
-491.54
-485.178
-478.91
-472.751
-466.714
-460.834
-455.155
-449.731
-444.633
-439.883
-435.475
-431.397
-427.617
-424.102
-420.818
-417.712
-414.713
-411.757
-408.782
-405.73
-402.553
-399.187
-395.564
-391.613
-387.257
-382.438
-377.119
-371.264
-364.851
-357.864
-350.29
-342.13
-333.396
-324.097
-314.24
-303.833
-292.884
-281.407
-269.424
-256.96
-244.044
-230.706
-216.975
-202.887
-188.477
-173.781
-158.838
-143.686
-128.363
-112.909
-97.369
-81.79
-66.219
-50.704
-35.293
-20.036
-4.982
9.821
24.327
38.49
52.266
65.614
78.492
90.86
102.681
113.919
124.539
134.512
143.807
152.397
160.261
167.376
173.726
179.296
184.075
188.056
191.234
193.609
195.183
195.962
195.955
195.175
193.638
191.364
188.374
184.694
180.351
175.376
169.802
163.662
156.994
149.836
142.227
134.208
125.821
117.108
108.112
98.877
89.447
79.865
70.175
60.419
50.639
40.877
31.172
21.564
12.088
2.781
-6.324
-15.196
-23.807
-32.129
-40.138
-47.812
-55.131
-62.08
-68.643
-74.808
-80.566
-85.909
-90.834
-95.336
-99.417
-103.076
-106.319
-109.151
-111.578
-113.61
-115.257
-116.53
-117.443
-118.008
-118.24
-118.156
-117.771
-117.101
-116.164
-114.976
-113.556
-111.92
-110.084
-108.067
-105.883
-103.549
-101.079
-98.488
-95.789
-92.997
-90.122
-87.178
-84.174
-81.12
-78.027
-74.903
-71.755
-68.59
-65.415
-62.236
-59.057
-55.884
-52.719
-49.568
-46.431
-43.313
-40.216
-37.141
-34.089
-31.063
-28.062
-25.087
-22.139
-19.219
-16.327
-13.464
-10.63
-7.826
-5.053
-2.311
0.398
3.074
5.716
8.324
10.895
13.43
15.927
18.386
20.804
23.182
25.518
27.812
30.062
32.268
34.429
36.545
38.615
40.64
42.618
44.548
46.431
48.267
50.053
51.791
53.48
55.12
56.711
58.253
59.746
61.192
62.59
63.941
65.246
66.506
67.721
68.892
70.02
71.107
72.152
73.157
74.123
75.052
75.943
76.799
77.619
78.404
79.155
79.873
80.559
81.213
81.836
82.43
82.996
83.535
84.049
84.54
85.009
85.459
85.89
86.304
86.704
87.092
87.468
87.835
88.196
88.551
88.904
89.256
89.609
89.964
90.324
90.69
91.063
91.445
91.838
92.243
92.662
93.096
93.546
94.014
94.501
95.008
95.534
96.08
96.646
97.232
97.837
98.46
99.1
99.756
100.427
101.112
101.808
102.515
103.229
103.949
104.673
105.398
106.123
106.844
107.56
108.269
108.968
109.657
110.333
110.994
111.639
112.267
112.876
113.464
114.031
114.575
115.096
115.594
116.069
116.521
116.951
117.359
117.747
118.116
118.468
118.803
119.125
119.434
119.734
120.027
120.315
120.602
120.89
121.183
121.483
121.794
122.118
122.46
122.821
123.205
123.614
124.053
124.523
125.027
125.569
126.15
126.774
127.443
128.158
128.923
129.737
130.603
131.523
132.495
133.523
134.606
135.744
136.938
138.187
139.491
140.85
142.263
143.729
145.246
146.812
148.426
150.086
151.789
153.532
155.314
157.13
158.977
160.853
162.752
164.672
166.608
168.555
170.51
172.466
174.419
176.365
178.298
180.212
182.103
183.966
185.796
187.588
189.336
191.037
192.685
194.277
195.807
197.272
198.669
199.993
201.243
202.417
203.511
204.526
205.46
206.313
207.085
207.779
208.394
208.934
209.401
209.799
210.133
210.407
210.627
210.799
210.932
211.032
211.109
211.172
211.229
211.291
211.367
211.467
211.602
211.783
212.019
212.322
212.701
213.167
213.729
214.397
215.179
216.082
217.115
218.282
219.59
221.043
222.644
224.395
226.296
228.35
230.553
232.903
235.396
238.024
240.782
243.659
246.644
249.725
252.884
256.107
259.376
262.673
265.978
269.271
272.532
275.743
278.883
281.935
284.878
287.691
290.354
292.847
295.151
297.248
299.124
300.763
302.152
303.287
304.162
304.774
305.117
305.177
304.947
304.425
303.613
302.516
301.146
299.522
297.673
295.644
293.48
291.224
288.915
286.58
284.248
281.958
279.752
277.682
275.798
274.13
272.706
271.558
270.69
270.078
269.667
269.349
269.027
268.639
268.115
267.389
266.384
264.995
263.149
260.807
257.9
254.326
250.019
244.985
239.444
233.83
228.587
224.12
220.886
219.4
220.133
223.323
228.612
235.164
242.184
248.919
254.551
258.184
258.937
257.287
255.715
256.96
262.759
271.815
281.08
290.843
306.189
337.543
394.343
477.623
580.06
686.903
785.505
871.806
946.549
1012.681
1067.52
1099.593
1094.198
1039.184
931.103
775.435
587.474
388.522
198.976
40.457
-73.283
-141.686
-170.155
-172.749
-164.262
-149.498
-129.473
-102.176
-63.987
-17.115
33.655
84.51
131.196
171.205
204.043
229.49
248.128
261.288
270.14
275.368
277.926
279.165
280.416
283.073
287.837
294.499
302.681
312.124
322.398
332.895
342.814
351.118
357.272
361.353
363.619
364.465
364.297
363.479
362.508
362.023
362.431
363.891
366.446
369.994
374.458
379.822
386.001
392.858
400.269
408.113
416.275
424.669
433.181
441.662
449.987
458.043
465.744
473.052
479.942
486.403
492.441
498.076
503.332
508.249
512.87
517.23
521.378
525.364
529.247
533.094
536.961
540.895
544.935
549.109
553.44
557.952
562.657
567.562
572.676
578.009
583.572
589.379
595.438
601.753
608.332
615.18
622.311
629.736
637.452
645.451
653.719
662.231
670.961
679.868
688.891
697.968
707.038
716.043
724.939
733.679
742.204
750.449
758.339
765.812
772.832
779.385
785.462
791.077
796.261
801.074
805.619
810
814.292
818.55
822.786
827.006
831.227
835.464
839.735
844.028
848.269
852.344
856.112
859.397
861.982
863.6
863.918
862.585
859.297
853.8
845.898
835.415
822.168
805.974
786.659
764.114
738.321
709.333
677.265
642.274
604.592
564.526
522.474
478.889
434.197
388.777
342.968
297.113
251.583
206.777
163.113
120.926
80.473
41.95
5.488
-28.811
-60.902
-90.826
-118.698
-144.691
-168.973
-191.675
-212.911
-232.828
-251.605
-269.47
-286.689
-303.459
-319.924
-336.202
-352.367
-368.485
-384.599
-400.694
-416.704
-432.55
-448.154
-463.464
-478.445
-493.033
-507.144
-520.667
-533.465
-545.452
-556.571
-566.781
-576.061
-584.401
-591.799
-598.288
-603.929
-608.779
-612.893
-616.319
-619.092
-621.263
-622.897
-624.066
-624.848
-625.306
-625.49
-625.446
-625.215
-624.833
-624.333
-623.733
-623.04
-622.267
-621.43
-620.544
-619.631
-618.701
-617.763
-616.825
-615.896
-614.984
-614.099
-613.25
-612.443
-611.688
-610.993
-610.368
-609.823
-609.36
-608.977
-608.674
-608.454
-608.324
-608.289
-608.338
-608.461
-608.646
-608.878
-609.137
-609.393
-609.594
-609.693
-609.648
-609.429
-609.02
-608.401
-607.541
-606.403
-604.944
-603.135
-600.973
-598.464
-595.607
-592.413
-588.913
-585.185
-581.368
-577.591
-573.949
-570.504
-567.277
-564.315
-561.709
-559.557
-557.95
-556.963
-556.591
-556.859
-557.869
-559.589
-561.854
-564.34
-566.443
-567.629
-567.598
-565.993
-562.453
-556.968
-549.662
-540.992
-532.026
-523.579
-516.133
-510.366
-506.626
-504.475
-503.174
-501.307
-496.563
-487.151
-471.537
-447.765
-414.624
-372.158
-321.267
-264.291
-204.815
-146.019
-91.401
-45.352
-11.707
6.607
7.723
-8.362
-40.489
-87.655
-147.921
-218.168
-295.179
-375.496
-456.101
-535.221
-611.357
-682.57
-747.565
-805.598
-856.046
-899.145
-935.213
-964.073
-985.944
-1001.67
-1012.068
-1018.226
-1021.446
-1022.306
-1021.199
-1018.689
-1014.984
-1010.03
-1003.705
-995.509
-984.783
-971.4
-955.49
-937.25
-917.1
-895.433
-872.615
-849.188
-825.7
-802.446
-779.564
-757.07
-734.882
-713.001
-691.469
-670.301
-649.51
-629.096
-609.073
-589.493
-570.402
-551.838
-533.824
-516.365
-499.52
-483.406
-468.117
-453.756
-440.408
-428.096
-416.849
-406.687
-397.583
-389.536
-382.54
-376.548
-371.526
-367.427
-364.177
-361.722
-359.98
-358.817
-358.149
-357.904
-358.024
-358.516
-359.368
-360.529
-361.968
-363.617
-365.382
-367.217
-369.074
-370.907
-372.709
-374.451
-376.115
-377.727
-379.259
-380.66
-381.861
-382.731
-383.161
-383.105
-382.526
-381.434
-379.883
-377.89
-375.464
-372.629
-369.369
-365.682
-361.56
-356.964
-351.881
-346.326
-340.335
-333.988
-327.36
-320.475
-313.346
-305.953
-298.244
-290.191
-281.779
-272.98
-263.796
-254.234
-244.309
-234.065
-223.547
-212.786
-201.801
-190.598
-179.182
-167.582
-155.841
-144.012
-132.168
-120.373
-108.688
-97.185
-85.922
-74.953
-64.326
-54.074
-44.227
-34.817
-25.881
-17.455
-9.578
-2.284
4.402
10.457
15.86
20.597
24.653
28.023
30.7
32.681
33.962
34.541
34.416
33.591
32.075
29.877
27.015
23.506
19.373
14.644
9.349
3.521
-2.805
-9.591
-16.798
-24.383
-32.303
-40.513
-48.966
-57.614
-66.408
-75.3
-84.241
-93.179
-102.066
-110.854
-119.494
-127.94
-136.146
-144.068
-151.664
-158.895
-165.722
-172.11
-178.026
-183.439
-188.323
-192.651
-196.404
-199.563
-202.115
-204.048
-205.357
-206.037
-206.089
-205.517
-204.328
-202.531
-200.139
-197.17
-193.64
-189.573
-184.992
-179.923
-174.395
-168.438
-162.083
-155.362
-148.31
-140.96
-133.348
-125.508
-117.475
-109.284
-100.97
-92.567
-84.107
-75.623
-67.146
-58.704
-50.326
-42.038
-33.863
-25.824
-17.939
-10.227
-2.702
4.622
11.736
18.631
25.301
31.744
37.957
43.941
49.7
55.239
60.563
65.682
70.604
75.341
79.903
84.306
88.561
92.683
96.687
100.589
104.404
108.149
111.839
115.487
119.107
122.714
126.321
129.945
133.593
137.27
140.997
144.788
148.656
152.616
156.664
160.787
164.998
169.314
173.698
178.126
182.574
187.007
191.443
195.927
200.422
204.87
209.392
214.133
218.988
223.957
229.057
233.944
239.5
246.58
253.932
261.167
265.996
265.679
263.224
260.631
260.883
268.087
278.592
289.305
298.104
301.489
301.95
302.014
302.239
304.164
306.892
309.269
311.512
313.476
315.236
317.029
318.703
320.139
321.379
322.438
323.305
323.988
324.503
324.859
325.087
325.219
325.253
325.186
325.03
324.793
324.483
324.113
323.687
323.21
322.693
322.145
321.574
320.988
320.394
319.799
319.207
318.626
318.06
317.512
316.989
316.491
316.023
315.587
315.185
314.817
314.484
314.187
313.925
313.698
313.504
313.341
313.207
313.099
313.016
312.953
312.906
312.873
312.848
312.827
312.806
312.779
312.741
312.687
312.613
312.512
312.38
312.212
312.004
311.751
311.449
311.094
310.684
310.213
309.681
309.083
308.419
307.687
306.885
306.012
305.068
304.053
302.967
301.811
300.585
299.29
297.928
296.501
295.01
293.457
291.845
290.177
288.456
286.685
284.868
283.008
281.11
279.177
277.215
275.226
273.216
271.19
269.151
267.104
265.054
263.005
260.962
258.928
256.908
254.906
252.924
250.968
249.039
247.142
245.279
243.453
241.667
239.925
238.228
236.579
234.982
233.438
231.95
230.519
229.148
227.837
226.588
225.402
224.279
223.219
222.221
221.285
220.407
219.587
218.822
218.108
217.442
216.82
216.236
215.686
215.164
214.665
214.183
213.71
213.242
212.769
212.287
211.786
211.259
210.698
210.096
209.444
208.732
207.954
207.099
206.161
205.13
204
202.763
201.411
199.94
198.345
196.62
194.763
192.771
190.644
188.383
185.988
183.464
180.814
178.044
175.163
172.179
169.1
165.939
162.707
159.417
156.083
152.718
149.339
145.962
142.603
139.281
136.014
132.82
129.72
126.731
123.873
121.165
118.626
116.275
114.127
112.201
110.511
109.071
107.894
106.991
106.371
106.041
106.004
106.264
106.818
107.663
108.793
110.197
111.866
113.785
115.938
118.308
120.875
123.621
126.523
129.561
132.71
135.945
139.24
142.566
145.896
149.2
152.45
155.616
158.671
161.589
164.35
166.934
169.319
171.485
173.406
175.061
176.439
177.526
178.317
178.811
179.014
178.948
178.65
178.157
177.509
176.741
175.875
174.948
173.996
173.062
172.201
171.454
170.851
170.427
170.207
170.202
170.41
170.776
171.2
171.581
171.818
171.824
171.533
170.847
169.655
167.839
165.278
161.91
157.687
152.524
146.397
139.345
131.544
123.438
115.582
108.457
102.586
98.516
96.653
97.355
100.608
105.755
112.009
118.663
124.879
129.84
132.782
132.847
131.033
130.788
135.617
149.117
170.839
195.009
218.804
241.999
271.767
325.21
412.033
534.465
684.77
838.184
975.08
1081.869
1147.06
1173.068
1158.054
1094.94
983.656
821.271
615.163
386.101
153.883
-56.664
-227.982
-356.292
-440.301
-487.75
-504.681
-489.02
-444.402
-374.978
-291.914
-217.18
-163.967
-136.886
-130.722
-128.782
-120.975
-105.335
-85.197
-69.393
-61.875
-61.575
-65.569
-69.279
-70.339
-68.314
-63.378
-56.522
-48.553
-39.98
-31.579
-24.054
-18.067
-14.43
-13.442
-14.947
-18.646
-24.004
-30.467
-37.589
-44.843
-51.648
-57.62
-62.539
-66.304
-68.967
-70.57
-71.125
-70.7
-69.395
-67.329
-64.633
-61.428
-57.832
-53.988
-50.05
-46.191
-42.559
-39.272
-36.417
-34.045
-32.187
-30.86
-30.065
-29.786
-30
-30.669
-31.753
-33.215
-35.008
-37.079
-39.371
-41.812
-44.345
-46.927
-49.524
-52.11
-54.667
-57.177
-59.63
-62.024
-64.351
-66.607
-68.781
-70.861
-72.836
-74.698
-76.443
-78.065
-79.561
-80.923
-82.144
-83.218
-84.137
-84.898
-85.492
-85.914
-86.157
-86.22
-86.103
-85.808
-85.336
-84.691
-83.874
-82.891
-81.747
-80.445
-78.991
-77.387
-75.639
-73.752
-71.733
-69.588
-67.324
-64.948
-62.468
-59.894
-57.234
-54.499
-51.7
-48.847
-45.951
-43.025
-40.082
-37.134
-34.193
-31.273
-28.386
-25.546
-22.765
-20.056
-17.433
-14.907
-12.491
-10.199
-8.041
-6.031
-4.179
-2.499
-1
0.306
1.408
2.297
2.963
3.398
3.595
3.546
3.248
2.695
1.886
0.819
-0.506
-2.088
-3.923
-6.009
-8.338
-10.906
-13.705
-16.725
-19.957
-23.39
-27.012
-30.81
-34.771
-38.88
-43.123
-47.484
-51.949
-56.499
-61.121
-65.798
-70.512
-75.249
-79.99
-84.721
-89.426
-94.088
-98.694
-103.227
-107.676
-112.027
-116.267
-120.387
-124.376
-128.224
-131.924
-135.468
-138.85
-142.065
-145.108
-147.976
-150.667
-153.18
-155.516
-157.676
-159.661
-161.474
-163.119
-164.6
-165.921
-167.088
-168.105
-168.978
-169.714
-170.32
-170.803
-171.17
-171.43
-171.592
-171.667
-171.663
-171.592
-171.461
-171.281
-171.063
-170.815
-170.546
-170.265
-169.977
-169.691
-169.416
-169.16
-168.933
-168.739
-168.586
-168.48
-168.428
-168.438
-168.516
-168.664
-168.882
-169.172
-169.542
-170.006
-170.571
-171.238
-171.999
-172.847
-173.769
-174.755
-175.78
-176.8
-177.772
-178.647
-179.388
-179.971
-180.368
-180.545
-180.461
-180.061
-179.313
-178.205
-176.742
-174.94
-172.82
-170.413
-167.799
-165.106
-162.475
-160.059
-157.978
-156.318
-155.177
-154.643
-154.808
-155.773
-157.585
-160.249
-163.757
-168.052
-173.07
-178.784
-185.034
-191.55
-198.022
-203.932
-208.734
-212.115
-213.757
-213.335
-210.644
-205.338
-197.33
-187.373
-176.533
-165.702
-154.458
-140.865
-123.635
-102.336
-79.966
-62.617
-52.086
-47.902
-44.519
-28.418
7.627
67.288
150.204
241.318
327.085
394.612
427.435
423.143
382.449
308.837
218.993
125.379
39.167
-27.942
-77.365
-114.1
-143.365
-175.615
-216.705
-267.116
-327.408
-391.695
-450.739
-499.126
-532.05
-549.945
-558.847
-563.215
-566.663
-570.51
-573.341
-574.865
-575.487
-575.487
-575.169
-573.856
-570.366
-564.177
-555.192
-543.54
-529.524
-513.389
-495.449
-476.261
-456.474
-436.525
-416.608
-396.762
-376.949
-357.174
-337.476
-317.893
-298.435
-279.131
-260.086
-241.414
-223.226
-205.622
-188.655
-172.373
-156.848
-142.177
-128.472
-115.854
-104.43
-94.276
-85.459
-78.018
-71.97
-67.307
-63.959
-61.85
-60.92
-61.11
-62.365
-64.603
-67.689
-71.438
-75.674
-80.22
-84.897
-89.569
-94.111
-98.412
-102.398
-106.013
-109.234
-112.032
-114.362
-116.16
-117.361
-117.94
-117.921
-117.383
-116.41
-115.091
-113.532
-111.809
-109.977
-108.082
-106.128
-104.106
-102.003
-99.814
-97.543
-95.225
-92.903
-90.596
-88.3
-85.976
-83.566
-81.006
-78.208
-75.103
-71.639
-67.778
-63.512
-58.849
-53.799
-48.374
-42.591
-36.448
-29.935
-23.052
-15.802
-8.207
-0.305
7.858
16.218
24.715
33.291
41.896
50.487
59.032
67.5
75.863
84.1
92.185
100.084
107.759
115.172
122.29
129.083
135.534
141.622
147.319
152.615
157.513
162.012
166.114
169.804
173.043
175.811
178.123
179.952
181.232
181.915
181.949
181.329
180.135
178.401
176.054
173.183
170.092
166.869
163.437
159.853
155.836
151.942
150.022
149.793
149.57
146.695
136.014
117.636
96.85
78.845
70.989
74.101
81.204
86.887
85.407
75.523
62.484
49.603
39.053
31.623
25.218
18.837
12.587
6.403
0.617
-4.659
-9.699
-14.585
-19.255
-23.707
-27.947
-31.957
-35.722
-39.212
-42.378
-45.203
-47.712
-49.917
-51.818
-53.424
-54.739
-55.771
-56.537
-57.048
-57.312
-57.339
-57.14
-56.728
-56.115
-55.316
-54.342
-53.206
-51.923
-50.504
-48.963
-47.312
-45.562
-43.727
-41.818
-39.845
-37.82
-35.752
-33.651
-31.526
-29.385
-27.236
-25.086
-22.942
-20.809
-18.693
-16.597
-14.526
-12.484
-10.473
-8.495
-6.552
-4.646
-2.776
-0.945
0.849
2.605
4.323
6.004
7.649
9.258
10.832
12.372
13.88
15.356
16.802
18.219
19.607
20.968
22.304
23.615
24.903
26.168
27.413
28.637
29.844
31.032
32.205
33.362
34.506
35.636
36.753
37.859
38.953
40.037
41.11
42.173
43.226
44.27
45.305
46.331
47.348
48.357
49.358
50.351
51.336
52.313
53.283
54.246
55.203
56.154
57.099
58.038
58.971
59.899
60.82
61.735
62.642
63.541
64.43
65.31
66.178
67.033
67.875
68.701
69.51
70.301
71.073
71.823
72.55
73.254
73.931
74.582
75.205
75.798
76.362
76.894
77.393
77.859
78.291
78.687
79.047
79.37
79.655
79.902
80.111
80.282
80.416
80.514
80.576
80.605
80.603
80.571
80.512
80.43
80.327
80.207
80.074
79.932
79.786
79.639
79.496
79.362
79.241
79.138
79.055
78.999
78.973
78.98
79.025
79.112
79.245
79.426
79.66
79.949
80.297
80.706
81.178
81.715
82.319
82.99
83.728
84.533
85.405
86.342
87.342
88.402
89.518
90.688
91.906
93.168
94.468
95.801
97.161
98.542
99.937
101.34
102.745
104.145
105.534
106.905
108.251
109.567
110.846
112.082
113.269
114.401
115.472
116.477
117.411
118.27
119.048
119.743
120.35
120.868
121.294
121.626
121.864
122.008
122.059
122.017
121.885
121.665
121.36
120.972
120.507
119.966
119.356
118.68
117.943
117.15
116.305
115.413
114.479
113.508
112.503
111.471
110.414
109.338
108.247
107.145
106.037
104.926
103.816
102.71
101.612
100.524
99.449
98.388
97.342
96.313
95.302
94.309
93.333
92.376
91.436
90.513
89.607
88.716
87.84
86.978
86.13
85.296
84.475
83.668
82.875
82.098
81.339
80.598
79.879
79.182
78.511
77.868
77.256
76.677
76.134
75.629
75.168
74.752
74.386
74.075
73.82
73.627
73.499
73.441
73.454
73.543
73.71
73.956
74.285
74.698
75.195
75.777
76.442
77.19
78.018
78.922
79.897
80.934
82.024
83.157
84.324
85.514
86.713
87.91
89.094
90.257
91.389
92.482
93.526
94.506
95.407
96.218
96.927
97.523
97.997
98.335
98.526
98.579
98.501
98.292
97.955
97.463
96.789
95.941
94.928
93.718
92.292
90.645
88.772
86.738
84.635
82.467
80.213
78.023
76.081
74.318
72.781
71.539
70.284
69.95
71.442
73.501
75.719
75.737
70.7
63.582
56.355
51.982
54.562
60.307
65.982
69.35
66.794
60.772
53.726
46.181
39.775
33.823
27.596
21.779
16.614
12.63
10.611
10.712
12.779
16.424
20.634
24.34
26.838
27.417
25.374
20.548
13.462
5.419
-1.218
-3.813
0.066
12.844
36.689
73.325
122.34
182.014
250.847
325.262
403.363
482.906
555.063
612.226
646.095
648.054
620.639
568.421
495.199
408.036
306.838
189.963
62.57
-69.752
-197.117
-306.76
-393.757
-453.753
-482.276
-477.738
-434.726
-356.954
-258.603
-157.946
-80.358
-38.888
-32.904
-54.642
-84.041
-106.451
-114.789
-104.053
-78.911
-45.375
-7.743
25.56
47.623
55.434
46.802
26.279
3.502
-15.242
-24.895
-25.286
-21.721
-17.252
-14.171
-12.383
-9.446
-6.078
-2.893
-2.241
-7.177
-14.522
-21.796
-25.601
-21.427
-12.869
-3.074
5.723
9.741
11.334
12.892
14.796
18.501
23.008
27.081
30.921
34.364
37.462
40.443
43.144
45.435
47.354
48.914
50.112
50.988
51.611
52.053
52.388
52.676
52.923
53.128
53.305
53.462
53.6
53.714
53.798
53.852
53.883
53.902
53.911
53.908
53.882
53.825
53.73
53.595
53.415
53.185
52.902
52.564
52.174
51.733
51.243
50.699
50.101
49.442
48.722
47.936
47.083
46.159
45.162
44.092
42.95
41.736
40.454
39.106
37.694
36.221
34.693
33.113
31.486
29.816
28.111
26.375
24.617
22.843
21.061
19.28
17.507
15.752
14.024
12.331
10.68
9.081
7.541
6.068
4.669
3.35
2.117
0.976
-0.068
-1.013
-1.855
-2.594
-3.23
-3.763
-4.197
-4.533
-4.777
-4.932
-5.005
-5.002
-4.929
-4.795
-4.608
-4.377
-4.113
-3.824
-3.523
-3.219
-2.925
-2.65
-2.406
-2.203
-2.053
-1.966
-1.952
-2.022
-2.184
-2.447
-2.819
-3.307
-3.918
-4.656
-5.524
-6.527
-7.665
-8.94
-10.351
-11.898
-13.579
-15.39
-17.329
-19.392
-21.574
-23.868
-26.267
-28.766
-31.355
-34.027
-36.772
-39.581
-42.445
-45.354
-48.299
-51.27
-54.257
-57.251
-60.241
-63.218
-66.172
-69.096
-71.98
-74.817
-77.6
-80.324
-82.982
-85.571
-88.087
-90.526
-92.887
-95.167
-97.365
-99.482
-101.516
-103.469
-105.344
-107.142
-108.866
-110.522
-112.112
-113.644
-115.124
-116.56
-117.959
-119.33
-120.682
-122.023
-123.361
-124.706
-126.063
-127.439
-128.84
-130.271
-131.741
-133.258
-134.827
-136.452
-138.14
-139.891
-141.71
-143.596
-145.543
-147.547
-149.604
-151.713
-153.882
-156.115
-158.407
-160.75
-163.134
-165.54
-167.945
-170.318
-172.61
-174.779
-176.787
-178.603
-180.209
-181.583
-182.692
-183.496
-183.946
-183.997
-183.634
-182.85
-181.635
-180.009
-178.029
-175.774
-173.368
-170.924
-168.501
-166.166
-163.991
-162.056
-160.478
-159.367
-158.8
-158.886
-159.753
-161.432
-163.849
-166.762
-169.73
-172.327
-174.232
-175.086
-174.475
-172.207
-168.418
-163.624
-158.714
-154.448
-151.134
-149.017
-148.582
-149.943
-152.452
-154.707
-154.653
-150.382
-140.56
-123.853
-98.393
-62.449
-16.941
34.646
89.001
142.546
195.912
253.879
314.887
374.722
424.688
448.215
437.775
390.458
306.855
201.056
84.433
-29.263
-121.947
-187.009
-219.272
-224.162
-220.52
-224.386
-253.471
-314.832
-402.7
-508.199
-614.76
-708.568
-776.666
-807.247
-800.294
-761.149
-706.468
-657.643
-625.524
-615.296
-620.504
-628.416
-632.756
-629.074
-617.952
-604.016
-588.925
-573.892
-558.886
-541.67
-521.21
-497.515
-471.199
-443.873
-416.544
-389.375
-362.399
-335.611
-309.253
-283.618
-258.77
-234.533
-210.759
-187.489
-164.876
-143.131
-122.393
-102.746
-84.307
-67.231
-51.675
-37.758
-25.562
-15.107
-6.381
0.648
6.084
10.055
12.697
14.166
14.629
14.26
13.256
11.82
10.105
8.243
6.346
4.504
2.812
1.348
0.156
-0.749
-1.379
-1.764
-1.927
-1.897
-1.721
-1.457
-1.18
-0.969
-0.861
-0.863
-0.97
-1.158
-1.401
-1.671
-1.917
-2.073
-2.077
-1.867
-1.387
-0.59
0.584
2.197
4.316
7.007
10.313
14.259
18.863
24.132
30.064
36.655
43.884
51.723
60.147
69.131
78.65
88.679
99.186
110.134
121.484
133.194
145.22
157.523
170.057
182.779
195.644
208.609
221.631
234.667
247.674
260.604
273.411
286.048
298.467
310.623
322.47
333.964
345.062
355.723
365.911
375.588
384.72
393.275
401.223
408.534
415.184
421.147
426.404
430.935
434.725
437.761
440.034
441.537
442.267
442.221
441.404
439.82
437.476
434.384
430.558
426.013
420.77
414.851
408.279
401.082
393.289
384.931
376.04
366.651
356.801
346.526
335.864
324.855
313.539
301.956
290.148
278.154
266.016
253.775
241.47
229.142
216.829
204.568
192.395
180.346
168.453
156.748
145.261
134.019
123.048
112.371
102.009
91.982
82.305
72.992
64.056
55.506
47.348
39.589
32.231
25.274
18.717
12.557
6.787
1.4
-3.612
-8.261
-12.558
-16.518
-20.155
-23.483
-26.521
-29.284
-31.791
-34.059
-36.107
-37.954
-39.617
-41.116
-42.467
-43.689
-44.797
-45.807
-46.735
-47.595
-48.4
-49.163
-49.895
-50.608
-51.311
-52.013
-52.721
-53.443
-54.183
-54.946
-55.736
-56.554
-57.403
-58.283
-59.193
-60.133
-61.101
-62.094
-63.109
-64.142
-65.19
-66.247
-67.309
-68.369
-69.422
-70.464
-71.487
-72.488
-73.46
-74.398
-75.299
-76.157
-76.967
-77.726
-78.43
-79.076
-79.658
-80.176
-80.626
-81.006
-81.315
-81.55
-81.711
-81.798
-81.809
-81.746
-81.607
-81.394
-81.107
-80.748
-80.318
-79.819
-79.253
-78.622
-77.929
-77.178
-76.37
-75.509
-74.599
-73.641
-72.639
-71.596
-70.516
-69.401
-68.254
-67.08
-65.881
-64.661
-63.424
-62.173
-60.91
-59.64
-58.366
-57.091
-55.818
-54.551
-53.292
-52.045
-50.813
-49.598
-48.405
-47.236
-46.094
-44.98
-43.898
-42.85
-41.837
-40.861
-39.924
-39.027
-38.172
-37.359
-36.591
-35.867
-35.189
-34.555
-33.966
-33.422
-32.921
-32.461
-32.043
-31.663
-31.32
-31.012
-30.736
-30.49
-30.27
-30.075
-29.9
-29.743
-29.599
-29.467
-29.342
-29.22
-29.1
-28.977
-28.849
-28.712
-28.565
-28.405
-28.23
-28.036
-27.823
-27.589
-27.332
-27.05
-26.744
-26.414
-26.058
-25.678
-25.274
-24.849
-24.403
-23.939
-23.46
-22.968
-22.465
-21.955
-21.441
-20.927
-20.416
-19.911
-19.416
-18.935
-18.471
-18.026
-17.604
-17.206
-16.835
-16.493
-16.18
-15.899
-15.649
-15.431
-15.245
-15.092
-14.97
-14.878
-14.815
-14.779
-14.768
-14.777
-14.805
-14.848
-14.901
-14.961
-15.022
-15.08
-15.131
-15.169
-15.188
-15.185
-15.153
-15.088
-14.985
-14.84
-14.649
-14.409
-14.117
-13.77
-13.367
-12.908
-12.39
-11.815
-11.183
-10.496
-9.756
-8.964
-8.125
-7.242
-6.319
-5.361
-4.374
-3.362
-2.334
-1.294
-0.251
0.79
1.82
2.831
3.816
4.767
5.677
6.536
7.339
8.078
8.746
9.337
9.844
10.264
10.592
10.824
10.957
10.99
10.921
10.751
10.481
10.112
9.648
9.091
8.448
7.724
6.925
6.06
5.135
4.162
3.149
2.108
1.049
-0.015
-1.072
-2.109
-3.112
-4.067
-4.963
-5.784
-6.518
-7.152
-7.672
-8.067
-8.324
-8.433
-8.383
-8.163
-7.766
-7.183
-6.408
-5.435
-4.261
-2.882
-1.297
0.493
2.487
4.68
7.069
9.646
12.403
15.331
18.416
21.645
25.004
28.476
32.039
35.674
39.358
43.067
46.779
50.47
54.113
57.686
61.166
64.531
67.757
70.824
73.706
76.381
78.824
81.017
82.937
84.568
85.891
86.892
87.565
87.904
87.905
87.559
86.853
85.778
84.333
82.522
80.351
77.836
74.997
71.867
68.496
64.933
61.223
57.408
53.517
49.582
45.649
41.765
37.986
34.364
30.929
27.708
24.736
22.019
19.528
17.209
14.962
12.696
10.363
7.903
5.242
2.301
-1.03
-4.853
-9.218
-14.216
-19.962
-26.474
-33.705
-41.434
-49.187
-56.482
-62.909
-67.983
-71.223
-72.34
-71.219
-68.204
-64.162
-59.974
-56.337
-53.892
-53.229
-54.62
-57.908
-62.106
-65.303
-65.177
-59.482
-46.221
-23.212
11.453
59.018
120.024
192.304
270.996
351.43
428.646
500.75
569.976
634.34
688.58
721.734
716.853
665.502
567.91
432.371
276.039
112.318
-49.783
-200.721
-333.572
-440.62
-512.575
-546.695
-543.969
-508.133
-449.911
-380.785
-313.253
-258.99
-221.82
-199.771
-185.882
-173.154
-159.226
-145.254
-135.761
-133.505
-137.561
-145.428
-152.789
-156.399
-155.494
-150.175
-141.183
-129.546
-116.115
-101.804
-87.916
-75.741
-65.937
-58.749
-54.109
-51.646
-50.997
-51.825
-53.642
-55.939
-58.444
-61.005
-63.534
-66.014
-68.318
-70.277
-71.809
-72.873
-73.44
-73.5
-73.036
-72.036
-70.552
-68.659
-66.417
-63.879
-61.068
-58
-54.725
-51.318
-47.881
-44.531
-41.352
-38.408
-35.744
-33.388
-31.355
-29.647
-28.237
-27.088
-26.17
-25.459
-24.946
-24.626
-24.48
-24.482
-24.594
-24.771
-24.975
-25.182
-25.365
-25.508
-25.596
-25.621
-25.584
-25.494
-25.356
-25.169
-24.932
-24.635
-24.277
-23.854
-23.366
-22.812
-22.19
-21.5
-20.738
-19.905
-18.998
-18.013
-16.948
-15.795
-14.551
-13.211
-11.774
-10.24
-8.605
-6.87
-5.034
-3.097
-1.059
1.079
3.317
5.654
8.091
10.627
13.258
15.985
18.803
21.712
24.706
27.783
30.936
34.161
37.451
40.798
44.194
47.631
51.101
54.592
58.096
61.602
65.1
68.577
72.023
75.425
78.77
82.046
85.239
88.338
91.329
94.199
96.938
99.532
101.97
104.242
106.336
108.242
109.951
111.455
112.744
113.812
114.654
115.263
115.638
115.775
115.673
115.332
114.754
113.94
112.894
111.62
110.124
108.412
106.492
104.373
102.065
99.579
96.928
94.123
91.18
88.113
84.936
81.664
78.313
74.898
71.435
67.938
64.424
60.908
57.406
53.932
50.503
47.132
43.832
40.618
37.501
34.492
31.603
28.842
26.218
23.741
21.418
19.255
17.257
15.43
13.775
12.294
10.986
9.85
8.882
8.076
7.426
6.924
6.561
6.33
6.221
6.222
6.323
6.514
6.784
7.12
7.51
7.94
8.394
8.859
9.32
9.764
10.176
10.542
10.847
11.081
11.237
11.304
11.272
11.132
10.866
10.466
9.931
9.263
8.465
7.55
6.53
5.429
4.289
3.145
2.031
0.973
-0.017
-0.918
-1.708
-2.362
-2.845
-3.13
-3.21
-3.071
-2.706
-2.132
-1.368
-0.464
0.48
1.37
2.121
2.651
2.928
2.931
2.616
1.941
0.841
-0.749
-2.864
-5.528
-8.793
-12.72
-17.291
-22.345
-27.527
-32.332
-36.286
-39.019
-40.191
-39.383
-36.364
-31.272
-24.62
-17.392
-10.612
-4.902
-0.83
0.893
0.017
-2.976
-6.886
-9.518
-8.429
-1.807
12.186
35.616
69.807
114.971
169.958
231.883
297.083
362.157
422.852
473.973
510.841
529.332
527.661
507.061
467.675
409.126
331.231
232.755
119.143
1.014
-111.415
-206.337
-280.267
-338.22
-384.94
-427.164
-467.13
-501.067
-527.572
-546.28
-558.634
-568.886
-579.108
-589.397
-599.562
-608.672
-616.025
-621.291
-623.719
-622.359
-616.819
-607.23
-593.941
-577.489
-558.382
-537.04
-514.054
-490.143
-465.812
-441.355
-416.898
-392.406
-367.855
-343.274
-318.65
-293.931
-269.104
-244.174
-219.201
-194.342
-169.75
-145.56
-121.906
-98.921
-76.735
-55.506
-35.429
-16.675
0.583
16.179
29.984
41.879
51.763
59.58
65.312
68.991
70.705
70.564
68.709
65.34
60.668
54.93
48.407
41.34
33.968
26.549
19.283
12.344
5.899
0.071
-5.021
-9.248
-12.537
-14.852
-16.187
-16.612
-16.211
-15.081
-13.371
-11.216
-8.756
-6.158
-3.531
-0.938
1.553
3.909
6.084
7.992
9.588
10.863
11.817
12.496
12.952
13.236
13.443
13.686
14.076
14.748
15.793
17.256
19.185
21.608
24.554
28.074
32.194
36.915
42.239
48.161
54.666
61.747
69.37
77.477
86.01
94.899
104.089
113.543
123.224
133.096
143.128
153.282
163.53
173.85
184.212
194.582
204.924
215.196
225.363
235.398
245.272
254.955
264.418
273.628
282.552
291.159
299.414
307.284
314.733
321.724
328.227
334.212
339.653
344.525
348.808
352.481
355.529
357.937
359.695
360.79
361.213
360.961
360.028
358.415
356.125
353.16
349.53
345.248
340.33
334.796
328.67
321.972
314.724
306.953
298.688
289.96
280.801
271.243
261.321
251.073
240.54
229.765
218.792
207.656
196.398
185.049
173.643
162.228
150.849
139.554
128.394
117.392
106.569
95.964
85.603
75.519
65.761
56.307
47.123
38.311
29.939
22.087
14.87
8.177
1.853
-4.042
-9.475
-14.634
-19.617
-24.662
-30.078
-35.578
-40.835
-45.861
-50.583
-54.801
-58.455
-61.185
-62.576
-63.018
-62.914
-62.355
-61.562
-60.668
-59.69
-58.987
-58.935
-59.275
-59.769
-60.341
-60.805
-61.179
-61.539
-61.722
-61.577
-61.227
-60.764
-60.254
-59.809
-59.391
-58.952
-58.533
-58.157
-57.811
-57.496
-57.193
-56.878
-56.569
-56.282
-56.02
-55.791
-55.59
-55.406
-55.241
-55.089
-54.949
-54.819
-54.693
-54.567
-54.438
-54.299
-54.148
-53.981
-53.794
-53.582
-53.342
-53.069
-52.763
-52.424
-52.052
-51.649
-51.212
-50.742
-50.241
-49.709
-49.149
-48.56
-47.945
-47.305
-46.642
-45.958
-45.255
-44.535
-43.801
-43.054
-42.297
-41.532
-40.762
-39.99
-39.221
-38.456
-37.701
-36.958
-36.231
-35.524
-34.841
-34.185
-33.558
-32.964
-32.405
-31.884
-31.403
-30.964
-30.568
-30.216
-29.91
-29.649
-29.435
-29.266
-29.144
-29.066
-29.033
-29.045
-29.099
-29.194
-29.33
-29.505
-29.717
-29.963
-30.242
-30.549
-30.883
-31.238
-31.612
-32
-32.398
-32.801
-33.204
-33.603
-33.993
-34.369
-34.727
-35.061
-35.367
-35.641
-35.879
-36.076
-36.23
-36.335
-36.391
-36.394
-36.342
-36.234
-36.066
-35.839
-35.552
-35.204
-34.794
-34.322
-33.79
-33.199
-32.549
-31.842
-31.081
-30.269
-29.409
-28.505
-27.559
-26.577
-25.563
-24.522
-23.458
-22.376
-21.283
-20.183
-19.081
-17.984
-16.896
-15.823
-14.769
-13.74
-12.74
-11.773
-10.844
-9.956
-9.112
-8.315
-7.568
-6.873
-6.233
-5.647
-5.118
-4.646
-4.231
-3.873
-3.57
-3.322
-3.126
-2.981
-2.884
-2.833
-2.824
-2.855
-2.922
-3.02
-3.146
-3.297
-3.467
-3.653
-3.849
-4.053
-4.26
-4.465
-4.665
-4.856
-5.036
-5.2
-5.347
-5.473
-5.577
-5.656
-5.71
-5.738
-5.739
-5.713
-5.661
-5.583
-5.482
-5.36
-5.217
-5.058
-4.885
-4.7
-4.508
-4.312
-4.115
-3.921
-3.734
-3.557
-3.395
-3.251
-3.129
-3.031
-2.961
-2.92
-2.911
-2.936
-2.996
-3.091
-3.221
-3.385
-3.584
-3.814
-4.074
-4.359
-4.667
-4.992
-5.328
-5.669
-6.008
-6.336
-6.644
-6.923
-7.165
-7.359
-7.496
-7.564
-7.553
-7.452
-7.253
-6.944
-6.515
-5.956
-5.259
-4.415
-3.418
-2.26
-0.936
0.559
2.229
4.074
6.097
8.296
10.671
13.219
15.934
18.81
21.839
25.012
28.316
31.737
35.258
38.861
42.525
46.23
49.953
53.672
57.363
61.001
64.567
68.037
71.391
74.605
77.653
80.513
83.162
85.579
87.746
89.643
91.251
92.558
93.558
94.247
94.617
94.659
94.353
93.688
92.664
91.28
89.543
87.469
85.074
82.39
79.471
76.366
73.123
69.786
66.381
62.947
59.534
56.192
52.99
49.98
47.187
44.648
42.389
40.395
38.644
37.072
35.559
34.027
32.394
30.554
28.438
25.938
22.931
19.36
15.131
10.136
4.376
-2.116
-9.183
-16.427
-23.426
-29.823
-35.16
-39.002
-41.023
-40.991
-39.117
-36.082
-32.687
-29.555
-27.011
-25.478
-25.5
-27.298
-30.351
-32.251
-29.15
-18.182
1.8
28.618
58.641
91.149
127.845
175.405
241.236
327.408
433.151
549.644
662.153
755.941
813.789
823.555
782.592
695.335
573.417
429.818
275.126
117.572
-34.253
-168.504
-276.01
-351.527
-396.339
-420.478
-431.414
-432.238
-423.078
-400.208
-363.738
-317.976
-268.004
-219.029
-174.232
-135.307
-103.625
-79.907
-64.132
-55.362
-52.105
-53.305
-57.825
-64.068
-70.33
-74.8
-76.451
-75.329
-71.85
-66.421
-59.577
-52.015
-44.667
-38.736
-34.908
-33.214
-33.427
-35.109
-37.826
-41.25
-44.933
-48.292
-50.938
-52.688
-53.49
-53.455
-52.672
-51.165
-49.006
-46.293
-43.12
-39.607
-35.866
-31.997
-28.115
-24.318
-20.681
-17.281
-14.182
-11.423
-9.031
-6.999
-5.313
-3.962
-2.94
-2.23
-1.811
-1.64
-1.669
-1.846
-2.114
-2.43
-2.755
-3.053
-3.299
-3.473
-3.562
-3.564
-3.479
-3.304
-3.033
-2.659
-2.177
-1.583
-0.878
-0.061
0.865
1.9
3.042
4.289
5.641
7.099
8.662
10.331
12.109
13.995
15.987
18.08
20.271
22.552
24.92
27.367
29.887
32.474
35.122
37.827
40.584
43.389
46.238
49.128
52.056
55.018
58.01
61.031
64.076
67.143
70.228
73.328
76.439
79.557
82.68
85.802
88.919
92.026
95.119
98.192
101.239
104.255
107.235
110.171
113.058
115.89
118.658
121.357
123.977
126.512
128.951
131.286
133.507
135.603
137.564
139.379
141.036
142.524
143.832
144.949
145.865
146.569
147.052
147.306
147.322
147.093
146.613
145.877
144.881
143.622
142.097
140.306
138.25
135.928
133.346
130.505
127.411
124.07
120.49
116.678
112.645
108.401
103.957
99.327
94.525
89.566
84.465
79.24
73.909
68.49
63.002
57.466
51.9
46.326
40.762
35.228
29.743
24.327
18.999
13.775
8.673
3.709
-1.101
-5.743
-10.203
-14.469
-18.531
-22.378
-26.002
-29.394
-32.549
-35.462
-38.129
-40.547
-42.716
-44.636
-46.309
-47.739
-48.931
-49.891
-50.628
-51.153
-51.479
-51.619
-51.588
-51.401
-51.074
-50.624
-50.067
-49.418
-48.693
-47.906
-47.073
-46.212
-45.341
-44.475
-43.63
-42.822
-42.062
-41.368
-40.748
-40.209
-39.755
-39.391
-39.127
-38.981
-38.965
-39.082
-39.331
-39.709
-40.204
-40.799
-41.466
-42.159
-42.834
-43.452
-43.976
-44.388
-44.666
-44.772
-44.665
-44.294
-43.608
-42.592
-41.238
-39.534
-37.497
-35.175
-32.645
-30.035
-27.469
-25.024
-22.777
-20.805
-19.187
-18.039
-17.47
-17.564
-18.436
-20.209
-22.92
-26.516
-30.785
-35.334
-39.759
-43.691
-46.701
-48.306
-48.178
-46.324
-43.146
-39.392
-35.759
-32.605
-30.215
-29.122
-29.639
-31.321
-32.943
-32.585
-28.302
-18.663
-2.287
22.535
57.385
101.958
153.651
210.274
269.966
332.396
399.448
466.698
524.825
565.1
577.292
559.846
520.268
464.269
398.787
327.606
248.499
161.937
69.934
-25.305
-119.253
-207.87
-288.796
-360.263
-421.168
-471.498
-511.789
-542.386
-564.116
-578.578
-587.326
-592.112
-594.788
-596.197
-596.573
-596.202
-594.96
-592.37
-587.944
-580.837
-570.131
-555.582
-537.352
-515.746
-491.296
-464.548
-435.999
-406.316
-376.222
-346.154
-316.353
-286.932
-257.888
-229.278
-201.235
-173.89
-147.338
-121.685
-97.028
-73.453
-51.091
-30.054
-10.438
7.667
24.223
39.189
52.506
64.118
73.967
82.019
88.307
92.92
95.949
97.494
97.63
96.407
93.924
90.321
85.769
80.462
74.542
68.136
61.383
54.427
47.435
40.55
33.849
27.357
21.1
15.112
9.46
4.244
-0.49
-4.752
-8.59
-12.08
-15.263
-18.172
-20.864
-23.42
-25.951
-28.54
-31.209
-33.943
-36.728
-39.57
-42.507
-45.599
-48.86
-52.268
-55.785
-59.354
-62.941
-66.502
-69.965
-73.227
-76.171
-78.706
-80.785
-82.388
-83.492
-84.069
-84.076
-83.473
-82.248
-80.403
-77.939
-74.864
-71.179
-66.902
-62.072
-56.75
-51.002
-44.884
-38.436
-31.692
-24.686
-17.458
-10.048
-2.492
5.182
12.944
20.754
28.573
36.355
44.06
51.657
59.114
66.401
73.485
80.331
86.905
93.172
99.098
104.648
109.787
114.477
118.687
122.389
125.558
128.172
130.211
131.659
132.501
132.727
132.329
131.302
129.642
127.351
124.43
120.887
116.731
111.977
106.639
100.736
94.291
87.329
79.876
71.96
63.614
54.87
45.762
36.328
26.604
16.629
6.443
-3.913
-14.4
-24.975
-35.598
-46.23
-56.829
-67.359
-77.78
-88.056
-98.153
-108.035
-117.673
-127.035
-136.092
-144.82
-153.193
-161.191
-168.795
-175.988
-182.757
-189.09
-194.98
-200.419
-205.405
-209.937
-214.016
-217.646
-220.833
-223.585
-225.912
-227.824
-229.337
-230.463
-231.22
-231.624
-231.694
-231.449
-230.908
-230.093
-229.024
-227.723
-226.213
-224.514
-222.648
-220.637
-218.503
-216.266
-213.946
-211.563
-209.136
-206.681
-204.216
-201.756
-199.316
-196.907
-194.543
-192.232
-189.986
-187.811
-185.713
-183.7
-181.775
-179.94
-178.199
-176.553
-175.002
-173.544
-172.179
-170.903
-169.714
-168.606
-167.576
-166.617
-165.724
-164.888
-164.104
-163.364
-162.658
-161.979
-161.319
-160.668
-160.018
-159.361
-158.688
-157.992
-157.264
-156.499
-155.688
-154.827
-153.909
-152.93
-151.885
-150.769
-149.58
-148.316
-146.973
-145.55
-144.047
-142.464
-140.8
-139.057
-137.237
-135.341
-133.373
-131.337
-129.236
-127.075
-124.859
-122.596
-120.29
-117.95
-115.583
-113.196
-110.797
-108.395
-105.997
-103.613
-101.249
-98.916
-96.619
-94.367
-92.168
-90.028
-87.954
-85.953
-84.031
-82.192
-80.441
-78.783
-77.222
-75.759
-74.399
-73.142
-71.989
-70.941
-69.998
-69.159
-68.421
-67.783
-67.241
-66.79
-66.426
-66.143
-65.934
-65.793
-65.711
-65.681
-65.694
-65.741
-65.812
-65.898
-65.99
-66.076
-66.148
-66.196
-66.209
-66.178
-66.095
-65.949
-65.733
-65.438
-65.058
-64.584
-64.01
-63.33
-62.538
-61.63
-60.601
-59.449
-58.169
-56.761
-55.223
-53.555
-51.758
-49.833
-47.784
-45.612
-43.322
-40.919
-38.408
-35.795
-33.087
-30.292
-27.417
-24.47
-21.461
-18.398
-15.291
-12.148
-8.979
-5.793
-2.598
0.595
3.779
6.944
10.083
13.187
16.247
19.258
22.211
25.099
27.916
30.657
33.315
35.886
38.366
40.751
43.038
45.223
47.305
49.282
51.154
52.92
54.58
56.136
57.588
58.939
60.192
61.347
62.409
63.381
64.265
65.065
65.785
66.428
66.997
67.498
67.934
68.308
68.626
68.89
69.107
69.28
69.413
69.512
69.58
69.623
69.645
69.652
69.65
69.642
69.634
69.633
69.643
69.669
69.717
69.791
69.897
70.04
70.226
70.459
70.747
71.093
71.505
71.989
72.55
73.195
73.928
74.755
75.684
76.718
77.864
79.126
80.508
82.017
83.655
85.426
87.333
89.378
91.56
93.882
96.342
98.939
101.671
104.534
107.524
110.636
113.864
117.2
120.637
124.164
127.771
131.445
135.173
138.939
142.726
146.517
150.292
154.034
157.722
161.337
164.859
168.269
171.549
174.681
177.647
180.426
182.998
185.346
187.451
189.299
190.875
192.164
193.157
193.852
194.245
194.336
194.119
193.585
192.726
191.546
190.05
188.248
186.158
183.802
181.213
178.445
175.548
172.568
169.549
166.52
163.512
160.569
157.741
155.083
152.649
150.468
148.564
146.971
145.697
144.712
143.958
143.325
142.71
142.054
141.288
140.336
139.122
137.527
135.448
132.829
129.577
125.584
120.814
115.279
109.168
102.926
97.027
91.918
88.116
86.115
86.301
88.915
93.696
99.864
106.556
112.975
118.431
122.283
124.034
123.569
121.684
120.173
121.264
127.186
140.084
162.296
196.04
243.218
303.742
374.758
452.602
533.11
614.565
697.828
781.496
861.712
928.203
965.694
962.545
910.795
811.959
675.822
511.398
330.928
146.231
-30.905
-183.558
-299.593
-373.726
-407.602
-410.667
-390.715
-352.6
-300.728
-240.808
-183.198
-137.139
-106.439
-88.02
-72.786
-54.807
-33.101
-10.71
6.165
15.036
16.535
12.7
7.331
2.78
0.103
-0.117
1.742
5.211
10.114
16.003
22.177
27.82
31.899
33.835
33.637
31.551
27.998
23.396
18.123
12.642
7.52
3.168
-0.232
-2.628
-4.102
-4.729
-4.529
-3.56
-1.924
0.269
2.911
5.886
9.099
12.448
15.801
19.05
22.103
24.875
27.318
29.409
31.135
32.497
33.507
34.172
34.511
34.553
34.33
33.879
33.247
32.477
31.627
30.744
29.865
29.021
28.232
27.508
26.861
26.293
25.801
25.385
25.048
24.788
24.609
24.512
24.495
24.554
24.684
24.88
25.14
25.461
25.843
26.285
26.786
27.348
27.972
28.662
29.415
30.231
31.107
32.039
33.026
34.066
35.154
36.289
37.468
38.689
39.951
41.255
42.599
43.982
45.405
46.867
48.368
49.909
51.49
53.111
54.771
56.472
58.213
59.992
61.81
63.664
65.552
67.47
69.414
71.381
73.366
75.362
77.365
79.366
81.359
83.337
85.291
87.213
89.094
90.924
92.696
94.397
96.018
97.549
98.979
100.296
101.491
102.552
103.469
104.232
104.829
105.252
105.491
105.538
105.386
105.028
104.458
103.672
102.667
101.439
99.989
98.315
96.421
94.307
91.979
89.441
86.699
83.761
80.634
77.328
73.853
70.22
66.441
62.526
58.49
54.347
50.111
45.795
41.418
36.993
32.538
28.069
23.604
19.158
14.75
10.394
6.108
1.907
-2.194
-6.181
-10.038
-13.754
-17.315
-20.711
-23.93
-26.964
-29.804
-32.443
-34.875
-37.095
-39.098
-40.882
-42.445
-43.785
-44.903
-45.801
-46.479
-46.944
-47.198
-47.25
-47.106
-46.776
-46.273
-45.609
-44.798
-43.854
-42.795
-41.634
-40.39
-39.078
-37.713
-36.31
-34.884
-33.452
-32.031
-30.639
-29.294
-28.011
-26.806
-25.694
-24.689
-23.802
-23.039
-22.407
-21.91
-21.559
-21.37
-21.356
-21.523
-21.872
-22.397
-23.089
-23.93
-24.892
-25.932
-27.004
-28.069
-29.094
-30.055
-30.928
-31.686
-32.287
-32.68
-32.824
-32.685
-32.252
-31.517
-30.487
-29.199
-27.726
-26.18
-24.672
-23.293
-22.114
-21.204
-20.645
-20.539
-21.001
-22.116
-23.987
-26.75
-30.442
-35.028
-40.343
-46.012
-51.63
-56.832
-61.195
-64.277
-65.806
-65.651
-64.084
-61.822
-59.491
-57.584
-56.45
-56.304
-57.368
-59.612
-62.118
-63.184
-60.936
-53.56
-39.878
-18.795
11.354
51.834
102.768
161.953
224.939
287.621
347.788
406.082
464.11
519.912
566.467
591.897
584.709
540.517
463.684
367.065
264.531
164.558
69.936
-22.043
-113.762
-203.996
-289.568
-366.676
-433.216
-489.189
-535.729
-573.869
-604.123
-627.231
-644.111
-655.69
-663.073
-667.169
-668.223
-666.407
-661.874
-654.49
-644.163
-630.782
-614.025
-593.618
-569.684
-542.591
-512.88
-481.27
-448.437
-415.016
-381.695
-349.151
-317.893
-288.266
-260.5
-234.697
-210.916
-189.213
-169.591
-151.999
-136.393
-122.734
-110.93
-100.883
-92.472
-85.522
-79.886
-75.425
-71.958
-69.315
-67.349
-65.915
-64.913
-64.273
-63.895
-63.696
-63.615
-63.548
-63.427
-63.199
-62.778
-62.13
-61.248
-60.121
-58.793
-57.311
-55.69
-53.958
-52.134
-50.207
-48.196
-46.103
-43.895
-41.603
-39.266
-36.933
-34.705
-32.633
-30.725
-28.986
-27.393
-25.909
-24.523
-23.205
-21.907
-20.616
-19.307
-17.981
-16.67
-15.356
-13.996
-12.527
-10.849
-8.888
-6.608
-3.968
-0.936
2.501
6.365
10.657
15.355
20.457
25.967
31.898
38.284
45.133
52.428
60.147
68.243
76.678
85.425
94.45
103.712
113.18
122.825
132.623
142.565
152.628
162.782
172.992
183.218
193.419
203.563
213.615
223.542
233.31
242.884
252.233
261.326
270.131
278.613
286.736
294.461
301.753
308.577
314.902
320.699
325.937
330.592
334.641
338.063
340.841
342.959
344.403
345.16
345.223
344.585
343.242
341.196
338.447
335.003
330.871
326.066
320.602
314.498
307.775
300.458
292.573
284.148
275.217
265.813
255.97
245.727
235.123
224.198
212.994
201.554
189.92
178.137
166.247
154.293
142.318
130.362
118.466
106.669
95.009
83.523
72.245
61.208
50.444
39.981
29.848
20.068
10.662
1.651
-6.949
-15.125
-22.865
-30.16
-37.004
-43.394
-49.329
-54.81
-59.842
-64.432
-68.586
-72.317
-75.638
-78.561
-81.104
-83.283
-85.117
-86.625
-87.827
-88.743
-89.394
-89.801
-89.987
-89.971
-89.776
-89.424
-88.933
-88.326
-87.621
-86.837
-85.993
-85.105
-84.19
-83.263
-82.338
-81.429
-80.548
-79.706
-78.913
-78.177
-77.506
-76.906
-76.382
-75.938
-75.576
-75.298
-75.104
-74.996
-74.97
-75.027
-75.163
-75.375
-75.66
-76.014
-76.433
-76.911
-77.442
-78.023
-78.647
-79.309
-80.002
-80.722
-81.463
-82.219
-82.984
-83.753
-84.52
-85.279
-86.026
-86.753
-87.457
-88.132
-88.774
-89.378
-89.941
-90.458
-90.926
-91.342
-91.702
-92.005
-92.247
-92.427
-92.542
-92.591
-92.573
-92.488
-92.334
-92.111
-91.82
-91.459
-91.031
-90.535
-89.971
-89.342
-88.647
-87.89
-87.071
-86.193
-85.258
-84.271
-83.233
-82.148
-81.021
-79.855
-78.655
-77.424
-76.168
-74.891
-73.599
-72.297
-70.99
-69.685
-68.387
-67.102
-65.835
-64.591
-63.377
-62.197
-61.056
-59.959
-58.912
-57.917
-56.981
-56.107
-55.298
-54.558
-53.89
-53.297
-52.78
-52.34
-51.979
-51.696
-51.492
-51.366
-51.317
-51.343
-51.442
-51.612
-51.848
-52.148
-52.506
-52.917
-53.377
-53.879
-54.417
-54.986
-55.577
-56.185
-56.803
-57.424
-58.041
-58.648
-59.238
-59.803
-60.337
-60.834
-61.288
-61.692
-62.043
-62.334
-62.562
-62.723
-62.815
-62.835
-62.781
-62.651
-62.445
-62.163
-61.804
-61.37
-60.863
-60.285
-59.639
-58.93
-58.162
-57.339
-56.467
-55.552
-54.6
-53.615
-52.606
-51.578
-50.538
-49.493
-48.449
-47.414
-46.395
-45.397
-44.428
-43.492
-42.595
-41.741
-40.934
-40.177
-39.471
-38.82
-38.224
-37.682
-37.196
-36.764
-36.384
-36.054
-35.769
-35.525
-35.317
-35.138
-34.982
-34.841
-34.707
-34.571
-34.424
-34.257
-34.062
-33.829
-33.547
-33.207
-32.798
-32.312
-31.737
-31.066
-30.288
-29.396
-28.383
-27.243
-25.972
-24.564
-23.018
-21.331
-19.503
-17.534
-15.428
-13.186
-10.813
-8.316
-5.703
-2.984
-0.168
2.73
5.697
8.715
11.766
14.829
17.887
20.917
23.897
26.807
29.624
32.331
34.909
37.338
39.6
41.673
43.537
45.175
46.572
47.713
48.586
49.178
49.485
49.507
49.247
48.704
47.874
46.741
45.298
43.547
41.49
39.14
36.512
33.626
30.516
27.237
23.84
20.375
16.885
13.396
9.946
6.58
3.355
0.344
-2.396
-4.824
-6.902
-8.611
-9.957
-10.962
-11.69
-12.238
-12.701
-13.18
-13.776
-14.581
-15.711
-17.262
-19.362
-22.2
-25.886
-30.442
-35.766
-41.526
-47.296
-52.67
-57.117
-59.99
-60.846
-59.438
-55.938
-51.191
-46.225
-42.027
-39.684
-40.178
-44.052
-51.397
-61.415
-71.96
-80.357
-83.798
-78.931
-62.4
-31.532
16.003
80.382
158.639
247.32
342.194
440.142
540.29
639.777
733.59
811.41
859.179
865.961
823.55
733.352
604.179
443.278
262.493
73.73
-111.662
-274.332
-399.047
-480.626
-519.055
-524.942
-511.629
-482.758
-442.379
-395.084
-342.595
-293.939
-254.158
-220.353
-191.918
-165.17
-138.942
-117.892
-103.608
-96.457
-95.624
-97.385
-99.066
-99.233
-96.569
-90.998
-83.048
-73.154
-62.044
-50.529
-39.373
-29.479
-21.801
-16.833
-14.551
-14.685
-16.76
-20.298
-24.929
-30.192
-35.512
-40.439
-44.675
-48.067
-50.624
-52.371
-53.29
-53.394
-52.732
-51.372
-49.415
-46.969
-44.111
-40.923
-37.488
-33.898
-30.276
-26.762
-23.476
-20.492
-17.853
-15.577
-13.68
-12.178
-11.067
-10.316
-9.877
-9.699
-9.746
-9.99
-10.397
-10.927
-11.525
-12.134
-12.709
-13.221
-13.651
-13.984
-14.204
-14.297
-14.261
-14.103
-13.83
-13.444
-12.945
-12.327
-11.59
-10.737
-9.773
-8.702
-7.528
-6.249
-4.869
-3.392
-1.821
-0.158
1.596
3.441
5.373
7.391
9.489
11.663
13.907
16.217
18.589
21.016
23.495
26.022
28.593
31.206
33.859
36.547
39.269
42.022
44.803
47.609
50.436
53.28
56.136
59.002
61.872
64.742
67.607
70.462
73.3
76.117
78.908
81.665
84.384
87.058
89.68
92.243
94.741
97.166
99.511
101.766
103.923
105.974
107.91
109.72
111.396
112.927
114.304
115.518
116.56
117.421
118.094
118.571
118.848
118.919
118.78
118.428
117.86
117.075
116.072
114.853
113.419
111.772
109.916
107.854
105.591
103.135
100.49
97.666
94.669
91.511
88.202
84.753
81.177
77.486
73.696
69.821
65.875
61.875
57.837
53.775
49.706
45.645
41.607
37.607
33.659
29.776
25.972
22.259
18.648
15.151
11.777
8.536
5.437
2.487
-0.307
-2.938
-5.401
-7.691
-9.804
-11.737
-13.488
-15.056
-16.441
-17.644
-18.668
-19.517
-20.194
-20.706
-21.059
-21.259
-21.314
-21.233
-21.023
-20.695
-20.257
-19.719
-19.092
-18.386
-17.612
-16.783
-15.911
-15.007
-14.085
-13.157
-12.235
-11.332
-10.46
-9.627
-8.844
-8.122
-7.469
-6.897
-6.414
-6.031
-5.757
-5.6
-5.567
-5.662
-5.89
-6.25
-6.741
-7.36
-8.108
-8.993
-10.018
-11.181
-12.479
-13.903
-15.439
-17.067
-18.755
-20.46
-22.136
-23.74
-25.234
-26.589
-27.775
-28.758
-29.496
-29.939
-30.049
-29.792
-29.152
-28.124
-26.711
-24.942
-22.898
-20.692
-18.442
-16.266
-14.242
-12.448
-10.994
-9.988
-9.555
-9.815
-10.839
-12.705
-15.521
-19.3
-23.948
-29.245
-34.752
-40.006
-44.66
-48.36
-50.68
-51.336
-50.255
-47.641
-44.097
-40.257
-36.401
-32.568
-28.984
-25.966
-23.273
-20.087
-15.133
-5.749
9.916
31.514
60.248
95.121
134.138
179.427
229.56
284.2
345.779
411.497
479.739
545.831
598.896
629.04
626.664
588.586
520.367
431.059
331.731
228.07
120.716
12.129
-95.926
-197.657
-284.813
-356.698
-413.804
-458.234
-495.001
-523.511
-542.924
-554.758
-559.288
-558.782
-556.106
-552.133
-547.461
-542.622
-537.608
-532.207
-526.594
-521.024
-515.127
-508.689
-501.447
-492.643
-482.035
-469.788
-455.707
-439.509
-421.323
-401.292
-379.869
-358.024
-336.329
-315.076
-294.728
-275.666
-258.127
-242.337
-228.225
-215.412
-203.683
-192.91
-182.953
-173.796
-165.408
-157.729
-150.777
-144.584
-139.121
-134.322
-130.046
-126.096
-122.295
-118.462
-114.47
-110.256
-105.778
-101.035
-96.054
-90.845
-85.426
-79.819
-74.041
-68.122
-62.102
-56.021
-49.955
-44.002
-38.267
-32.875
-27.911
-23.417
-19.417
-15.908
-12.865
-10.269
-8.08
-6.244
-4.712
-3.438
-2.371
-1.47
-0.676
0.081
0.876
1.794
2.904
4.258
5.902
7.873
10.2
12.908
16.011
19.515
23.427
27.759
32.522
37.727
43.381
49.486
56.039
63.035
70.469
78.332
86.615
95.305
104.389
113.85
123.672
133.836
144.32
155.097
166.138
177.408
188.872
200.495
212.236
224.053
235.905
247.746
259.534
271.225
282.772
294.129
305.251
316.092
326.607
336.751
346.48
355.751
364.523
372.756
380.411
387.454
393.85
399.568
404.577
408.85
412.365
415.102
417.047
418.19
418.521
418.036
416.735
414.622
411.704
407.991
403.495
398.228
392.211
385.47
378.035
369.943
361.226
351.918
342.051
331.66
320.785
309.469
297.752
285.676
273.286
260.632
247.771
234.762
221.662
208.519
195.372
182.253
169.209
156.296
143.587
131.161
119.072
107.344
95.993
85.041
74.521
64.487
54.941
45.819
37.117
28.941
21.51
15.067
9.672
5.136
1.219
-2.154
-5.094
-7.88
-11.062
-15.319
-20.927
-27.536
-34.5
-41.405
-47.959
-53.784
-58.216
-60.341
-59.721
-56.751
-52.332
-47.171
-41.707
-36.293
-31.421
-27.855
-26.063
-25.862
-26.614
-27.762
-29.015
-30.249
-31.367
-32.083
-32.171
-31.685
-30.896
-30.071
-29.342
-28.716
-28.134
-27.602
-27.167
-26.829
-26.552
-26.285
-25.996
-25.695
-25.416
-25.188
-25.016
-24.894
-24.807
-24.747
-24.709
-24.692
-24.694
-24.712
-24.74
-24.774
-24.811
-24.847
-24.881
-24.907
-24.922
-24.918
-24.893
-24.847
-24.786
-24.714
-24.631
-24.542
-24.446
-24.347
-24.246
-24.148
-24.053
-23.965
-23.885
-23.817
-23.764
-23.73
-23.717
-23.729
-23.767
-23.834
-23.932
-24.063
-24.228
-24.43
-24.669
-24.945
-25.26
-25.613
-26.004
-26.433
-26.9
-27.402
-27.939
-28.51
-29.113
-29.745
-30.405
-31.09
-31.799
-32.529
-33.277
-34.041
-34.819
-35.607
-36.403
-37.205
-38.009
-38.813
-39.613
-40.406
-41.19
-41.96
-42.714
-43.449
-44.162
-44.85
-45.512
-46.144
-46.746
-47.316
-47.851
-48.352
-48.816
-49.244
-49.636
-49.99
-50.308
-50.59
-50.837
-51.049
-51.228
-51.375
-51.49
-51.577
-51.637
-51.672
-51.683
-51.675
-51.649
-51.61
-51.56
-51.502
-51.441
-51.38
-51.323
-51.275
-51.238
-51.216
-51.214
-51.234
-51.28
-51.354
-51.458
-51.595
-51.765
-51.97
-52.21
-52.484
-52.791
-53.13
-53.5
-53.897
-54.32
-54.765
-55.227
-55.703
-56.187
-56.675
-57.16
-57.635
-58.094
-58.528
-58.931
-59.295
-59.611
-59.87
-60.065
-60.186
-60.224
-60.172
-60.021
-59.762
-59.388
-58.891
-58.266
-57.507
-56.61
-55.57
-54.387
-53.057
-51.583
-49.965
-48.206
-46.309
-44.279
-42.123
-39.848
-37.464
-34.981
-32.41
-29.765
-27.062
-24.319
-21.553
-18.783
-16.027
-13.306
-10.641
-8.051
-5.554
-3.167
-0.909
1.2
3.141
4.892
6.436
7.758
8.843
9.678
10.249
10.551
10.584
10.35
9.849
9.077
8.024
6.684
5.061
3.161
0.994
-1.422
-4.068
-6.913
-9.906
-13.006
-16.17
-19.362
-22.563
-25.74
-28.853
-31.86
-34.698
-37.319
-39.697
-41.789
-43.566
-45.04
-46.226
-47.175
-47.98
-48.689
-49.359
-50.078
-50.903
-51.938
-53.291
-55.016
-57.231
-60.097
-63.664
-67.919
-72.693
-77.538
-82.03
-85.832
-88.467
-89.463
-88.533
-85.546
-80.934
-75.71
-70.859
-67.185
-65.393
-66.07
-69.551
-75.756
-83.567
-90.77
-94.82
-93.252
-83.711
-63.823
-31.503
15.071
75.597
146.695
224.401
304.361
384.307
465.731
547.732
624.897
686.706
716.644
701.925
638.949
532.4
394.231
235.985
67.047
-103.668
-264.38
-398.616
-494.788
-548.398
-565.271
-561.321
-547.144
-527.358
-502.293
-466.94
-421.348
-370.219
-317.809
-269.366
-228.225
-194.998
-169.989
-152.693
-141.609
-135.191
-132.363
-131.903
-132.367
-132.479
-130.901
-126.945
-120.918
-113.388
-104.805
-95.726
-86.796
-78.774
-72.647
-68.91
-67.449
-67.969
-70.03
-73.208
-77.153
-81.358
-85.181
-88.214
-90.266
-91.285
-91.368
-90.576
-88.918
-86.477
-83.378
-79.753
-75.734
-71.422
-66.896
-62.254
-57.612
-53.102
-48.854
-44.952
-41.455
-38.406
-35.815
-33.683
-31.982
-30.634
-29.573
-28.749
-28.124
-27.687
-27.406
-27.2
-27.031
-26.909
-26.784
-26.58
-26.099
-24.987
-23.093
-20.508
-17.377
-13.919
-10.395
-7.016
-4.309
-3.152
-3.959
-6.649
-10.814
-15.663
-20.526
-24.981
-28.224
-29.074
-26.902
-21.633
-13.764
-4.437
5.498
15.587
25.127
33.232
39.365
43.312
45.392
46.494
47.213
47.802
48.567
49.784
51.652
54.319
57.66
61.274
64.917
68.498
71.969
75.367
78.688
81.878
84.947
87.953
90.921
93.857
96.738
99.504
102.121
104.58
106.876
109.015
110.997
112.815
114.464
115.939
117.238
118.361
119.307
120.076
120.668
121.084
121.328
121.405
121.321
121.075
120.667
120.092
119.348
118.434
117.352
116.105
114.695
113.124
111.395
109.515
107.487
105.318
103.013
100.579
98.022
95.351
92.573
89.698
86.736
83.696
80.586
77.418
74.201
70.945
67.66
64.357
61.046
57.737
54.441
51.167
47.926
44.727
41.58
38.494
35.478
32.542
29.694
26.941
24.29
21.749
19.324
17.019
14.839
12.788
10.867
9.078
7.424
5.904
4.518
3.266
2.147
1.16
0.302
-0.429
-1.036
-1.522
-1.891
-2.146
-2.293
-2.336
-2.278
-2.125
-1.881
-1.551
-1.141
-0.654
-0.098
0.521
1.199
1.929
2.704
3.52
4.368
5.244
6.141
7.056
7.98
8.911
9.841
10.767
11.681
12.579
13.45
14.288
15.085
15.833
16.525
17.152
17.706
18.183
18.578
18.888
19.105
19.225
19.239
19.141
18.925
18.589
18.128
17.538
16.818
15.966
14.99
13.895
12.684
11.353
9.889
8.285
6.545
4.678
2.696
0.614
-1.554
-3.777
-6.009
-8.204
-10.318
-12.318
-14.181
-15.876
-17.364
-18.586
-19.471
-19.971
-20.058
-19.72
-18.964
-17.795
-16.233
-14.338
-12.204
-9.934
-7.647
-5.435
-3.382
-1.603
-0.201
0.666
0.781
0.046
-1.537
-3.844
-6.583
-9.517
-12.517
-15.316
-17.545
-18.969
-19.426
-19.165
-18.907
-19.139
-20.034
-21.632
-23.761
-26.258
-29.055
-31.367
-31.583
-28.095
-19.395
-4.551
16.618
44.794
81.165
125.834
177.995
235.146
292.84
348.977
403.079
454.859
505.603
551.542
584.9
599.155
586.979
548.309
490.641
421.194
348.915
278.139
206.907
134.612
60.615
-14.17
-85.672
-151.77
-212.103
-266.396
-315.306
-359.109
-397.17
-429.399
-456.429
-478.752
-496.997
-511.962
-523.882
-532.967
-539.726
-544.384
-546.885
-547.181
-544.877
-539.425
-530.804
-519.208
-504.866
-488.204
-469.619
-449.46
-428.28
-406.721
-385.193
-363.941
-343.073
-322.569
-302.476
-282.898
-263.943
-245.679
-228.134
-211.324
-195.29
-180.1
-165.815
-152.485
-140.084
-128.551
-117.859
-108.005
-99.021
-90.943
-83.77
-77.465
-71.955
-67.165
-63.033
-59.497
-56.471
-53.845
-51.496
-49.285
-47.143
-45.035
-42.924
-40.78
-38.558
-36.21
-33.719
-31.095
-28.357
-25.527
-22.622
-19.655
-16.664
-13.705
-10.848
-8.173
-5.717
-3.485
-1.474
0.331
1.948
3.395
4.71
5.947
7.152
8.368
9.632
10.976
12.449
14.11
16.024
18.259
20.867
23.888
27.355
31.292
35.715
40.631
46.038
51.925
58.293
65.148
72.489
80.309
88.593
97.319
106.461
115.984
125.839
135.964
146.298
156.792
167.412
178.142
188.96
199.841
210.761
221.69
232.62
243.547
254.459
265.333
276.151
286.906
297.624
308.362
319.157
330.015
340.902
351.764
362.547
373.187
383.607
393.705
403.344
412.394
420.757
428.359
435.123
440.956
445.726
449.276
451.484
452.275
451.615
449.502
445.934
440.937
434.579
426.974
418.282
408.64
398.152
386.9
374.967
362.46
349.517
336.291
322.906
309.456
296.017
282.657
269.443
256.421
243.599
230.946
218.405
205.945
193.568
181.287
169.124
157.085
145.169
133.37
121.71
110.211
98.894
87.778
76.877
66.214
55.832
45.788
36.146
26.949
18.227
9.997
2.273
-4.933
-11.615
-17.775
-23.427
-28.585
-33.26
-37.462
-41.201
-44.493
-47.36
-49.829
-51.928
-53.683
-55.116
-56.253
-57.118
-57.734
-58.124
-58.306
-58.298
-58.119
-57.788
-57.327
-56.756
-56.094
-55.361
-54.575
-53.753
-52.913
-52.069
-51.234
-50.421
-49.638
-48.897
-48.204
-47.566
-46.989
-46.476
-46.032
-45.657
-45.353
-45.121
-44.961
-44.87
-44.849
-44.894
-45.004
-45.175
-45.405
-45.689
-46.025
-46.409
-46.838
-47.307
-47.813
-48.351
-48.919
-49.511
-50.124
-50.754
-51.398
-52.051
-52.71
-53.374
-54.039
-54.703
-55.365
-56.024
-56.679
-57.329
-57.974
-58.614
-59.249
-59.88
-60.506
-61.129
-61.749
-62.367
-62.983
-63.599
-64.214
-64.831
-65.449
-66.069
-66.692
-67.319
-67.948
-68.582
-69.219
-69.86
-70.505
-71.153
-71.804
-72.458
-73.116
-73.775
-74.436
-75.098
-75.759
-76.419
-77.077
-77.73
-78.378
-79.018
-79.65
-80.271
-80.882
-81.479
-82.062
-82.63
-83.182
-83.717
-84.233
-84.731
-85.209
-85.667
-86.106
-86.525
-86.925
-87.306
-87.669
-88.015
-88.346
-88.662
-88.965
-89.255
-89.535
-89.804
-90.065
-90.319
-90.568
-90.813
-91.054
-91.295
-91.535
-91.775
-92.018
-92.261
-92.507
-92.754
-93.002
-93.249
-93.494
-93.736
-93.971
-94.197
-94.411
-94.609
-94.787
-94.94
-95.061
-95.145
-95.186
-95.177
-95.11
-94.978
-94.772
-94.486
-94.112
-93.643
-93.07
-92.386
-91.583
-90.656
-89.596
-88.399
-87.057
-85.566
-83.921
-82.12
-80.16
-78.039
-75.758
-73.316
-70.715
-67.96
-65.055
-62.006
-58.82
-55.504
-52.071
-48.532
-44.9
-41.19
-37.419
-33.604
-29.767
-25.93
-22.116
-18.347
-14.647
-11.039
-7.55
-4.201
-1.014
1.992
4.795
7.375
9.706
11.771
13.551
15.03
16.194
17.031
17.528
17.68
17.49
16.958
16.085
14.868
13.291
11.354
9.064
6.431
3.474
0.214
-3.327
-7.111
-11.081
-15.187
-19.375
-23.604
-27.849
-32.064
-36.196
-40.182
-43.94
-47.411
-50.564
-53.359
-55.772
-57.806
-59.469
-60.805
-61.897
-62.82
-63.657
-64.498
-65.414
-66.509
-67.879
-69.651
-72.021
-75.046
-78.686
-82.808
-87.081
-91.179
-94.867
-97.729
-99.264
-99.271
-97.654
-94.66
-91.142
-87.717
-84.827
-83.136
-82.956
-84.16
-86.774
-90.207
-92.652
-92.62
-87.669
-74.01
-50.42
-16.799
25.799
73.001
124.015
181.445
247.593
326.524
417.401
513.194
605.918
685.737
742.861
769.85
760.343
709.263
617.899
492.273
340.276
174.086
3.635
-161.043
-307.006
-424.15
-503.757
-543.852
-549.37
-528.513
-490.845
-442.117
-388.464
-333.472
-279.859
-232.987
-192.64
-159.645
-135.368
-117.065
-105.856
-102.064
-103.532
-109.873
-118.557
-126.06
-130.57
-130.974
-127.223
-120.317
-111.268
-100.81
-89.797
-79.418
-70.815
-64.64
-61.055
-59.724
-60.035
-61.452
-63.54
-65.819
-67.807
-69.203
-69.82
-69.578
-68.547
-66.794
-64.359
-61.316
-57.741
-53.683
-49.236
-44.524
-39.668
-34.836
-30.15
-25.676
-21.479
-17.601
-14.083
-10.979
-8.305
-6.041
-4.182
-2.72
-1.652
-0.978
-0.669
-0.665
-0.904
-1.315
-1.844
-2.456
-3.113
-3.785
-4.446
-5.073
-5.654
-6.191
-6.673
-7.085
-7.413
-7.637
-7.747
-7.738
-7.607
-7.349
-6.963
-6.443
-5.788
-4.998
-4.069
-2.998
-1.779
-0.41
1.114
2.789
4.615
6.588
8.703
10.955
13.338
15.844
18.465
21.193
24.023
26.945
29.952
33.036
36.189
39.403
42.667
45.974
49.314
52.677
56.053
59.433
62.807
66.166
69.499
72.798
76.054
79.258
82.402
85.476
88.472
91.381
94.195
96.907
99.509
101.992
104.349
106.574
108.659
110.599
112.386
114.015
115.48
116.773
117.891
118.826
119.575
120.131
120.492
120.654
120.614
120.37
119.923
119.271
118.415
117.358
116.102
114.65
113.005
111.173
109.159
106.969
104.611
102.091
99.419
96.604
93.655
90.583
87.398
84.112
80.736
77.281
73.759
70.182
66.564
62.916
59.252
55.585
51.928
48.295
44.699
41.151
37.665
34.249
30.914
27.669
24.523
21.482
18.553
15.741
13.051
10.486
8.05
5.746
3.576
1.541
-0.358
-2.122
-3.754
-5.252
-6.622
-7.866
-8.987
-9.989
-10.875
-11.647
-12.306
-12.853
-13.297
-13.647
-13.91
-14.097
-14.218
-14.28
-14.294
-14.27
-14.21
-14.117
-13.986
-13.812
-13.598
-13.346
-13.061
-12.751
-12.408
-12.025
-11.597
-11.113
-10.585
-10.022
-9.409
-8.743
-8.028
-7.245
-6.455
-5.734
-5.018
-4.275
-3.469
-2.517
-1.545
-0.716
0.044
0.785
1.319
1.548
1.219
0.018
-1.754
-3.755
-5.986
-8.338
-10.57
-12.566
-13.884
-14.051
-13.43
-12.412
-11.098
-9.723
-8.409
-7.154
-6.305
-6.227
-6.662
-7.354
-8.183
-8.927
-9.611
-10.379
-11.183
-11.948
-12.811
-13.836
-15.099
-16.852
-19.151
-21.869
-24.798
-27.642
-30.236
-32.761
-35.427
-38.004
-40.353
-42.849
-46.166
-51.231
-58.788
-67.665
-76.526
-86.079
-95.792
-106.908
-120.376
-131.684
-139.285
-139.707
-127.704
-104.982
-70.659
-28.574
10.622
41.682
57.716
57.541
49.389
38.091
29.457
26.348
24.363
21.605
17.372
12.931
13.73
23.237
41.723
65.985
91.228
116.106
143.015
178.264
228.785
295.837
377.736
470.476
565.515
655.346
728.506
767.68
761.22
703.678
601.726
478.069
356.293
253.171
173.992
108.865
43.562
-30.907
-116.475
-206.982
-293.24
-369.615
-433.676
-486.093
-529.439
-564.577
-591.692
-611.22
-622.979
-628.075
-629.017
-627.182
-623.369
-618.793
-612.905
-605.157
-597.389
-589.457
-582.147
-577.471
-572.208
-564.245
-550.935
-528.304
-499.737
-468.834
-438.882
-414.088
-392.43
-371.666
-351.157
-329.552
-308.203
-288.329
-269.485
-251.683
-234.717
-218.355
-202.945
-188.634
-175.261
-162.778
-151.196
-140.554
-130.929
-122.332
-114.668
-107.82
-101.709
-96.271
-91.446
-87.148
-83.257
-79.639
-76.152
-72.724
-69.326
-65.926
-62.505
-59.028
-55.452
-51.771
-47.999
-44.167
-40.305
-36.435
-32.574
-28.765
-25.065
-21.547
-18.295
-15.346
-12.701
-10.355
-8.283
-6.462
-4.865
-3.443
-2.131
-0.872
0.391
1.708
3.122
4.69
6.478
8.557
10.999
13.861
17.182
20.994
25.32
30.177
35.575
41.514
47.98
54.968
62.468
70.474
78.981
87.973
97.43
107.331
117.647
128.351
139.414
150.805
162.49
174.435
186.605
198.966
211.483
224.118
236.829
249.574
262.307
274.981
287.55
299.967
312.184
324.151
335.823
347.154
358.099
368.616
378.661
388.195
397.177
405.57
413.338
420.449
426.87
432.574
437.535
441.732
445.145
447.758
449.559
450.539
450.692
450.016
448.511
446.181
443.035
439.082
434.338
428.822
422.554
415.559
407.866
399.505
390.51
380.918
370.767
360.097
348.95
337.372
325.406
313.099
300.499
287.654
274.612
261.421
248.129
234.784
221.432
208.119
194.888
181.783
168.843
156.11
143.619
131.407
119.506
107.946
96.757
85.962
75.586
65.647
56.162
47.145
38.608
30.557
22.999
15.936
9.368
3.291
-2.3
-7.411
-12.054
-16.241
-19.985
-23.302
-26.209
-28.724
-30.868
-32.66
-34.121
-35.273
-36.137
-36.737
-37.094
-37.231
-37.17
-36.933
-36.542
-36.017
-35.381
-34.651
-33.848
-32.989
-32.09
-31.167
-30.236
-29.309
-28.399
-27.516
-26.67
-25.869
-25.121
-24.431
-23.803
-23.243
-22.751
-22.33
-21.98
-21.702
-21.496
-21.359
-21.291
-21.29
-21.353
-21.477
-21.659
-21.896
-22.183
-22.518
-22.894
-23.31
-23.759
-24.239
-24.745
-25.273
-25.82
-26.381
-26.953
-27.532
-28.116
-28.702
-29.288
-29.872
-30.452
-31.027
-31.596
-32.159
-32.716
-33.265
-33.808
-34.344
-34.873
-35.396
-35.912
-36.423
-36.927
-37.426
-37.919
-38.408
-38.891
-39.37
-39.844
-40.313
-40.778
-41.239
-41.694
-42.145
-42.591
-43.031
-43.466
-43.896
-44.32
-44.739
-45.151
-45.556
-45.954
-46.343
-46.723
-47.091
-47.447
-47.79
-48.117
-48.429
-48.723
-48.999
-49.256
-49.493
-49.71
-49.906
-50.081
-50.233
-50.364
-50.474
-50.564
-50.634
-50.686
-50.723
-50.745
-50.756
-50.758
-50.752
-50.742
-50.728
-50.713
-50.698
-50.686
-50.678
-50.676
-50.683
-50.701
-50.732
-50.781
-50.849
-50.938
-51.05
-51.189
-51.355
-51.551
-51.778
-52.036
-52.327
-52.652
-53.011
-53.404
-53.829
-54.284
-54.766
-55.271
-55.793
-56.325
-56.858
-57.386
-57.9
-58.394
-58.86
-59.291
-59.681
-60.023
-60.317
-60.556
-60.733
-60.84
-60.866
-60.801
-60.638
-60.364
-59.969
-59.441
-58.772
-57.956
-56.993
-55.881
-54.611
-53.174
-51.558
-49.756
-47.774
-45.62
-43.298
-40.824
-38.22
-35.522
-32.784
-30.046
-27.331
-24.655
-22.016
-19.423
-16.886
-14.416
-12.021
-9.702
-7.455
-5.279
-3.19
-1.179
0.771
2.71
4.721
6.853
9.111
11.485
13.935
16.421
18.902
21.32
23.597
25.663
27.449
28.904
29.998
30.68
30.914
30.648
29.78
28.223
25.922
22.844
19.034
14.608
9.596
3.939
-2.32
-9.034
-15.903
-22.517
-28.684
-34.574
-40.211
-45.165
-49.31
-52.961
-56.7
-61.758
-68.098
-73.628
-78.159
-83.101
-90.769
-105.744
-126.519
-145.823
-157.271
-153.293
-133.724
-106.572
-78.241
-55.803
-42.519
-35.319
-32.236
-31.618
-32.376
-36.039
-43.404
-53.696
-65.642
-77.55
-88.134
-97.017
-104.526
-110.708
-114.759
-115.141
-109.324
-95.015
-71.618
-41.447
-8.2
25.808
61.468
106.459
170.158
258.629
371.491
495.116
609.497
693.986
732.838
725.26
680.48
611.583
530.18
437.397
326.435
193.449
41.432
-115.699
-254.618
-359.128
-424.2
-455.456
-468.054
-472.057
-469.728
-459.054
-435.457
-398.999
-354.065
-306.037
-260.148
-219.334
-185.311
-159.431
-141.638
-131.243
-127.19
-127.823
-131.816
-137.94
-144.276
-149.024
-151.319
-150.944
-148.249
-143.947
-138.524
-132.458
-126.678
-122.164
-119.388
-118.398
-118.866
-120.266
-122.256
-124.587
-126.854
-128.577
-129.405
-129.154
-127.828
-125.571
-122.485
-118.625
-114.087
-109.01
-103.576
-97.988
-92.404
-86.921
-81.606
-76.513
-71.694
-67.21
-63.108
-59.404
-56.094
-53.167
-50.616
-48.441
-46.63
-45.153
-43.948
-42.94
-42.072
-41.3
-40.59
-39.918
-39.255
-38.574
-37.859
-37.107
-36.314
-35.473
-34.569
-33.585
-32.509
-31.333
-30.057
-28.681
-27.202
-25.617
-23.923
-22.12
-20.21
-18.189
-16.056
-13.805
-11.434
-8.943
-6.336
-3.615
-0.786
2.148
5.179
8.301
11.506
14.787
18.137
21.55
25.018
28.533
32.088
35.674
39.284
42.909
46.541
50.171
53.79
57.392
60.968
64.51
68.011
71.465
74.865
78.205
81.479
84.68
87.803
90.841
93.788
96.637
99.382
102.017
104.536
106.931
109.197
111.329
113.32
115.165
116.856
118.389
119.757
120.955
121.978
122.82
123.477
123.944
124.219
124.299
124.18
123.86
123.338
122.613
121.684
120.551
119.213
117.673
115.933
113.994
111.862
109.54
107.034
104.351
101.498
98.484
95.317
92.007
88.565
85.002
81.328
77.557
73.7
69.77
65.78
61.745
57.676
53.589
49.495
45.408
41.342
37.309
33.322
29.393
25.533
21.755
18.071
14.491
11.025
7.684
4.477
1.412
-1.504
-4.263
-6.861
-9.293
-11.554
-13.642
-15.555
-17.29
-18.848
-20.227
-21.427
-22.45
-23.297
-23.97
-24.473
-24.809
-24.981
-24.995
-24.854
-24.564
-24.13
-23.558
-22.853
-22.022
-21.072
-20.011
-18.845
-17.585
-16.238
-14.813
-13.318
-11.761
-10.152
-8.499
-6.81
-5.092
-3.354
-1.606
0.144
1.887
3.613
5.313
6.973
8.584
10.136
11.616
13.015
14.322
15.526
16.618
17.59
18.435
19.144
19.71
20.124
20.377
20.464
20.379
20.114
19.666
19.03
18.203
17.19
15.994
14.617
13.058
11.311
9.373
7.252
4.956
2.503
-0.088
-2.792
-5.57
-8.362
-11.113
-13.767
-16.28
-18.622
-20.761
-22.657
-24.264
-25.527
-26.403
-26.868
-26.907
-26.516
-25.707
-24.507
-22.994
-21.305
-19.572
-17.921
-16.443
-15.185
-14.209
-13.599
-13.446
-13.849
-14.887
-16.588
-18.991
-22.165
-26.058
-30.501
-35.168
-39.518
-43.052
-45.401
-46.155
-44.89
-41.485
-36.058
-29.003
-21.086
-12.874
-4.601
3.311
10.379
16.74
23.032
30.448
40.774
55.321
74.825
100.392
133.303
173.982
221.926
275.394
331.45
387.473
441.246
489.753
529.314
556.582
568.941
565.284
546.059
511.671
462.407
399.679
326.034
244.728
159.332
72.572
-13.803
-97.66
-176.471
-248.263
-311.707
-366.51
-413.309
-452.46
-484.029
-508.673
-527.59
-542.224
-554.16
-564.232
-572.5
-579.135
-584.342
-588.079
-590.143
-589.946
-586.611
-579.803
-569.698
-556.574
-540.868
-523.024
-503.406
-482.583
-461.259
-439.855
-418.59
-397.558
-376.683
-355.939
-335.38
-315.018
-294.889
-275.092
-255.705
-236.825
-218.584
-201.06
-184.33
-168.467
-153.478
-139.395
-126.275
-114.154
-103.103
-93.194
-84.451
-76.881
-70.449
-65.044
-60.563
-56.903
-53.926
-51.506
-49.5
-47.743
-46.137
-44.612
-43.096
-41.544
-39.899
-38.091
-36.088
-33.879
-31.462
-28.878
-26.162
-23.342
-20.475
-17.624
-14.86
-12.273
-9.909
-7.771
-5.856
-4.141
-2.601
-1.214
0.06
1.281
2.502
3.78
5.167
6.708
8.46
10.489
12.862
15.65
18.906
22.663
26.945
31.77
37.144
43.075
49.556
56.568
64.098
72.134
80.663
89.673
99.145
109.054
119.37
130.063
141.1
152.449
164.074
175.938
188.003
200.231
212.584
225.022
237.504
249.985
262.419
274.759
286.954
298.959
310.723
322.198
333.336
344.091
354.42
364.279
373.629
382.429
390.642
398.233
405.169
411.419
416.955
421.751
425.785
429.037
431.491
433.133
433.956
433.951
433.117
431.454
428.967
425.663
421.553
416.653
410.981
404.56
397.414
389.573
381.067
371.932
362.205
351.925
341.133
329.873
318.188
306.125
293.73
281.05
268.134
255.028
241.782
228.442
215.055
201.668
188.325
175.071
161.948
148.997
136.258
123.767
111.561
99.671
88.128
76.961
66.193
55.848
45.944
36.497
27.521
19.026
11.018
3.502
-3.52
-10.051
-16.094
-21.655
-26.744
-31.372
-35.551
-39.296
-42.624
-45.552
-48.099
-50.285
-52.131
-53.658
-54.887
-55.842
-56.544
-57.016
-57.281
-57.361
-57.28
-57.059
-56.718
-56.279
-55.762
-55.183
-54.561
-53.912
-53.251
-52.59
-51.943
-51.32
-50.73
-50.182
-49.682
-49.234
-48.844
-48.514
-48.244
-48.036
-47.888
-47.801
-47.771
-47.797
-47.875
-48.004
-48.177
-48.393
-48.646
-48.932
-49.245
-49.581
-49.934
-50.299
-50.67
-51.043
-51.414
-51.777
-52.129
-52.466
-52.785
-53.083
-53.358
-53.607
-53.829
-54.024
-54.191
-54.33
-54.443
-54.532
-54.598
-54.644
-54.673
-54.688
-54.691
-54.686
-54.675
-54.663
-54.65
-54.642
-54.64
-54.649
-54.67
-54.708
-54.765
-54.843
-54.947
-55.077
-55.237
-55.428
-55.651
-55.908
-56.201
-56.529
-56.894
-57.296
-57.736
-58.211
-58.722
-59.266
-59.841
-60.445
-61.075
-61.726
-62.396
-63.081
-63.777
-64.48
-65.186
-65.891
-66.591
-67.283
-67.963
-68.625
-69.267
-69.884
-70.472
-71.028
-71.549
-72.03
-72.469
-72.864
-73.211
-73.509
-73.755
-73.947
-74.084
-74.166
-74.19
-74.158
-74.069
-73.926
-73.729
-73.482
-73.187
-72.848
-72.469
-72.054
-71.608
-71.136
-70.642
-70.132
-69.611
-69.084
-68.557
-68.036
-67.526
-67.033
-66.563
-66.121
-65.712
-65.341
-65.013
-64.732
-64.502
-64.326
-64.208
-64.15
-64.155
-64.223
-64.356
-64.554
-64.815
-65.137
-65.518
-65.953
-66.437
-66.965
-67.53
-68.124
-68.739
-69.367
-69.999
-70.625
-71.235
-71.819
-72.368
-72.87
-73.316
-73.694
-73.995
-74.208
-74.323
-74.331
-74.223
-73.99
-73.625
-73.12
-72.47
-71.668
-70.711
-69.595
-68.319
-66.881
-65.283
-63.527
-61.617
-59.561
-57.364
-55.038
-52.593
-50.043
-47.403
-44.69
-41.923
-39.119
-36.299
-33.483
-30.693
-27.949
-25.271
-22.68
-20.194
-17.836
-15.625
-13.582
-11.728
-10.083
-8.663
-7.487
-6.569
-5.921
-5.55
-5.461
-5.658
-6.149
-6.943
-8.046
-9.458
-11.175
-13.191
-15.491
-18.055
-20.851
-23.835
-26.962
-30.191
-33.482
-36.808
-40.134
-43.422
-46.63
-49.707
-52.609
-55.3
-57.75
-59.928
-61.824
-63.458
-64.875
-66.159
-67.392
-68.633
-69.942
-71.389
-73.048
-75.008
-77.372
-80.212
-83.604
-87.67
-92.456
-97.939
-103.984
-110.238
-116.25
-121.574
-125.732
-128.196
-128.63
-126.88
-123.084
-117.902
-112.202
-106.881
-102.774
-100.602
-100.942
-103.834
-108.584
-113.872
-116.688
-113.674
-103.239
-83.113
-53.296
-14.864
35.79
100.18
178.587
269.91
364.901
454.395
533.152
598.453
650.371
686.605
698.761
675.055
608.628
500.183
356.819
191.072
15.488
-159.102
-318.822
-448.492
-539.099
-587.343
-599.238
-589.545
-567.844
-538.949
-504.353
-460.378
-407.859
-351.867
-297.161
-249.577
-212.644
-186.407
-169.91
-161.59
-159.259
-160.707
-163.977
-166.701
-166.656
-162.888
-155.283
-144.252
-130.814
-116.102
-101.071
-86.999
-75.234
-66.437
-60.83
-58.287
-58.286
-60.304
-63.894
-68.476
-73.405
-78.238
-82.621
-86.302
-89.22
-91.318
-92.548
-92.93
-92.495
-91.268
-89.304
-86.671
-83.434
-79.687
-75.528
-71.029
-66.29
-61.415
-56.534
-51.79
-47.284
-43.076
-39.203
-35.685
-32.542
-29.778
-27.372
-25.275
-23.443
-21.832
-20.409
-19.15
-18.015
-16.958
-15.928
-14.868
-13.737
-12.509
-11.161
-9.675
-8.038
-6.238
-4.277
-2.167
0.087
2.483
5.02
7.704
10.532
13.499
16.6
19.831
23.185
26.66
30.249
33.946
37.745
41.642
45.631
49.71
53.873
58.113
62.421
66.789
71.206
75.663
80.149
84.654
89.168
93.68
98.182
102.665
107.12
111.538
115.91
120.229
124.485
128.671
132.777
136.795
140.717
144.535
148.241
151.826
155.282
158.603
161.78
164.806
167.675
170.381
172.916
175.276
177.455
179.449
181.252
182.86
184.27
185.478
186.482
187.279
187.867
188.244
188.409
188.361
188.099
187.623
186.934
186.033
184.921
183.602
182.079
180.356
178.438
176.331
174.043
171.58
168.95
166.164
163.229
160.157
156.958
153.642
150.221
146.707
143.11
139.444
135.719
131.95
128.147
124.323
120.491
116.662
112.848
109.062
105.313
101.615
97.977
94.411
90.926
87.532
84.238
81.053
77.985
75.041
72.226
69.546
67.006
64.608
62.356
60.251
58.294
56.487
54.828
53.319
51.957
50.742
49.672
48.743
47.953
47.297
46.772
46.374
46.098
45.939
45.892
45.952
46.114
46.371
46.719
47.149
47.657
48.234
48.875
49.571
50.317
51.104
51.926
52.776
53.647
54.534
55.43
56.328
57.222
58.105
58.97
59.807
60.607
61.362
62.062
62.698
63.265
63.751
64.153
64.465
64.683
64.803
64.82
64.726
64.516
64.185
63.731
63.149
62.439
61.596
60.624
59.531
58.324
57.01
55.588
54.048
52.388
50.616
48.739
46.77
44.726
42.626
40.503
38.41
36.39
34.489
32.741
31.162
29.781
28.637
27.776
27.254
27.108
27.344
27.971
29.004
30.42
32.18
34.205
36.37
38.587
40.78
42.865
44.76
46.349
47.52
48.179
48.206
47.468
45.92
43.604
40.683
37.5
34.368
31.563
29.484
28.601
29.222
31.337
34.538
38.036
41.227
43.889
45.54
45.551
43.654
40.011
36.776
36.786
40.957
50.682
65.304
84.034
111.599
149.4
198.5
261.593
331.96
405.567
479.207
541.469
588.206
614.894
615.229
593.892
553.506
496.052
427.908
350.143
264.522
175.407
85.092
-2.475
-82.966
-154.069
-214.655
-264.953
-306.156
-339.726
-366.866
-388.78
-407.255
-423.956
-439.765
-454.966
-469.238
-481.928
-492.64
-501.007
-506.319
-507.862
-505.286
-498.645
-488.414
-475.293
-459.931
-442.921
-424.939
-406.697
-388.702
-371.269
-354.547
-338.536
-323.221
-308.619
-294.707
-281.435
-268.801
-256.782
-245.333
-234.42
-223.948
-213.814
-203.934
-194.228
-184.682
-175.312
-166.143
-157.223
-148.608
-140.347
-132.496
-125.1
-118.157
-111.673
-105.651
-100.099
-95.054
-90.529
-86.52
-83.001
-79.901
-77.154
-74.707
-72.503
-70.49
-68.622
-66.844
-65.119
-63.445
-61.815
-60.224
-58.663
-57.105
-55.542
-53.984
-52.452
-50.993
-49.633
-48.375
-47.219
-46.152
-45.157
-44.219
-43.308
-42.375
-41.375
-40.27
-39.024
-37.615
-36.011
-34.17
-32.043
-29.574
-26.717
-23.439
-19.713
-15.514
-10.824
-5.627
0.081
6.291
12.991
20.171
27.824
35.948
44.54
53.583
63.054
72.92
83.152
93.715
104.571
115.666
126.932
138.302
149.722
161.156
172.577
183.952
195.243
206.411
217.42
228.257
238.912
249.372
259.617
269.628
279.401
288.96
298.354
307.619
316.763
325.763
334.58
343.184
351.545
359.618
367.34
374.602
381.296
387.33
392.621
397.085
400.613
403.075
404.324
404.249
402.782
399.886
395.549
389.744
382.46
373.713
363.557
352.113
339.502
325.844
311.272
295.936
280.026
263.746
247.294
230.83
214.481
198.358
182.565
167.222
152.438
138.302
124.885
112.202
100.265
89.075
78.6
68.781
59.516
50.709
42.279
34.181
26.389
18.878
11.624
4.59
-2.252
-8.935
-15.497
-21.954
-28.323
-34.601
-40.761
-46.753
-52.5
-57.939
-63.024
-67.733
-72.058
-75.997
-79.553
-82.729
-85.54
-87.992
-90.081
-91.805
-93.164
-94.172
-94.857
-95.262
-95.437
-95.433
-95.291
-95.047
-94.728
-94.359
-93.956
-93.532
-93.093
-92.649
-92.215
-91.808
-91.444
-91.136
-90.89
-90.709
-90.595
-90.546
-90.559
-90.63
-90.757
-90.937
-91.169
-91.454
-91.794
-92.187
-92.633
-93.127
-93.666
-94.243
-94.853
-95.488
-96.14
-96.803
-97.469
-98.132
-98.786
-99.423
-100.037
-100.623
-101.174
-101.684
-102.149
-102.564
-102.922
-103.223
-103.46
-103.634
-103.741
-103.78
-103.75
-103.652
-103.485
-103.25
-102.95
-102.584
-102.155
-101.665
-101.116
-100.512
-99.856
-99.151
-98.402
-97.612
-96.788
-95.934
-95.055
-94.157
-93.246
-92.327
-91.406
-90.486
-89.574
-88.674
-87.791
-86.927
-86.088
-85.276
-84.495
-83.747
-83.035
-82.36
-81.725
-81.131
-80.578
-80.068
-79.598
-79.171
-78.784
-78.437
-78.129
-77.859
-77.625
-77.424
-77.256
-77.116
-77.003
-76.912
-76.84
-76.784
-76.738
-76.7
-76.664
-76.627
-76.586
-76.537
-76.476
-76.401
-76.308
-76.195
-76.059
-75.899
-75.712
-75.496
-75.252
-74.976
-74.671
-74.334
-73.967
-73.57
-73.144
-72.69
-72.209
-71.703
-71.174
-70.624
-70.055
-69.471
-68.873
-68.266
-67.654
-67.04
-66.43
-65.825
-65.232
-64.653
-64.093
-63.554
-63.041
-62.556
-62.102
-61.682
-61.298
-60.953
-60.648
-60.385
-60.165
-59.988
-59.854
-59.764
-59.715
-59.707
-59.739
-59.808
-59.913
-60.05
-60.217
-60.409
-60.623
-60.853
-61.094
-61.341
-61.587
-61.826
-62.051
-62.255
-62.431
-62.572
-62.672
-62.722
-62.717
-62.648
-62.509
-62.291
-61.989
-61.594
-61.101
-60.503
-59.794
-58.97
-58.024
-56.952
-55.752
-54.418
-52.948
-51.34
-49.591
-47.701
-45.67
-43.501
-41.194
-38.753
-36.182
-33.488
-30.677
-27.755
-24.732
-21.615
-18.415
-15.142
-11.808
-8.426
-5.01
-1.575
1.86
5.277
8.656
11.979
15.224
18.372
21.403
24.298
27.04
29.613
32
34.182
36.142
37.864
39.335
40.543
41.477
42.129
42.491
42.558
42.334
41.819
41.012
39.907
38.489
36.752
34.697
32.331
29.662
26.704
23.469
19.987
16.308
12.482
8.559
4.586
0.597
-3.36
-7.223
-10.922
-14.376
-17.515
-20.302
-22.713
-24.715
-26.301
-27.473
-28.259
-28.767
-29.128
-29.47
-29.936
-30.645
-31.709
-33.316
-35.693
-38.969
-43.157
-48.125
-53.586
-59.316
-65.173
-70.857
-75.94
-80.144
-83.356
-85.748
-87.896
-90.233
-92.882
-96.161
-100.321
-105.081
-110.157
-115.037
-118.476
-119.367
-115.666
-103.814
-81.489
-48.333
-7.293
36.107
79.847
126.523
183.373
258.707
353.389
461.571
572.786
674.94
760.178
822.066
853.428
846.519
793.659
692.623
546.965
367.567
172.302
-20.822
-191.484
-323.111
-411.163
-457.462
-472.993
-472.819
-463.357
-446.564
-420.691
-381.413
-330.346
-272.777
-214.239
-160.977
-117.088
-84.28
-63.313
-53.48
-53.109
-60.186
-72.643
-88.4
-104.906
-119.573
-130.5
-136.899
-139.097
-138.108
-134.603
-128.826
-121.532
-113.864
-106.738
-100.521
-94.807
-88.594
-81.504
-74.012
-66.359
-58.504
-50.401
-42.032
-33.819
-26.682
-21.034
-16.568
-13.033
-10.243
-8.083
-6.658
-5.877
-5.357
-4.934
-4.723
-4.802
-5.284
-6.213
-7.433
-8.836
-10.372
-11.916
-13.352
-14.609
-15.596
-16.273
-16.668
-16.801
-16.726
-16.533
-16.266
-15.951
-15.603
-15.212
-14.785
-14.344
-13.904
-13.484
-13.095
-12.733
-12.403
-12.106
-11.828
-11.545
-11.212
-10.769
-10.179
-9.42
-8.477
-7.345
-6.021
-4.497
-2.776
-0.87
1.214
3.471
5.897
8.493
11.252
14.162
17.207
20.37
23.633
26.985
30.41
33.897
37.432
41.005
44.608
48.235
51.878
55.526
59.17
62.796
66.392
69.948
73.451
76.89
80.253
83.53
86.713
89.795
92.768
95.626
98.361
100.97
103.446
105.783
107.978
110.026
111.921
113.66
115.24
116.657
117.907
118.988
119.896
120.629
121.183
121.558
121.75
121.757
121.578
121.213
120.662
119.925
119.005
117.903
116.623
115.167
113.541
111.747
109.791
107.676
105.407
102.989
100.428
97.729
94.898
91.94
88.863
85.672
82.375
78.98
75.494
71.926
68.284
64.578
60.816
57.01
53.169
49.304
45.425
41.543
37.669
33.811
29.981
26.188
22.44
18.747
15.118
11.56
8.082
4.69
1.393
-1.802
-4.887
-7.855
-10.702
-13.422
-16.01
-18.464
-20.775
-22.938
-24.952
-26.819
-28.527
-30.067
-31.432
-32.61
-33.612
-34.456
-35.13
-35.623
-35.971
-36.204
-36.346
-36.432
-36.442
-36.328
-36.126
-35.894
-35.502
-34.796
-33.88
-32.755
-31.399
-30.172
-28.146
-24.422
-20.314
-16.232
-14.583
-18.245
-24.06
-29.923
-32.698
-28.072
-19.884
-11.388
-4.821
-3.865
-5.906
-8.296
-10.454
-10.767
-10.183
-9.917
-9.74
-9.81
-10.055
-10.239
-10.529
-11.053
-11.763
-12.643
-13.697
-14.904
-16.223
-17.601
-18.969
-20.258
-21.447
-22.525
-23.463
-24.231
-24.791
-25.095
-25.115
-24.834
-24.241
-23.33
-22.109
-20.601
-18.879
-17.07
-15.294
-13.66
-12.239
-11.059
-10.172
-9.654
-9.598
-10.1
-11.225
-12.989
-15.427
-18.633
-22.602
-27.199
-32.091
-36.7
-40.495
-43.111
-44.191
-43.332
-40.333
-35.242
-28.468
-20.978
-13.678
-7.101
-1.804
1.721
3.466
3.935
4.363
6.845
13.347
25.627
45.739
75.517
116.262
166.934
223.787
283.042
341.131
398.403
458.901
522.225
584.6
634.802
653.822
629.205
556.56
444.552
317.099
197.624
102.291
35.231
-14.644
-62.463
-117.935
-184.485
-256.812
-325.498
-386.689
-438.478
-482.395
-523.032
-558.357
-585.779
-601.842
-602.016
-590.152
-571.202
-550.14
-532.349
-516.209
-500.079
-484.01
-467.082
-451.186
-437.216
-423.514
-409.505
-394.868
-379.188
-362.828
-345.822
-327.589
-308.382
-289.192
-270.635
-253.103
-236.777
-221.422
-206.998
-193.796
-181.771
-170.613
-160.115
-150.039
-140.292
-131.012
-122.254
-113.989
-106.245
-99.041
-92.381
-86.312
-80.833
-75.901
-71.498
-67.571
-64.06
-60.909
-58.033
-55.374
-52.884
-50.508
-48.194
-45.897
-43.571
-41.199
-38.785
-36.319
-33.803
-31.242
-28.633
-26.005
-23.399
-20.861
-18.457
-16.226
-14.182
-12.335
-10.679
-9.198
-7.879
-6.688
-5.577
-4.505
-3.431
-2.316
-1.13
0.171
1.638
3.33
5.312
7.636
10.341
13.457
17.011
21.021
25.506
30.471
35.914
41.83
48.219
55.079
62.416
70.233
78.519
87.259
96.423
105.979
115.903
126.165
136.72
147.52
158.505
169.609
180.806
192.075
203.334
214.512
225.549
236.365
246.95
257.341
267.498
277.375
287.128
296.939
306.755
316.645
326.669
336.52
347.11
359.301
371.846
384.356
394.509
399.543
402.447
405.157
410.592
422.75
437.791
452.444
464.408
469.971
471.487
471.344
469.96
468.793
466.858
462.933
457.208
449.491
439.841
428.542
415.523
400.812
384.678
367.339
348.999
329.922
310.355
290.562
270.841
251.422
232.479
214.179
196.676
180.156
164.784
150.66
137.838
126.308
115.998
106.854
98.815
91.762
85.574
80.1
75.153
70.616
66.4
62.411
58.56
54.73
50.805
46.722
42.448
37.979
33.337
28.532
23.575
18.523
13.442
8.417
3.555
-1.084
-5.469
-9.564
-13.338
-16.751
-19.764
-22.369
-24.579
-26.408
-27.872
-28.986
-29.761
-30.237
-30.46
-30.482
-30.362
-30.142
-29.846
-29.506
-29.143
-28.78
-28.437
-28.121
-27.831
-27.571
-27.349
-27.171
-27.046
-26.974
-26.952
-26.976
-27.044
-27.153
-27.303
-27.493
-27.723
-27.993
-28.306
-28.666
-29.077
-29.541
-30.059
-30.629
-31.25
-31.921
-32.638
-33.401
-34.204
-35.044
-35.921
-36.831
-37.772
-38.744
-39.743
-40.768
-41.816
-42.887
-43.977
-45.084
-46.207
-47.344
-48.492
-49.651
-50.818
-51.992
-53.169
-54.348
-55.527
-56.702
-57.871
-59.03
-60.177
-61.309
-62.423
-63.518
-64.591
-65.641
-66.665
-67.662
-68.632
-69.572
-70.482
-71.359
-72.202
-73.009
-73.78
-74.511
-75.203
-75.852
-76.458
-77.02
-77.536
-78.005
-78.427
-78.8
-79.124
-79.399
-79.624
-79.8
-79.928
-80.009
-80.043
-80.032
-79.979
-79.885
-79.752
-79.582
-79.377
-79.139
-78.871
-78.574
-78.251
-77.905
-77.538
-77.152
-76.751
-76.338
-75.915
-75.486
-75.054
-74.623
-74.194
-73.773
-73.362
-72.964
-72.582
-72.22
-71.88
-71.564
-71.276
-71.016
-70.786
-70.588
-70.423
-70.292
-70.194
-70.129
-70.099
-70.102
-70.138
-70.206
-70.304
-70.433
-70.59
-70.775
-70.984
-71.218
-71.472
-71.744
-72.032
-72.332
-72.642
-72.956
-73.273
-73.588
-73.898
-74.2
-74.491
-74.768
-75.028
-75.27
-75.491
-75.689
-75.863
-76.01
-76.131
-76.223
-76.287
-76.321
-76.326
-76.303
-76.253
-76.177
-76.075
-75.949
-75.801
-75.631
-75.442
-75.236
-75.014
-74.78
-74.536
-74.287
-74.035
-73.784
-73.538
-73.298
-73.068
-72.849
-72.641
-72.445
-72.259
-72.082
-71.912
-71.747
-71.586
-71.427
-71.269
-71.111
-70.952
-70.791
-70.624
-70.448
-70.255
-70.037
-69.785
-69.49
-69.142
-68.733
-68.255
-67.701
-67.066
-66.346
-65.535
-64.627
-63.608
-62.464
-61.181
-59.755
-58.185
-56.476
-54.645
-52.713
-50.706
-48.653
-46.575
-44.485
-42.381
-40.249
-38.073
-35.835
-33.528
-31.165
-28.756
-26.309
-23.827
-21.303
-18.717
-16.035
-13.213
-10.196
-6.95
-3.461
0.249
4.121
8.078
12.021
15.872
19.576
23.084
26.355
29.342
31.996
34.258
36.063
37.324
37.934
37.805
36.869
35.114
32.582
29.349
25.535
21.242
16.558
11.578
6.396
1.106
-4.202
-9.445
-14.551
-19.412
-23.892
-27.865
-31.201
-33.832
-35.75
-36.977
-37.582
-37.65
-37.264
-36.546
-35.645
-34.7
-33.858
-33.251
-32.984
-33.203
-34.049
-35.697
-38.362
-42.114
-46.915
-52.608
-58.836
-65.232
-71.463
-77
-81.232
-83.791
-84.406
-83.206
-80.889
-78.004
-75.073
-72.85
-71.813
-72.126
-74.022
-77.038
-79.529
-79.992
-75.77
-62.894
-39.756
-5.694
38.514
88.787
144.514
207.775
280.213
364.838
459.222
555.815
646.93
723.084
776.054
799.24
784.361
724.781
618.634
467.62
282.248
81.225
-116.185
-286.794
-413.859
-495
-532.381
-538.996
-529.408
-507.389
-478.309
-442.873
-399.661
-354.574
-308.599
-262.601
-219.458
-178.728
-143.868
-117.847
-100.544
-91.99
-89.687
-91.315
-95.637
-100.582
-104.513
-106.106
-104.51
-99.954
-93.049
-84.262
-74.216
-63.76
-53.899
-45.783
-40.02
-36.572
-35.165
-35.405
-36.956
-39.514
-42.625
-45.689
-48.238
-50.05
-51.061
-51.348
-50.973
-49.932
-48.252
-46.008
-43.295
-40.211
-36.837
-33.215
-29.365
-25.341
-21.216
-17.097
-13.12
-9.378
-5.918
-2.77
0.052
2.531
4.651
6.422
7.89
9.097
10.082
10.873
11.483
11.937
12.275
12.547
12.808
13.101
13.451
13.88
14.41
15.058
15.841
16.763
17.814
18.991
20.296
21.731
23.303
25.017
26.868
28.854
30.974
33.225
35.606
38.116
40.749
43.501
46.371
49.355
52.453
55.66
58.972
62.382
65.881
69.461
73.112
76.825
80.588
84.39
88.22
92.069
95.924
99.778
103.618
107.435
111.219
114.96
118.648
122.272
125.823
129.29
132.665
135.936
139.095
142.133
145.039
147.804
150.421
152.881
155.175
157.295
159.234
160.985
162.541
163.897
165.046
165.984
166.708
167.214
167.5
167.565
167.407
167.027
166.423
165.596
164.549
163.283
161.8
160.104
158.201
156.094
153.791
151.298
148.622
145.772
142.757
139.584
136.265
132.809
129.227
125.531
121.73
117.839
113.869
109.832
105.742
101.61
97.45
93.272
89.091
84.916
80.761
76.635
72.55
68.517
64.546
60.646
56.828
53.099
49.467
45.939
42.523
39.222
36.042
32.987
30.06
27.263
24.601
22.073
19.681
17.427
15.31
13.33
11.486
9.776
8.199
6.751
5.429
4.231
3.151
2.188
1.334
0.587
-0.058
-0.608
-1.068
-1.443
-1.742
-1.969
-2.131
-2.234
-2.286
-2.292
-2.259
-2.192
-2.098
-1.982
-1.85
-1.709
-1.564
-1.422
-1.29
-1.175
-1.087
-1.035
-1.028
-1.073
-1.181
-1.358
-1.614
-1.953
-2.381
-2.9
-3.514
-4.228
-5.047
-5.976
-7.018
-8.175
-9.448
-10.838
-12.346
-13.967
-15.691
-17.509
-19.417
-21.412
-23.504
-25.695
-27.98
-30.351
-32.797
-35.297
-37.831
-40.361
-42.835
-45.205
-47.427
-49.468
-51.312
-52.93
-54.289
-55.351
-56.059
-56.378
-56.301
-55.806
-54.891
-53.589
-51.945
-50.049
-48.036
-45.994
-44.014
-42.192
-40.602
-39.35
-38.551
-38.289
-38.689
-39.895
-41.949
-44.813
-48.322
-52.096
-55.739
-58.889
-61.082
-61.823
-60.832
-58.149
-54.209
-49.873
-46.032
-43.245
-42.019
-42.975
-46.305
-51.415
-56.953
-60.688
-60.128
-53.436
-38.871
-14.398
21.281
68.291
125.437
189.808
257.711
325.685
389.619
444.637
486.236
510.566
515.318
500.177
465.62
412.663
343.725
262.336
172.748
79.767
-12.809
-102.254
-185.774
-261.116
-326.883
-382.21
-427.473
-464.042
-492.808
-514.564
-530.645
-542.16
-550.339
-556.6
-561.393
-564.555
-566.126
-565.947
-563.65
-559.059
-551.708
-540.971
-526.845
-509.651
-489.799
-467.917
-444.592
-420.332
-395.761
-371.503
-347.923
-325.227
-303.526
-282.861
-263.341
-245.064
-228.068
-212.346
-197.886
-184.71
-172.803
-162.115
-152.541
-143.922
-136.135
-129.117
-122.836
-117.264
-112.356
-108.024
-104.158
-100.685
-97.519
-94.564
-91.712
-88.823
-85.807
-82.64
-79.339
-75.947
-72.491
-68.967
-65.37
-61.71
-58.004
-54.286
-50.593
-46.942
-43.368
-39.929
-36.696
-33.766
-31.195
-28.993
-27.15
-25.633
-24.413
-23.463
-22.745
-22.202
-21.781
-21.43
-21.104
-20.768
-20.371
-19.852
-19.142
-18.163
-16.854
-15.171
-13.08
-10.55
-7.559
-4.088
-0.129
4.316
9.246
14.665
20.579
26.993
33.908
41.314
49.203
57.56
66.371
75.618
85.283
95.343
105.775
116.554
127.656
139.054
150.72
162.62
174.717
186.974
199.35
211.804
224.292
236.769
249.19
261.508
273.678
285.656
297.396
308.851
319.979
330.735
341.075
350.958
360.34
369.181
377.444
385.092
392.089
398.405
404.009
408.877
412.983
416.309
418.838
420.555
421.451
421.52
420.758
419.166
416.748
413.513
409.473
404.642
399.04
392.689
385.614
377.845
369.411
360.347
350.689
340.475
329.747
318.547
306.92
294.911
282.569
269.94
257.076
244.023
230.833
217.554
204.235
190.923
177.665
164.506
151.49
138.658
126.051
113.707
101.659
89.942
78.586
67.618
57.063
46.944
37.278
28.082
19.369
11.151
3.434
-3.777
-10.48
-16.675
-22.365
-27.557
-32.256
-36.475
-40.225
-43.52
-46.376
-48.811
-50.845
-52.496
-53.786
-54.737
-55.371
-55.712
-55.783
-55.606
-55.206
-54.604
-53.825
-52.89
-51.82
-50.638
-49.363
-48.015
-46.613
-45.173
-43.713
-42.248
-40.793
-39.361
-37.964
-36.614
-35.32
-34.092
-32.938
-31.865
-30.878
-29.981
-29.18
-28.477
-27.872
-27.369
-26.966
-26.663
-26.459
-26.352
-26.34
-26.42
-26.589
-26.844
-27.179
-27.591
-28.075
-28.627
-29.242
-29.914
-30.639
-31.411
-32.226
-33.078
-33.963
-34.875
-35.809
-36.762
-37.727
-38.7
-39.677
-40.653
-41.624
-42.585
-43.532
-44.463
-45.372
-46.258
-47.117
-47.946
-48.743
-49.506
-50.233
-50.923
-51.575
-52.187
-52.76
-53.292
-53.784
-54.236
-54.648
-55.021
-55.356
-55.654
-55.916
-56.143
-56.336
-56.498
-56.629
-56.732
-56.808
-56.858
-56.886
-56.893
-56.883
-56.856
-56.817
-56.767
-56.71
-56.647
-56.581
-56.514
-56.448
-56.385
-56.327
-56.273
-56.227
-56.188
-56.156
-56.133
-56.118
-56.111
-56.11
-56.116
-56.125
-56.138
-56.153
-56.167
-56.181
-56.191
-56.198
-56.198
-56.191
-56.174
-56.147
-56.105
-56.049
-55.973
-55.877
-55.758
-55.613
-55.439
-55.235
-54.998
-54.728
-54.422
-54.079
-53.694
-53.267
-52.796
-52.28
-51.723
-51.121
-50.47
-49.78
-49.061
-48.318
-47.565
-46.795
-45.993
-45.174
-44.356
-43.507
-42.605
-41.635
-40.568
-39.432
-38.279
-37.085
-35.804
-34.569
-33.537
-32.618
-31.826
-31.193
-30.394
-30.32
-31.84
-33.723
-35.597
-35.198
-29.811
-22.445
-15.108
-10.785
-13.576
-19.856
-26.552
-31.558
-31.394
-28.546
-25.535
-22.923
-22.243
-22.603
-22.854
-23.213
-23.53
-23.882
-24.497
-25.22
-25.927
-26.654
-27.405
-28.161
-28.922
-29.691
-30.466
-31.263
-32.103
-32.968
-33.84
-34.715
-35.585
-36.443
-37.282
-38.091
-38.861
-39.584
-40.254
-40.864
-41.408
-41.878
-42.266
-42.566
-42.771
-42.872
-42.865
-42.741
-42.494
-42.118
-41.607
-40.955
-40.157
-39.211
-38.113
-36.861
-35.453
-33.889
-32.17
-30.299
-28.28
-26.117
-23.817
-21.388
-18.839
-16.181
-13.426
-10.587
-7.677
-4.714
-1.715
1.301
4.318
7.314
10.27
13.166
15.982
18.701
21.303
23.771
26.086
28.228
30.177
31.913
33.422
34.686
35.692
36.426
36.881
37.053
36.942
36.547
35.863
34.878
33.585
31.985
30.082
27.886
25.416
22.692
19.746
16.63
13.39
10.073
6.723
3.366
0.035
-3.226
-6.369
-9.33
-12.046
-14.482
-16.6
-18.372
-19.806
-20.921
-21.771
-22.459
-23.065
-23.673
-24.385
-25.277
-26.449
-28.023
-30.086
-32.761
-36.211
-40.479
-45.531
-51.224
-57.172
-62.95
-68.161
-72.267
-74.73
-75.26
-73.723
-70.372
-66.023
-61.542
-57.759
-55.509
-55.311
-57.394
-61.81
-67.838
-73.763
-76.498
-71.86
-56.461
-28.456
10.159
55.271
104.869
159.125
223.736
305.541
406.358
522.978
643.37
752.043
833.447
874.056
868.403
813.804
714.451
578.685
411.525
225.591
34.4
-147.066
-296.921
-404.682
-469.973
-500.046
-510.524
-510.523
-500.079
-475.491
-434.871
-380.844
-321.973
-268.313
-222.415
-184.859
-154.741
-129.208
-110.147
-98.689
-93.713
-94.755
-99.104
-103.841
-107.459
-108.41
-106.178
-101.241
-94.145
-85.67
-76.702
-68.082
-60.698
-55.426
-52.692
-52.389
-54.153
-57.438
-61.661
-66.367
-71.082
-75.279
-78.607
-80.893
-82.071
-82.208
-81.393
-79.666
-77.109
-73.838
-69.963
-65.624
-60.969
-56.133
-51.276
-46.53
-41.988
-37.744
-33.876
-30.434
-27.459
-24.957
-22.911
-21.308
-20.136
-19.374
-18.991
-18.937
-19.151
-19.571
-20.128
-20.769
-21.452
-22.137
-22.791
-23.392
-23.92
-24.366
-24.731
-25.006
-25.179
-25.242
-25.182
-24.993
-24.673
-24.218
-23.624
-22.889
-22.008
-20.98
-19.8
-18.464
-16.967
-15.305
-13.472
-11.467
-9.291
-6.946
-4.437
-1.769
1.052
4.018
7.12
10.349
13.697
17.155
20.712
24.36
28.089
31.888
35.746
39.652
43.596
47.566
51.551
55.54
59.52
63.479
67.406
71.288
75.114
78.871
82.546
86.127
89.602
92.958
96.184
99.268
102.199
104.967
107.562
109.973
112.193
114.213
116.026
117.623
118.999
120.148
121.063
121.741
122.177
122.367
122.31
122.004
121.446
120.638
119.579
118.272
116.718
114.922
112.887
110.62
108.127
105.417
102.497
99.377
96.069
92.583
88.932
85.128
81.185
77.116
72.935
68.657
64.298
59.871
55.391
50.873
46.332
41.781
37.234
32.705
28.206
23.75
19.349
15.015
10.758
6.589
2.518
-1.445
-5.293
-9.017
-12.612
-16.071
-19.389
-22.563
-25.589
-28.466
-31.191
-33.764
-36.185
-38.454
-40.574
-42.547
-44.375
-46.062
-47.612
-49.029
-50.318
-51.482
-52.527
-53.456
-54.275
-54.987
-55.597
-56.11
-56.531
-56.866
-57.121
-57.302
-57.415
-57.469
-57.47
-57.425
-57.342
-57.227
-57.087
-56.929
-56.759
-56.582
-56.404
-56.229
-56.066
-55.92
-55.798
-55.705
-55.648
-55.634
-55.667
-55.754
-55.897
-56.094
-56.349
-56.662
-57.038
-57.487
-58.014
-58.613
-59.283
-60.016
-60.799
-61.618
-62.446
-63.241
-63.967
-64.593
-65.097
-65.47
-65.699
-65.761
-65.637
-65.291
-64.701
-63.862
-62.762
-61.397
-59.784
-57.946
-55.94
-53.881
-51.865
-49.974
-48.277
-46.784
-45.521
-44.547
-43.914
-43.705
-43.993
-44.791
-46.162
-48.208
-50.933
-54.26
-57.951
-61.512
-64.476
-66.503
-67.223
-66.296
-63.551
-58.975
-52.959
-46.361
-40.087
-34.856
-31.24
-29.75
-30.613
-33.571
-37.597
-40.841
-41.055
-36.213
-24.653
-4.404
26.325
68.128
120.466
180.402
242.817
304.538
363.306
417.67
468.719
512.781
543.054
552.212
530.031
473.726
388.137
283.398
176.059
77.58
-6.722
-77.884
-143.517
-207.87
-272.942
-337.474
-396.182
-446.744
-487.947
-519.618
-544.44
-564.388
-580.716
-594.79
-606.694
-616.065
-623.088
-627.855
-630.164
-629.702
-625.818
-617.649
-604.925
-587.918
-566.969
-542.585
-515.314
-485.644
-454.277
-422.085
-389.713
-357.564
-325.922
-294.921
-264.773
-235.815
-208.306
-182.438
-158.385
-136.272
-116.237
-98.443
-82.962
-69.762
-58.755
-49.776
-42.67
-37.336
-33.665
-31.53
-30.761
-31.107
-32.328
-34.214
-36.542
-39.097
-41.647
-43.946
-45.822
-47.192
-48.015
-48.3
-48.058
-47.277
-45.971
-44.183
-41.974
-39.439
-36.667
-33.73
-30.722
-27.75
-24.932
-22.399
-20.225
-18.429
-17.009
-15.938
-15.182
-14.713
-14.478
-14.407
-14.437
-14.503
-14.548
-14.522
-14.361
-13.991
-13.335
-12.315
-10.873
-8.974
-6.588
-3.694
-0.28
3.659
8.118
13.083
18.55
24.525
31.006
37.988
45.456
53.385
61.747
70.509
79.634
89.069
98.763
108.67
118.746
128.97
139.321
149.775
160.306
170.88
181.476
192.097
202.752
213.442
224.174
234.953
245.797
256.763
267.889
279.193
290.681
302.318
314.052
325.839
337.622
349.326
360.855
372.074
382.825
392.987
402.435
411.049
418.702
425.222
430.462
434.319
436.713
437.611
437.008
434.896
431.291
426.254
419.876
412.288
403.657
394.111
383.768
372.755
361.198
349.261
337.093
324.805
312.485
300.203
288.013
275.975
264.138
252.507
241.073
229.803
218.641
207.567
196.573
185.65
174.794
163.988
153.221
142.507
131.877
121.358
110.979
100.763
90.732
80.929
71.404
62.208
53.398
45.012
37.079
29.623
22.663
16.211
10.275
4.852
-0.074
-4.514
-8.48
-11.984
-15.036
-17.658
-19.871
-21.701
-23.171
-24.306
-25.129
-25.664
-25.936
-25.964
-25.771
-25.375
-24.795
-24.05
-23.16
-22.144
-21.024
-19.819
-18.547
-17.228
-15.879
-14.516
-13.156
-11.811
-10.493
-9.212
-7.979
-6.802
-5.688
-4.643
-3.672
-2.778
-1.965
-1.234
-0.587
-0.023
0.459
0.859
1.179
1.423
1.591
1.689
1.717
1.679
1.579
1.419
1.205
0.938
0.624
0.266
-0.132
-0.565
-1.029
-1.52
-2.034
-2.567
-3.117
-3.679
-4.25
-4.828
-5.409
-5.992
-6.573
-7.15
-7.721
-8.285
-8.839
-9.383
-9.916
-10.436
-10.943
-11.437
-11.915
-12.379
-12.826
-13.255
-13.667
-14.06
-14.432
-14.783
-15.112
-15.419
-15.701
-15.959
-16.191
-16.398
-16.577
-16.729
-16.853
-16.95
-17.018
-17.058
-17.07
-17.055
-17.014
-16.946
-16.853
-16.735
-16.593
-16.427
-16.238
-16.026
-15.791
-15.535
-15.259
-14.962
-14.646
-14.312
-13.961
-13.594
-13.213
-12.818
-12.412
-11.996
-11.571
-11.139
-10.703
-10.263
-9.822
-9.382
-8.944
-8.51
-8.081
-7.659
-7.245
-6.838
-6.441
-6.054
-5.677
-5.311
-4.957
-4.616
-4.288
-3.974
-3.675
-3.391
-3.122
-2.87
-2.634
-2.415
-2.213
-2.028
-1.861
-1.712
-1.58
-1.466
-1.368
-1.288
-1.222
-1.172
-1.135
-1.11
-1.097
-1.095
-1.103
-1.119
-1.145
-1.179
-1.22
-1.268
-1.323
-1.385
-1.452
-1.525
-1.604
-1.687
-1.775
-1.868
-1.965
-2.068
-2.176
-2.289
-2.407
-2.532
-2.664
-2.802
-2.949
-3.104
-3.27
-3.447
-3.638
-3.843
-4.066
-4.308
-4.572
-4.858
-5.17
-5.509
-5.876
-6.274
-6.704
-7.167
-7.665
-8.198
-8.768
-9.376
-10.022
-10.706
-11.428
-12.188
-12.986
-13.82
-14.688
-15.589
-16.52
-17.479
-18.463
-19.468
-20.491
-21.526
-22.569
-23.615
-24.658
-25.691
-26.707
-27.699
-28.659
-29.579
-30.452
-31.267
-32.018
-32.695
-33.29
-33.795
-34.202
-34.502
-34.689
-34.753
-34.687
-34.486
-34.143
-33.651
-33.006
-32.203
-31.24
-30.114
-28.824
-27.368
-25.746
-23.961
-22.014
-19.909
-17.651
-15.245
-12.699
-10.023
-7.226
-4.32
-1.319
1.763
4.908
8.099
11.318
14.546
17.761
20.945
24.077
27.136
30.104
32.962
35.69
38.271
40.683
42.907
44.926
46.722
48.276
49.574
50.6
51.342
51.796
51.957
51.819
51.377
50.618
49.536
48.133
46.414
44.387
42.07
39.484
36.666
33.671
30.552
27.358
24.136
20.914
17.727
14.619
11.637
8.831
6.249
3.916
1.847
0.068
-1.421
-2.649
-3.691
-4.662
-5.688
-6.858
-8.243
-9.913
-11.945
-14.437
-17.49
-21.181
-25.55
-30.623
-36.461
-43.069
-50.325
-57.949
-65.431
-72.188
-77.786
-81.843
-83.849
-83.458
-80.628
-75.603
-69.202
-62.426
-55.734
-49.374
-44.069
-40.362
-38.004
-36.397
-32.991
-23.678
-7.302
16.222
46.33
79.452
117.273
164.436
222.584
295.39
379.207
464.195
546.225
618.657
676.977
720.168
735.875
711.075
638.318
511.945
342.27
151.377
-39.991
-207.44
-333.513
-416.314
-459.324
-474.861
-478.766
-476.764
-469.804
-455.363
-428.639
-390.898
-347.066
-301.983
-260.758
-226.474
-200.137
-181.877
-170.724
-165.168
-163.522
-164.32
-166.261
-167.527
-166.336
-161.715
-153.374
-141.751
-127.825
-112.437
-96.389
-80.896
-67.172
-55.972
-47.676
-42.213
-39.195
-38.279
-39.109
-41.214
-44.11
-47.432
-50.955
-54.555
-58.147
-61.62
-64.835
-67.646
-69.973
-71.76
-72.945
-73.519
-73.486
-72.87
-71.739
-70.151
-68.139
-65.751
-63.026
-60.002
-56.76
-53.379
-49.944
-46.574
-43.358
-40.351
-37.6
-35.11
-32.869
-30.867
-29.077
-27.458
-25.985
-24.631
-23.376
-22.21
-21.11
-20.043
-18.973
-17.847
-16.626
-15.284
-13.799
-12.159
-10.36
-8.397
-6.276
-4.011
-1.613
0.912
3.561
6.333
9.228
12.239
15.357
18.575
21.882
25.272
28.738
32.271
35.865
39.514
43.213
46.96
50.753
54.584
58.447
62.335
66.241
70.158
74.077
77.99
81.888
85.765
89.612
93.422
97.189
100.904
104.561
108.152
111.67
115.108
118.459
121.715
124.869
127.913
130.841
133.646
136.319
138.854
141.244
143.481
145.559
147.471
149.209
150.766
152.137
153.313
154.289
155.059
155.617
155.958
156.079
155.974
155.642
155.079
154.284
153.255
151.992
150.496
148.767
146.808
144.622
142.211
139.582
136.738
133.687
130.435
126.99
123.36
119.555
115.585
111.461
107.194
102.796
98.282
93.663
88.955
84.173
79.33
74.444
69.529
64.601
59.676
54.77
49.898
45.076
40.318
35.638
31.05
26.567
22.201
17.964
13.866
9.917
6.126
2.503
-0.946
-4.213
-7.292
-10.178
-12.867
-15.357
-17.644
-19.729
-21.611
-23.29
-24.77
-26.052
-27.141
-28.04
-28.756
-29.295
-29.665
-29.874
-29.929
-29.84
-29.617
-29.27
-28.808
-28.242
-27.582
-26.837
-26.018
-25.136
-24.2
-23.221
-22.21
-21.179
-20.139
-19.103
-18.084
-17.093
-16.142
-15.242
-14.405
-13.64
-12.953
-12.351
-11.841
-11.428
-11.119
-10.923
-10.843
-10.886
-11.056
-11.356
-11.787
-12.349
-13.036
-13.843
-14.765
-15.801
-16.96
-18.245
-19.656
-21.187
-22.831
-24.571
-26.386
-28.243
-30.095
-31.895
-33.602
-35.178
-36.599
-37.838
-38.864
-39.642
-40.124
-40.271
-40.054
-39.462
-38.486
-37.145
-35.49
-33.601
-31.601
-29.608
-27.715
-26.016
-24.61
-23.595
-23.088
-23.2
-24.015
-25.64
-28.222
-31.8
-36.309
-41.538
-47.076
-52.499
-57.482
-61.647
-64.52
-65.833
-65.592
-64.128
-62.229
-60.632
-59.613
-59.339
-60.148
-62.068
-64.586
-66.642
-66.277
-61.324
-50.535
-33.061
-7.465
27.417
71.721
125.002
184.234
244.236
302.696
358.238
409.664
458.412
500.362
526.985
531.675
506.691
451.75
375.489
286.46
194.405
104.553
15.734
-72.295
-159.141
-242.359
-317.393
-381.92
-435.545
-478.999
-513.891
-541.099
-561.445
-576.441
-587.592
-596.359
-603.581
-609.203
-613.011
-614.869
-614.432
-611.246
-604.74
-594.213
-579.527
-561.061
-539.293
-514.872
-488.441
-460.597
-432.085
-403.651
-375.754
-348.664
-322.536
-297.45
-273.6
-251.179
-230.284
-210.986
-193.312
-177.301
-163.036
-150.528
-139.707
-130.452
-122.589
-115.995
-110.62
-106.404
-103.28
-101.141
-99.806
-99.121
-98.969
-99.197
-99.657
-100.182
-100.571
-100.712
-100.564
-100.115
-99.393
-98.403
-97.118
-95.54
-93.689
-91.601
-89.344
-86.969
-84.509
-82.032
-79.623
-77.381
-75.423
-73.813
-72.561
-71.664
-71.095
-70.825
-70.829
-71.06
-71.452
-71.946
-72.482
-73.009
-73.486
-73.855
-74.05
-73.997
-73.622
-72.867
-71.696
-70.073
-67.977
-65.388
-62.294
-58.692
-54.588
-49.984
-44.882
-39.283
-33.181
-26.579
-19.476
-11.879
-3.807
4.722
13.682
23.041
32.766
42.815
53.133
63.666
74.364
85.176
96.072
107.02
117.982
128.919
139.791
150.57
161.253
171.845
182.341
192.745
203.058
213.292
223.498
233.711
243.944
254.201
264.44
274.61
284.669
294.562
304.212
313.519
322.339
