Name,Criss Capps
Date of Birth,"Feb 5, 1952"
Recorded Date,2020-09-05 11:24:27 -0400
Classification,Sinus Rhythm
Symptoms,
Software Version,1.90
Device,"Watch5,4"
Sample Rate,512.844 hertz


Lead,Lead I
Unit,µV

-310.837
-396.749
-462.976
-497.768
-498.931
-480.561
-451.031
-423.476
-404.313
-386.642
-367.988
-346.582
-323.57
-305.568
-295.177
-291.693
-293.439
-297.017
-300.034
-301.753
-301.369
-298.393
-292.927
-285.287
-276.139
-266.402
-256.857
-247.862
-239.588
-232.103
-225.328
-219.235
-213.813
-208.958
-204.555
-200.528
-196.811
-193.342
-190.044
-186.801
-183.47
-179.933
-176.105
-171.944
-167.437
-162.575
-157.355
-151.761
-145.766
-139.356
-132.513
-125.235
-117.529
-109.421
-100.957
-92.193
-83.187
-73.996
-64.663
-55.219
-45.688
-36.084
-26.415
-16.695
-6.939
2.832
12.597
22.333
32.021
41.643
51.186
60.64
69.994
79.241
88.373
97.379
106.252
114.979
123.548
131.948
140.169
148.205
156.049
163.698
171.15
178.403
185.459
192.317
198.981
205.451
211.73
217.82
223.725
229.449
234.997
240.373
245.584
250.634
255.532
260.284
264.897
269.379
273.738
277.982
282.118
286.155
290.1
293.962
297.747
301.464
305.119
308.72
312.276
315.793
319.279
322.74
326.184
329.615
333.041
336.468
339.901
343.346
346.808
350.294
353.808
357.356
360.942
364.57
368.244
371.967
375.742
379.57
383.453
387.392
391.388
395.44
399.549
403.713
407.93
412.2
416.519
420.886
425.296
429.745
434.231
438.747
443.289
447.852
452.431
457.018
461.607
466.192
470.765
475.317
479.841
484.328
488.769
493.155
497.477
501.726
505.894
509.971
513.948
517.818
521.571
525.198
528.692
532.043
535.244
538.285
541.16
543.861
546.381
548.712
550.848
552.783
554.51
556.024
557.32
558.392
559.238
559.853
560.235
560.383
560.296
559.973
559.415
558.625
557.604
556.357
554.885
553.195
551.292
549.182
546.871
544.368
541.682
538.822
535.799
532.624
529.31
525.87
522.318
518.668
514.936
511.14
507.294
503.418
499.529
495.647
491.789
487.976
484.225
480.554
476.982
473.525
470.201
467.024
464.011
461.175
458.53
456.088
453.861
451.86
450.092
448.565
447.286
446.26
445.489
444.974
444.716
444.711
444.957
445.447
446.172
447.122
448.285
449.644
451.182
452.88
454.714
456.661
458.697
460.795
462.929
465.071
467.192
469.266
471.267
473.166
474.937
476.555
477.99
479.219
480.217
480.961
481.429
481.598
481.447
480.958
480.121
478.928
477.37
475.437
473.116
470.402
467.299
463.815
459.962
455.755
451.215
446.373
441.282
436
430.581
425.07
419.495
413.888
408.293
402.758
397.337
392.075
386.992
382.102
377.427
372.981
368.754
364.705
360.735
356.718
352.567
348.209
343.606
338.752
333.591
328.041
322.037
315.493
308.359
300.659
292.329
283.263
273.589
263.587
253.768
244.952
237.755
232.57
229.938
230.242
233.351
238.859
245.779
252.476
257.752
260.695
260.197
255.919
248.602
239.613
231.299
226.852
229.03
240.568
264.572
302.75
354.833
419.163
492.576
570.608
648.238
719.376
776.676
813.643
825.857
810.489
766.05
692.721
592.804
471.077
334.819
192.177
50.481
-83.437
-202.605
-301.07
-375.45
-425.024
-451.671
-459.019
-450.838
-431.333
-406.036
-380.41
-358.106
-341.072
-329.636
-322.994
-320.365
-320.742
-322.133
-322.369
-320.224
-315.325
-308.052
-299.23
-289.474
-279.264
-269.332
-260.529
-253.349
-247.969
-244.299
-241.99
-240.734
-240.302
-240.399
-240.689
-240.905
-240.817
-240.247
-239.164
-237.572
-235.517
-233.134
-230.525
-227.761
-224.903
-221.965
-218.97
-215.971
-213.002
-210.082
-207.235
-204.484
-201.881
-199.505
-197.386
-195.504
-193.796
-192.146
-190.463
-188.697
-186.812
-184.797
-182.643
-180.347
-177.937
-175.47
-173.009
-170.601
-168.26
-165.977
-163.753
-161.611
-159.588
-157.732
-156.078
-154.644
-153.444
-152.493
-151.801
-151.367
-151.171
-151.17
-151.319
-151.587
-151.957
-152.421
-152.976
-153.614
-154.325
-155.106
-155.96
-156.887
-157.883
-158.94
-160.048
-161.2
-162.394
-163.635
-164.924
-166.259
-167.635
-169.045
-170.481
-171.933
-173.39
-174.834
-176.247
-177.615
-178.922
-180.156
-181.307
-182.362
-183.313
-184.15
-184.867
-185.456
-185.91
-186.224
-186.391
-186.406
-186.266
-185.969
-185.512
-184.897
-184.123
-183.196
-182.118
-180.896
-179.535
-178.044
-176.43
-174.702
-172.872
-170.951
-168.953
-166.89
-164.777
-162.632
-160.469
-158.305
-156.157
-154.039
-151.968
-149.958
-148.023
-146.176
-144.428
-142.79
-141.272
-139.884
-138.632
-137.524
-136.564
-135.757
-135.105
-134.609
-134.269
-134.083
-134.049
-134.162
-134.418
-134.81
-135.332
-135.975
-136.731
-137.59
-138.541
-139.574
-140.676
-141.836
-143.041
-144.277
-145.533
-146.796
-148.053
-149.292
-150.501
-151.669
-152.787
-153.844
-154.832
-155.742
-156.569
-157.305
-157.946
-158.488
-158.927
-159.263
-159.494
-159.619
-159.64
-159.559
-159.377
-159.098
-158.726
-158.265
-157.72
-157.096
-156.399
-155.635
-154.809
-153.929
-153
-152.03
-151.025
-149.991
-148.936
-147.864
-146.782
-145.696
-144.61
-143.53
-142.46
-141.403
-140.363
-139.342
-138.343
-137.368
-136.416
-135.489
-134.586
-133.707
-132.85
-132.014
-131.197
-130.395
-129.607
-128.829
-128.057
-127.289
-126.521
-125.75
-124.971
-124.183
-123.382
-122.564
-121.728
-120.871
-119.99
-119.083
-118.148
-117.185
-116.191
-115.167
-114.111
-113.023
-111.905
-110.755
-109.576
-108.369
-107.134
-105.875
-104.592
-103.289
-101.968
-100.633
-99.286
-97.932
-96.575
-95.217
-93.865
-92.52
-91.188
-89.872
-88.576
-87.303
-86.056
-84.837
-83.649
-82.493
-81.372
-80.285
-79.235
-78.22
-77.241
-76.297
-75.386
-74.507
-73.658
-72.836
-72.039
-71.264
-70.508
-69.768
-69.041
-68.322
-67.61
-66.899
-66.185
-65.466
-64.735
-63.989
-63.223
-62.434
-61.617
-60.768
-59.885
-58.964
-58.004
-57.003
-55.959
-54.872
-53.742
-52.57
-51.359
-50.109
-48.826
-47.512
-46.174
-44.816
-43.446
-42.069
-40.694
-39.327
-37.976
-36.649
-35.353
-34.097
-32.887
-31.732
-30.64
-29.618
-28.674
-27.814
-27.047
-26.377
-25.811
-25.355
-25.012
-24.785
-24.678
-24.691
-24.824
-25.078
-25.449
-25.934
-26.529
-27.225
-28.016
-28.892
-29.841
-30.852
-31.911
-33.002
-34.111
-35.222
-36.317
-37.38
-38.393
-39.339
-40.2
-40.96
-41.602
-42.109
-42.466
-42.656
-42.666
-42.483
-42.094
-41.488
-40.655
-39.587
-38.278
-36.724
-34.923
-32.873
-30.576
-28.036
-25.261
-22.259
-19.043
-15.627
-12.027
-8.264
-4.36
-0.34
3.77
7.942
12.144
16.345
20.508
24.601
28.587
32.43
36.094
39.544
42.746
45.668
48.28
50.552
52.456
53.962
55.045
55.68
55.842
55.511
54.669
53.299
51.392
48.952
45.98
42.481
38.457
33.905
28.828
23.245
17.172
10.631
3.652
-3.726
-11.44
-19.408
-27.55
-35.792
-44.07
-52.338
-60.539
-68.607
-76.471
-84.048
-91.267
-98.086
-104.453
-110.31
-115.621
-120.39
-124.688
-128.639
-132.357
-135.915
-139.338
-142.669
-145.981
-149.37
-152.957
-156.854
-161.103
-165.775
-171.014
-176.804
-182.979
-189.157
-194.581
-198.539
-200.49
-199.805
-196.038
-189.265
-179.87
-168.786
-157.569
-147.399
-139.247
-134.314
-132.957
-134.343
-136.846
-137.753
-133.704
-121.857
-99.301
-62.669
-9.92
58.942
142.207
236.416
337.018
438.893
535.744
619.923
684.22
723.432
734.258
714.882
665.131
587.066
485.222
366.763
240.268
113.548
-6.283
-112.021
-197.692
-259.913
-297.817
-313.317
-310.397
-293.175
-266.118
-234.873
-204.751
-179.295
-160.449
-148.404
-142.089
-140.408
-142.014
-144.705
-146.259
-145.404
-141.703
-135.526
-127.726
-118.979
-109.88
-101.254
-93.947
-88.428
-84.823
-82.947
-82.397
-82.848
-84.05
-85.721
-87.559
-89.301
-90.714
-91.621
-91.95
-91.648
-90.671
-89.004
-86.637
-83.592
-79.93
-75.733
-71.082
-66.061
-60.743
-55.197
-49.507
-43.762
-38.054
-32.472
-27.078
-21.911
-17.001
-12.366
-8.019
-3.959
-0.171
3.371
6.687
9.794
12.704
15.429
17.984
20.392
22.671
24.843
26.923
28.926
30.868
32.764
34.627
36.467
38.296
40.121
41.954
43.81
45.703
47.648
49.662
51.759
53.953
56.26
58.693
61.263
63.98
66.854
69.892
73.102
76.488
80.056
83.81
87.75
91.879
96.197
100.702
105.39
110.26
115.305
120.521
125.9
131.434
137.115
142.933
148.877
154.936
161.097
167.347
173.671
180.053
186.479
192.929
199.387
205.834
212.251
218.619
224.917
231.128
237.23
243.206
249.035
254.699
260.18
265.458
270.517
275.339
279.908
284.207
288.223
291.94
295.344
298.424
301.167
303.562
305.6
307.271
308.567
309.482
310.009
310.146
309.888
309.233
308.183
306.739
304.902
302.678
300.072
297.092
293.746
290.045
286
281.622
276.926
271.925
266.635
261.071
255.25
249.189
242.905
236.416
229.741
222.897
215.902
208.776
201.537
194.203
186.792
179.323
171.812
164.279
156.739
149.21
141.708
134.247
126.844
119.512
112.264
105.113
98.069
91.143
84.344
77.68
71.158
64.785
58.567
52.508
46.612
40.882
35.321
29.931
24.712
19.667
14.794
10.094
5.566
1.211
-2.974
-6.99
-10.837
-14.519
-18.035
-21.39
-24.585
-27.623
-30.506
-33.238
-35.821
-38.257
-40.55
-42.702
-44.715
-46.59
-48.331
-49.937
-51.412
-52.756
-53.969
-55.055
-56.012
-56.842
-57.546
-58.124
-58.578
-58.906
-59.11
-59.191
-59.149
-58.985
-58.701
-58.298
-57.777
-57.141
-56.39
-55.526
-54.552
-53.47
-52.281
-50.989
-49.595
-48.102
-46.514
-44.833
-43.064
-41.211
-39.277
-37.268
-35.187
-33.04
-30.832
-28.567
-26.252
-23.891
-21.49
-19.055
-16.593
-14.11
-11.611
-9.103
-6.591
-4.082
-1.581
0.906
3.374
5.817
8.231
10.61
12.95
15.245
17.493
19.689
21.828
23.91
25.931
27.888
29.781
31.609
33.369
35.062
36.687
38.245
39.735
41.158
42.516
43.809
45.041
46.213
47.329
48.389
49.399
50.359
51.275
52.148
52.981
53.779
54.543
55.277
55.983
56.665
57.324
57.963
58.581
59.179
59.757
60.313
60.846
61.351
61.825
62.266
62.667
63.025
63.335
63.589
63.782
63.906
63.953
63.914
63.778
63.537
63.18
62.695
62.073
61.302
60.372
59.27
57.986
56.508
54.824
52.923
50.795
48.429
45.815
42.947
39.817
36.421
32.757
28.823
24.622
20.156
15.429
10.444
5.208
-0.273
-5.994
-11.946
-18.122
-24.509
-31.093
-37.857
-44.78
-51.839
-59.01
-66.268
-73.588
-80.945
-88.313
-95.669
-102.992
-110.256
-117.433
-124.49
-131.392
-138.104
-144.6
-150.86
-156.87
-162.627
-168.136
-173.406
-178.452
-183.283
-187.897
-192.281
-196.41
-200.257
-203.795
-207.009
-209.906
-212.487
-214.752
-216.693
-218.301
-219.548
-220.394
-220.792
-220.682
-220.034
-218.84
-217.135
-214.989
-212.494
-209.76
-206.873
-203.896
-200.89
-197.916
-195.042
-192.336
-189.873
-187.741
-186.042
-184.901
-184.403
-184.59
-185.434
-186.851
-188.726
-190.921
-193.331
-195.866
-198.445
-200.987
-203.407
-205.64
-207.629
-209.326
-210.656
-211.517
-211.847
-211.646
-211.016
-210.123
-209.142
-208.246
-207.558
-207.174
-207.199
-207.749
-208.935
-210.845
-213.536
-216.984
-221.217
-226.329
-232.241
-238.689
-245.144
-250.801
-254.892
-256.849
-256.239
-252.707
-246.297
-237.349
-226.58
-215.262
-204.687
-195.939
-189.532
-185.328
-182.342
-178.946
-173.275
-162.881
-144.86
-116.291
-75.204
-20.845
45.825
122.352
206.062
293.209
378.265
454.914
517.041
559.063
577.488
570.503
536.3
475.166
390.507
287.457
172.648
53.816
-62.552
-170.335
-262.543
-334.604
-384.939
-413.656
-423.13
-417.348
-399.888
-375.163
-348.965
-325.194
-305.894
-292.165
-283.412
-278.325
-275.984
-274.709
-271.998
-266.555
-257.98
-246.341
-232.622
-217.772
-202.364
-187.285
-173.56
-161.716
-152.027
-144.535
-138.939
-135.068
-132.819
-131.943
-132.207
-133.376
-135.165
-137.34
-139.675
-141.913
-143.868
-145.407
-146.429
-146.905
-146.817
-146.147
-144.897
-143.041
-140.573
-137.522
-133.913
-129.801
-125.281
-120.46
-115.486
-110.53
-105.709
-101.102
-96.767
-92.719
-88.972
-85.543
-82.43
-79.637
-77.173
-75.034
-73.221
-71.732
-70.546
-69.629
-68.931
-68.379
-67.92
-67.517
-67.139
-66.767
-66.388
-65.981
-65.541
-65.063
-64.539
-63.957
-63.3
-62.55
-61.691
-60.715
-59.615
-58.389
-57.035
-55.547
-53.923
-52.157
-50.245
-48.182
-45.962
-43.575
-41.017
-38.286
-35.381
-32.307
-29.068
-25.667
-22.111
-18.409
-14.569
-10.601
-6.514
-2.317
1.979
6.362
10.821
15.341
19.91
24.512
29.132
33.755
38.363
42.941
47.472
51.939
56.326
60.617
64.796
68.847
72.756
76.506
80.084
83.475
86.666
89.646
92.403
94.927
97.211
99.247
101.029
102.553
103.814
104.81
105.54
106.002
106.198
106.13
105.801
105.217
104.382
103.306
101.996
100.463
98.718
96.774
94.642
92.337
89.874
87.266
84.531
81.685
78.743
75.723
72.643
69.518
66.365
63.202
60.043
56.905
53.801
50.747
47.755
44.839
42.01
39.28
36.658
34.155
31.779
29.536
27.433
25.473
23.661
21.998
20.486
19.124
17.912
16.847
15.926
15.147
14.504
13.993
13.606
13.339
13.183
13.131
13.174
13.305
13.515
13.796
14.14
14.537
14.981
15.462
15.974
16.508
17.058
17.616
18.176
18.731
19.278
19.811
20.326
20.82
21.291
21.738
22.158
22.552
22.92
23.263
23.58
23.873
24.145
24.398
24.633
24.853
25.063
25.265
25.463
25.661
25.861
26.068
26.286
26.516
26.764
27.031
27.321
27.637
27.981
28.355
28.762
29.203
29.678
30.189
30.735
31.315
31.928
32.572
33.246
33.945
34.667
35.409
36.168
36.939
37.719
38.502
39.286
40.065
40.835
41.59
42.326
43.038
43.721
44.372
44.984
45.555
46.08
46.555
46.977
47.341
47.645
47.886
48.062
48.17
48.209
48.178
48.078
47.908
47.669
47.365
46.995
46.564
46.075
45.53
44.934
44.29
43.603
42.879
42.122
41.336
40.529
39.704
38.869
38.028
37.187
36.352
35.529
34.722
33.938
33.183
32.46
31.776
31.134
30.54
29.998
29.511
29.083
28.716
28.412
28.172
27.998
27.889
27.846
27.867
27.951
28.096
28.3
28.561
28.875
29.239
29.648
30.101
30.591
31.115
31.669
32.248
32.847
33.463
34.09
34.724
35.361
35.996
36.624
37.243
37.847
38.435
39.002
39.547
40.067
40.562
41.031
41.474
41.891
42.283
42.653
43.002
43.335
43.654
43.965
44.271
44.58
44.897
45.228
45.58
45.959
46.372
46.825
47.327
47.882
48.498
49.181
49.937
50.773
51.695
52.709
53.819
55.029
56.342
57.762
59.29
60.927
62.673
64.525
66.482
68.54
70.696
72.942
75.27
77.673
80.139
82.657
85.214
87.794
90.379
92.952
95.495
97.99
100.416
102.754
104.985
107.094
109.062
110.873
112.512
113.958
115.196
116.21
116.982
117.496
117.739
117.697
117.36
116.729
115.798
114.567
113.03
111.173
108.993
106.493
103.673
100.54
97.108
93.397
89.45
85.327
81.081
76.766
72.427
68.092
63.81
59.626
55.589
51.768
48.198
44.903
41.922
39.285
36.993
35.025
33.284
31.636
29.978
28.226
26.328
24.234
21.838
19.038
15.723
11.782
7.208
1.943
-4.157
-11.052
-18.549
-26.231
-33.311
-39.073
-43.051
-44.67
-43.499
-39.561
-33.082
-25.026
-17.062
-10.469
-6.341
-5.638
-8.334
-13.588
-20.032
-24.838
-24.305
-15.085
6.397
42.977
95.419
163.033
243.825
333.785
427.428
518.362
598.986
662.229
703.086
718.265
705.834
665.397
598.826
510.464
406.893
295.516
182.997
74.999
-22.888
-105.038
-167.999
-210.927
-235.118
-243.578
-239.498
-225.756
-206.207
-185.726
-167.752
-154.087
-145.295
-140.539
-138.915
-139.812
-141.841
-142.93
-141.831
-138.089
-131.839
-123.986
-115.292
-106.213
-97.46
-89.862
-83.903
-79.797
-77.497
-76.639
-76.919
-78.129
-80.002
-82.284
-84.748
-87.161
-89.337
-91.143
-92.464
-93.219
-93.355
-92.84
-91.667
-89.865
-87.489
-84.614
-81.315
-77.667
-73.735
-69.579
-65.272
-60.895
-56.529
-52.253
-48.123
-44.175
-40.438
-36.93
-33.661
-30.626
-27.811
-25.192
-22.752
-20.478
-18.362
-16.396
-14.566
-12.859
-11.26
-9.756
-8.336
-6.989
-5.707
-4.481
-3.304
-2.171
-1.08
-0.028
0.99
1.982
2.955
3.918
4.878
5.846
6.829
7.836
8.876
9.956
11.083
12.261
13.498
14.799
16.168
17.61
19.127
20.724
22.401
24.16
26.001
27.924
29.926
32.005
34.16
36.385
38.677
41.031
43.441
45.903
48.408
50.952
53.525
56.12
58.729
61.342
63.95
66.543
69.111
71.641
74.123
76.547
78.9
81.172
83.352
85.428
87.39
89.227
90.931
92.492
93.901
95.151
96.235
97.148
97.883
98.436
98.804
98.984
98.973
98.769
98.372
97.782
96.999
96.024
94.859
93.507
91.973
90.26
88.374
86.321
84.11
81.747
79.242
76.604
73.844
70.971
67.997
64.933
61.791
58.581
55.316
52.005
48.66
45.292
41.909
38.521
35.137
31.765
28.413
25.089
21.801
18.554
15.357
12.214
9.133
6.118
3.174
0.307
-2.482
-5.187
-7.807
-10.338
-12.781
-15.133
-17.394
-19.564
-21.645
-23.635
-25.538
-27.355
-29.087
-30.737
-32.305
-33.794
-35.205
-36.538
-37.794
-38.973
-40.076
-41.102
-42.052
-42.925
-43.721
-44.44
-45.083
-45.65
-46.141
-46.557
-46.898
-47.165
-47.359
-47.481
-47.532
-47.512
-47.424
-47.268
-47.047
-46.76
-46.41
-45.999
-45.527
-44.998
-44.413
-43.776
-43.089
-42.356
-41.582
-40.773
-39.933
-39.07
-38.19
-37.3
-36.407
-35.518
-34.642
-33.786
-32.957
-32.162
-31.408
-30.703
-30.052
-29.463
-28.94
-28.491
-28.119
-27.83
-27.628
-27.518
-27.503
-27.586
-27.77
-28.059
-28.453
-28.954
-29.563
-30.28
-31.105
-32.034
-33.066
-34.197
-35.423
-36.737
-38.135
-39.61
-41.153
-42.757
-44.415
-46.116
-47.853
-49.615
-51.395
-53.182
-54.967
-56.741
-58.493
-60.215
-61.897
-63.529
-65.103
-66.608
-68.037
-69.38
-70.629
-71.776
-72.811
-73.728
-74.52
-75.18
-75.701
-76.08
-76.31
-76.389
-76.313
-76.081
-75.692
-75.144
-74.438
-73.576
-72.558
-71.387
-70.065
-68.596
-66.983
-65.231
-63.345
-61.33
-59.192
-56.939
-54.578
-52.117
-49.566
-46.933
-44.228
-41.46
-38.64
-35.779
-32.886
-29.973
-27.05
-24.128
-21.22
-18.336
-15.488
-12.686
-9.942
-7.265
-4.664
-2.15
0.269
2.585
4.788
6.873
8.83
10.653
12.335
13.872
15.259
16.493
17.572
18.496
19.267
19.887
20.362
20.694
20.889
20.951
20.887
20.701
20.401
19.989
19.471
18.856
18.156
17.383
16.551
15.673
14.764
13.84
12.919
12.018
11.149
10.322
9.546
8.835
8.207
7.684
7.28
7.002
6.85
6.826
6.928
7.145
7.454
7.813
8.183
8.54
8.877
9.2
9.512
9.811
10.095
10.362
10.63
10.923
11.256
11.632
12.057
12.553
13.173
14.006
15.121
16.549
18.284
20.289
22.533
24.968
27.533
30.138
32.649
34.943
36.931
38.544
39.722
40.387
40.415
39.646
37.958
35.266
31.539
26.782
20.994
14.211
6.512
-1.962
-11.002
-20.409
-30.034
-39.759
-49.478
-59.078
-68.395
-77.239
-85.461
-92.931
-99.563
-105.306
-110.085
-113.862
-116.667
-118.612
-119.899
-120.75
-121.317
-121.696
-121.957
-122.172
-122.486
-123.076
-124.079
-125.629
-127.77
-130.53
-134.047
-138.284
-142.996
-147.757
-151.818
-154.421
-155.128
-153.607
-149.54
-143.153
-134.885
-125.289
-115.594
-106.861
-99.736
-94.753
-91.803
-89.57
-86.34
-80.446
-69.528
-51.445
-24.201
14.332
64.816
125.858
194.934
269.339
345.764
420.348
488.297
543.798
582.203
600.958
599.056
575.811
530.783
465.173
382.44
288.093
188.059
87.434
-9.58
-98.403
-173.792
-232.297
-272.881
-296.463
-305.434
-302.399
-289.757
-270.922
-250.465
-231.698
-216.399
-205.297
-197.901
-193.554
-191.811
-191.464
-190.615
-188.155
-183.713
-177.385
-169.901
-161.878
-153.672
-145.901
-139.325
-134.352
-131.122
-129.541
-129.227
-129.875
-131.276
-133.162
-135.261
-137.333
-139.142
-140.518
-141.389
-141.699
-141.404
-140.493
-138.954
-136.81
-134.128
-130.985
-127.465
-123.646
-119.603
-115.402
-111.119
-106.835
-102.631
-98.585
-94.749
-91.158
-87.834
-84.788
-82.03
-79.553
-77.34
-75.364
-73.601
-72.034
-70.65
-69.434
-68.371
-67.439
-66.619
-65.892
-65.239
-64.646
-64.097
-63.577
-63.073
-62.571
-62.063
-61.54
-60.991
-60.403
-59.765
-59.062
-58.283
-57.417
-56.454
-55.381
-54.192
-52.878
-51.434
-49.855
-48.135
-46.271
-44.26
-42.099
-39.785
-37.317
-34.694
-31.915
-28.983
-25.899
-22.667
-19.289
-15.773
-12.125
-8.352
-4.464
-0.47
3.62
7.794
12.041
16.346
20.698
25.082
29.484
33.89
38.286
42.656
46.986
51.262
55.468
59.591
63.617
67.531
71.319
74.968
78.463
81.792
84.942
87.9
90.655
93.195
95.511
97.594
99.436
101.031
102.375
103.464
104.296
104.871
105.189
105.253
105.067
104.636
103.966
103.066
101.943
100.608
99.071
97.345
95.441
93.373
91.155
88.803
86.331
83.756
81.094
78.363
75.579
72.761
69.924
67.088
64.268
61.481
58.743
56.07
53.475
50.972
48.572
46.287
44.125
42.094
40.201
38.451
36.846
35.389
34.081
32.921
31.908
31.039
30.311
29.717
29.254
28.913
28.688
28.57
28.55
28.619
28.766
28.981
29.253
29.571
29.923
30.299
30.686
31.074
31.452
31.808
32.134
32.42
32.658
32.841
32.962
33.016
32.999
32.909
32.744
32.502
32.184
31.791
31.326
30.79
30.187
29.522
28.799
28.024
27.204
26.344
25.452
24.535
23.6
22.655
21.708
20.766
19.838
18.931
18.055
17.215
16.422
15.681
14.999
14.385
13.842
13.377
12.994
12.696
12.485
12.364
12.334
12.393
12.542
12.779
13.102
13.509
13.995
14.556
15.188
15.886
16.644
17.456
18.317
19.219
20.157
21.124
22.112
23.116
24.127
25.139
26.143
27.132
28.099
29.036
29.934
30.788
31.589
32.332
33.01
33.617
34.148
34.6
34.968
35.25
35.444
35.547
35.558
35.477
35.304
35.04
34.685
34.24
33.709
33.092
32.392
31.614
30.759
29.832
28.837
27.777
26.657
25.484
24.261
22.996
21.695
20.365
19.013
17.647
16.275
14.905
13.544
12.2
10.878
9.587
8.331
7.117
5.948
4.83
3.767
2.764
1.825
0.952
0.15
-0.58
-1.234
-1.81
-2.308
-2.727
-3.066
-3.326
-3.505
-3.605
-3.627
-3.574
-3.447
-3.25
-2.986
-2.662
-2.281
-1.852
-1.381
-0.874
-0.337
0.224
0.803
1.395
1.999
2.611
3.228
3.847
4.464
5.075
5.677
6.265
6.833
7.376
7.889
8.372
8.826
9.253
9.655
10.038
10.405
10.764
11.124
11.49
11.865
12.253
12.66
13.097
13.585
14.138
14.76
15.455
16.223
17.06
17.962
18.91
19.867
20.8
21.677
22.487
23.241
23.946
24.61
25.242
25.842
26.433
27.063
27.765
28.565
29.495
30.582
31.89
33.521
35.559
38.07
41.084
44.578
48.527
52.904
57.648
62.685
67.901
73.134
78.254
83.167
87.768
91.965
95.63
98.576
100.652
101.741
101.752
100.663
98.459
95.131
90.728
85.347
79.136
72.317
65.081
57.572
49.936
42.298
34.805
27.652
21.007
14.998
9.752
5.343
1.828
-0.727
-2.315
-2.998
-2.904
-2.26
-1.304
-0.225
0.814
1.696
2.296
2.434
1.934
0.636
-1.614
-4.881
-9.231
-14.808
-21.573
-29.307
-37.554
-45.511
-52.357
-57.487
-60.422
-60.795
-58.686
-54.437
-48.74
-42.87
-38.057
-35.269
-34.949
-36.814
-39.63
-41.512
-40.271
-33.169
-17.231
10.43
51.756
107.369
176.099
255.232
341.68
431.337
518.557
596.97
660.517
703.773
723.397
717.773
685.366
626.617
544.894
445.21
333.905
218.324
104.613
-1.487
-93.333
-166.537
-219.521
-252.259
-266.874
-267.03
-256.021
-237.958
-218.297
-200.727
-187.222
-178.909
-175.243
-174.964
-177.137
-180.068
-181.345
-179.702
-174.7
-166.36
-155.598
-143.351
-130.248
-117.229
-105.333
-95.117
-86.892
-80.743
-76.444
-73.869
-72.929
-73.401
-75.05
-77.646
-80.926
-84.647
-88.562
-92.401
-95.96
-99.091
-101.701
-103.748
-105.194
-106.014
-106.195
-105.713
-104.571
-102.796
-100.408
-97.472
-94.091
-90.396
-86.565
-82.768
-79.116
-75.693
-72.549
-69.707
-67.189
-65.005
-63.145
-61.614
-60.414
-59.543
-59.01
-58.802
-58.886
-59.218
-59.73
-60.357
-61.053
-61.78
-62.509
-63.22
-63.896
-64.525
-65.105
-65.629
-66.087
-66.461
-66.733
-66.886
-66.91
-66.795
-66.538
-66.135
-65.582
-64.876
-64.015
-62.995
-61.814
-60.467
-58.95
-57.26
-55.399
-53.369
-51.177
-48.83
-46.335
-43.704
-40.946
-38.075
-35.103
-32.04
-28.9
-25.696
-22.44
-19.147
-15.83
-12.504
-9.182
-5.879
-2.609
0.613
3.771
6.853
9.842
12.726
15.49
18.121
20.607
22.936
25.098
27.082
28.879
30.482
31.883
33.077
34.06
34.826
35.374
35.702
35.81
35.698
35.368
34.823
34.066
33.1
31.932
30.566
29.011
27.272
25.358
23.279
21.043
18.662
16.147
13.51
10.763
7.921
4.998
2.007
-1.037
-4.119
-7.225
-10.339
-13.449
-16.539
-19.595
-22.606
-25.556
-28.433
-31.226
-33.921
-36.508
-38.977
-41.317
-43.521
-45.58
-47.487
-49.237
-50.825
-52.246
-53.496
-54.574
-55.478
-56.207
-56.762
-57.144
-57.355
-57.4
-57.283
-57.008
-56.583
-56.012
-55.304
-54.466
-53.505
-52.43
-51.249
-49.972
-48.607
-47.164
-45.653
-44.083
-42.465
-40.809
-39.123
-37.417
-35.7
-33.98
-32.265
-30.564
-28.883
-27.229
-25.608
-24.027
-22.49
-21.001
-19.565
-18.184
-16.862
-15.599
-14.398
-13.258
-12.18
-11.164
-10.21
-9.317
-8.483
-7.708
-6.99
-6.326
-5.714
-5.152
-4.636
-4.164
-3.731
-3.336
-2.974
-2.642
-2.337
-2.056
-1.795
-1.552
-1.324
-1.108
-0.902
-0.703
-0.511
-0.324
-0.141
0.039
0.216
0.389
0.559
0.725
0.885
1.04
1.189
1.329
1.461
1.582
1.691
1.787
1.868
1.932
1.978
2.005
2.011
1.995
1.954
1.888
1.796
1.675
1.524
1.342
1.129
0.882
0.601
0.285
-0.065
-0.45
-0.87
-1.324
-1.811
-2.332
-2.883
-3.466
-4.078
-4.717
-5.383
-6.074
-6.787
-7.522
-8.276
-9.047
-9.835
-10.637
-11.453
-12.281
-13.12
-13.969
-14.827
-15.694
-16.568
-17.447
-18.332
-19.22
-20.11
-21.003
-21.895
-22.788
-23.679
-24.569
-25.457
-26.341
-27.222
-28.099
-28.972
-29.839
-30.702
-31.559
-32.41
-33.256
-34.097
-34.932
-35.762
-36.587
-37.406
-38.22
-39.026
-39.824
-40.614
-41.393
-42.16
-42.915
-43.656
-44.382
-45.091
-45.783
-46.455
-47.106
-47.735
-48.339
-48.917
-49.467
-49.986
-50.474
-50.928
-51.346
-51.725
-52.064
-52.36
-52.61
-52.812
-52.961
-53.055
-53.09
-53.062
-52.967
-52.803
-52.565
-52.25
-51.854
-51.376
-50.813
-50.16
-49.417
-48.579
-47.646
-46.616
-45.486
-44.256
-42.924
-41.49
-39.955
-38.321
-36.588
-34.757
-32.832
-30.816
-28.712
-26.526
-24.263
-21.928
-19.53
-17.077
-14.578
-12.046
-9.489
-6.922
-4.36
-1.818
0.688
3.139
5.519
7.811
9.996
12.057
13.979
15.747
17.347
18.767
19.989
20.999
21.782
22.324
22.615
22.644
22.401
21.882
21.088
20.022
18.688
17.083
15.198
13.025
10.566
7.823
4.803
1.52
-2
-5.721
-9.587
-13.545
-17.541
-21.532
-25.485
-29.361
-33.117
-36.697
-40.032
-43.061
-45.741
-48.03
-49.883
-51.287
-52.272
-52.906
-53.303
-53.566
-53.754
-53.928
-54.188
-54.638
-55.404
-56.631
-58.398
-60.83
-64.138
-68.348
-73.349
-78.845
-84.169
-88.663
-91.893
-93.244
-92.053
-88.287
-82.181
-74.519
-67.059
-61.098
-57.353
-56.878
-60.334
-67.117
-76.014
-84.507
-88.438
-84.524
-69.934
-41.273
3.792
66.055
144.987
237.685
339.209
444.662
548.031
641.973
719.765
775.093
803.214
801.772
769.702
707.62
619.18
510.186
387.606
259.913
134.768
19.139
-79.503
-156.179
-209.146
-238.534
-246.754
-238.203
-217.069
-188.38
-158.597
-132.079
-111.158
-97.174
-89.587
-86.979
-88.236
-91.346
-93.449
-93.005
-89.409
-82.58
-73.447
-62.926
-51.607
-40.45
-30.54
-22.44
-16.41
-12.419
-10.065
-9.04
-9.131
-10.03
-11.452
-13.152
-14.886
-16.47
-17.766
-18.653
-19.041
-18.874
-18.118
-16.773
-14.871
-12.47
-9.653
-6.501
-3.089
0.51
4.237
8.013
11.748
15.355
18.745
21.852
24.637
27.068
29.124
30.802
32.105
33.057
33.69
34.031
34.097
33.909
33.479
32.831
31.989
30.978
29.822
28.543
27.16
25.695
24.165
22.588
20.978
19.348
17.709
16.076
14.466
12.895
11.381
9.941
8.593
7.352
6.235
5.258
4.432
3.77
3.282
2.978
2.866
2.952
3.243
3.743
4.455
5.381
6.52
7.873
9.436
11.206
13.178
15.346
17.704
20.243
22.953
25.825
28.847
32.007
35.292
38.687
42.177
45.747
49.379
53.057
56.762
60.476
64.18
67.857
71.486
75.05
78.529
81.905
85.16
88.276
91.236
94.024
96.624
99.021
101.202
103.153
104.864
106.323
107.522
108.451
109.104
109.474
109.559
109.354
108.859
108.074
107
105.641
104.001
102.087
99.906
97.467
94.78
91.857
88.709
85.352
81.8
78.07
74.177
70.14
65.977
61.707
57.35
52.924
48.449
43.945
39.431
34.926
30.448
26.016
21.647
17.358
13.164
9.082
5.125
1.306
-2.363
-5.871
-9.211
-12.373
-15.352
-18.143
-20.741
-23.143
-25.349
-27.358
-29.171
-30.791
-32.221
-33.465
-34.529
-35.42
-36.146
-36.714
-37.134
-37.415
-37.566
-37.6
-37.526
-37.356
-37.101
-36.771
-36.38
-35.937
-35.455
-34.943
-34.413
-33.873
-33.333
-32.802
-32.287
-31.796
-31.334
-30.906
-30.518
-30.174
-29.875
-29.626
-29.426
-29.277
-29.179
-29.131
-29.132
-29.18
-29.272
-29.406
-29.578
-29.784
-30.02
-30.281
-30.563
-30.861
-31.168
-31.478
-31.787
-32.088
-32.376
-32.643
-32.884
-33.093
-33.265
-33.396
-33.479
-33.511
-33.489
-33.408
-33.267
-33.063
-32.795
-32.463
-32.065
-31.602
-31.075
-30.485
-29.834
-29.123
-28.356
-27.535
-26.662
-25.742
-24.777
-23.771
-22.728
-21.653
-20.55
-19.423
-18.278
-17.119
-15.951
-14.78
-13.612
-12.451
-11.302
-10.172
-9.065
-7.987
-6.941
-5.932
-4.963
-4.038
-3.158
-2.328
-1.547
-0.817
-0.14
0.486
1.059
1.581
2.051
2.471
2.842
3.166
3.443
3.675
3.864
4.011
4.119
4.189
4.222
4.222
4.189
4.126
4.035
3.919
3.779
3.618
3.438
3.241
3.028
2.8
2.559
2.304
2.036
1.755
1.459
1.148
0.819
0.47
0.099
-0.297
-0.722
-1.178
-1.67
-2.201
-2.775
-3.396
-4.066
-4.788
-5.566
-6.403
-7.299
-8.257
-9.28
-10.367
-11.52
-12.739
-14.023
-15.372
-16.784
-18.258
-19.791
-21.378
-23.016
-24.7
-26.424
-28.183
-29.967
-31.77
-33.582
-35.393
-37.193
-38.97
-40.712
-42.404
-44.034
-45.587
-47.05
-48.409
-49.65
-50.758
-51.719
-52.522
-53.153
-53.601
-53.853
-53.899
-53.728
-53.334
-52.709
-51.848
-50.745
-49.397
-47.804
-45.964
-43.88
-41.556
-38.994
-36.201
-33.185
-29.956
-26.526
-22.909
-19.12
-15.177
-11.101
-6.916
-2.646
1.683
6.046
10.414
14.759
19.053
23.271
27.387
31.376
35.211
38.866
42.316
45.535
48.499
51.184
53.568
55.631
57.357
58.741
59.773
60.443
60.74
60.643
60.145
59.241
57.928
56.208
54.091
51.598
48.773
45.682
42.384
38.938
35.393
31.785
28.17
24.612
21.173
17.929
14.926
12.194
9.781
7.724
6.026
4.655
3.501
2.411
1.259
-0.053
-1.599
-3.45
-5.733
-8.593
-12.166
-16.578
-21.844
-27.99
-35.125
-43.197
-51.987
-61.057
-69.64
-76.966
-82.515
-85.852
-86.612
-84.825
-80.707
-74.846
-68.407
-62.482
-57.935
-55.159
-53.873
-53.003
-51.008
-46.005
-35.542
-16.956
12.44
54.383
109.248
175.839
251.645
333.785
418.448
500.375
573.43
631.853
670.817
687.343
680.046
647.652
590.301
510.868
414.222
306.423
194.122
83.087
-21.443
-113.399
-187.692
-241.876
-275.669
-290.695
-289.963
-276.532
-253.876
-226.882
-200.293
-177.167
-159.133
-146.465
-138.502
-134.568
-133.716
-134.064
-133.619
-131.3
-126.776
-120.4
-112.908
-104.836
-96.641
-89.036
-82.776
-78.259
-75.564
-74.48
-74.602
-75.625
-77.32
-79.446
-81.734
-83.935
-85.836
-87.282
-88.215
-88.6
-88.407
-87.62
-86.231
-84.271
-81.806
-78.926
-75.713
-72.242
-68.582
-64.792
-60.943
-57.114
-53.381
-49.813
-46.457
-43.34
-40.478
-37.886
-35.567
-33.513
-31.705
-30.113
-28.713
-27.487
-26.421
-25.5
-24.705
-24.016
-23.413
-22.877
-22.391
-21.941
-21.511
-21.088
-20.659
-20.214
-19.744
-19.243
-18.701
-18.107
-17.451
-16.723
-15.913
-15.012
-14.012
-12.906
-11.689
-10.355
-8.904
-7.332
-5.641
-3.829
-1.898
0.149
2.312
4.585
6.965
9.447
12.026
14.693
17.442
20.264
23.15
26.091
29.077
32.096
35.139
38.193
41.248
44.293
47.315
50.304
53.248
56.136
58.958
61.702
64.36
66.92
69.376
71.719
73.941
76.038
78.002
79.829
81.513
83.052
84.442
85.679
86.761
87.686
88.455
89.065
89.517
89.814
89.954
89.942
89.78
89.47
89.015
88.421
87.69
86.829
85.841
84.732
83.509
82.177
80.742
79.21
77.588
75.881
74.096
72.239
70.315
68.331
66.292
64.204
62.073
59.905
57.706
55.479
53.231
50.966
48.689
46.405
44.116
41.828
39.543
37.266
35
32.748
30.513
28.299
26.107
23.94
21.801
19.691
17.613
15.568
13.558
11.586
9.654
7.762
5.915
4.113
2.359
0.654
-0.999
-2.6
-4.146
-5.636
-7.068
-8.44
-9.751
-10.999
-12.182
-13.298
-14.346
-15.324
-16.231
-17.066
-17.828
-18.516
-19.129
-19.668
-20.131
-20.518
-20.829
-21.065
-21.225
-21.312
-21.325
-21.267
-21.14
-20.946
-20.688
-20.369
-19.993
-19.561
-19.079
-18.549
-17.976
-17.363
-16.715
-16.037
-15.333
-14.608
-13.867
-13.116
-12.359
-11.601
-10.847
-10.101
-9.369
-8.654
-7.962
-7.295
-6.659
-6.057
-5.492
-4.969
-4.491
-4.059
-3.677
-3.346
-3.066
-2.84
-2.667
-2.548
-2.483
-2.471
-2.512
-2.604
-2.746
-2.937
-3.174
-3.455
-3.777
-4.138
-4.533
-4.961
-5.417
-5.898
-6.4
-6.921
-7.457
-8.004
-8.56
-9.121
-9.684
-10.246
-10.802
-11.351
-11.889
-12.414
-12.924
-13.416
-13.888
-14.338
-14.767
-15.172
-15.552
-15.907
-16.236
-16.539
-16.816
-17.068
-17.295
-17.498
-17.679
-17.838
-17.979
-18.102
-18.21
-18.306
-18.39
-18.465
-18.534
-18.597
-18.658
-18.717
-18.778
-18.841
-18.909
-18.983
-19.067
-19.16
-19.266
-19.386
-19.521
-19.673
-19.844
-20.035
-20.247
-20.481
-20.741
-21.025
-21.337
-21.677
-22.047
-22.446
-22.876
-23.337
-23.829
-24.352
-24.907
-25.492
-26.109
-26.756
-27.433
-28.142
-28.881
-29.652
-30.455
-31.289
-32.155
-33.052
-33.981
-34.942
-35.933
-36.955
-38.007
-39.088
-40.197
-41.332
-42.492
-43.673
-44.874
-46.089
-47.317
-48.552
-49.789
-51.025
-52.253
-53.469
-54.668
-55.844
-56.992
-58.107
-59.182
-60.211
-61.189
-62.108
-62.962
-63.742
-64.442
-65.054
-65.572
-65.989
-66.296
-66.488
-66.558
-66.5
-66.308
-65.977
-65.503
-64.881
-64.109
-63.185
-62.11
-60.885
-59.511
-57.992
-56.333
-54.54
-52.62
-50.58
-48.43
-46.179
-43.837
-41.417
-38.93
-36.39
-33.811
-31.211
-28.609
-26.026
-23.481
-20.996
-18.593
-16.294
-14.118
-12.087
-10.214
-8.517
-7.011
-5.713
-4.644
-3.818
-3.25
-2.952
-2.933
-3.202
-3.766
-4.625
-5.77
-7.196
-8.904
-10.899
-13.197
-15.806
-18.725
-21.948
-25.458
-29.234
-33.249
-37.458
-41.795
-46.197
-50.603
-54.963
-59.242
-63.387
-67.332
-71.002
-74.306
-77.176
-79.568
-81.448
-82.811
-83.676
-84.087
-84.13
-83.924
-83.592
-83.28
-83.126
-83.256
-83.832
-84.987
-86.915
-89.883
-93.96
-99.037
-104.844
-110.86
-116.586
-121.709
-125.681
-127.745
-127.692
-125.73
-122.579
-119.66
-117.959
-117.77
-119.669
-124.343
-131.439
-139.768
-147.008
-149.522
-144.488
-130.109
-104.016
-63.775
-8.363
62.042
145.199
236.765
332.938
430.012
522.399
603.703
668.14
710.397
727.473
718.402
681.817
617.975
530.442
424.607
307.109
185.724
66.906
-43.372
-138.017
-212.301
-264.634
-295.182
-306.371
-302.215
-286.301
-263.078
-238.435
-216.35
-198.948
-187.383
-181.053
-178.701
-179.413
-181.479
-182.453
-181.038
-176.786
-169.719
-160.731
-150.699
-140.207
-130.155
-121.563
-114.982
-110.653
-108.589
-108.496
-110.104
-113.189
-117.39
-122.286
-127.533
-132.833
-137.946
-142.706
-146.96
-150.565
-153.436
-155.538
-156.844
-157.359
-157.075
-155.969
-154.065
-151.433
-148.176
-144.439
-140.357
-136.042
-131.615
-127.19
-122.855
-118.674
-114.682
-110.877
-107.263
-103.847
-100.641
-97.669
-94.941
-92.446
-90.164
-88.061
-86.101
-84.263
-82.516
-80.828
-79.174
-77.54
-75.921
-74.328
-72.767
-71.235
-69.727
-68.235
-66.75
-65.269
-63.785
-62.295
-60.794
-59.277
-57.741
-56.187
-54.613
-53.015
-51.389
-49.725
-48.017
-46.261
-44.451
-42.584
-40.655
-38.662
-36.602
-34.476
-32.284
-30.025
-27.698
-25.303
-22.841
-20.312
-17.718
-15.061
-12.342
-9.565
-6.733
-3.85
-0.922
2.047
5.051
8.083
11.137
14.205
17.281
20.358
23.428
26.484
29.519
32.525
35.494
38.419
41.291
44.102
46.845
49.51
52.09
54.579
56.967
59.249
61.416
63.463
65.384
67.171
68.82
70.327
71.686
72.894
73.949
74.848
75.592
76.18
76.613
76.893
77.022
77.005
76.846
76.549
76.12
75.566
74.894
74.111
73.225
72.246
71.183
70.046
68.844
67.588
66.29
64.96
63.609
62.248
60.888
59.541
58.217
56.926
55.679
54.485
53.353
52.292
51.31
50.412
49.604
48.892
48.279
47.767
47.358
47.052
46.85
46.75
46.75
46.847
47.038
47.318
47.682
48.125
48.639
49.219
49.857
50.545
51.276
52.041
52.831
53.639
54.455
55.272
56.08
56.871
57.637
58.37
59.062
59.707
60.297
60.828
61.294
61.692
62.019
62.272
62.451
62.556
62.586
62.543
62.429
62.247
62
61.692
61.328
60.913
60.451
59.949
59.413
58.849
58.262
57.659
57.045
56.426
55.808
55.196
54.596
54.014
53.456
52.925
52.426
51.965
51.543
51.166
50.833
50.548
50.31
50.12
49.977
49.881
49.829
49.819
49.848
49.912
50.008
50.13
50.274
50.434
50.605
50.781
50.956
51.126
51.285
51.428
51.552
51.652
51.724
51.765
51.77
51.737
51.662
51.543
51.376
51.16
50.893
50.575
50.205
49.783
49.308
48.783
48.208
47.584
46.912
46.196
45.437
44.638
43.804
42.937
42.042
41.124
40.188
39.236
38.275
37.307
36.336
35.366
34.399
33.438
32.486
31.546
30.619
29.707
28.813
27.937
27.081
26.247
25.433
24.641
23.87
23.12
22.391
21.683
20.996
20.329
19.681
19.053
18.443
17.851
17.274
16.71
16.158
15.615
15.08
14.549
14.02
13.493
12.963
12.431
11.895
11.352
10.802
10.243
9.674
9.093
8.501
7.896
7.278
6.648
6.005
5.35
4.683
4.006
3.318
2.62
1.913
1.197
0.473
-0.257
-0.993
-1.733
-2.474
-3.214
-3.951
-4.68
-5.399
-6.103
-6.788
-7.451
-8.085
-8.687
-9.251
-9.771
-10.241
-10.656
-11.009
-11.295
-11.509
-11.645
-11.698
-11.664
-11.536
-11.312
-10.988
-10.558
-10.019
-9.368
-8.603
-7.72
-6.718
-5.596
-4.352
-2.988
-1.505
0.095
1.809
3.632
5.559
7.583
9.696
11.89
14.152
16.474
18.84
21.236
23.645
26.049
28.432
30.775
33.06
35.269
37.386
39.396
41.284
43.039
44.645
46.087
47.349
48.417
49.276
49.915
50.323
50.489
50.412
50.096
49.543
48.755
47.73
46.454
44.925
43.144
41.115
38.846
36.355
33.671
30.84
27.92
24.964
22.02
19.121
16.287
13.552
10.956
8.549
6.393
4.534
3.006
1.852
1.11
0.775
0.799
1.098
1.541
2.041
2.565
3.058
3.461
3.693
3.63
3.153
2.191
0.627
-1.712
-4.827
-8.589
-12.635
-16.254
-18.819
-19.843
-18.73
-15.07
-9.003
-1.012
7.833
15.852
21.926
25.25
24.823
20.503
13.254
4.804
-1.863
-3.197
3.392
20.48
50.981
96.317
156.482
229.882
312.768
400.946
490.487
576.032
651.141
710.149
748.098
761.941
750.847
713.946
651.162
565.413
461.837
346.567
226.594
107.871
-4.689
-104.924
-187.042
-248.155
-287.606
-306.337
-306.997
-292.094
-263.886
-226.777
-186.148
-145.812
-108.647
-76.923
-51.395
-32.859
-22.623
-20.09
-23.245
-30.595
-40.345
-50.429
-59.974
-68.032
-73.021
-74.544
-73.06
-68.924
-63.214
-57.334
-51.799
-47.052
-43.768
-42.021
-41.684
-42.631
-44.22
-45.718
-46.825
-47.348
-47.169
-46.389
-45.031
-43.109
-40.794
-38.261
-35.616
-32.943
-30.255
-27.538
-24.834
-22.212
-19.748
-17.507
-15.519
-13.793
-12.335
-11.146
-10.225
-9.558
-9.117
-8.882
-8.835
-8.967
-9.274
-9.747
-10.366
-11.11
-11.951
-12.862
-13.823
-14.816
-15.822
-16.829
-17.821
-18.786
-19.716
-20.599
-21.421
-22.167
-22.822
-23.371
-23.801
-24.098
-24.253
-24.256
-24.1
-23.776
-23.282
-22.612
-21.762
-20.73
-19.515
-18.117
-16.537
-14.777
-12.84
-10.731
-8.456
-6.023
-3.439
-0.714
2.142
5.119
8.204
11.385
14.65
17.984
21.374
24.805
28.261
31.728
35.189
38.628
42.028
45.374
48.648
51.835
54.92
57.887
60.722
63.412
65.943
68.304
70.482
72.467
74.25
75.82
77.171
78.296
79.188
79.844
80.259
80.43
80.357
80.039
79.476
78.669
77.62
76.334
74.815
73.067
71.098
68.916
66.528
63.945
61.177
58.235
55.13
51.876
48.484
44.968
41.342
37.618
33.81
29.932
25.997
22.018
18.007
13.978
9.942
5.91
1.894
-2.096
-6.051
-9.96
-13.814
-17.606
-21.327
-24.971
-28.529
-31.996
-35.367
-38.637
-41.801
-44.858
-47.803
-50.636
-53.354
-55.958
-58.448
-60.824
-63.087
-65.24
-67.283
-69.22
-71.053
-72.784
-74.417
-75.953
-77.395
-78.746
-80.007
-81.182
-82.272
-83.28
-84.207
-85.056
-85.829
-86.528
-87.155
-87.712
-88.203
-88.628
-88.992
-89.295
-89.54
-89.73
-89.866
-89.951
-89.987
-89.975
-89.917
-89.814
-89.669
-89.481
-89.252
-88.984
-88.677
-88.333
-87.954
-87.541
-87.096
-86.621
-86.119
-85.593
-85.044
-84.476
-83.891
-83.291
-82.68
-82.06
-81.433
-80.801
-80.166
-79.53
-78.895
-78.261
-77.629
-77
-76.376
-75.756
-75.141
-74.531
-73.928
-73.331
-72.741
-72.16
-71.587
-71.024
-70.471
-69.927
-69.394
-68.872
-68.36
-67.858
-67.366
-66.883
-66.408
-65.942
-65.483
-65.031
-64.586
-64.146
-63.713
-63.286
-62.864
-62.449
-62.042
-61.642
-61.253
-60.874
-60.508
-60.156
-59.82
-59.503
-59.204
-58.927
-58.672
-58.441
-58.234
-58.054
-57.901
-57.777
-57.683
-57.619
-57.588
-57.59
-57.626
-57.697
-57.803
-57.946
-58.126
-58.343
-58.596
-58.887
-59.213
-59.575
-59.971
-60.4
-60.859
-61.347
-61.86
-62.396
-62.951
-63.522
-64.105
-64.697
-65.293
-65.89
-66.485
-67.075
-67.654
-68.221
-68.771
-69.3
-69.806
-70.285
-70.734
-71.149
-71.528
-71.868
-72.165
-72.419
-72.628
-72.788
-72.9
-72.963
-72.974
-72.935
-72.846
-72.706
-72.517
-72.281
-71.999
-71.673
-71.308
-70.905
-70.469
-70.002
-69.507
-68.988
-68.448
-67.89
-67.319
-66.735
-66.144
-65.547
-64.949
-64.35
-63.755
-63.165
-62.581
-62.004
-61.436
-60.877
-60.325
-59.781
-59.243
-58.708
-58.175
-57.641
-57.102
-56.554
-55.993
-55.413
-54.809
-54.172
-53.497
-52.774
-51.996
-51.156
-50.244
-49.254
-48.177
-47.005
-45.731
-44.349
-42.851
-41.23
-39.48
-37.596
-35.573
-33.407
-31.096
-28.638
-26.032
-23.28
-20.383
-17.345
-14.17
-10.864
-7.434
-3.886
-0.232
3.518
7.352
11.254
15.211
19.203
23.212
27.215
31.191
35.117
38.97
42.727
46.362
49.855
53.183
56.327
59.266
61.981
64.45
66.654
68.575
70.196
71.499
72.471
73.097
73.368
73.288
72.852
72.062
70.915
69.398
67.511
65.262
62.653
59.695
56.407
52.812
48.957
44.91
40.732
36.487
32.227
27.989
23.826
19.794
15.954
12.383
9.127
6.213
3.687
1.582
-0.093
-1.361
-2.316
-3.104
-3.842
-4.625
-5.522
-6.593
-7.951
-9.705
-11.978
-14.895
-18.482
-22.806
-28.015
-34.069
-40.781
-47.773
-54.283
-59.572
-63.101
-64.179
-62.267
-57.369
-49.718
-40.173
-30.303
-21.375
-14.587
-11.247
-11.686
-15.145
-20.155
-24.041
-23.28
-14.132
7.311
44.519
99.65
170.343
252.775
345.436
442.964
544.018
646.895
735.827
799.801
826.91
804.02
740.296
646.326
532.394
414.766
296.077
177.783
65.695
-36.855
-122.522
-186.007
-227.626
-249.347
-255.239
-249.532
-235.798
-218.715
-202.845
-191.002
-184.496
-183.066
-185.443
-190.499
-196.962
-202.826
-206.04
-205.4
-200.533
-191.859
-180.27
-166.556
-151.467
-135.927
-120.884
-106.979
-94.523
-83.578
-74.061
-65.911
-59.134
-53.72
-49.575
-46.632
-44.837
-44.099
-44.356
-45.486
-47.296
-49.631
-52.368
-55.369
-58.538
-61.766
-64.895
-67.82
-70.456
-72.687
-74.45
-75.698
-76.384
-76.517
-76.135
-75.278
-74.027
-72.453
-70.604
-68.546
-66.343
-64.061
-61.8
-59.63
-57.597
-55.757
-54.144
-52.779
-51.686
-50.86
-50.273
-49.902
-49.71
-49.659
-49.722
-49.86
-50.029
-50.181
-50.257
-50.212
-50.012
-49.626
-49.027
-48.195
-47.109
-45.761
-44.154
-42.284
-40.149
-37.75
-35.084
-32.152
-28.961
-25.518
-21.834
-17.919
-13.782
-9.433
-4.883
-0.144
4.771
9.85
15.08
20.449
25.938
31.528
37.199
42.928
48.694
54.474
60.245
65.98
71.659
77.257
82.753
88.123
93.346
98.4
103.264
107.919
112.343
116.52
120.431
124.061
127.395
130.42
133.124
135.497
137.529
139.215
140.547
141.522
142.139
142.396
142.296
141.84
141.035
139.887
138.405
136.599
134.481
132.066
129.369
126.405
123.195
119.755
116.107
112.271
108.27
104.124
99.858
95.494
91.056
86.568
82.054
77.537
73.04
68.587
64.199
59.897
55.703
51.636
47.714
43.956
40.376
36.99
33.811
30.853
28.125
25.635
23.392
21.401
19.666
18.188
16.967
16.002
15.291
14.827
14.604
14.616
14.851
15.301
15.953
16.795
17.812
18.992
20.318
21.775
23.347
25.017
26.77
28.589
30.456
32.357
34.275
36.195
38.102
39.98
41.817
43.598
45.311
46.946
48.491
49.937
51.275
52.499
53.602
54.581
55.431
56.151
56.74
57.199
57.528
57.731
57.812
57.774
57.624
57.367
57.011
56.562
56.029
55.421
54.745
54.012
53.23
52.408
51.555
50.682
49.796
48.907
48.022
47.152
46.302
45.481
44.697
43.954
43.26
42.618
42.034
41.511
41.05
40.654
40.323
40.057
39.855
39.716
39.636
39.613
39.643
39.721
39.844
40.005
40.198
40.419
40.66
40.915
41.177
41.439
41.695
41.938
42.162
42.36
42.526
42.653
42.736
42.77
42.748
42.666
42.519
42.304
42.016
41.654
41.216
40.7
40.106
39.434
38.684
37.859
36.959
35.987
34.945
33.837
32.665
31.435
30.15
28.815
27.435
26.015
24.561
23.076
21.568
20.04
18.499
16.949
15.395
13.844
12.3
10.769
9.255
7.765
6.302
4.871
3.475
2.118
0.802
-0.471
-1.698
-2.879
-4.013
-5.097
-6.133
-7.118
-8.053
-8.938
-9.774
-10.561
-11.3
-11.992
-12.639
-13.242
-13.803
-14.323
-14.803
-15.246
-15.653
-16.026
-16.369
-16.684
-16.974
-17.244
-17.498
-17.739
-17.974
-18.204
-18.434
-18.667
-18.906
-19.154
-19.414
-19.689
-19.982
-20.295
-20.633
-20.999
-21.396
-21.828
-22.298
-22.809
-23.364
-23.966
-24.617
-25.321
-26.081
-26.899
-27.779
-28.724
-29.735
-30.813
-31.958
-33.169
-34.444
-35.78
-37.17
-38.608
-40.088
-41.603
-43.148
-44.716
-46.3
-47.895
-49.495
-51.096
-52.689
-54.266
-55.816
-57.325
-58.78
-60.167
-61.469
-62.672
-63.76
-64.72
-65.541
-66.215
-66.73
-67.073
-67.228
-67.173
-66.893
-66.384
-65.636
-64.652
-63.441
-62.02
-60.423
-58.687
-56.837
-54.89
-52.852
-50.712
-48.467
-46.112
-43.638
-41.054
-38.364
-35.569
-32.684
-29.715
-26.649
-23.462
-20.098
-16.486
-12.601
-8.44
-4.019
0.602
5.357
10.165
14.904
19.481
23.818
27.835
31.493
34.748
37.522
39.73
41.253
41.948
41.738
40.572
38.412
35.291
31.262
26.424
20.963
15.037
8.77
2.278
-4.373
-11.121
-17.856
-24.474
-30.85
-36.831
-42.319
-47.232
-51.469
-54.999
-57.827
-60.026
-61.803
-63.338
-64.763
-66.179
-67.596
-69.048
-70.632
-72.424
-74.537
-77.096
-80.117
-83.711
-88.095
-93.243
-98.964
-104.753
-109.62
-112.726
-113.482
-111.208
-105.526
-96.594
-84.91
-71.946
-59.949
-50.726
-45.851
-46.566
-52.816
-63.493
-76.498
-87.925
-93.131
-87.78
-67.426
-28.658
29.787
107.328
201.263
306.518
416.933
525.27
623.101
702.684
757.685
783.703
778.699
742.293
675.777
583.275
471.318
347.389
219.558
95.041
-19.927
-118.862
-196.667
-251.302
-283.164
-294.612
-289.56
-271.929
-245.941
-217.169
-190.632
-169.353
-154.788
-146.824
-144.342
-146.278
-151.256
-157.007
-161.37
-163.188
-162.129
-158.666
-153.636
-147.663
-141.323
-135.394
-130.646
-127.489
-125.992
-125.938
-126.936
-128.691
-130.986
-133.59
-136.253
-138.753
-140.894
-142.521
-143.573
-144.007
-143.784
-142.901
-141.355
-139.172
-136.419
-133.182
-129.543
-125.583
-121.372
-116.969
-112.449
-107.896
-103.396
-99.037
-94.882
-90.972
-87.341
-84.009
-80.992
-78.293
-75.9
-73.788
-71.937
-70.332
-68.96
-67.811
-66.868
-66.108
-65.511
-65.053
-64.715
-64.479
-64.325
-64.236
-64.193
-64.183
-64.191
-64.205
-64.213
-64.196
-64.137
-64.019
-63.825
-63.537
-63.14
-62.616
-61.95
-61.131
-60.145
-58.984
-57.639
-56.102
-54.368
-52.433
-50.295
-47.954
-45.412
-42.673
-39.742
-36.626
-33.335
-29.88
-26.271
-22.522
-18.648
-14.662
-10.582
-6.423
-2.205
2.055
6.338
10.623
14.891
19.12
23.29
27.379
31.366
35.231
38.951
42.508
45.881
49.052
52.003
54.716
57.178
59.372
61.288
62.913
64.239
65.258
65.963
66.351
66.418
66.164
65.588
64.693
63.482
61.958
60.129
58
55.583
52.885
49.919
46.697
43.234
39.544
35.644
31.55
27.281
22.856
18.293
13.612
8.835
3.981
-0.929
-5.875
-10.836
-15.794
-20.729
-25.624
-30.462
-35.225
-39.9
-44.472
-48.928
-53.255
-57.443
-61.481
-65.361
-69.073
-72.612
-75.971
-79.146
-82.135
-84.934
-87.543
-89.963
-92.194
-94.241
-96.105
-97.793
-99.31
-100.662
-101.857
-102.903
-103.809
-104.585
-105.239
-105.782
-106.223
-106.571
-106.835
-107.025
-107.148
-107.213
-107.227
-107.198
-107.133
-107.037
-106.917
-106.777
-106.624
-106.46
-106.29
-106.117
-105.943
-105.77
-105.599
-105.431
-105.265
-105.1
-104.935
-104.768
-104.596
-104.415
-104.222
-104.011
-103.779
-103.52
-103.229
-102.901
-102.531
-102.113
-101.644
-101.12
-100.536
-99.889
-99.176
-98.395
-97.542
-96.618
-95.619
-94.545
-93.396
-92.171
-90.87
-89.494
-88.044
-86.52
-84.925
-83.26
-81.528
-79.731
-77.874
-75.959
-73.991
-71.975
-69.915
-67.817
-65.686
-63.529
-61.351
-59.159
-56.958
-54.755
-52.555
-50.363
-48.185
-46.025
-43.887
-41.777
-39.697
-37.652
-35.643
-33.675
-31.75
-29.871
-28.039
-26.257
-24.527
-22.85
-21.229
-19.664
-18.158
-16.71
-15.321
-13.993
-12.724
-11.515
-10.365
-9.273
-8.236
-7.255
-6.326
-5.448
-4.617
-3.832
-3.09
-2.388
-1.724
-1.095
-0.498
0.068
0.606
1.12
1.61
2.08
2.531
2.968
3.392
3.805
4.212
4.614
5.015
5.418
5.827
6.243
6.67
7.112
7.57
8.047
8.546
9.069
9.616
10.19
10.791
11.421
12.079
12.766
13.482
14.228
15.002
15.804
16.634
17.491
18.374
19.282
20.215
21.169
22.145
23.141
24.155
25.185
26.229
27.284
28.348
29.419
30.493
31.569
32.642
33.712
34.774
35.826
36.867
37.893
38.904
39.896
40.869
41.821
42.751
43.658
44.541
45.399
46.232
47.038
47.818
48.571
49.297
49.994
50.663
51.303
51.912
52.492
53.041
53.558
54.044
54.497
54.918
55.306
55.661
55.982
56.27
56.524
56.743
56.929
57.08
57.197
57.281
57.331
57.348
57.332
57.286
57.209
57.102
56.968
56.809
56.627
56.425
56.207
55.976
55.739
55.501
55.268
55.047
54.844
54.668
54.526
54.427
54.38
54.393
54.476
54.639
54.89
55.24
55.698
56.273
56.973
57.807
58.783
59.906
61.183
62.621
64.222
65.992
67.933
70.047
72.335
74.794
77.422
80.214
83.163
86.261
89.496
92.855
96.323
99.885
103.524
107.219
110.952
114.7
118.441
122.154
125.815
129.399
132.882
136.237
139.438
142.46
145.281
147.876
150.223
152.296
154.073
155.539
156.679
157.479
157.924
157.994
157.677
156.969
155.873
154.398
152.554
150.354
147.824
145.006
141.95
138.71
135.334
131.857
128.316
124.755
121.225
117.788
114.493
111.375
108.454
105.742
103.253
100.994
98.932
96.996
95.09
93.101
90.945
88.561
85.901
82.939
79.627
75.895
71.692
66.963
61.684
55.906
49.641
42.871
35.762
28.634
22.016
16.697
13.396
12.612
14.738
20.04
28.402
39.445
52.366
65.749
78.137
88.339
95.761
100.57
103.789
106.929
111.925
121.614
139.142
167.599
209.13
264.046
330.931
407.378
490.091
574.177
653.756
722.043
772.29
799.919
802.177
777.255
725.205
648.499
551.291
439.98
322.564
205.876
96.293
0.375
-77.538
-135.391
-172.584
-190.973
-194.283
-185.967
-170.247
-152.347
-135.681
-122.192
-113.076
-107.929
-105.631
-105.354
-105.514
-103.873
-99.34
-91.594
-80.775
-67.881
-53.848
-39.309
-25.212
-12.627
-2.224
5.552
10.541
12.969
13.034
10.927
6.944
1.387
-5.403
-13.043
-21.152
-29.36
-37.375
-44.994
-52.041
-58.374
-63.852
-68.322
-71.704
-73.987
-75.176
-75.317
-74.462
-72.656
-70.023
-66.741
-63.013
-59.07
-55.075
-51.123
-47.299
-43.671
-40.297
-37.248
-34.55
-32.192
-30.174
-28.495
-27.156
-26.164
-25.49
-25.076
-24.858
-24.764
-24.744
-24.769
-24.813
-24.852
-24.872
-24.857
-24.806
-24.728
-24.625
-24.487
-24.307
-24.069
-23.769
-23.408
-22.987
-22.506
-21.965
-21.36
-20.69
-19.953
-19.145
-18.258
-17.286
-16.218
-15.047
-13.77
-12.384
-10.886
-9.277
-7.556
-5.723
-3.782
-1.733
0.419
2.673
5.024
7.47
10.005
12.623
15.318
18.083
20.911
23.791
26.716
29.675
32.659
35.656
38.655
41.645
44.614
47.551
50.442
53.276
56.038
58.716
61.296
63.764
66.107
68.311
70.364
72.251
73.962
75.484
76.807
77.922
78.82
79.49
79.928
80.125
80.078
79.782
79.235
78.434
77.378
76.07
74.511
72.704
70.655
68.368
65.85
63.111
60.16
57.007
53.664
50.143
46.46
42.628
38.663
34.583
30.405
26.145
21.824
17.459
13.068
8.67
4.283
-0.077
-4.391
-8.644
-12.821
-16.907
-20.889
-24.754
-28.49
-32.087
-35.534
-38.824
-41.948
-44.9
-47.675
-50.269
-52.679
-54.904
-56.941
-58.792
-60.459
-61.944
-63.251
-64.385
-65.353
-66.161
-66.817
-67.33
-67.71
-67.967
-68.11
-68.151
-68.099
-67.965
-67.759
-67.49
-67.168
-66.803
-66.403
-65.977
-65.532
-65.076
-64.616
-64.16
-63.713
-63.282
-62.871
-62.486
-62.131
-61.81
-61.527
-61.284
-61.085
-60.931
-60.823
-60.763
-60.748
-60.78
-60.856
-60.975
-61.135
-61.332
-61.564
-61.829
-62.122
-62.442
-62.786
-63.151
-63.534
-63.933
-64.346
-64.771
-65.207
-65.65
-66.1
-66.555
-67.013
-67.474
-67.936
-68.397
-68.855
-69.311
-69.761
-70.206
-70.643
-71.072
-71.491
-71.9
-72.3
-72.688
-73.067
-73.436
-73.795
-74.146
-74.488
-74.824
-75.153
-75.476
-75.793
-76.106
-76.413
-76.716
-77.014
-77.307
-77.594
-77.875
-78.15
-78.418
-78.678
-78.93
-79.172
-79.405
-79.627
-79.838
-80.038
-80.226
-80.402
-80.565
-80.715
-80.853
-80.976
-81.085
-81.18
-81.26
-81.324
-81.371
-81.401
-81.414
-81.409
-81.386
-81.344
-81.284
-81.205
-81.108
-80.993
-80.861
-80.712
-80.547
-80.365
-80.17
-79.96
-79.738
-79.505
-79.263
-79.013
-78.756
-78.495
-78.231
-77.965
-77.7
-77.436
-77.174
-76.918
-76.667
-76.423
-76.187
-75.962
-75.746
-75.543
-75.352
-75.174
-75.01
-74.859
-74.721
-74.597
-74.486
-74.389
-74.304
-74.233
-74.174
-74.129
-74.096
-74.074
-74.064
-74.065
-74.074
-74.091
-74.115
-74.144
-74.177
-74.212
-74.248
-74.285
-74.319
-74.351
-74.38
-74.404
-74.421
-74.433
-74.437
-74.434
-74.424
-74.407
-74.383
-74.355
-74.323
-74.287
-74.249
-74.21
-74.17
-74.13
-74.088
-74.046
-74.002
-73.956
-73.909
-73.858
-73.804
-73.744
-73.679
-73.607
-73.526
-73.433
-73.327
-73.205
-73.063
-72.898
-72.706
-72.484
-72.226
-71.928
-71.585
-71.19
-70.738
-70.222
-69.634
-68.967
-68.212
-67.362
-66.41
-65.347
-64.168
-62.864
-61.432
-59.866
-58.162
-56.316
-54.324
-52.184
-49.895
-47.458
-44.871
-42.138
-39.261
-36.245
-33.095
-29.82
-26.427
-22.926
-19.33
-15.652
-11.905
-8.106
-4.271
-0.42
3.431
7.26
11.05
14.781
18.431
21.982
25.41
28.694
31.815
34.75
37.479
39.98
42.234
44.226
45.946
47.385
48.534
49.383
49.916
50.122
49.997
49.543
48.76
47.655
46.242
44.547
42.623
40.52
38.286
35.963
33.58
31.169
28.774
26.445
24.242
22.217
20.404
18.826
17.515
16.492
15.76
15.27
14.901
14.54
14.082
13.457
12.648
11.591
10.187
8.334
5.905
2.801
-0.992
-5.529
-10.933
-17.135
-23.928
-30.886
-37.215
-42.25
-45.516
-46.44
-44.598
-40.032
-33.031
-24.384
-15.513
-7.454
-0.994
2.842
3.796
2.699
0.993
1.055
6.007
18.47
41.039
76.729
127.152
191.946
269.338
355.938
447.122
537.849
622.116
692.813
743.739
770.731
771.268
744.37
690.773
613.085
516.045
406.475
291.778
178.444
72.309
-20.952
-96.857
-153.121
-189.612
-208.321
-212.506
-205.347
-190.249
-171.523
-153.223
-137.927
-126.879
-120.03
-116.547
-115.725
-116.737
-118.054
-118.065
-115.939
-111.547
-105.374
-98.225
-90.68
-83.194
-76.398
-70.987
-67.351
-65.587
-65.528
-66.814
-69.144
-72.297
-76.022
-80.034
-84.067
-87.869
-91.235
-94.066
-96.294
-97.866
-98.76
-98.961
-98.477
-97.365
-95.702
-93.565
-91.033
-88.175
-85.054
-81.748
-78.347
-74.943
-71.626
-68.458
-65.478
-62.712
-60.18
-57.891
-55.848
-54.036
-52.429
-51.009
-49.762
-48.678
-47.751
-46.966
-46.306
-45.753
-45.288
-44.898
-44.569
-44.286
-44.038
-43.811
-43.597
-43.386
-43.173
-42.948
-42.698
-42.412
-42.076
-41.677
-41.205
-40.646
-39.989
-39.222
-38.337
-37.325
-36.178
-34.89
-33.453
-31.862
-30.111
-28.195
-26.111
-23.856
-21.426
-18.822
-16.044
-13.094
-9.974
-6.691
-3.249
0.342
4.075
7.939
11.923
16.014
20.199
24.464
28.794
33.174
37.586
42.015
46.443
50.854
55.229
59.552
63.806
67.974
72.038
75.984
79.793
83.45
86.94
90.247
93.356
96.253
98.924
101.357
103.542
105.466
107.123
108.505
109.606
110.423
110.951
111.191
111.143
110.809
110.193
109.298
108.132
106.701
105.015
103.082
100.913
98.52
95.915
93.11
90.118
86.954
83.632
80.167
76.575
72.871
69.072
65.193
61.251
57.263
53.245
49.212
45.18
41.164
37.178
33.235
29.347
25.527
21.783
18.126
14.564
11.103
7.75
4.509
1.384
-1.621
-4.505
-7.265
-9.902
-12.415
-14.805
-17.074
-19.221
-21.251
-23.166
-24.968
-26.662
-28.253
-29.744
-31.14
-32.449
-33.674
-34.823
-35.902
-36.915
-37.871
-38.774
-39.63
-40.445
-41.224
-41.972
-42.692
-43.388
-44.063
-44.72
-45.361
-45.988
-46.602
-47.204
-47.795
-48.377
-48.949
-49.512
-50.067
-50.614
-51.154
-51.686
-52.209
-52.725
-53.232
-53.729
-54.216
-54.692
-55.154
-55.602
-56.034
-56.447
-56.841
-57.213
-57.561
-57.885
-58.182
-58.452
-58.693
-58.906
-59.09
-59.246
-59.374
-59.476
-59.552
-59.603
-59.63
-59.634
-59.617
-59.579
-59.52
-59.442
-59.344
-59.229
-59.095
-58.945
-58.779
-58.597
-58.402
-58.193
-57.972
-57.741
-57.501
-57.253
-57.001
-56.744
-56.487
-56.23
-55.975
-55.724
-55.478
-55.238
-55.004
-54.777
-54.557
-54.343
-54.136
-53.935
-53.741
-53.553
-53.372
-53.199
-53.035
-52.881
-52.737
-52.606
-52.488
-52.384
-52.298
-52.229
-52.181
-52.154
-52.15
-52.17
-52.217
-52.29
-52.39
-52.519
-52.675
-52.86
-53.073
-53.314
-53.585
-53.884
-54.215
-54.576
-54.97
-55.397
-55.858
-56.353
-56.882
-57.445
-58.039
-58.665
-59.319
-60
-60.704
-61.429
-62.17
-62.923
-63.685
-64.449
-65.211
-65.965
-66.706
-67.427
-68.124
-68.79
-69.421
-70.014
-70.562
-71.063
-71.513
-71.908
-72.243
-72.515
-72.72
-72.853
-72.911
-72.89
-72.787
-72.6
-72.327
-71.967
-71.519
-70.983
-70.361
-69.654
-68.864
-67.992
-67.044
-66.023
-64.934
-63.782
-62.574
-61.316
-60.016
-58.679
-57.312
-55.923
-54.515
-53.095
-51.667
-50.235
-48.803
-47.376
-45.956
-44.548
-43.154
-41.778
-40.421
-39.086
-37.774
-36.485
-35.219
-33.973
-32.746
-31.536
-30.338
-29.148
-27.963
-26.775
-25.58
-24.37
-23.136
-21.871
-20.565
-19.209
-17.794
-16.31
-14.749
-13.103
-11.365
-9.53
-7.593
-5.548
-3.394
-1.127
1.254
3.749
6.357
9.078
11.907
14.84
17.87
20.991
24.192
27.463
30.79
34.159
37.554
40.959
44.354
47.721
51.039
54.287
57.444
60.491
63.404
66.163
68.745
71.127
73.288
75.205
76.858
78.229
79.302
80.064
80.508
80.63
80.425
79.889
79.01
77.78
76.197
74.263
71.986
69.378
66.459
63.263
59.842
56.243
52.517
48.705
44.835
40.944
37.07
33.265
29.595
26.119
22.888
19.946
17.327
15.062
13.152
11.542
10.139
8.852
7.606
6.375
5.134
3.807
2.31
0.536
-1.638
-4.276
-7.491
-11.47
-16.221
-21.588
-27.227
-32.48
-36.723
-39.584
-40.532
-38.948
-34.761
-28.275
-20.314
-12.39
-5.579
-0.266
2.879
3.087
0.641
-3.368
-6.699
-5.87
1.728
17.732
44.415
84.259
138.394
206.696
286.942
374.836
466.749
559.203
646.865
723.395
782.909
820.207
832.417
818.789
778.152
710.495
619.029
509.19
387.819
262.591
139.969
25.653
-73.654
-152.474
-208.425
-241.522
-253.985
-249.519
-231.683
-204.418
-173.108
-142.747
-116.469
-95.863
-81.035
-71.209
-65.666
-63.389
-62.433
-60.791
-57.411
-52.054
-45.159
-37.514
-29.703
-22.207
-15.794
-11.301
-9.127
-9.29
-11.461
-15.06
-19.645
-24.906
-30.495
-36.068
-41.317
-45.974
-49.906
-53.101
-55.529
-57.158
-57.935
-57.778
-56.697
-54.784
-52.166
-49.015
-45.477
-41.66
-37.688
-33.687
-29.776
-26.062
-22.604
-19.413
-16.506
-13.902
-11.632
-9.743
-8.241
-7.1
-6.284
-5.743
-5.436
-5.337
-5.407
-5.598
-5.872
-6.198
-6.557
-6.951
-7.369
-7.794
-8.207
-8.583
-8.906
-9.165
-9.345
-9.433
-9.416
-9.28
-9.013
-8.611
-8.063
-7.359
-6.487
-5.436
-4.194
-2.757
-1.118
0.724
2.774
5.031
7.492
10.154
13.01
16.057
19.286
22.692
26.265
29.995
33.874
37.888
42.026
46.274
50.619
55.044
59.536
64.077
68.652
73.244
77.836
82.413
86.958
91.453
95.883
100.231
104.481
108.618
112.626
116.491
120.2
123.74
127.097
130.262
133.223
135.972
138.498
140.795
142.855
144.67
146.236
147.546
148.597
149.386
149.91
150.169
150.162
149.891
149.356
148.56
147.508
146.203
144.65
142.856
140.827
138.573
136.101
133.423
130.548
127.488
124.255
120.862
117.322
113.647
109.851
105.948
101.951
97.876
93.735
89.544
85.317
81.067
76.81
72.558
68.325
64.124
59.967
55.866
51.831
47.873
44.003
40.231
36.564
33.012
29.581
26.278
23.108
20.076
17.186
14.439
11.838
9.384
7.076
4.915
2.899
1.025
-0.708
-2.303
-3.765
-5.097
-6.305
-7.394
-8.37
-9.238
-10.005
-10.676
-11.258
-11.758
-12.181
-12.534
-12.824
-13.056
-13.237
-13.374
-13.473
-13.541
-13.582
-13.603
-13.609
-13.605
-13.595
-13.583
-13.573
-13.569
-13.574
-13.591
-13.622
-13.67
-13.736
-13.821
-13.928
-14.057
-14.208
-14.381
-14.578
-14.797
-15.039
-15.305
-15.594
-15.905
-16.239
-16.595
-16.973
-17.371
-17.789
-18.226
-18.68
-19.15
-19.635
-20.133
-20.643
-21.164
-21.693
-22.229
-22.772
-23.318
-23.866
-24.416
-24.964
-25.511
-26.054
-26.593
-27.127
-27.654
-28.174
-28.686
-29.189
-29.682
-30.164
-30.635
-31.093
-31.537
-31.966
-32.379
-32.776
-33.155
-33.516
-33.859
-34.182
-34.486
-34.769
-35.033
-35.277
-35.502
-35.707
-35.893
-36.062
-36.213
-36.348
-36.467
-36.572
-36.664
-36.743
-36.81
-36.866
-36.912
-36.947
-36.973
-36.99
-36.997
-36.996
-36.988
-36.971
-36.947
-36.916
-36.879
-36.836
-36.788
-36.734
-36.675
-36.611
-36.544
-36.472
-36.397
-36.318
-36.236
-36.152
-36.064
-35.972
-35.877
-35.776
-35.671
-35.559
-35.44
-35.314
-35.18
-35.038
-34.887
-34.728
-34.561
-34.386
-34.204
-34.015
-33.82
-33.62
-33.414
-33.204
-32.99
-32.775
-32.559
-32.344
-32.132
-31.923
-31.719
-31.52
-31.327
-31.14
-30.96
-30.785
-30.616
-30.455
-30.301
-30.156
-30.021
-29.897
-29.787
-29.691
-29.61
-29.544
-29.494
-29.459
-29.44
-29.437
-29.449
-29.478
-29.522
-29.584
-29.663
-29.761
-29.876
-30.006
-30.15
-30.304
-30.464
-30.625
-30.784
-30.938
-31.084
-31.226
-31.364
-31.503
-31.646
-31.796
-31.954
-32.121
-32.293
-32.466
-32.632
-32.787
-32.928
-33.056
-33.181
-33.306
-33.431
-33.553
-33.661
-33.736
-33.752
-33.68
-33.486
-33.149
-32.653
-32
-31.208
-30.294
-29.283
-28.187
-27.003
-25.728
-24.362
-22.906
-21.374
-19.807
-18.263
-16.814
-15.551
-14.544
-13.847
-13.49
-13.463
-13.731
-14.235
-14.92
-15.758
-16.717
-17.776
-18.911
-20.081
-21.203
-22.173
-22.857
-23.094
-22.748
-21.693
-19.83
-17.121
-13.586
-9.296
-4.333
1.224
7.294
13.8
20.658
27.753
34.933
42.032
48.838
55.116
60.65
65.212
68.6
70.681
71.386
70.707
68.678
65.351
60.795
55.109
48.401
40.808
32.488
23.609
14.384
5.055
-4.15
-12.977
-21.193
-28.638
-35.18
-40.74
-45.317
-48.924
-51.62
-53.514
-54.676
-55.199
-55.219
-54.861
-54.314
-53.798
-53.469
-53.573
-54.413
-56.042
-58.383
-61.18
-63.856
-65.986
-67.353
-67.481
-65.837
-62.387
-57.388
-51.736
-46.968
-43.836
-42.412
-42.952
-45.717
-50.486
-56.48
-61.466
-62.063
-56.219
-42.866
-20.776
11.289
54.64
109.891
175.245
247.086
322.767
399.849
474.942
543.978
601.517
642.102
662.739
662.129
638.596
591.407
521.866
433.053
330.73
221.983
112.732
8.452
-84.701
-161.506
-218.822
-255.543
-273.194
-275.007
-264.208
-244.46
-220.511
-196.914
-176.842
-162.073
-152.863
-148.445
-147.968
-150.334
-153.724
-156.226
-156.732
-154.875
-150.917
-145.518
-139.211
-132.43
-125.823
-120.074
-115.485
-112.07
-109.611
-107.704
-106.073
-104.537
-102.877
-100.866
-98.331
-95.142
-91.267
-86.794
-81.793
-76.339
-70.541
-64.516
-58.464
-52.607
-47.133
-42.207
-37.936
-34.388
-31.626
-29.702
-28.625
-28.374
-28.883
-30.028
-31.715
-33.854
-36.34
-39.065
-41.871
-44.597
-47.123
-49.355
-51.235
-52.726
-53.79
-54.401
-54.58
-54.369
-53.837
-53.08
-52.155
-51.1
-49.957
-48.763
-47.567
-46.418
-45.334
-44.313
-43.352
-42.444
-41.585
-40.771
-39.969
-39.139
-38.235
-37.204
-36.013
-34.644
-33.078
-31.302
-29.307
-27.089
-24.654
-22.018
-19.192
-16.184
-13
-9.646
-6.136
-2.487
1.285
5.163
9.131
13.176
17.283
21.437
25.627
29.843
34.074
38.311
42.545
46.76
50.945
55.085
59.164
63.169
67.086
70.899
74.597
78.167
81.6
84.885
88.013
90.976
93.765
96.372
98.789
101.009
103.024
104.829
106.417
107.781
108.919
109.824
110.493
110.923
111.111
111.056
110.757
110.215
109.429
108.404
107.143
105.651
103.935
102.002
99.861
97.521
94.993
92.288
89.418
86.394
83.228
79.932
76.519
73.002
69.394
65.708
61.957
58.155
54.315
50.451
46.577
42.707
38.853
35.029
31.247
27.521
23.862
20.282
16.791
13.398
10.114
6.944
3.896
0.976
-1.814
-4.469
-6.989
-9.372
-11.618
-13.73
-15.708
-17.556
-19.276
-20.872
-22.348
-23.708
-24.958
-26.101
-27.144
-28.092
-28.951
-29.727
-30.427
-31.055
-31.62
-32.128
-32.586
-33
-33.377
-33.724
-34.048
-34.355
-34.652
-34.943
-35.235
-35.531
-35.836
-36.152
-36.482
-36.828
-37.19
-37.571
-37.969
-38.384
-38.817
-39.266
-39.731
-40.211
-40.703
-41.208
-41.724
-42.249
-42.782
-43.322
-43.866
-44.415
-44.965
-45.516
-46.065
-46.611
-47.15
-47.681
-48.199
-48.701
-49.185
-49.646
-50.08
-50.486
-50.86
-51.199
-51.501
-51.764
-51.988
-52.17
-52.311
-52.409
-52.466
-52.48
-52.453
-52.385
-52.278
-52.133
-51.951
-51.735
-51.485
-51.204
-50.894
-50.555
-50.191
-49.803
-49.394
-48.968
-48.527
-48.078
-47.623
-47.169
-46.721
-46.287
-45.871
-45.48
-45.121
-44.799
-44.521
-44.292
-44.118
-44.003
-43.952
-43.969
-44.059
-44.222
-44.463
-44.782
-45.181
-45.66
-46.218
-46.856
-47.572
-48.366
-49.236
-50.181
-51.198
-52.285
-53.439
-54.657
-55.932
-57.262
-58.638
-60.054
-61.503
-62.978
-64.47
-65.97
-67.472
-68.966
-70.445
-71.901
-73.326
-74.713
-76.053
-77.342
-78.573
-79.741
-80.842
-81.871
-82.828
-83.709
-84.515
-85.243
-85.893
-86.465
-86.959
-87.374
-87.712
-87.974
-88.16
-88.274
-88.318
-88.298
-88.217
-88.081
-87.895
-87.665
-87.396
-87.093
-86.763
-86.409
-86.036
-85.649
-85.252
-84.852
-84.451
-84.052
-83.659
-83.274
-82.898
-82.529
-82.168
-81.811
-81.456
-81.101
-80.743
-80.381
-80.011
-79.632
-79.242
-78.839
-78.42
-77.981
-77.518
-77.025
-76.496
-75.928
-75.314
-74.651
-73.934
-73.159
-72.326
-71.435
-70.486
-69.478
-68.408
-67.278
-66.086
-64.832
-63.515
-62.133
-60.688
-59.184
-57.63
-56.035
-54.41
-52.765
-51.112
-49.464
-47.831
-46.222
-44.641
-43.086
-41.562
-40.076
-38.641
-37.276
-35.994
-34.799
-33.7
-32.703
-31.802
-30.984
-30.218
-29.456
-28.664
-27.827
-26.936
-26.004
-25.038
-24.045
-23.044
-22.05
-21.078
-20.148
-19.256
-18.397
-17.6
-16.91
-16.407
-16.215
-16.415
-17.062
-18.205
-19.855
-22.003
-24.616
-27.598
-30.83
-34.211
-37.642
-41.055
-44.394
-47.534
-50.341
-52.658
-54.281
-55.058
-54.857
-53.524
-50.964
-47.137
-42.065
-35.88
-28.774
-20.901
-12.422
-3.487
5.752
15.065
24.23
33.047
41.287
48.756
55.254
60.53
64.393
66.735
67.514
66.799
64.712
61.335
56.77
51.149
44.626
37.418
29.715
21.657
13.397
5.087
-3.081
-10.87
-18.09
-24.624
-30.403
-35.402
-39.601
-42.953
-45.428
-47.054
-47.896
-48.04
-47.552
-46.492
-44.926
-42.96
-40.754
-38.435
-36.112
-33.895
-31.869
-30.152
-28.901
-28.229
-28.31
-29.369
-31.391
-34.199
-37.464
-40.547
-42.907
-44.242
-43.967
-41.375
-36.408
-29.437
-21.47
-14.281
-9.016
-5.987
-5.83
-9.323
-16.16
-25.148
-33.675
-37.641
-33.937
-20.614
4.741
44.746
100.848
173.137
259.365
354.917
455.415
556.615
652.769
737.07
802.849
844.375
858.179
843.087
798.687
725.787
627.961
511.256
383.116
251.422
123.292
4.853
-98.065
-180.372
-239.616
-275.974
-291.091
-287.947
-269.933
-240.229
-202.981
-163.211
-124.502
-89.235
-59.597
-36.438
-20.257
-12.117
-11.608
-16.834
-26.423
-38.746
-51.593
-63.934
-74.811
-82.56
-86.696
-87.644
-85.699
-81.927
-77.832
-73.979
-70.839
-69.131
-68.924
-70.082
-72.48
-75.444
-78.197
-80.416
-81.898
-82.521
-82.394
-81.542
-79.978
-77.882
-75.435
-72.754
-69.926
-66.966
-63.862
-60.662
-57.442
-54.282
-51.254
-48.39
-45.704
-43.204
-40.895
-38.784
-36.859
-35.101
-33.495
-32.031
-30.706
-29.525
-28.483
-27.568
-26.764
-26.049
-25.401
-24.805
-24.249
-23.718
-23.205
-22.699
-22.194
-21.682
-21.156
-20.603
-20.013
-19.371
-18.664
-17.881
-17.01
-16.042
-14.967
-13.779
-12.472
-11.04
-9.477
-7.78
-5.944
-3.967
-1.846
0.419
2.83
5.384
8.08
10.915
13.885
16.984
20.208
23.549
27
30.552
34.198
37.927
41.729
45.595
49.511
53.466
57.447
61.44
65.432
69.408
73.353
77.253
81.092
84.858
88.535
92.111
95.57
98.901
102.09
105.125
107.995
110.689
113.197
115.509
117.616
119.512
121.188
122.639
123.86
124.845
125.591
126.094
126.353
126.366
126.134
125.657
124.938
123.98
122.788
121.369
119.728
117.875
115.818
113.569
111.139
108.539
105.783
102.883
99.854
96.709
93.464
90.133
86.73
83.269
79.765
76.231
72.681
69.129
65.586
62.067
58.584
55.148
51.771
48.466
45.243
42.111
39.082
36.163
33.364
30.69
28.149
25.746
23.484
21.368
19.399
17.578
15.907
14.384
13.008
11.777
10.687
9.735
8.918
8.231
7.669
7.229
6.905
6.693
6.588
6.586
6.68
6.867
7.141
7.497
7.929
8.432
9
9.627
10.307
11.035
11.805
12.611
13.448
14.31
15.192
16.09
16.999
17.916
18.835
19.755
20.673
21.585
22.49
23.385
24.269
25.14
25.996
26.835
27.655
28.454
29.231
29.983
30.708
31.405
32.072
32.707
33.307
33.872
34.4
34.891
35.343
35.755
36.128
36.461
36.756
37.011
37.228
37.407
37.549
37.655
37.725
37.76
37.761
37.729
37.664
37.566
37.438
37.279
37.09
36.873
36.628
36.357
36.06
35.739
35.395
35.029
34.645
34.242
33.824
33.391
32.946
32.49
32.025
31.551
31.071
30.585
30.094
29.598
29.098
28.595
28.089
27.581
27.07
26.558
26.044
25.529
25.012
24.494
23.976
23.457
22.938
22.42
21.902
21.386
20.873
20.362
19.855
19.352
18.853
18.359
17.87
17.385
16.906
16.432
15.964
15.501
15.045
14.596
14.153
13.718
13.29
12.87
12.458
12.054
11.658
11.27
10.891
10.521
10.159
9.806
9.462
9.127
8.8
8.481
8.168
7.861
7.559
7.262
6.967
6.675
6.384
6.093
5.801
5.509
5.214
4.917
4.616
4.311
4.001
3.685
3.362
3.034
2.698
2.356
2.006
1.649
1.284
0.912
0.532
0.144
-0.253
-0.659
-1.073
-1.496
-1.928
-2.368
-2.816
-3.272
-3.735
-4.205
-4.682
-5.165
-5.655
-6.151
-6.654
-7.163
-7.679
-8.2
-8.729
-9.264
-9.805
-10.354
-10.91
-11.474
-12.047
-12.627
-13.217
-13.815
-14.421
-15.034
-15.653
-16.276
-16.903
-17.532
-18.159
-18.784
-19.403
-20.014
-20.614
-21.199
-21.766
-22.31
-22.826
-23.311
-23.757
-24.16
-24.513
-24.811
-25.047
-25.216
-25.31
-25.323
-25.248
-25.078
-24.807
-24.427
-23.933
-23.318
-22.576
-21.703
-20.694
-19.548
-18.262
-16.833
-15.262
-13.548
-11.694
-9.701
-7.573
-5.313
-2.928
-0.426
2.185
4.895
7.691
10.561
13.489
16.459
19.455
22.458
25.451
28.413
31.325
34.166
36.918
39.561
42.075
44.439
46.633
48.638
50.436
52.01
53.342
54.414
55.208
55.71
55.915
55.817
55.41
54.686
53.632
52.242
50.524
48.484
46.131
43.473
40.527
37.32
33.908
30.35
26.7
23.005
19.299
15.621
12.022
8.558
5.288
2.256
-0.523
-3.034
-5.245
-7.135
-8.71
-10.01
-11.147
-12.258
-13.445
-14.798
-16.378
-18.224
-20.413
-23.042
-26.204
-29.978
-34.384
-39.385
-45.006
-51.342
-58.295
-65.548
-72.493
-78.224
-81.962
-83.236
-81.697
-76.994
-69.148
-58.652
-46.564
-34.745
-25.025
-18.444
-15.203
-14.937
-16.506
-17.909
-16.382
-7.955
11.631
45.457
94.699
158.93
236.271
323.173
414.618
503.829
582.828
644.191
682.557
694.42
677.634
632.189
560.419
467.009
358.923
244.023
129.252
20.84
-75.001
-153.353
-211.553
-249.068
-267.655
-270.565
-261.057
-242.638
-219.842
-197.081
-177.313
-162.157
-151.862
-145.714
-143.026
-142.96
-143.88
-143.925
-142.036
-137.889
-131.796
-124.496
-116.555
-108.411
-100.745
-94.344
-89.657
-86.819
-85.692
-85.907
-87.159
-89.229
-91.853
-94.736
-97.619
-100.263
-102.491
-104.232
-105.433
-106.05
-106.069
-105.473
-104.277
-102.539
-100.332
-97.734
-94.823
-91.67
-88.341
-84.916
-81.48
-78.117
-74.908
-71.907
-69.145
-66.646
-64.42
-62.477
-60.814
-59.411
-58.243
-57.288
-56.529
-55.951
-55.544
-55.288
-55.162
-55.147
-55.222
-55.371
-55.58
-55.833
-56.117
-56.418
-56.725
-57.029
-57.322
-57.593
-57.829
-58.017
-58.143
-58.196
-58.163
-58.032
-57.791
-57.431
-56.943
-56.319
-55.555
-54.644
-53.581
-52.364
-50.99
-49.457
-47.762
-45.907
-43.891
-41.716
-39.383
-36.896
-34.257
-31.473
-28.549
-25.49
-22.306
-19.004
-15.592
-12.082
-8.483
-4.807
-1.066
2.727
6.56
10.419
14.288
18.154
22.001
25.815
29.58
33.282
36.906
40.439
43.865
47.172
50.347
53.376
56.247
58.947
61.465
63.789
65.909
67.814
69.494
70.941
72.148
73.106
73.81
74.255
74.436
74.352
74
73.38
72.493
71.341
69.927
68.256
66.335
64.172
61.775
59.153
56.319
53.285
50.061
46.663
43.103
39.398
35.56
31.606
27.551
23.412
19.204
14.945
10.651
6.338
2.023
-2.278
-6.547
-10.771
-14.932
-19.016
-23.009
-26.898
-30.668
-34.31
-37.811
-41.162
-44.355
-47.382
-50.237
-52.916
-55.414
-57.73
-59.863
-61.812
-63.578
-65.164
-66.57
-67.802
-68.864
-69.759
-70.493
-71.073
-71.506
-71.797
-71.956
-71.99
-71.909
-71.72
-71.435
-71.062
-70.611
-70.092
-69.516
-68.892
-68.23
-67.54
-66.83
-66.11
-65.387
-64.669
-63.963
-63.275
-62.611
-61.975
-61.373
-60.807
-60.28
-59.794
-59.351
-58.952
-58.597
-58.288
-58.023
-57.801
-57.622
-57.484
-57.385
-57.321
-57.29
-57.288
-57.311
-57.355
-57.413
-57.482
-57.556
-57.629
-57.696
-57.751
-57.789
-57.805
-57.793
-57.747
-57.664
-57.539
-57.368
-57.147
-56.872
-56.542
-56.153
-55.705
-55.196
-54.624
-53.99
-53.292
-52.531
-51.707
-50.821
-49.874
-48.869
-47.806
-46.688
-45.52
-44.304
-43.044
-41.745
-40.41
-39.045
-37.654
-36.242
-34.814
-33.375
-31.929
-30.481
-29.037
-27.6
-26.176
-24.769
-23.382
-22.019
-20.683
-19.377
-18.104
-16.865
-15.662
-14.498
-13.372
-12.288
-11.244
-10.242
-9.281
-8.361
-7.481
-6.639
-5.835
-5.065
-4.328
-3.622
-2.944
-2.292
-1.663
-1.055
-0.466
0.107
0.667
1.215
1.754
2.286
2.812
3.333
3.852
4.368
4.883
5.396
5.908
6.418
6.927
7.433
7.936
8.435
8.928
9.414
9.89
10.355
10.806
11.24
11.654
12.045
12.41
12.745
13.048
13.316
13.546
13.735
13.881
13.981
14.033
14.035
13.987
13.886
13.731
13.524
13.263
12.949
12.582
12.164
11.696
11.178
10.613
10.002
9.347
8.651
7.918
7.149
6.348
5.52
4.668
3.796
2.909
2.01
1.104
0.195
-0.712
-1.614
-2.507
-3.386
-4.247
-5.088
-5.906
-6.697
-7.46
-8.193
-8.894
-9.562
-10.198
-10.8
-11.369
-11.905
-12.408
-12.88
-13.32
-13.731
-14.114
-14.47
-14.801
-15.11
-15.4
-15.673
-15.932
-16.179
-16.416
-16.647
-16.874
-17.098
-17.322
-17.548
-17.778
-18.013
-18.253
-18.501
-18.755
-19.015
-19.28
-19.548
-19.816
-20.081
-20.34
-20.587
-20.819
-21.029
-21.212
-21.364
-21.478
-21.548
-21.567
-21.529
-21.426
-21.252
-21
-20.663
-20.235
-19.708
-19.079
-18.341
-17.491
-16.523
-15.435
-14.223
-12.886
-11.423
-9.832
-8.115
-6.274
-4.312
-2.234
-0.047
2.242
4.624
7.087
9.616
12.196
14.811
17.443
20.072
22.681
25.248
27.755
30.186
32.523
34.75
36.85
38.803
40.589
42.191
43.589
44.766
45.706
46.395
46.825
46.991
46.889
46.516
45.858
44.897
43.617
42.009
40.068
37.794
35.199
32.308
29.164
25.828
22.36
18.816
15.243
11.679
8.166
4.756
1.512
-1.492
-4.194
-6.547
-8.509
-10.042
-11.154
-11.906
-12.396
-12.779
-13.19
-13.709
-14.446
-15.517
-17.038
-19.177
-22.092
-25.871
-30.652
-36.612
-43.716
-51.799
-60.475
-68.973
-76.616
-82.849
-86.951
-88.389
-87.18
-83.664
-78.752
-73.975
-70.366
-68.654
-69.819
-74.068
-80.419
-87.138
-91.381
-89.579
-78.84
-56.418
-19.151
34.807
105.274
190.457
286.771
389.357
492.903
591.048
676.095
740.922
780.433
791.37
772.05
722.584
645.228
544.636
428.046
303.854
179.573
61.989
-42.173
-127.481
-190.964
-232.019
-252.684
-256.816
-248.211
-230.933
-210.027
-190.123
-174.253
-163.986
-159.259
-158.877
-161.699
-166.401
-170.993
-173.568
-173.052
-169.16
-162.352
-153.567
-143.644
-133.312
-123.447
-114.885
-108.097
-103.248
-100.234
-98.752
-98.538
-99.387
-101.048
-103.259
-105.815
-108.508
-111.166
-113.656
-115.814
-117.512
-118.675
-119.249
-119.222
-118.618
-117.469
-115.83
-113.781
-111.391
-108.729
-105.859
-102.843
-99.753
-96.67
-93.674
-90.838
-88.218
-85.845
-83.741
-81.913
-80.355
-79.051
-77.977
-77.101
-76.398
-75.848
-75.433
-75.135
-74.936
-74.813
-74.743
-74.706
-74.682
-74.653
-74.605
-74.523
-74.395
-74.211
-73.963
-73.643
-73.244
-72.752
-72.157
-71.445
-70.606
-69.628
-68.5
-67.213
-65.757
-64.126
-62.316
-60.322
-58.143
-55.777
-53.224
-50.484
-47.56
-44.454
-41.169
-37.711
-34.086
-30.299
-26.36
-22.276
-18.057
-13.713
-9.255
-4.695
-0.043
4.686
9.48
14.325
19.206
24.107
29.012
33.904
38.765
43.577
48.322
52.983
57.54
61.977
66.276
70.421
74.396
78.186
81.775
85.15
88.297
91.205
93.861
96.256
98.379
100.222
101.779
103.043
104.009
104.674
105.034
105.089
104.837
104.28
103.42
102.261
100.808
99.068
97.049
94.762
92.217
89.426
86.404
83.165
79.724
76.099
72.306
68.362
64.287
60.098
55.814
51.454
47.036
42.579
38.102
33.621
29.155
24.72
20.333
16.009
11.763
7.608
3.558
-0.374
-4.177
-7.841
-11.356
-14.715
-17.909
-20.934
-23.784
-26.457
-28.95
-31.261
-33.391
-35.341
-37.113
-38.709
-40.134
-41.391
-42.486
-43.424
-44.211
-44.853
-45.358
-45.732
-45.982
-46.115
-46.138
-46.059
-45.883
-45.618
-45.27
-44.845
-44.35
-43.789
-43.169
-42.495
-41.77
-41
-40.188
-39.338
-38.453
-37.537
-36.591
-35.618
-34.619
-33.596
-32.551
-31.483
-30.395
-29.287
-28.16
-27.014
-25.851
-24.67
-23.473
-22.261
-21.034
-19.793
-18.54
-17.276
-16.003
-14.723
-13.437
-12.148
-10.858
-9.571
-8.289
-7.014
-5.75
-4.501
-3.269
-2.057
-0.869
0.291
1.421
2.516
3.574
4.591
5.565
6.493
7.372
8.199
8.974
9.693
10.357
10.962
11.51
11.998
12.427
12.797
13.107
13.358
13.551
13.686
13.766
13.792
13.766
13.69
13.567
13.398
13.187
12.937
12.65
12.33
11.979
11.601
11.2
10.778
10.338
9.885
9.421
8.948
8.47
7.989
7.508
7.027
6.549
6.076
5.61
5.151
4.703
4.266
3.842
3.432
3.038
2.661
2.302
1.962
1.643
1.344
1.068
0.816
0.588
0.385
0.209
0.059
-0.063
-0.157
-0.222
-0.259
-0.267
-0.247
-0.197
-0.117
-0.007
0.134
0.305
0.509
0.744
1.011
1.311
1.642
2.005
2.399
2.824
3.277
3.758
4.266
4.798
5.352
5.927
6.518
7.124
7.741
8.366
8.995
9.626
10.253
10.876
11.49
12.092
12.68
13.252
13.804
14.334
14.84
15.319
15.77
16.189
16.576
16.928
17.246
17.527
17.771
17.979
18.149
18.283
18.38
18.443
18.471
18.468
18.435
18.375
18.291
18.186
18.065
17.93
17.786
17.637
17.485
17.334
17.188
17.049
16.92
16.803
16.701
16.615
16.547
16.498
16.469
16.46
16.471
16.5
16.549
16.614
16.695
16.789
16.896
17.011
17.134
17.262
17.391
17.519
17.642
17.757
17.861
17.949
18.02
18.068
18.092
18.09
18.058
17.996
17.902
17.776
17.618
17.429
17.21
16.963
16.691
16.397
16.085
15.761
15.431
15.101
14.778
14.471
14.188
13.937
13.729
13.571
13.472
13.443
13.491
13.627
13.86
14.197
14.647
15.219
15.92
16.757
17.734
18.858
20.13
21.554
23.132
24.865
26.75
28.787
30.973
33.302
35.771
38.37
41.092
43.925
46.858
49.877
52.967
56.109
59.286
62.477
65.662
68.819
71.928
74.966
77.912
80.746
83.449
86.002
88.385
90.579
92.566
94.33
95.853
97.119
98.112
98.818
99.228
99.34
99.155
98.668
97.875
96.768
95.341
93.601
91.555
89.208
86.574
83.673
80.542
77.246
73.846
70.398
66.954
63.547
60.215
57.013
53.994
51.217
48.73
46.551
44.704
43.229
42.141
41.426
41.022
40.785
40.583
40.311
39.884
39.256
38.358
37.078
35.307
32.945
29.905
26.2
21.81
16.63
10.729
4.333
-2.111
-7.84
-12.129
-14.486
-14.507
-11.878
-6.662
0.84
9.954
19.457
28.145
35.03
39.647
42.19
43.645
45.567
49.799
58.708
75.018
101.458
139.803
190.646
252.988
324.463
402.473
483.435
562.153
632.677
689.313
726.858
742.026
733.071
698.177
637.503
554.181
453.021
340.321
223.542
109.041
2.885
-87.925
-158.719
-207.747
-234.917
-242.49
-234.442
-214.46
-187.149
-158.452
-132.437
-111.388
-96.654
-87.854
-83.832
-83.652
-85.51
-86.843
-86.268
-83.249
-77.727
-70.471
-62.224
-53.458
-44.983
-37.763
-32.282
-28.717
-26.991
-26.69
-27.497
-29.206
-31.53
-34.18
-36.905
-39.465
-41.678
-43.47
-44.785
-45.574
-45.819
-45.501
-44.636
-43.284
-41.526
-39.443
-37.108
-34.587
-31.94
-29.237
-26.558
-23.987
-21.606
-19.47
-17.613
-16.058
-14.818
-13.899
-13.295
-12.984
-12.93
-13.104
-13.484
-14.051
-14.788
-15.674
-16.682
-17.788
-18.966
-20.194
-21.453
-22.723
-23.985
-25.221
-26.417
-27.56
-28.64
-29.645
-30.561
-31.374
-32.068
-32.631
-33.051
-33.316
-33.415
-33.338
-33.081
-32.637
-32.004
-31.18
-30.164
-28.956
-27.558
-25.973
-24.203
-22.253
-20.127
-17.832
-15.373
-12.758
-9.997
-7.096
-4.068
-0.921
2.331
5.678
9.105
12.601
16.151
19.742
23.359
26.986
30.61
34.214
37.784
41.304
44.76
48.136
51.42
54.599
57.66
60.592
63.384
66.027
68.51
70.825
72.963
74.915
76.675
78.233
79.584
80.722
81.64
82.334
82.799
83.032
83.031
82.793
82.318
81.605
80.655
79.471
78.055
76.411
74.545
72.462
70.17
67.677
64.992
62.123
59.081
55.877
52.52
49.022
45.394
41.647
37.793
33.844
29.813
25.711
21.552
17.349
13.115
8.864
4.609
0.363
-3.859
-8.046
-12.184
-16.26
-20.262
-24.18
-28.001
-31.715
-35.313
-38.787
-42.128
-45.332
-48.391
-51.303
-54.064
-56.671
-59.122
-61.417
-63.554
-65.535
-67.36
-69.03
-70.547
-71.914
-73.134
-74.21
-75.148
-75.951
-76.625
-77.177
-77.613
-77.94
-78.165
-78.297
-78.344
-78.314
-78.217
-78.06
-77.854
-77.606
-77.325
-77.019
-76.696
-76.362
-76.023
-75.686
-75.354
-75.034
-74.728
-74.44
-74.173
-73.931
-73.715
-73.527
-73.37
-73.244
-73.151
-73.091
-73.065
-73.073
-73.114
-73.188
-73.293
-73.427
-73.589
-73.775
-73.983
-74.209
-74.448
-74.698
-74.953
-75.209
-75.463
-75.709
-75.944
-76.165
-76.368
-76.55
-76.71
-76.845
-76.954
-77.036
-77.09
-77.117
-77.115
-77.085
-77.027
-76.941
-76.828
-76.687
-76.519
-76.325
-76.106
-75.862
-75.595
-75.306
-74.997
-74.669
-74.326
-73.97
-73.603
-73.229
-72.849
-72.469
-72.09
-71.716
-71.351
-70.996
-70.654
-70.328
-70.018
-69.725
-69.451
-69.193
-68.954
-68.73
-68.522
-68.328
-68.147
-67.978
-67.819
-67.669
-67.526
-67.39
-67.258
-67.128
-67
-66.872
-66.742
-66.607
-66.467
-66.32
-66.163
-65.994
-65.812
-65.613
-65.395
-65.156
-64.893
-64.605
-64.289
-63.944
-63.569
-63.166
-62.732
-62.271
-61.783
-61.269
-60.732
-60.174
-59.597
-59.003
-58.395
-57.776
-57.147
-56.512
-55.874
-55.234
-54.596
-53.962
-53.333
-52.712
-52.101
-51.502
-50.917
-50.347
-49.796
-49.264
-48.756
-48.273
-47.817
-47.391
-46.997
-46.635
-46.308
-46.015
-45.756
-45.531
-45.34
-45.182
-45.056
-44.96
-44.894
-44.855
-44.842
-44.853
-44.886
-44.94
-45.013
-45.103
-45.209
-45.33
-45.465
-45.615
-45.778
-45.954
-46.144
-46.346
-46.56
-46.784
-47.019
-47.263
-47.515
-47.774
-48.039
-48.309
-48.583
-48.86
-49.14
-49.42
-49.701
-49.979
-50.254
-50.524
-50.787
-51.041
-51.285
-51.515
-51.73
-51.926
-52.1
-52.247
-52.363
-52.442
-52.478
-52.464
-52.396
-52.266
-52.067
-51.793
-51.437
-50.994
-50.457
-49.82
-49.077
-48.222
-47.251
-46.158
-44.942
-43.598
-42.125
-40.52
-38.786
-36.922
-34.931
-32.816
-30.58
-28.228
-25.766
-23.203
-20.547
-17.806
-14.993
-12.122
-9.209
-6.272
-3.332
-0.406
2.482
5.313
8.063
10.713
13.245
15.641
17.883
19.952
21.827
23.486
24.913
26.091
27.004
27.64
27.984
28.034
27.793
27.262
26.443
25.328
23.901
22.156
20.094
17.715
15.028
12.051
8.804
5.326
1.678
-2.087
-5.918
-9.773
-13.624
-17.43
-21.133
-24.669
-27.957
-30.935
-33.565
-35.795
-37.583
-38.937
-39.882
-40.484
-40.859
-41.069
-41.175
-41.284
-41.474
-41.863
-42.613
-43.83
-45.686
-48.417
-52.053
-56.486
-61.456
-66.378
-70.688
-73.994
-75.63
-74.849
-71.528
-65.943
-58.981
-52.258
-46.962
-43.704
-43.45
-47.259
-55.013
-65.52
-76.159
-82.994
-82.803
-73.042
-50.645
-12.309
43.872
117.736
206.669
306.075
411.293
517.099
616.753
702.297
766.088
802.632
808.911
783.511
726.221
639.164
527.217
397.971
260.608
123.436
-6.182
-120.774
-213.939
-281.959
-323.819
-341.441
-338.947
-320.599
-290.994
-256.021
-221.383
-190.973
-167
-149.902
-138.818
-132.82
-130.697
-130.247
-129.08
-125.837
-120.083
-112.132
-102.84
-92.918
-82.958
-73.897
-66.792
-62.216
-60.305
-60.831
-63.239
-67.044
-71.903
-77.408
-83.139
-88.741
-93.889
-98.401
-102.233
-105.329
-107.628
-109.063
-109.53
-108.998
-107.529
-105.214
-102.189
-98.622
-94.641
-90.378
-85.984
-81.585
-77.304
-73.228
-69.384
-65.792
-62.473
-59.454
-56.78
-54.475
-52.522
-50.895
-49.557
-48.458
-47.564
-46.838
-46.228
-45.697
-45.215
-44.76
-44.331
-43.93
-43.55
-43.183
-42.816
-42.438
-42.041
-41.621
-41.17
-40.684
-40.158
-39.585
-38.967
-38.302
-37.585
-36.81
-35.972
-35.062
-34.075
-33.005
-31.85
-30.604
-29.268
-27.837
-26.313
-24.695
-22.983
-21.176
-19.274
-17.274
-15.176
-12.98
-10.685
-8.291
-5.801
-3.215
-0.536
2.233
5.088
8.025
11.039
14.123
17.272
20.478
23.736
27.036
30.372
33.734
37.114
40.502
43.889
47.265
50.619
53.94
57.217
60.439
63.593
66.668
69.651
72.529
75.289
77.917
80.4
82.725
84.879
86.85
88.626
90.196
91.551
92.682
93.583
94.246
94.667
94.843
94.771
94.452
93.884
93.072
92.017
90.725
89.202
87.456
85.494
83.328
80.968
78.425
75.714
72.848
69.842
66.712
63.474
60.147
56.748
53.295
49.807
46.303
42.801
39.319
35.874
32.485
29.167
25.934
22.802
19.784
16.891
14.134
11.522
9.064
6.767
4.635
2.672
0.882
-0.734
-2.177
-3.446
-4.544
-5.475
-6.241
-6.848
-7.302
-7.61
-7.779
-7.817
-7.734
-7.539
-7.242
-6.853
-6.383
-5.842
-5.242
-4.591
-3.901
-3.18
-2.439
-1.685
-0.928
-0.174
0.568
1.294
1.996
2.67
3.312
3.918
4.484
5.009
5.491
5.928
6.32
6.666
6.965
7.22
7.429
7.594
7.717
7.799
7.842
7.848
7.82
7.759
7.668
7.55
7.407
7.242
7.055
6.85
6.627
6.389
6.136
5.871
5.594
5.307
5.01
4.704
4.389
4.067
3.737
3.4
3.055
2.703
2.342
1.974
1.599
1.215
0.824
0.425
0.019
-0.395
-0.815
-1.242
-1.677
-2.118
-2.565
-3.018
-3.477
-3.94
-4.408
-4.879
-5.353
-5.828
-6.305
-6.781
-7.257
-7.732
-8.207
-8.68
-9.152
-9.622
-10.09
-10.557
-11.021
-11.484
-11.944
-12.402
-12.859
-13.313
-13.766
-14.219
-14.671
-15.123
-15.575
-16.028
-16.482
-16.937
-17.392
-17.849
-18.306
-18.765
-19.224
-19.685
-20.147
-20.61
-21.073
-21.536
-21.997
-22.455
-22.908
-23.354
-23.79
-24.216
-24.627
-25.023
-25.4
-25.757
-26.091
-26.4
-26.682
-26.935
-27.157
-27.345
-27.498
-27.614
-27.69
-27.727
-27.723
-27.677
-27.59
-27.459
-27.287
-27.071
-26.812
-26.51
-26.166
-25.78
-25.353
-24.887
-24.384
-23.846
-23.277
-22.682
-22.063
-21.425
-20.772
-20.11
-19.443
-18.774
-18.107
-17.448
-16.799
-16.164
-15.548
-14.953
-14.382
-13.839
-13.327
-12.847
-12.403
-11.995
-11.626
-11.296
-11.008
-10.762
-10.56
-10.402
-10.289
-10.22
-10.197
-10.218
-10.28
-10.382
-10.518
-10.685
-10.876
-11.087
-11.307
-11.53
-11.748
-11.954
-12.142
-12.305
-12.438
-12.535
-12.593
-12.611
-12.582
-12.502
-12.362
-12.154
-11.872
-11.506
-11.048
-10.488
-9.814
-9.023
-8.112
-7.079
-5.918
-4.622
-3.176
-1.573
0.182
2.082
4.12
6.282
8.551
10.895
13.264
15.611
17.904
20.131
22.294
24.388
26.411
28.353
30.207
31.991
33.726
35.426
37.096
38.744
40.398
42.122
44.009
46.137
48.54
51.214
54.127
57.25
60.541
63.944
67.377
70.72
73.866
76.745
79.306
81.49
83.21
84.328
84.675
84.128
82.616
80.113
76.634
72.195
66.854
60.727
53.97
46.784
39.333
31.729
24.075
16.491
9.125
2.172
-4.169
-9.757
-14.488
-18.302
-21.18
-23.116
-24.163
-24.438
-24.093
-23.339
-22.356
-21.284
-20.299
-19.554
-19.273
-19.792
-21.251
-23.588
-26.586
-29.752
-32.596
-34.84
-35.955
-35.202
-32.436
-27.927
-22.539
-17.933
-15.332
-15.295
-18.65
-26.256
-37.828
-52.102
-66.414
-76.683
-79.572
-72.522
-52.572
-16.764
36.502
106.966
191.977
286.881
387.058
487.562
582.141
663.619
725.232
762.15
771.944
753.818
707.851
635.989
542.532
433.991
318.085
201.737
90.86
-8.642
-91.455
-154.434
-196.693
-219.632
-226.407
-220.239
-204.469
-183.583
-162.256
-143.682
-129.622
-120.453
-115.405
-113.725
-114.582
-116.25
-116.682
-114.681
-109.843
-102.452
-93.359
-83.244
-72.617
-62.271
-53.114
-45.699
-40.256
-36.716
-34.739
-34.045
-34.444
-35.685
-37.49
-39.605
-41.785
-43.834
-45.611
-47.002
-47.915
-48.291
-48.091
-47.304
-45.956
-44.101
-41.814
-39.171
-36.243
-33.093
-29.782
-26.384
-22.983
-19.663
-16.505
-13.565
-10.876
-8.466
-6.348
-4.525
-2.989
-1.716
-0.671
0.171
0.831
1.327
1.673
1.89
2.003
2.033
2.002
1.929
1.831
1.723
1.622
1.539
1.486
1.47
1.498
1.579
1.725
1.946
2.254
2.66
3.173
3.804
4.562
5.454
6.486
7.664
8.99
10.467
12.099
13.884
15.825
17.92
20.167
22.564
25.108
27.793
30.616
33.57
36.649
39.846
43.154
46.562
50.063
53.646
57.301
61.018
64.784
68.588
72.417
76.259
80.101
83.93
87.733
91.496
95.207
98.852
102.418
105.893
109.265
112.522
115.651
118.642
121.486
124.171
126.689
129.031
131.188
133.154
134.922
136.485
137.839
138.978
139.901
140.603
141.084
141.342
141.377
141.191
140.786
140.164
139.329
138.286
137.04
135.597
133.964
132.149
130.16
128.007
125.699
123.248
120.662
117.955
115.136
112.219
109.214
106.134
102.99
99.794
96.558
93.293
90.011
86.722
83.437
80.165
76.917
73.7
70.524
67.394
64.319
61.305
58.356
55.478
52.675
49.951
47.309
44.751
42.278
39.892
37.593
35.38
33.253
31.21
29.25
27.37
25.567
23.84
22.183
20.595
19.07
17.605
16.197
14.84
13.53
12.265
11.039
9.851
8.695
7.57
6.473
5.401
4.352
3.326
2.319
1.331
0.361
-0.591
-1.527
-2.446
-3.349
-4.234
-5.103
-5.954
-6.787
-7.602
-8.398
-9.174
-9.93
-10.665
-11.378
-12.068
-12.734
-13.375
-13.991
-14.58
-15.143
-15.679
-16.188
-16.669
-17.125
-17.555
-17.961
-18.345
-18.707
-19.051
-19.378
-19.692
-19.996
-20.292
-20.583
-20.875
-21.168
-21.468
-21.778
-22.099
-22.437
-22.792
-23.169
-23.569
-23.995
-24.45
-24.936
-25.454
-26.008
-26.598
-27.226
-27.895
-28.604
-29.354
-30.147
-30.983
-31.861
-32.781
-33.743
-34.744
-35.784
-36.86
-37.969
-39.109
-40.275
-41.466
-42.677
-43.904
-45.144
-46.392
-47.645
-48.899
-50.151
-51.396
-52.632
-53.854
-55.06
-56.246
-57.409
-58.547
-59.657
-60.736
-61.781
-62.79
-63.759
-64.688
-65.573
-66.412
-67.205
-67.949
-68.644
-69.29
-69.886
-70.433
-70.931
-71.381
-71.785
-72.142
-72.454
-72.724
-72.952
-73.141
-73.292
-73.407
-73.488
-73.537
-73.556
-73.545
-73.507
-73.443
-73.355
-73.245
-73.115
-72.966
-72.802
-72.626
-72.441
-72.25
-72.057
-71.863
-71.671
-71.483
-71.302
-71.127
-70.962
-70.806
-70.662
-70.53
-70.413
-70.311
-70.227
-70.16
-70.111
-70.081
-70.071
-70.08
-70.11
-70.16
-70.231
-70.323
-70.439
-70.579
-70.74
-70.923
-71.125
-71.343
-71.573
-71.809
-72.045
-72.273
-72.488
-72.683
-72.855
-72.998
-73.108
-73.181
-73.218
-73.213
-73.162
-73.057
-72.89
-72.652
-72.332
-71.922
-71.41
-70.79
-70.053
-69.195
-68.216
-67.112
-65.876
-64.5
-62.966
-61.268
-59.405
-57.377
-55.193
-52.87
-50.432
-47.922
-45.385
-42.852
-40.345
-37.874
-35.43
-33.008
-30.604
-28.207
-25.825
-23.463
-21.115
-18.794
-16.499
-14.206
-11.88
-9.451
-6.834
-3.991
-0.907
2.414
5.914
9.534
13.194
16.778
20.199
23.392
26.293
28.866
31.075
32.84
34.073
34.659
34.464
33.407
31.441
28.543
24.761
20.184
14.956
9.271
3.296
-2.849
-9.061
-15.261
-21.369
-27.267
-32.833
-37.949
-42.492
-46.352
-49.439
-51.695
-53.128
-53.84
-54.023
-53.888
-53.612
-53.316
-53.058
-52.914
-52.981
-53.368
-54.194
-55.537
-57.407
-59.876
-63.071
-66.939
-71.258
-75.535
-78.947
-80.754
-80.451
-77.64
-72.051
-63.811
-53.312
-41.363
-29.399
-18.822
-10.727
-5.669
-3.475
-3.084
-2.956
-1.136
5.297
19.505
44.596
82.952
135.226
200.364
276.381
360.25
447.042
530.786
604.475
660.804
694.524
702.107
680.819
630.123
552.488
452.338
336.477
213.687
91.589
-22.539
-120.751
-197.679
-251.106
-280.64
-288.428
-278.944
-256.213
-225.082
-192.574
-163.673
-140.912
-125.892
-118.447
-117.137
-121.227
-129.214
-137.344
-143.146
-145.688
-144.33
-139.621
-132.452
-122.824
-111.056
-98.784
-87.083
-76.455
-67.381
-59.611
-52.879
-47.454
-43.489
-40.713
-38.952
-38.035
-37.733
-38.093
-39.107
-40.612
-42.502
-44.706
-47.139
-49.752
-52.484
-55.201
-57.8
-60.203
-62.312
-64.036
-65.302
-66.059
-66.299
-66.041
-65.326
-64.186
-62.653
-60.777
-58.618
-56.243
-53.732
-51.172
-48.628
-46.156
-43.817
-41.664
-39.739
-38.075
-36.679
-35.541
-34.651
-33.998
-33.568
-33.343
-33.291
-33.377
-33.559
-33.791
-34.036
-34.267
-34.455
-34.576
-34.611
-34.544
-34.366
-34.077
-33.672
-33.145
-32.489
-31.697
-30.768
-29.7
-28.495
-27.153
-25.676
-24.063
-22.313
-20.426
-18.402
-16.241
-13.94
-11.5
-8.92
-6.206
-3.362
-0.397
2.682
5.866
9.145
12.508
15.943
19.44
22.987
26.571
30.181
33.802
37.42
41.021
44.59
48.111
51.571
54.954
58.245
61.431
64.497
67.43
70.216
72.842
75.296
77.565
79.638
81.506
83.158
84.587
85.786
86.75
87.474
87.955
88.192
88.183
87.929
87.43
86.69
85.712
84.499
83.058
81.394
79.516
77.431
75.15
72.682
70.039
67.232
64.273
61.175
57.952
54.616
51.181
47.661
44.071
40.425
36.737
33.021
29.291
25.56
21.841
18.146
14.487
10.874
7.317
3.827
0.411
-2.922
-6.163
-9.306
-12.345
-15.274
-18.087
-20.782
-23.354
-25.802
-28.124
-30.318
-32.386
-34.326
-36.139
-37.828
-39.393
-40.838
-42.164
-43.377
-44.478
-45.474
-46.368
-47.166
-47.873
-48.493
-49.033
-49.496
-49.888
-50.215
-50.48
-50.689
-50.847
-50.959
-51.031
-51.066
-51.07
-51.047
-51.003
-50.941
-50.864
-50.778
-50.684
-50.587
-50.488
-50.391
-50.298
-50.212
-50.133
-50.065
-50.007
-49.96
-49.925
-49.902
-49.89
-49.888
-49.895
-49.911
-49.934
-49.962
-49.995
-50.03
-50.066
-50.1
-50.131
-50.156
-50.172
-50.177
-50.168
-50.142
-50.097
-50.03
-49.939
-49.822
-49.676
-49.5
-49.292
-49.05
-48.772
-48.457
-48.105
-47.714
-47.284
-46.814
-46.307
-45.761
-45.179
-44.562
-43.911
-43.229
-42.517
-41.778
-41.014
-40.228
-39.424
-38.604
-37.772
-36.931
-36.085
-35.238
-34.393
-33.554
-32.724
-31.907
-31.106
-30.324
-29.564
-28.829
-28.122
-27.446
-26.803
-26.196
-25.627
-25.098
-24.611
-24.167
-23.767
-23.412
-23.104
-22.842
-22.626
-22.458
-22.337
-22.263
-22.235
-22.253
-22.315
-22.422
-22.571
-22.761
-22.991
-23.261
-23.568
-23.913
-24.293
-24.708
-25.157
-25.639
-26.153
-26.698
-27.274
-27.879
-28.512
-29.172
-29.858
-30.57
-31.306
-32.065
-32.846
-33.648
-34.469
-35.308
-36.164
-37.034
-37.919
-38.815
-39.723
-40.641
-41.569
-42.505
-43.448
-44.398
-45.355
-46.316
-47.282
-48.251
-49.223
-50.197
-51.171
-52.147
-53.122
-54.096
-55.069
-56.041
-57.011
-57.978
-58.942
-59.904
-60.863
-61.821
-62.777
-63.732
-64.689
-65.646
-66.607
-67.571
-68.54
-69.515
-70.495
-71.482
-72.474
-73.473
-74.476
-75.482
-76.49
-77.498
-78.502
-79.5
-80.488
-81.462
-82.418
-83.35
-84.253
-85.123
-85.953
-86.736
-87.468
-88.14
-88.746
-89.279
-89.731
-90.093
-90.357
-90.514
-90.555
-90.473
-90.257
-89.9
-89.393
-88.729
-87.901
-86.902
-85.727
-84.37
-82.828
-81.1
-79.184
-77.08
-74.792
-72.321
-69.674
-66.858
-63.88
-60.749
-57.476
-54.073
-50.552
-46.929
-43.218
-39.435
-35.599
-31.729
-27.847
-23.977
-20.144
-16.371
-12.684
-9.109
-5.673
-2.399
0.69
3.574
6.233
8.645
10.789
12.644
14.191
15.417
16.308
16.854
17.048
16.888
16.379
15.53
14.344
12.821
10.955
8.741
6.182
3.287
0.069
-3.446
-7.226
-11.229
-15.392
-19.657
-23.967
-28.267
-32.517
-36.669
-40.663
-44.43
-47.888
-50.962
-53.592
-55.723
-57.319
-58.392
-58.972
-59.126
-58.957
-58.531
-57.934
-57.284
-56.684
-56.261
-56.168
-56.493
-57.388
-59.104
-61.68
-64.999
-68.783
-72.38
-75.192
-76.867
-76.801
-74.34
-69.461
-62.434
-54.087
-46.192
-40.021
-36.209
-35.741
-39.206
-45.91
-54.579
-62.683
-66.043
-61.326
-45.779
-16.119
29.979
93.143
172.795
266.178
368.117
473.378
575.961
668.477
743.903
796.035
819.946
812.859
774.417
706.055
611.624
497.376
370.867
240.627
114.919
1.456
-93.217
-165.09
-212.761
-237.078
-240.973
-228.93
-205.903
-177.667
-149.987
-126.564
-109.4
-99.17
-95.069
-95.609
-99.108
-103.127
-105.112
-103.756
-98.649
-90.038
-78.865
-66.076
-52.503
-39.233
-27.323
-17.342
-9.549
-3.95
-0.337
1.444
1.534
0.181
-2.345
-5.8
-9.933
-14.499
-19.245
-23.892
-28.219
-32.076
-35.366
-38.03
-40.021
-41.286
-41.778
-41.482
-40.41
-38.589
-36.058
-32.874
-29.13
-24.96
-20.544
-16.062
-11.645
-7.382
-3.329
0.477
4
7.207
10.079
12.613
14.807
16.658
18.163
19.319
20.146
20.682
20.99
21.135
21.168
21.123
21.027
20.901
20.765
20.636
20.525
20.433
20.37
20.35
20.391
20.515
20.736
21.065
21.509
22.072
22.761
23.585
24.551
25.665
26.936
28.373
29.987
31.788
33.784
35.981
38.379
40.979
43.779
46.777
49.967
53.342
56.895
60.616
64.496
68.524
72.69
76.978
81.376
85.867
90.435
95.063
99.733
104.426
109.124
113.808
118.459
123.057
127.583
132.02
136.347
140.547
144.603
148.495
152.206
155.72
159.021
162.094
164.926
167.503
169.815
171.852
173.605
175.068
176.235
177.101
177.665
177.926
177.883
177.539
176.899
175.967
174.75
173.257
171.496
169.479
167.217
164.721
162.006
159.085
155.973
152.685
149.237
145.645
141.925
138.095
134.172
130.172
126.114
122.013
117.887
113.751
109.622
105.516
101.446
97.427
93.472
89.593
85.802
82.107
78.518
75.042
71.685
68.451
65.344
62.366
59.52
56.806
54.223
51.771
49.447
47.25
45.177
43.223
41.385
39.659
38.039
36.52
35.096
33.763
32.514
31.343
30.243
29.209
28.234
27.311
26.434
25.597
24.793
24.017
23.264
22.528
21.807
21.095
20.391
19.692
18.996
18.303
17.611
16.92
16.23
15.541
14.854
14.17
13.49
12.814
12.144
11.482
10.827
10.182
9.547
8.923
8.311
7.712
7.126
6.554
5.996
5.455
4.93
4.422
3.933
3.462
3.01
2.578
2.166
1.772
1.397
1.039
0.697
0.37
0.056
-0.248
-0.543
-0.831
-1.115
-1.396
-1.679
-1.964
-2.254
-2.551
-2.857
-3.173
-3.501
-3.842
-4.195
-4.562
-4.943
-5.337
-5.745
-6.166
-6.601
-7.048
-7.508
-7.981
-8.466
-8.962
-9.469
-9.986
-10.512
-11.046
-11.586
-12.132
-12.68
-13.231
-13.781
-14.33
-14.874
-15.412
-15.942
-16.46
-16.966
-17.458
-17.933
-18.39
-18.829
-19.249
-19.65
-20.032
-20.395
-20.741
-21.07
-21.382
-21.679
-21.961
-22.229
-22.484
-22.727
-22.959
-23.18
-23.39
-23.592
-23.785
-23.969
-24.146
-24.316
-24.478
-24.635
-24.786
-24.932
-25.075
-25.214
-25.351
-25.486
-25.619
-25.751
-25.881
-26.008
-26.13
-26.247
-26.354
-26.451
-26.535
-26.602
-26.65
-26.675
-26.676
-26.648
-26.59
-26.498
-26.37
-26.204
-25.999
-25.752
-25.462
-25.13
-24.752
-24.33
-23.863
-23.35
-22.791
-22.185
-21.532
-20.831
-20.081
-19.284
-18.44
-17.549
-16.612
-15.632
-14.611
-13.552
-12.457
-11.331
-10.177
-8.999
-7.801
-6.588
-5.364
-4.133
-2.898
-1.664
-0.434
0.79
2.006
3.212
4.408
5.594
6.769
7.936
9.093
10.242
11.384
12.519
13.648
14.773
15.895
17.014
18.133
19.255
20.382
21.516
22.663
23.824
25.005
26.208
27.44
28.704
30.004
31.346
32.733
34.17
35.659
37.203
38.804
40.461
42.173
43.936
45.746
47.596
49.476
51.379
53.296
55.216
57.131
59.029
60.902
62.74
64.534
66.272
67.941
69.527
71.016
72.392
73.639
74.743
75.687
76.456
77.036
77.415
77.577
77.506
77.183
76.584
75.69
74.492
72.982
71.161
69.04
66.636
63.979
61.111
58.073
54.902
51.635
48.303
44.939
41.59
38.299
35.12
32.103
29.277
26.67
24.294
22.127
20.134
18.254
16.379
14.415
12.276
9.866
7.124
3.974
0.308
-3.947
-8.857
-14.481
-20.809
-27.865
-35.681
-44.176
-53.229
-62.653
-72.118
-81.41
-90.436
-98.811
-105.99
-111.43
-114.419
-114.632
-112.151
-106.629
-97.551
-85.051
-69.756
-52.777
-35.614
-18.646
-1.231
16.585
34.585
53.409
74.463
100.252
133.637
175.338
224.095
278.949
338.777
401.182
462.513
517.239
559.213
584.507
591.376
578.189
543.65
488.242
414.424
327.088
232.521
136.116
42.163
-44.647
-119.251
-178.237
-220.212
-245.734
-256.998
-256.379
-246.057
-229.23
-210.132
-191.861
-176.172
-163.87
-154.651
-148.095
-143.995
-141.326
-138.315
-133.902
-127.7
-119.786
-110.867
-101.531
-92.113
-83.245
-75.751
-70.145
-66.716
-65.454
-65.995
-67.993
-71.136
-75.072
-79.478
-84.058
-88.539
-92.707
-96.44
-99.655
-102.301
-104.336
-105.71
-106.372
-106.277
-105.445
-103.946
-101.887
-99.416
-96.657
-93.711
-90.694
-87.72
-84.891
-82.287
-79.941
-77.851
-76.025
-74.479
-73.232
-72.313
-71.717
-71.42
-71.388
-71.574
-71.941
-72.456
-73.078
-73.76
-74.466
-75.168
-75.851
-76.514
-77.151
-77.747
-78.285
-78.745
-79.114
-79.381
-79.535
-79.563
-79.455
-79.199
-78.788
-78.218
-77.482
-76.573
-75.482
-74.2
-72.72
-71.039
-69.153
-67.06
-64.762
-62.26
-59.557
-56.661
-53.579
-50.316
-46.882
-43.285
-39.534
-35.64
-31.612
-27.464
-23.206
-18.851
-14.414
-9.907
-5.346
-0.745
3.88
8.514
13.142
17.747
22.314
26.827
31.269
35.627
39.883
44.024
48.036
51.904
55.615
59.157
62.519
65.69
68.659
71.42
73.963
76.282
78.37
80.222
81.832
83.197
84.314
85.18
85.794
86.155
86.264
86.121
85.73
85.094
84.216
83.102
81.759
80.192
78.411
76.425
74.243
71.876
69.335
66.634
63.784
60.798
57.69
54.473
51.161
47.767
44.306
40.791
37.236
33.653
30.057
26.461
22.877
19.318
15.795
12.321
8.907
5.563
2.3
-0.874
-3.95
-6.92
-9.778
-12.516
-15.129
-17.615
-19.969
-22.19
-24.276
-26.227
-28.043
-29.727
-31.28
-32.706
-34.007
-35.187
-36.251
-37.205
-38.052
-38.799
-39.452
-40.016
-40.499
-40.906
-41.245
-41.522
-41.744
-41.918
-42.051
-42.15
-42.222
-42.273
-42.311
-42.341
-42.368
-42.398
-42.435
-42.484
-42.547
-42.627
-42.727
-42.848
-42.992
-43.16
-43.35
-43.565
-43.802
-44.062
-44.343
-44.645
-44.966
-45.305
-45.661
-46.033
-46.419
-46.818
-47.228
-47.647
-48.074
-48.507
-48.943
-49.38
-49.815
-50.248
-50.674
-51.093
-51.503
-51.902
-52.29
-52.665
-53.028
-53.378
-53.715
-54.04
-54.354
-54.657
-54.951
-55.239
-55.52
-55.796
-56.07
-56.342
-56.613
-56.885
-57.156
-57.429
-57.702
-57.977
-58.252
-58.528
-58.805
-59.083
-59.363
-59.643
-59.926
-60.211
-60.499
-60.788
-61.08
-61.374
-61.671
-61.968
-62.267
-62.567
-62.867
-63.165
-63.461
-63.753
-64.041
-64.321
-64.593
-64.855
-65.105
-65.343
-65.569
-65.78
-65.979
-66.165
-66.338
-66.499
-66.65
-66.79
-66.92
-67.041
-67.155
-67.26
-67.359
-67.45
-67.536
-67.616
-67.69
-67.759
-67.822
-67.88
-67.932
-67.978
-68.018
-68.05
-68.076
-68.096
-68.108
-68.115
-68.115
-68.11
-68.1
-68.084
-68.062
-68.034
-68
-67.959
-67.91
-67.853
-67.787
-67.712
-67.627
-67.532
-67.428
-67.315
-67.192
-67.061
-66.921
-66.774
-66.621
-66.463
-66.302
-66.14
-65.98
-65.824
-65.675
-65.537
-65.411
-65.302
-65.211
-65.14
-65.093
-65.071
-65.076
-65.11
-65.175
-65.274
-65.406
-65.574
-65.778
-66.019
-66.297
-66.611
-66.959
-67.34
-67.753
-68.194
-68.662
-69.152
-69.661
-70.186
-70.721
-71.261
-71.8
-72.332
-72.85
-73.345
-73.809
-74.234
-74.61
-74.929
-75.183
-75.362
-75.458
-75.463
-75.368
-75.166
-74.848
-74.408
-73.838
-73.132
-72.285
-71.292
-70.15
-68.857
-67.41
-65.811
-64.058
-62.153
-60.099
-57.899
-55.557
-53.079
-50.471
-47.74
-44.898
-41.953
-38.919
-35.809
-32.638
-29.423
-26.184
-22.94
-19.71
-16.514
-13.375
-10.312
-7.347
-4.496
-1.777
0.794
3.198
5.42
7.44
9.243
10.812
12.135
13.2
13.996
14.519
14.771
14.752
14.467
13.913
13.077
11.955
10.545
8.846
6.866
4.62
2.133
-0.554
-3.382
-6.297
-9.245
-12.186
-15.091
-17.923
-20.647
-23.216
-25.566
-27.647
-29.417
-30.833
-31.859
-32.495
-32.777
-32.789
-32.66
-32.496
-32.366
-32.338
-32.492
-32.92
-33.732
-35.051
-36.952
-39.543
-43.023
-47.429
-52.637
-58.318
-63.764
-68.24
-71.218
-72.046
-70.048
-65.199
-57.832
-48.85
-40.19
-33.441
-29.594
-29.893
-35.031
-44.261
-56.123
-67.846
-74.937
-73.651
-60.739
-32.471
13.473
77.43
158.304
252.621
354.828
459.506
560.259
649.369
720.199
767.291
786.864
777.626
739.6
673.802
583.982
476.251
357.386
234.81
115.159
4.052
-92.438
-169.264
-224.266
-257.619
-271.279
-268.687
-253.314
-228.904
-200.626
-173.358
-150.13
-132.493
-120.562
-113.496
-110.491
-110.474
-111.447
-111.372
-109.165
-104.528
-97.902
-90.101
-81.727
-73.307
-65.593
-59.368
-55.048
-52.707
-52.128
-52.899
-54.699
-57.29
-60.409
-63.767
-67.1
-70.183
-72.841
-75.001
-76.609
-77.616
-78.001
-77.754
-76.894
-75.485
-73.608
-71.342
-68.765
-65.946
-62.944
-59.834
-56.696
-53.611
-50.655
-47.879
-45.312
-42.976
-40.884
-39.04
-37.44
-36.063
-34.88
-33.868
-33.01
-32.292
-31.701
-31.221
-30.831
-30.513
-30.249
-30.024
-29.826
-29.642
-29.46
-29.271
-29.068
-28.846
-28.601
-28.326
-28.013
-27.654
-27.239
-26.759
-26.205
-25.568
-24.84
-24.012
-23.079
-22.034
-20.874
-19.592
-18.184
-16.647
-14.977
-13.171
-11.227
-9.144
-6.92
-4.557
-2.057
0.579
3.345
6.237
9.251
12.379
15.616
18.953
22.384
25.902
29.497
33.161
36.885
40.657
44.468
48.307
52.162
56.019
59.868
63.694
67.485
71.229
74.911
78.519
82.038
85.454
88.755
91.926
94.953
97.825
100.528
103.051
105.384
107.517
109.443
111.153
112.641
113.902
114.931
115.723
116.276
116.587
116.655
116.479
116.059
115.399
114.5
113.367
112.004
110.418
108.617
106.608
104.401
102.006
99.435
96.699
93.814
90.792
87.649
84.4
81.063
77.653
74.186
70.679
67.148
63.607
60.072
56.556
53.075
49.641
46.266
42.964
39.746
36.622
33.604
30.7
27.921
25.273
22.764
20.399
18.185
16.126
14.225
12.485
10.908
9.493
8.242
7.153
6.222
5.446
4.821
4.34
3.999
3.789
3.705
3.737
3.879
4.123
4.461
4.885
5.388
5.962
6.599
7.29
8.03
8.809
9.622
10.459
11.316
12.184
13.058
13.93
14.796
15.65
16.484
17.296
18.079
18.829
19.542
20.215
20.844
21.428
21.964
22.453
22.892
23.282
23.622
23.913
24.155
24.348
24.493
24.592
24.643
24.65
24.612
24.532
24.41
24.249
24.049
23.813
23.542
23.239
22.904
22.541
22.151
21.737
21.301
20.846
20.376
19.891
19.396
18.892
18.383
17.87
17.355
16.841
16.328
15.819
15.316
14.819
14.33
13.852
13.384
12.929
12.487
12.06
11.647
11.25
10.869
10.505
10.157
9.826
9.511
9.212
8.928
8.66
8.405
8.164
7.934
7.714
7.503
7.298
7.099
6.902
6.706
6.509
6.31
6.107
5.898
5.681
5.454
5.216
4.965
4.7
4.419
4.12
3.804
3.469
3.114
2.739
2.344
1.93
1.496
1.043
0.572
0.084
-0.42
-0.939
-1.471
-2.014
-2.566
-3.126
-3.69
-4.256
-4.821
-5.384
-5.942
-6.491
-7.03
-7.555
-8.065
-8.555
-9.025
-9.471
-9.89
-10.281
-10.642
-10.97
-11.264
-11.523
-11.747
-11.934
-12.085
-12.2
-12.279
-12.324
-12.334
-12.311
-12.258
-12.175
-12.065
-11.929
-11.772
-11.594
-11.4
-11.192
-10.973
-10.746
-10.515
-10.283
-10.052
-9.827
-9.61
-9.405
-9.216
-9.045
-8.896
-8.771
-8.674
-8.606
-8.569
-8.563
-8.59
-8.649
-8.741
-8.864
-9.016
-9.196
-9.402
-9.63
-9.878
-10.141
-10.415
-10.696
-10.977
-11.254
-11.519
-11.767
-11.991
-12.184
-12.338
-12.449
-12.507
-12.505
-12.437
-12.293
-12.068
-11.752
-11.34
-10.823
-10.195
-9.45
-8.584
-7.592
-6.472
-5.22
-3.834
-2.316
-0.665
1.116
3.026
5.059
7.212
9.476
11.844
14.306
16.853
19.471
22.145
24.858
27.596
30.339
33.069
35.767
38.415
40.993
43.483
45.87
48.134
50.258
52.22
54
55.578
56.935
58.054
58.921
59.519
59.839
59.88
59.64
59.116
58.3
57.175
55.729
53.959
51.866
49.455
46.74
43.745
40.506
37.075
33.505
29.84
26.116
22.354
18.582
14.839
11.18
7.67
4.372
1.321
-1.448
-3.896
-6.014
-7.838
-9.438
-10.928
-12.406
-13.907
-15.477
-17.189
-19.121
-21.391
-24.129
-27.405
-31.348
-36.146
-41.8
-48.165
-54.892
-61.32
-66.847
-71.098
-73.533
-73.557
-71.147
-66.66
-61.02
-55.828
-52.165
-50.423
-51.218
-55.212
-62.031
-70.397
-77.818
-80.686
-76.265
-62.672
-37.659
1.19
55.125
123.687
204.336
292.923
385.435
477.564
563.803
637.568
692.422
723.697
728.791
706.386
656.171
579.814
481.291
367.005
244.917
122.344
5.908
-97.576
-182.286
-244.769
-283.918
-301.271
-300.448
-285.298
-260.065
-230.19
-200.861
-175.626
-156.519
-143.901
-136.873
-134.44
-135.316
-137.365
-138.398
-137.148
-133.163
-126.765
-118.76
-109.812
-100.515
-91.694
-84.205
-78.523
-74.778
-72.802
-72.208
-72.681
-73.988
-75.856
-77.993
-80.141
-82.072
-83.608
-84.677
-85.223
-85.196
-84.58
-83.361
-81.556
-79.226
-76.452
-73.311
-69.88
-66.226
-62.409
-58.503
-54.592
-50.757
-47.085
-43.629
-40.425
-37.498
-34.863
-32.527
-30.486
-28.721
-27.199
-25.895
-24.789
-23.866
-23.111
-22.506
-22.025
-21.648
-21.353
-21.12
-20.934
-20.777
-20.633
-20.488
-20.331
-20.153
-19.946
-19.699
-19.401
-19.039
-18.6
-18.072
-17.443
-16.702
-15.838
-14.842
-13.706
-12.423
-10.989
-9.4
-7.652
-5.743
-3.673
-1.44
0.954
3.508
6.218
9.083
12.096
15.252
18.544
21.966
25.509
29.164
32.921
36.77
40.701
44.702
48.761
52.867
57.007
61.167
65.334
69.494
73.634
77.738
81.794
85.786
89.701
93.527
97.25
100.858
104.338
107.678
110.868
113.896
116.752
119.426
121.908
124.189
126.261
128.118
129.751
131.156
132.327
133.261
133.953
134.402
134.606
134.564
134.276
133.744
132.97
131.958
130.71
129.233
127.532
125.615
123.488
121.161
118.642
115.941
113.069
110.035
106.852
103.532
100.086
96.529
92.873
89.133
85.321
81.452
77.541
73.601
69.647
65.692
61.751
57.835
53.959
50.135
46.374
42.688
39.086
35.58
32.178
28.889
25.721
22.679
19.771
17.002
14.377
11.899
9.572
7.398
5.379
3.517
1.811
0.262
-1.133
-2.374
-3.466
-4.41
-5.213
-5.878
-6.411
-6.817
-7.105
-7.279
-7.348
-7.319
-7.199
-6.996
-6.718
-6.372
-5.965
-5.506
-5.001
-4.456
-3.881
-3.28
-2.66
-2.029
-1.392
-0.755
-0.125
0.493
1.094
1.673
2.223
2.742
3.224
3.666
4.065
4.417
4.719
4.971
5.17
5.315
5.406
5.442
5.423
5.351
5.225
5.047
4.818
4.538
4.21
3.834
3.412
2.946
2.438
1.889
1.303
0.681
0.025
-0.662
-1.377
-2.118
-2.882
-3.667
-4.469
-5.286
-6.116
-6.955
-7.8
-8.649
-9.499
-10.349
-11.195
-12.037
-12.873
-13.701
-14.521
-15.332
-16.133
-16.924
-17.704
-18.472
-19.228
-19.973
-20.705
-21.425
-22.134
-22.831
-23.517
-24.194
-24.861
-25.52
-26.171
-26.815
-27.452
-28.083
-28.71
-29.331
-29.949
-30.564
-31.177
-31.787
-32.396
-33.003
-33.608
-34.211
-34.809
-35.403
-35.99
-36.57
-37.141
-37.701
-38.25
-38.786
-39.309
-39.817
-40.31
-40.787
-41.247
-41.689
-42.11
-42.511
-42.889
-43.244
-43.575
-43.881
-44.161
-44.415
-44.642
-44.844
-45.02
-45.172
-45.299
-45.404
-45.489
-45.556
-45.607
-45.647
-45.678
-45.706
-45.735
-45.769
-45.813
-45.869
-45.941
-46.032
-46.141
-46.268
-46.414
-46.578
-46.758
-46.954
-47.166
-47.394
-47.639
-47.903
-48.188
-48.492
-48.817
-49.157
-49.508
-49.865
-50.22
-50.565
-50.89
-51.184
-51.437
-51.641
-51.788
-51.867
-51.863
-51.755
-51.527
-51.171
-50.681
-50.056
-49.303
-48.428
-47.447
-46.396
-45.303
-44.197
-43.102
-42.017
-40.939
-39.866
-38.799
-37.741
-36.681
-35.583
-34.402
-33.105
-31.647
-29.991
-28.083
-25.83
-23.155
-20.002
-16.332
-12.159
-7.514
-2.427
3.058
8.875
14.935
21.099
27.208
33.135
38.756
43.949
48.581
52.469
55.452
57.417
58.28
58.011
56.606
54.059
50.38
45.637
39.928
33.403
26.249
18.616
10.648
2.503
-5.651
-13.609
-21.184
-28.24
-34.665
-40.368
-45.269
-49.282
-52.342
-54.437
-55.586
-55.837
-55.294
-54.07
-52.278
-50.074
-47.607
-45.01
-42.43
-40.007
-37.885
-36.241
-35.252
-35.05
-35.752
-37.496
-40.261
-43.894
-48.074
-52.219
-55.726
-58.107
-58.955
-57.935
-55.181
-51.143
-46.34
-41.74
-38.252
-36.48
-36.888
-39.468
-42.998
-45.559
-45.394
-40.249
-27.825
-6.045
27.362
73.82
132.543
201.314
277.912
359.199
441.097
518.773
586.029
636.836
667.463
675.777
659.74
618.686
553.999
468.975
369.557
262.947
155.245
51.954
-40.865
-118.103
-176.705
-215.577
-236.241
-241.926
-235.777
-221.219
-202.664
-184.345
-169.183
-158.806
-153.288
-151.63
-152.817
-155.654
-158.366
-159.134
-156.898
-151.36
-142.909
-132.427
-120.7
-108.403
-96.366
-85.422
-76.072
-68.513
-62.725
-58.495
-55.688
-54.271
-54.122
-55.075
-56.962
-59.578
-62.716
-66.191
-69.787
-73.271
-76.477
-79.275
-81.587
-83.406
-84.721
-85.521
-85.786
-85.464
-84.529
-82.987
-80.865
-78.215
-75.13
-71.716
-68.105
-64.454
-60.882
-57.465
-54.258
-51.269
-48.508
-45.986
-43.716
-41.715
-40
-38.576
-37.447
-36.615
-36.065
-35.765
-35.668
-35.705
-35.821
-35.98
-36.154
-36.327
-36.486
-36.614
-36.703
-36.748
-36.74
-36.667
-36.513
-36.257
-35.885
-35.388
-34.76
-34.001
-33.111
-32.086
-30.922
-29.616
-28.163
-26.561
-24.804
-22.881
-20.79
-18.528
-16.097
-13.5
-10.741
-7.827
-4.763
-1.561
1.77
5.22
8.777
12.43
16.166
19.972
23.832
27.731
31.653
35.582
39.501
43.391
47.237
51.02
54.723
58.332
61.829
65.2
68.43
71.503
74.408
77.13
79.658
81.979
84.082
85.959
87.6
88.999
90.15
91.048
91.69
92.074
92.2
92.069
91.683
91.044
90.158
89.03
87.668
86.08
84.274
82.261
80.053
77.66
75.095
72.371
69.5
66.496
63.373
60.144
56.823
53.425
49.962
46.448
42.898
39.324
35.739
32.155
28.584
25.037
21.526
18.061
14.651
11.305
8.03
4.835
1.726
-1.294
-4.219
-7.045
-9.771
-12.395
-14.916
-17.332
-19.645
-21.855
-23.961
-25.967
-27.873
-29.681
-31.394
-33.013
-34.543
-35.985
-37.342
-38.618
-39.816
-40.938
-41.988
-42.968
-43.883
-44.734
-45.526
-46.261
-46.944
-47.576
-48.16
-48.7
-49.197
-49.653
-50.07
-50.449
-50.79
-51.095
-51.365
-51.6
-51.801
-51.97
-52.107
-52.214
-52.292
-52.341
-52.364
-52.362
-52.335
-52.286
-52.217
-52.128
-52.022
-51.902
-51.768
-51.624
-51.471
-51.311
-51.146
-50.978
-50.808
-50.637
-50.469
-50.305
-50.147
-49.998
-49.86
-49.737
-49.632
-49.547
-49.486
-49.45
-49.443
-49.466
-49.521
-49.61
-49.735
-49.897
-50.098
-50.338
-50.618
-50.938
-51.3
-51.702
-52.144
-52.625
-53.145
-53.703
-54.297
-54.926
-55.591
-56.289
-57.019
-57.781
-58.573
-59.393
-60.238
-61.106
-61.993
-62.897
-63.814
-64.741
-65.673
-66.608
-67.542
-68.472
-69.395
-70.307
-71.205
-72.086
-72.948
-73.786
-74.6
-75.386
-76.143
-76.87
-77.565
-78.228
-78.857
-79.453
-80.014
-80.54
-81.031
-81.485
-81.903
-82.283
-82.626
-82.933
-83.203
-83.438
-83.64
-83.809
-83.948
-84.058
-84.142
-84.2
-84.235
-84.249
-84.243
-84.22
-84.183
-84.134
-84.076
-84.011
-83.942
-83.871
-83.8
-83.731
-83.665
-83.605
-83.551
-83.506
-83.47
-83.447
-83.439
-83.447
-83.474
-83.524
-83.597
-83.697
-83.826
-83.985
-84.176
-84.402
-84.665
-84.966
-85.308
-85.693
-86.123
-86.599
-87.124
-87.697
-88.318
-88.987
-89.704
-90.465
-91.271
-92.117
-93.002
-93.922
-94.874
-95.853
-96.856
-97.877
-98.911
-99.949
-100.984
-102.01
-103.016
-103.993
-104.931
-105.821
-106.651
-107.412
-108.093
-108.682
-109.168
-109.539
-109.783
-109.887
-109.842
-109.635
-109.256
-108.695
-107.944
-106.998
-105.849
-104.495
-102.931
-101.158
-99.174
-96.982
-94.585
-91.989
-89.198
-86.222
-83.072
-79.76
-76.3
-72.709
-69.005
-65.209
-61.343
-57.431
-53.499
-49.572
-45.676
-41.84
-38.089
-34.45
-30.949
-27.612
-24.464
-21.535
-18.849
-16.432
-14.311
-12.508
-11.046
-9.943
-9.212
-8.859
-8.888
-9.306
-10.121
-11.349
-12.998
-15.065
-17.547
-20.438
-23.722
-27.372
-31.339
-35.553
-39.945
-44.457
-49.034
-53.638
-58.222
-62.716
-67.049
-71.142
-74.928
-78.368
-81.419
-84.028
-86.169
-87.865
-89.207
-90.336
-91.389
-92.446
-93.558
-94.789
-96.237
-98.055
-100.403
-103.423
-107.186
-111.732
-117.171
-123.48
-130.459
-137.713
-144.519
-150.104
-153.906
-155.513
-154.566
-151.204
-145.844
-138.972
-131.653
-124.912
-119.406
-115.68
-113.714
-112.186
-109.198
-103.028
-91.305
-71.706
-42.131
-0.222
55.255
123.158
201.007
286.226
375.186
463.424
545.716
615.481
666.677
695.724
700.612
679.586
632.388
560.802
468.559
361.986
248.418
134.066
24.633
-73.668
-155.608
-218.087
-260.025
-282.89
-289.762
-283.705
-268.196
-247.825
-227.09
-209.101
-195.628
-186.961
-182.373
-181.114
-182.209
-183.937
-184.414
-182.552
-178.048
-171.256
-163.008
-153.991
-144.763
-136.098
-128.81
-123.366
-119.911
-118.316
-118.211
-119.291
-121.326
-124.038
-127.154
-130.425
-133.607
-136.507
-138.993
-140.954
-142.315
-143.029
-143.064
-142.417
-141.13
-139.269
-136.919
-134.167
-131.086
-127.744
-124.21
-120.56
-116.88
-113.253
-109.752
-106.428
-103.314
-100.432
-97.799
-95.418
-93.277
-91.356
-89.625
-88.063
-86.653
-85.382
-84.236
-83.197
-82.245
-81.363
-80.533
-79.74
-78.971
-78.211
-77.45
-76.676
-75.882
-75.06
-74.202
-73.302
-72.347
-71.328
-70.233
-69.052
-67.776
-66.394
-64.898
-63.281
-61.535
-59.655
-57.636
-55.475
-53.169
-50.714
-48.11
-45.356
-42.452
-39.399
-36.199
-32.857
-29.377
-25.762
-22.021
-18.159
-14.186
-10.11
-5.941
-1.69
2.632
7.013
11.439
15.899
20.377
24.859
29.332
33.778
38.183
42.531
46.806
50.992
55.072
59.031
62.855
66.526
70.032
73.357
76.488
79.411
82.115
84.588
86.818
88.797
90.515
91.966
93.144
94.042
94.659
94.991
95.037
94.797
94.271
93.464
92.377
91.016
89.387
87.498
85.358
82.977
80.368
77.542
74.514
71.299
67.913
64.372
60.693
56.895
52.995
49.013
44.968
40.878
36.763
32.642
28.533
24.453
20.42
16.449
12.557
8.757
5.064
1.49
-1.953
-5.253
-8.4
-11.386
-14.201
-16.841
-19.299
-21.571
-23.655
-25.549
-27.254
-28.772
-30.103
-31.252
-32.224
-33.023
-33.655
-34.13
-34.453
-34.635
-34.685
-34.612
-34.427
-34.14
-33.76
-33.297
-32.759
-32.156
-31.496
-30.787
-30.037
-29.253
-28.443
-27.614
-26.772
-25.923
-25.073
-24.226
-23.385
-22.555
-21.737
-20.933
-20.144
-19.37
-18.611
-17.867
-17.136
-16.416
-15.705
-15.001
-14.298
-13.594
-12.885
-12.166
-11.434
-10.686
-9.917
-9.126
-8.31
-7.469
-6.6
-5.702
-4.776
-3.819
-2.832
-1.814
-0.765
0.316
1.428
2.57
3.741
4.939
6.162
7.409
8.678
9.965
11.269
12.586
13.913
15.248
16.585
17.921
19.252
20.573
21.881
23.171
24.44
25.685
26.906
28.099
29.265
30.403
31.513
32.597
33.654
34.686
35.694
36.679
37.642
38.584
39.508
40.415
41.307
42.185
43.052
43.908
44.757
45.599
46.437
47.273
48.109
48.948
49.793
50.647
51.513
52.395
53.296
54.217
55.161
56.13
57.123
58.143
59.187
60.256
61.348
62.462
63.596
64.749
65.918
67.102
68.299
69.506
70.723
71.947
73.177
74.411
75.649
76.89
78.133
79.378
80.623
81.866
83.107
84.342
85.571
86.79
87.996
89.187
90.36
91.514
92.647
93.757
94.843
95.905
96.942
97.954
98.941
99.905
100.845
101.762
102.658
103.534
104.392
105.232
106.057
106.865
107.659
108.438
109.204
109.956
110.694
111.42
112.136
112.844
113.548
114.25
114.957
115.674
116.409
117.166
117.953
118.773
119.633
120.54
121.498
122.514
123.592
124.738
125.961
127.269
128.67
130.172
131.777
133.492
135.322
137.272
139.347
141.551
143.881
146.343
148.946
151.7
154.616
157.695
160.92
164.281
167.77
171.376
175.084
178.875
182.717
186.596
190.516
194.478
198.488
202.536
206.589
210.621
214.605
218.529
222.406
226.233
229.986
233.664
237.271
240.819
244.342
247.822
251.186
254.377
257.341
260.046
262.498
264.681
266.564
268.122
269.319
270.142
270.608
270.701
270.388
269.647
268.45
266.843
264.944
262.835
260.583
258.232
255.81
253.371
251.001
248.755
246.66
244.724
242.945
241.36
240.01
238.904
238
237.182
236.318
235.326
234.178
232.878
231.399
229.662
227.579
225.085
222.163
218.877
215.208
211.031
206.441
201.713
197.368
194.275
193.106
194.222
198.087
205.04
214.872
227.092
240.627
253.645
264.784
273.092
277.526
277.915
275.228
271.043
267.903
269.228
277.969
296.908
329.024
375.792
436.675
509.775
591.785
678.105
763.626
842.517
907.89
953.559
975.518
971.237
939.394
880.809
798.271
696.294
581.78
462.751
346.115
238.567
146.861
75.325
25.934
-1.049
-8.004
0.942
21.844
49.801
78.885
105.094
126.108
140.551
148.767
151.909
150.967
147.815
145.112
144.313
145.957
150.13
156.1
163.145
170.834
178.378
184.781
189.541
192.484
193.68
193.562
192.461
190.574
188.187
185.587
183.006
180.691
178.823
177.457
176.646
176.431
176.82
177.839
179.48
181.674
184.342
187.397
190.759
194.361
198.141
202.025
205.932
209.776
213.477
216.979
220.248
223.257
225.989
228.431
230.581
232.457
234.087
235.492
236.692
237.7
238.529
239.199
239.732
240.149
240.472
240.719
240.905
241.049
241.167
241.275
241.385
241.509
241.656
241.839
242.072
242.368
242.742
243.207
243.776
244.463
245.28
246.238
247.348
248.618
250.056
251.669
253.462
255.44
257.605
259.959
262.503
265.236
268.157
271.26
274.543
277.998
281.618
285.396
289.321
293.383
297.569
301.867
306.264
310.745
315.296
319.902
324.549
329.219
333.898
338.57
343.218
347.824
352.373
356.847
361.229
365.501
369.649
373.654
377.503
381.179
384.668
387.958
391.035
393.887
396.503
398.873
400.989
402.842
404.427
405.738
406.771
407.525
407.998
408.19
408.103
407.739
407.102
406.195
405.024
403.594
401.911
399.984
397.821
395.432
392.826
390.015
387.011
383.827
380.477
376.973
373.331
369.565
365.689
361.718
357.667
353.552
349.386
345.184
340.961
336.73
332.505
328.297
324.117
319.977
315.885
311.852
307.883
303.987
300.169
296.436
292.793
289.245
285.794
282.445
279.2
276.06
273.027
270.1
267.279
264.563
261.951
259.44
257.027
254.71
252.485
250.347
248.293
246.318
244.415
242.579
240.805
239.087
237.419
235.796
234.211
232.661
231.141
229.647
228.174
226.719
225.279
223.85
222.431
221.017
219.608
218.2
216.792
215.383
213.972
212.557
211.138
209.713
208.282
206.846
205.402
203.951
202.492
201.027
199.554
198.076
196.592
195.104
193.614
192.122
190.63
189.14
187.653
186.169
184.69
183.216
181.748
180.286
178.831
177.382
175.939
174.502
173.068
171.637
170.208
168.778
167.345
165.908
164.464
163.011
161.546
160.068
158.573
157.061
155.527
153.97
152.387
150.774
149.129
147.447
145.727
143.963
142.153
140.292
138.376
136.403
134.368
132.267
130.097
127.855
125.536
123.138
120.659
118.095
115.445
112.707
109.88
106.964
103.957
100.86
97.672
94.395
91.027
87.571
84.026
80.394
76.676
72.873
68.988
65.022
60.977
56.856
52.662
48.398
44.067
39.671
35.215
30.703
26.138
21.524
16.867
12.169
7.435
2.67
-2.123
-6.939
-11.777
-16.631
-21.501
-26.384
-31.278
-36.181
-41.093
-46.013
-50.941
-55.875
-60.818
-65.768
-70.727
-75.695
-80.675
-85.668
-90.676
-95.701
-100.745
-105.811
-110.902
-116.02
-121.168
-126.35
-131.57
-136.83
-142.135
-147.489
-152.895
-158.358
-163.881
-169.467
-175.12
-180.842
-186.634
-192.497
-198.433
-204.44
-210.519
-216.667
-222.883
-229.164
-235.507
-241.907
-248.361
-254.863
-261.408
-267.989
-274.6
-281.234
-287.883
-294.539
-301.196
-307.845
-314.477
-321.085
-327.659
-334.192
-340.673
-347.094
-353.446
-359.719
-365.905
-371.996
-377.984
-383.863
-389.628
-395.273
-400.795
-406.194
-411.467
-416.615
-421.641
-426.548
-431.341
-436.027
-440.615
-445.113
-449.533
-453.888
-458.193
-462.465
-466.723
-470.988
-475.28
-479.622
-484.038
-488.552
-493.188
-497.966
-502.91
-508.041
-513.384
-518.965
-524.81
-530.944
-537.393
-544.178
-551.323
-558.846
-566.763
-575.083
-583.813
-592.963
-602.547
-612.586
-623.101
-634.105
-645.607
-657.61
-670.102
-683.067
-696.474
-710.274
-724.415
-738.845
-753.516
-768.389
-783.421
-798.552
-813.708
-828.794
-843.712
-858.376
-872.7
-886.62
-900.112
-913.157
-925.774
-938.019
-949.929
-961.55
-972.949
-984.159
-995.233
-1006.292
-1017.414
-1028.766
-1040.621
-1053.02
-1065.865
-1078.929
-1091.612
-1103.306
-1113.575
-1121.652
-1126.699
-1128.72
-1128.056
-1125.555
-1123.157
-1122.401
-1124.325
-1130.563
-1142.104
-1157.893
-1176.289
-1194.675
-1207.972
-1211.401
-1200.43
-1169.148
-1115.707
-1043.786
-956.488
-855.37
-738.163
-598.9
-438.659
