Name,Criss Capps
Date of Birth,"Feb 5, 1952"
Recorded Date,2021-08-28 08:25:48 -0400
Classification,Sinus Rhythm
Symptoms,
Software Version,1.90
Device,"Watch5,4"
Sample Rate,512.844 hertz


Lead,Lead I
Unit,µV

-14.086
-22.168
-30.012
-37.388
-44.095
-49.945
-54.783
-58.5
-60.943
-61.955
-61.43
-59.299
-55.549
-50.215
-43.344
-34.998
-25.31
-14.468
-2.686
9.786
22.721
35.882
48.981
61.708
73.712
84.657
94.208
102.049
107.974
111.885
113.828
113.998
112.566
109.591
105.252
99.763
92.869
84.247
73.518
59.808
43.573
25.724
5.629
-16.344
-40.974
-69.171
-96.823
-120.466
-136.239
-140.021
-134.875
-123.932
-110.086
-97.75
-86.193
-74.785
-64.266
-54.043
-45.27
-38.902
-34.365
-31.187
-28.788
-26.579
-24.483
-22.559
-20.778
-19.116
-17.488
-15.884
-14.25
-12.325
-9.744
-6.146
-1.275
4.647
10.868
16.733
21.851
25.711
27.745
27.452
24.133
19.148
16.633
20.006
31.873
50.866
69.632
84.013
94.641
107.51
137.724
195.773
282.979
395.679
518.742
635.601
732.952
792.851
799.473
739.431
604.491
401.908
154.18
-103.426
-333.896
-509.845
-618.507
-667.191
-671.9
-646.674
-603.751
-547.274
-479.431
-410.011
-349.885
-306.651
-284.333
-276.644
-270.161
-258.061
-236.997
-208.127
-181.365
-161.12
-147.893
-142.003
-137.365
-129.942
-119.412
-104.936
-88.197
-71.082
-53.926
-37.534
-22.815
-10.493
-1.193
4.862
7.887
8.278
6.381
2.559
-2.691
-8.802
-15.291
-21.818
-28.195
-34.326
-40.101
-45.37
-49.991
-53.901
-57.079
-59.523
-61.261
-62.298
-62.635
-62.318
-61.402
-59.956
-58.077
-55.838
-53.287
-50.48
-47.469
-44.326
-41.165
-38.063
-35.06
-32.195
-29.492
-26.997
-24.787
-22.912
-21.385
-20.202
-19.344
-18.8
-18.576
-18.67
-19.057
-19.666
-20.399
-21.126
-21.695
-21.941
-21.678
-20.694
-18.791
-15.765
-11.394
-5.605
1.573
10.129
20.009
31.306
44.291
59.017
75.32
93.228
112.851
134.281
157.733
182.891
208.851
235.037
261.15
286.701
311.196
333.987
354.095
371.283
386.143
399.009
410.053
419.531
427.566
434.581
441.419
448.34
454.991
461.164
466.673
471.453
475.721
479.521
482.686
485.314
487.673
489.987
492.555
495.468
498.543
501.559
504.124
505.814
506.453
505.882
503.919
500.69
496.322
490.993
485.407
480.114
475.086
470.258
465.143
458.517
449.47
437.098
419.759
396.261
366.048
328.528
284.165
234.711
181.661
126.777
72.655
21.225
-25.901
-66.82
-100.789
-128.267
-149.702
-166.154
-179.359
-190.358
-200.112
-209.942
-220.436
-231.655
-243.646
-255.89
-267.56
-278.38
-288.192
-296.741
-304.135
-310.523
-316.009
-320.989
-325.925
-331.04
-336.473
-342.297
-348.431
-354.831
-361.473
-368.234
-374.985
-381.606
-387.969
-393.984
-399.571
-404.647
-409.145
-413.013
-416.207
-418.708
-420.494
-421.534
-421.822
-421.358
-420.167
-418.32
-415.886
-412.95
-409.616
-405.983
-402.181
-398.364
-394.641
-391.1
-387.813
-384.825
-382.208
-380.061
-378.449
-377.419
-376.985
-377.101
-377.723
-378.792
-380.219
-381.919
-383.77
-385.617
-387.355
-388.899
-390.2
-391.276
-392.12
-392.715
-393.087
-393.222
-393.161
-393.031
-392.851
-392.577
-392.107
-391.139
-389.468
-387.061
-383.761
-379.461
-374.345
-368.668
-363.033
-358.456
-355.598
-354.837
-356.504
-360.306
-365.283
-370.101
-372.708
-370.602
-361.818
-344.679
-317.809
-281.027
-235.172
-181.867
-123.75
-63.875
-4.907
50.579
100.184
142.565
177.23
204.347
224.987
240.549
252.209
261.166
268.812
276.074
283.561
291.916
301.308
311.676
323.262
336.33
350.729
366.442
383.418
400.838
417.921
433.94
447.66
457.921
464.008
465.034
460.199
449.692
433.962
413.721
390.339
364.938
338.272
311.335
285.098
259.968
236.156
213.523
191.415
169.493
147.719
125.971
104.216
82.556
61.065
39.976
19.716
0.485
-17.681
-34.759
-50.888
-66.24
-80.859
-94.78
-107.93
-120.003
-130.704
-139.833
-147.128
-152.333
-155.343
-156.179
-155.29
-153.605
-152.055
-151.39
-152.211
-154.997
-159.986
-167.091
-175.425
-183.175
-188.197
-188.432
-181.918
-166.714
-141.144
-103.741
-54.848
2.408
64.295
127.063
189.343
253.691
320.688
386.126
439.979
466.183
452.445
395.87
302.44
184.853
54.314
-81.198
-215.486
-340.249
-442.654
-513.804
-550.481
-558.024
-550.405
-536.969
-521.977
-505.91
-484.351
-456.959
-427.242
-398.606
-375.419
-360.034
-352.05
-350.674
-354.786
-362.822
-373.397
-385.261
-396.897
-407.146
-415.651
-422.369
-427.547
-431.841
-435.892
-440.33
-445.996
-453.443
-462.777
-473.906
-486.507
-500.092
-514.216
-528.427
-542.214
-555.223
-567.277
-578.297
-588.32
-597.427
-605.658
-613.066
-619.736
-625.724
-631.08
-635.86
-640.087
-643.791
-647.043
-649.875
-652.282
-654.236
-655.635
-656.329
-656.165
-654.96
-652.543
-648.785
-643.569
-636.813
-628.478
-618.572
-607.153
-594.323
-580.174
-564.819
-548.415
-531.159
-513.327
-495.221
-477.142
-459.425
-442.399
-426.391
-411.718
-398.635
-387.327
-377.903
-370.406
-364.821
-361.11
-359.17
-358.837
-359.885
-362.013
-364.941
-368.377
-371.947
-375.24
-377.773
-379.042
-378.654
-376.257
-371.487
-364.101
-353.957
-341.012
-325.492
-307.668
-287.629
-265.526
-241.478
-215.358
-187.143
-156.774
-123.895
-88.438
-50.875
-11.811
27.776
66.414
102.873
135.902
163.901
185.831
201.391
210.626
214.25
213.52
209.378
202.785
195.068
187.173
179.629
172.757
166.348
159.899
153.268
146.478
139.411
132.014
124.326
116.355
108.333
100.802
94.096
88.233
83.213
79.078
75.798
73.497
72.217
71.408
70.561
69.461
67.842
65.464
62.232
57.896
52.36
46.141
39.604
32.842
26.014
19.156
12.255
5.369
-1.732
-9.508
-17.95
-26.645
-34.963
-42.03
-47.118
-49.553
-48.347
-42.658
-32.321
-17.672
0.422
20.649
41.956
63.451
83.986
102.596
118.809
132.393
143.581
153.146
161.545
168.96
175.742
182.12
188.181
194.149
200.036
205.434
210.168
214.272
217.72
220.635
223.11
225.031
226.364
227.298
227.964
228.465
228.894
229.2
229.353
229.396
229.337
229.135
228.714
227.953
226.758
225.091
222.922
220.238
217.025
213.266
208.97
204.149
198.819
192.998
186.694
179.9
172.617
164.848
156.606
147.938
138.898
129.547
119.972
110.262
100.519
90.837
81.281
71.911
62.789
53.976
45.54
37.568
30.148
23.378
17.368
12.199
7.93
4.587
2.164
0.623
-0.104
-0.077
0.654
2.042
4.05
6.627
9.717
13.256
17.175
21.391
25.811
30.354
34.956
39.579
44.207
48.858
53.586
58.442
63.478
68.736
74.244
80.038
86.163
92.65
99.515
106.773
114.431
122.484
130.91
139.666
148.689
157.88
167.109
176.231
185.09
193.539
201.448
208.679
215.093
220.576
225.035
228.397
230.609
231.628
231.436
230.041
227.475
223.804
219.128
213.574
207.305
200.485
193.264
185.794
178.227
170.693
163.319
156.224
149.506
143.264
137.578
132.493
128.043
124.237
121.04
118.395
116.212
114.366
112.746
111.241
109.709
108.03
106.09
103.732
100.776
97.097
92.654
87.564
82.131
76.683
71.527
67.031
63.612
61.554
60.88
61.141
61.379
60.515
57.636
52.024
43.134
30.824
15.503
-1.507
-17.85
-30.583
-36.838
-34.2
-20.416
6.271
46.879
101.603
168.123
241.559
317.11
390.079
458.5
524.088
585.31
637.548
671.812
674.901
640.667
570.237
470.725
354.413
230.468
106.133
-10.13
-108.988
-181.472
-222.102
-231.775
-218.3
-190.106
-155.43
-122.135
-93.67
-73.53
-62.685
-57.3
-55.193
-54.027
-53.02
-55.214
-61.631
-71.888
-84.803
-97.244
-107.315
-114.349
-117.985
-118.641
-116.925
-113.416
-108.937
-104.462
-100.631
-97.844
-96.342
-96.098
-96.974
-98.78
-101.169
-103.684
-106.014
-107.958
-109.4
-110.362
-110.855
-110.87
-110.451
-109.66
-108.547
-107.157
-105.514
-103.615
-101.477
-99.132
-96.621
-94.006
-91.338
-88.664
-86.018
-83.424
-80.898
-78.457
-76.107
-73.847
-71.672
-69.57
-67.533
-65.557
-63.635
-61.758
-59.912
-58.081
-56.25
-54.406
-52.539
-50.64
-48.698
-46.706
-44.655
-42.541
-40.358
-38.101
-35.766
-33.346
-30.835
-28.228
-25.521
-22.709
-19.79
-16.761
-13.62
-10.366
-7.001
-3.525
0.057
3.743
7.528
11.406
15.37
19.413
23.527
27.702
31.93
36.201
40.504
44.828
49.163
53.497
57.818
62.114
66.373
70.582
74.73
78.804
82.792
86.682
90.461
94.118
97.643
101.023
104.248
107.309
110.197
112.902
115.419
117.739
119.859
121.774
123.48
124.976
126.259
127.329
128.186
128.832
129.268
129.496
129.519
129.343
128.97
128.407
127.659
126.733
125.638
124.38
122.968
121.413
119.722
117.907
115.978
113.948
111.826
109.625
107.357
105.035
102.67
100.275
97.862
95.441
93.024
90.622
88.244
85.9
83.6
81.351
79.162
77.04
74.992
73.025
71.143
69.351
67.654
66.055
64.558
63.164
61.874
60.689
59.608
58.631
57.757
56.981
56.3
55.711
55.208
54.786
54.437
54.155
53.932
53.76
53.63
53.533
53.461
53.403
53.351
53.294
53.225
53.134
53.013
52.853
52.646
52.385
52.062
51.67
51.204
50.655
50.02
49.291
48.465
47.536
46.502
45.358
44.104
42.736
41.254
39.659
37.949
36.127
34.196
32.157
30.015
27.776
25.446
23.032
20.544
17.991
15.383
12.73
10.043
7.329
4.6
1.862
-0.876
-3.608
-6.324
-9.016
-11.675
-14.287
-16.844
-19.331
-21.735
-24.043
-26.245
-28.332
-30.298
-32.133
-33.826
-35.366
-36.746
-37.952
-38.965
-39.771
-40.359
-40.737
-40.943
-40.996
-40.902
-40.711
-40.505
-40.352
-40.305
-40.371
-40.481
-40.62
-40.875
-41.158
-41.162
-40.805
-40.148
-39.125
-38.024
-36.214
-31.872
-25.377
-18.284
-13.277
-15.382
-24.169
-34.673
-41.901
-38.776
-25.124
-7.751
8.057
16.566
16.866
13.885
10.552
8.857
9.247
9.585
8.922
7.298
4.651
1.289
-2.714
-7.581
-13.311
-19.742
-26.737
-34.198
-42.01
-50.038
-58.117
-66.03
-73.606
-80.754
-87.402
-93.476
-98.915
-103.645
-107.598
-110.769
-113.184
-114.881
-115.933
-116.404
-116.362
-115.914
-115.197
-114.349
-113.509
-112.799
-112.317
-112.174
-112.468
-113.317
-114.873
-117.178
-120.177
-123.714
-127.468
-131.085
-134.268
-136.619
-137.651
-137.074
-134.777
-130.974
-126.343
-121.583
-117.241
-113.86
-111.909
-111.585
-112.738
-114.487
-115.128
-112.635
-105.002
-90.408
-67.045
-33.252
12.072
69.178
135.902
207.799
280.775
350.625
416.294
480.438
541.213
594.267
630.448
634.282
599.043
525.293
419.005
296.66
171.714
53.961
-44.46
-118.286
-165.911
-186.305
-186.799
-174.92
-154.068
-130.647
-106.454
-81.667
-60.85
-43.304
-29.067
-20.116
-14.774
-14.402
-20.189
-30.897
-45.892
-63.101
-80.027
-94.89
-106.502
-114.569
-119.172
-120.657
-119.647
-116.707
-112.677
-108.721
-105.493
-103.29
-102.257
-102.188
-102.864
-104.14
-105.664
-106.97
-107.801
-108.017
-107.579
-106.593
-105.102
-103.104
-100.657
-97.827
-94.661
-91.205
-87.471
-83.448
-79.158
-74.647
-69.967
-65.189
-60.357
-55.503
-50.655
-45.834
-41.063
-36.361
-31.736
-27.191
-22.732
-18.365
-14.098
-9.941
-5.893
-1.952
1.888
5.633
9.287
12.853
16.333
19.727
23.037
26.261
29.399
32.447
35.406
38.274
41.054
43.746
46.352
48.87
51.302
53.65
55.912
58.089
60.18
62.185
64.104
65.935
67.677
69.329
70.89
72.357
73.73
75.007
76.185
77.262
78.237
79.108
79.874
80.533
81.085
81.529
81.866
82.096
82.221
82.241
82.16
81.978
81.7
81.329
80.866
80.317
79.686
78.975
78.19
77.335
76.415
75.435
74.401
73.318
72.19
71.025
69.828
68.604
67.359
66.099
64.829
63.555
62.282
61.015
59.758
58.518
57.297
56.099
54.928
53.786
52.677
51.603
50.566
49.569
48.613
47.7
46.833
46.012
45.24
44.517
43.847
43.229
42.667
42.161
41.713
41.326
41.001
40.74
40.545
40.418
40.361
40.375
40.463
40.625
40.865
41.184
41.583
42.067
42.636
43.294
44.044
44.888
45.828
46.867
48.007
49.249
50.594
52.045
53.601
55.263
57.032
58.908
60.892
62.981
65.176
67.473
69.871
72.367
74.956
77.635
80.398
83.239
86.154
89.138
92.183
95.284
98.432
101.619
104.837
108.077
111.327
114.577
117.813
121.024
124.201
127.331
130.405
133.411
136.34
139.185
141.937
144.586
147.121
149.531
151.802
153.923
155.884
157.673
159.277
160.687
161.897
162.908
163.717
164.321
164.715
164.89
164.841
164.574
164.093
163.404
162.513
161.438
160.204
158.851
157.419
155.934
154.411
152.854
151.273
149.676
148.074
146.471
144.859
143.228
141.579
139.922
138.259
136.575
134.825
132.94
130.856
128.538
125.968
123.138
120.045
116.703
113.142
109.424
105.637
101.851
98.122
94.49
91.004
87.749
84.846
82.442
80.677
79.668
79.512
80.302
82.111
84.959
88.827
93.635
99.264
105.621
112.616
120.16
128.148
136.437
144.839
153.152
161.166
168.662
175.435
181.271
185.989
189.482
191.686
192.597
192.248
190.656
187.838
183.844
178.734
172.596
165.558
157.755
149.349
140.545
131.554
122.588
113.834
105.419
97.432
89.948
83.018
76.699
71.053
66.099
61.846
58.301
55.439
53.216
51.556
50.326
49.38
48.592
47.834
47
45.994
44.702
43.034
40.878
38.069
34.534
30.286
25.44
20.305
15.239
10.556
6.671
4.055
2.966
3.428
5.034
6.881
8.01
7.584
4.883
-0.653
-9.26
-20.61
-33.453
-45.667
-54.692
-57.849
-52.835
-37.655
-10.508
29.589
82.423
146.759
218.945
293.318
364.956
428.904
483.576
531.316
571.349
600.816
611.551
590.313
530.166
430.363
299.507
155.449
14.855
-107.061
-200.784
-264.756
-299.769
-310.117
-301.316
-277.004
-243.562
-208.711
-178.263
-158.665
-150.995
-150.438
-153.744
-157.109
-159.619
-164.678
-173.228
-184.775
-197.796
-209.131
-217.036
-221.168
-221.603
-219.071
-214.448
-208.674
-202.816
-197.615
-193.524
-190.703
-189.085
-188.568
-188.926
-189.769
-190.641
-191.169
-191.11
-190.376
-188.987
-186.961
-184.338
-181.177
-177.559
-173.58
-169.315
-164.827
-160.171
-155.416
-150.651
-145.97
-141.453
-137.175
-133.208
-129.59
-126.343
-123.452
-120.85
-118.474
-116.272
-114.189
-112.187
-110.219
-108.211
-106.102
-103.846
-101.422
-98.87
-96.238
-93.575
-90.947
-88.431
-86.172
-84.412
-83.394
-83.346
-84.468
-86.899
-90.837
-96.565
-104.265
-114.035
-125.814
-139.307
-154.372
-171.06
-189.383
-209.351
-230.965
-254.097
-278.901
-305.872
-335.027
-365.909
-397.767
-429.437
-459.869
-488.297
-513.616
-534.45
-550.036
-560.167
-565.21
-566.184
-563.896
-558.837
-551.761
-543.615
-535.039
-526.41
-517.691
-508.391
-498.305
-487.549
-476.194
-464.265
-451.834
-438.975
-425.933
-413.179
-401.024
-389.612
-379.059
-369.377
-360.556
-352.609
-345.459
-338.928
-332.845
-327.029
-321.28
-315.49
-309.574
-303.453
-297.102
-290.489
-283.579
-276.355
-268.795
-260.889
-252.655
-244.11
-235.28
-226.23
-217.038
-207.813
-198.699
-189.797
-181.178
-172.894
-164.973
-157.441
-150.329
-143.653
-137.421
-131.642
-126.32
-121.46
-117.071
-113.142
-109.651
-106.561
-103.818
-101.382
-99.227
-97.327
-95.668
-94.236
-93.015
-92
-91.188
-90.575
-90.15
-89.9
-89.81
-89.867
-90.063
-90.392
-90.85
-91.432
-92.132
-92.945
-93.864
-94.884
-95.998
-97.196
-98.469
-99.81
-101.211
-102.67
-104.184
-105.75
-107.366
-109.031
-110.745
-112.509
-114.321
-116.182
-118.089
-120.042
-122.041
-124.085
-126.173
-128.304
-130.48
-132.698
-134.961
-137.266
-139.616
-142.009
-144.445
-146.924
-149.445
-152.008
-154.61
-157.251
-159.928
-162.639
-165.383
-168.156
-170.954
-173.773
-176.609
-179.456
-182.308
-185.158
-187.999
-190.824
-193.626
-196.398
-199.131
-201.819
-204.454
-207.027
-209.531
-211.958
-214.298
-216.544
-218.687
-220.717
-222.626
-224.406
-226.048
-227.544
-228.884
-230.061
-231.068
-231.897
-232.54
-232.991
-233.245
-233.296
-233.141
-232.776
-232.199
-231.409
-230.406
-229.191
-227.765
-226.131
-224.293
-222.254
-220.02
-217.598
-214.995
-212.219
-209.281
-206.194
-202.97
-199.624
-196.171
-192.629
-189.013
-185.341
-181.631
-177.898
-174.16
-170.432
-166.732
-163.079
-159.493
-155.992
-152.596
-149.321
-146.185
-143.204
-140.391
-137.757
-135.31
-133.057
-131.01
-129.187
-127.603
-126.269
-125.192
-124.374
-123.808
-123.483
-123.373
-123.44
-123.641
-123.93
-124.264
-124.608
-124.925
-125.176
-125.312
-125.275
-125.009
-124.472
-123.63
-122.458
-120.954
-119.139
-117.07
-114.845
-112.566
-110.332
-108.249
-106.422
-104.965
-103.999
-103.635
-103.961
-105.077
-107.089
-109.993
-113.703
-118
-122.498
-126.819
-130.606
-133.42
-134.813
-134.515
-132.395
-128.63
-123.751
-118.15
-112.088
-105.783
-99.244
-92.366
-85.02
-76.527
-65.622
-50.376
-28.143
3.183
44.169
92.417
143.991
195.683
246.888
302.71
369.1
449.723
544.618
645.274
740.255
817.484
864.438
873.49
840.492
766.192
656.244
520.629
374.549
233.608
114.599
30.471
-17.197
-32.78
-26.319
-10.654
10.208
36.149
65.704
100.294
135.648
164.639
186.861
200.948
207.642
211.094
210.487
205.869
199.106
190.461
182.345
177.104
174.985
176.167
180.325
186.447
193.723
201.395
208.426
214.1
218.208
220.673
221.629
221.395
220.256
218.562
216.806
215.324
214.267
213.716
213.637
213.978
214.745
215.901
217.37
219.099
221.04
223.16
225.452
227.888
230.417
232.978
235.503
237.93
240.224
242.357
244.311
246.076
247.641
249.005
250.176
251.166
251.986
252.643
253.144
253.498
253.719
253.826
253.84
253.778
253.656
253.485
253.279
253.049
252.806
252.56
252.316
252.084
251.87
251.683
251.534
251.43
251.379
251.386
251.457
251.598
251.811
252.098
252.461
252.898
253.409
253.992
254.643
255.357
256.131
256.957
257.829
258.739
259.677
260.636
261.604
262.572
263.528
264.46
265.359
266.212
267.007
267.733
268.38
268.935
269.388
269.729
269.948
270.035
269.983
269.782
269.426
268.908
268.223
267.365
266.332
265.119
263.725
262.149
260.39
258.448
256.325
254.023
251.544
248.893
246.073
243.09
239.948
236.655
233.215
229.636
225.927
222.093
218.144
214.087
209.932
205.688
201.362
196.965
192.505
187.991
183.432
178.837
174.214
169.573
164.922
160.27
155.624
150.994
146.388
141.812
137.275
132.784
128.346
123.966
119.65
115.405
111.235
107.145
103.139
99.222
95.397
91.669
88.038
84.509
81.082
77.76
74.543
71.433
68.43
65.535
62.747
60.066
57.491
55.023
52.659
50.397
48.235
46.169
44.197
42.313
40.514
38.795
37.149
35.573
34.061
32.608
31.208
29.856
28.547
27.274
26.033
24.818
23.622
22.442
21.27
20.102
18.932
17.757
16.571
15.369
14.147
12.9
11.624
10.314
8.967
7.579
6.148
4.67
3.146
1.576
-0.039
-1.696
-3.39
-5.119
-6.877
-8.66
-10.462
-12.279
-14.106
-15.939
-17.774
-19.604
-21.425
-23.228
-25.003
-26.742
-28.435
-30.071
-31.64
-33.129
-34.53
-35.833
-37.031
-38.114
-39.071
-39.885
-40.544
-41.044
-41.381
-41.556
-41.575
-41.447
-41.185
-40.818
-40.371
-39.869
-39.332
-38.767
-38.175
-37.564
-36.939
-36.311
-35.681
-35.03
-34.332
-33.573
-32.729
-31.781
-30.7
-29.423
-27.904
-26.11
-24.021
-21.652
-19.033
-16.187
-13.152
-9.978
-6.735
-3.528
-0.475
2.33
4.797
6.837
8.352
9.21
9.297
8.538
6.877
4.296
0.797
-3.628
-8.961
-15.139
-22.082
-29.669
-37.749
-46.208
-54.926
-63.774
-72.624
-81.321
-89.726
-97.749
-105.306
-112.326
-118.754
-124.513
-129.554
-133.878
-137.493
-140.433
-142.783
-144.605
-145.978
-147.015
-147.786
-148.375
-148.879
-149.36
-149.901
-150.589
-151.472
-152.643
-154.226
-156.243
-158.668
-161.342
-163.881
-165.909
-167.116
-167.108
-165.518
-162.154
-156.964
-150.336
-143.134
-136.237
-130.383
-126.228
-124.278
-124.765
-127.545
-131.63
-135.134
-135.935
-131.973
-121.211
-101.708
-71.78
-29.947
23.361
84.982
151.236
218.177
283.509
349.367
416.918
482.548
538.911
572.078
567.44
520.122
431.991
310.933
171.967
28.252
-108.197
-222.176
-302.869
-346.2
-351.983
-327.576
-286.03
-236.87
-189.973
-155.706
-135.798
-130.061
-134.993
-141.161
-144.879
-145.34
-142.859
-141.452
-142.198
-144.047
-146.149
-146.434
-143.881
-138.993
-132.559
-125.912
-120.159
-115.629
-112.391
-110.421
-109.705
-110.236
-111.803
-113.976
-116.331
-118.584
-120.577
-122.238
-123.503
-124.286
-124.55
-124.318
-123.626
-122.515
-121.02
-119.162
-116.966
-114.476
-111.74
-108.813
-105.752
-102.615
-99.462
-96.347
-93.308
-90.374
-87.562
-84.884
-82.347
-79.948
-77.675
-75.513
-73.45
-71.478
-69.587
-67.765
-65.996
-64.265
-62.559
-60.864
-59.17
-57.468
-55.749
-54.003
-52.227
-50.415
-48.564
-46.671
-44.733
-42.743
-40.697
-38.59
-36.419
-34.18
-31.869
-29.483
-27.021
-24.482
-21.867
-19.178
-16.415
-13.583
-10.683
-7.722
-4.702
-1.63
1.487
4.644
7.833
11.045
14.272
17.505
20.734
23.95
27.142
30.302
33.419
36.484
39.486
42.416
45.264
48.02
50.675
53.219
55.644
57.94
60.099
62.114
63.976
65.68
67.219
68.587
69.78
70.792
71.622
72.264
72.719
72.983
73.056
72.938
72.63
72.133
71.45
70.584
69.537
68.314
66.919
65.357
63.634
61.754
59.724
57.55
55.239
52.798
50.234
47.556
44.771
41.887
38.913
35.857
32.729
29.538
26.292
23.001
19.675
16.323
12.955
9.579
6.204
2.84
-0.505
-3.824
-7.108
-10.35
-13.543
-16.68
-19.755
-22.761
-25.693
-28.545
-31.311
-33.985
-36.563
-39.04
-41.41
-43.669
-45.813
-47.836
-49.735
-51.507
-53.146
-54.652
-56.02
-57.247
-58.333
-59.278
-60.083
-60.748
-61.272
-61.652
-61.894
-62.003
-61.971
-61.794
-61.468
-60.986
-60.357
-59.598
-58.698
-57.647
-56.476
-55.207
-53.862
-52.47
-51.012
-49.449
-47.81
-46.144
-44.342
-42.277
-40.034
-37.61
-34.987
-32.456
-29.247
-24.61
-19.624
-14.618
-11.574
-12.862
-15.862
-18.825
-19.149
-13.258
-4.319
4.987
12.821
16.147
17.138
17.995
19.208
22.12
25.955
29.717
33.602
37.489
41.446
45.682
50.072
54.521
59.081
63.771
68.583
73.52
78.59
83.792
89.135
94.624
100.219
105.88
111.587
117.322
123.076
128.834
134.573
140.264
145.889
151.44
156.928
162.364
167.762
173.156
178.596
184.146
189.89
195.892
202.188
208.804
215.759
223.041
230.636
238.56
246.8
255.308
264.024
272.835
281.588
290.171
298.457
306.115
312.781
318.354
322.677
325.615
327.378
327.09
323.92
318.957
312.551
306.787
304.164
302.036
298.693
291.579
277.182
259
240.034
222.385
209.378
198.933
188.922
178.973
167.799
156.273
145.483
135.276
125.832
117.131
108.971
101.471
94.687
88.465
82.677
77.212
71.92
66.679
61.378
55.877
50.062
43.864
37.207
30.038
22.274
13.773
4.508
-5.434
-15.839
-26.256
-36.22
-45.372
-53.251
-59.337
-63.379
-65.381
-65.722
-65.384
-65.326
-66.145
-68.42
-72.637
-78.745
-86.176
-93.657
-98.789
-98.963
-92.1
-76.244
-49.615
-11.111
39.691
102.343
173.633
248.246
321.255
387.417
445.02
496.4
541.416
578.416
599.426
589.839
540.176
445.648
313.078
163.273
16.709
-105.646
-190.822
-241.997
-264.668
-268.43
-262.842
-246.46
-220.984
-190.746
-157.99
-131.688
-115.337
-104.831
-98.663
-92.853
-86.068
-82.576
-83.888
-90.179
-100.759
-112.431
-122.728
-130.52
-135.227
-136.962
-136.137
-133.286
-128.916
-123.707
-118.621
-114.304
-111.097
-109.208
-108.52
-108.785
-109.814
-111.252
-112.633
-113.69
-114.273
-114.315
-113.891
-113.046
-111.79
-110.196
-108.353
-106.319
-104.143
-101.848
-99.432
-96.928
-94.392
-91.887
-89.488
-87.242
-85.179
-83.327
-81.704
-80.33
-79.216
-78.361
-77.758
-77.405
-77.304
-77.455
-77.859
-78.509
-79.389
-80.487
-81.783
-83.264
-84.916
-86.725
-88.677
-90.76
-92.96
-95.265
-97.664
-100.141
-102.68
-105.263
-107.871
-110.486
-113.09
-115.665
-118.191
-120.651
-123.027
-125.302
-127.461
-129.488
-131.366
-133.083
-134.625
-135.979
-137.137
-138.088
-138.824
-139.34
-139.632
-139.696
-139.533
-139.141
-138.524
-137.683
-136.624
-135.353
-133.877
-132.203
-130.343
-128.306
-126.104
-123.751
-121.26
-118.646
-115.926
-113.114
-110.228
-107.286
-104.304
-101.3
-98.292
-95.298
-92.335
-89.42
-86.57
-83.803
-81.132
-78.574
-76.141
-73.848
-71.705
-69.723
-67.912
-66.28
-64.834
-63.58
-62.523
-61.667
-61.015
-60.567
-60.325
-60.286
-60.449
-60.81
-61.365
-62.107
-63.031
-64.128
-65.39
-66.807
-68.37
-70.066
-71.884
-73.811
-75.835
-77.942
-80.118
-82.35
-84.622
-86.921
-89.232
-91.541
-93.834
-96.098
-98.319
-100.483
-102.578
-104.592
-106.511
-108.325
-110.021
-111.59
-113.02
-114.302
-115.426
-116.386
-117.172
-117.779
-118.2
-118.431
-118.466
-118.302
-117.936
-117.367
-116.593
-115.615
-114.432
-113.048
-111.465
-109.687
-107.719
-105.566
-103.235
-100.735
-98.072
-95.255
-92.294
-89.199
-85.98
-82.649
-79.217
-75.698
-72.103
-68.447
-64.744
-61.008
-57.252
-53.492
-49.742
-46.015
-42.327
-38.69
-35.118
-31.625
-28.222
-24.923
-21.739
-18.681
-15.757
-12.976
-10.345
-7.869
-5.552
-3.395
-1.399
0.437
2.113
3.632
4.997
6.213
7.283
8.212
9.006
9.672
10.22
10.662
11.013
11.284
11.493
11.655
11.787
11.91
12.039
12.188
12.371
12.604
12.906
13.299
13.801
14.422
15.17
16.048
17.059
18.201
19.461
20.816
22.24
23.71
25.214
26.758
28.34
29.957
31.603
33.268
34.957
36.693
38.489
40.353
42.296
44.325
46.476
48.812
51.378
54.206
57.302
60.63
64.16
67.861
71.683
75.566
79.422
83.132
86.606
89.777
92.571
94.921
96.721
97.829
98.139
97.576
96.096
93.7
90.401
86.219
81.228
75.528
69.248
62.553
55.565
48.377
41.091
33.812
26.678
19.854
13.467
7.608
2.359
-2.241
-6.182
-9.477
-12.215
-14.502
-16.443
-18.154
-19.737
-21.284
-22.897
-24.665
-26.662
-29.005
-31.841
-35.253
-39.228
-43.556
-47.865
-51.774
-54.914
-56.874
-57.165
-55.394
-51.502
-46.003
-39.774
-33.589
-28.277
-24.671
-23.444
-25.276
-29.383
-32.829
-33.75
-31.105
-24.695
-16.653
-4.273
19.605
60.296
122.309
203.142
292.711
383.894
472.781
557.616
638.036
707.161
751.716
760.073
726.68
655.509
557.965
444.607
323.793
201.592
85.249
-12.845
-83.452
-122.578
-133.884
-129.873
-119.561
-107.309
-93.889
-75.519
-52.055
-26.707
-2.713
15.731
26.498
29.984
26.972
18.879
7.563
-5.373
-18.463
-30.152
-39.322
-45.562
-48.763
-49.148
-47.352
-44.052
-39.948
-35.951
-32.717
-30.499
-29.436
-29.482
-30.424
-32.076
-34.144
-36.171
-37.844
-39.033
-39.676
-39.833
-39.584
-38.949
-38.019
-36.95
-35.839
-34.738
-33.646
-32.482
-31.206
-29.839
-28.406
-26.957
-25.534
-24.143
-22.799
-21.528
-20.331
-19.203
-18.107
-16.967
-15.74
-14.42
-13.028
-11.627
-10.257
-8.931
-7.667
-6.478
-5.375
-4.371
-3.464
-2.635
-1.876
-1.191
-0.598
-0.131
0.194
0.38
0.439
0.401
0.287
0.112
-0.106
-0.342
-0.581
-0.808
-1.019
-1.222
-1.416
-1.598
-1.76
-1.89
-1.982
-2.033
-2.041
-2.006
-1.926
-1.802
-1.636
-1.433
-1.196
-0.927
-0.625
-0.289
0.081
0.484
0.918
1.382
1.872
2.384
2.915
3.458
4.006
4.555
5.098
5.629
6.142
6.63
7.088
7.509
7.887
8.218
8.494
8.712
8.865
8.949
8.959
8.892
8.743
8.509
8.188
7.778
7.276
6.682
5.995
5.213
4.337
3.368
2.307
1.154
-0.088
-1.417
-2.829
-4.321
-5.887
-7.522
-9.221
-10.977
-12.784
-14.635
-16.523
-18.44
-20.378
-22.331
-24.29
-26.248
-28.197
-30.128
-32.036
-33.912
-35.749
-37.541
-39.28
-40.96
-42.575
-44.12
-45.589
-46.978
-48.282
-49.497
-50.621
-51.649
-52.579
-53.409
-54.139
-54.766
-55.291
-55.713
-56.035
-56.256
-56.379
-56.407
-56.341
-56.186
-55.944
-55.62
-55.217
-54.739
-54.191
-53.578
-52.904
-52.176
-51.398
-50.576
-49.717
-48.828
-47.914
-46.981
-46.035
-45.083
-44.129
-43.178
-42.237
-41.311
-40.403
-39.518
-38.662
-37.838
-37.052
-36.305
-35.603
-34.947
-34.34
-33.786
-33.286
-32.842
-32.456
-32.129
-31.864
-31.662
-31.522
-31.445
-31.431
-31.476
-31.579
-31.736
-31.94
-32.187
-32.47
-32.784
-33.122
-33.48
-33.85
-34.229
-34.613
-34.997
-35.375
-35.743
-36.091
-36.41
-36.693
-36.929
-37.109
-37.223
-37.259
-37.207
-37.06
-36.81
-36.45
-35.967
-35.346
-34.573
-33.647
-32.564
-31.327
-29.944
-28.424
-26.782
-25.05
-23.256
-21.425
-19.581
-17.726
-15.862
-13.996
-12.133
-10.281
-8.439
-6.585
-4.69
-2.737
-0.702
1.439
3.72
6.209
8.959
12.004
15.37
19.045
23.002
27.217
31.652
36.252
40.943
45.617
50.151
54.451
58.42
61.966
64.99
67.357
68.95
69.689
69.505
68.365
66.26
63.19
59.173
54.273
48.58
42.223
35.365
28.146
20.697
13.151
5.638
-1.693
-8.702
-15.274
-21.306
-26.705
-31.397
-35.327
-38.45
-40.772
-42.342
-43.24
-43.596
-43.546
-43.197
-42.663
-42.067
-41.534
-41.197
-41.177
-41.563
-42.483
-44.102
-46.489
-49.607
-53.264
-57.084
-60.684
-63.74
-65.844
-66.474
-65.292
-62.317
-57.984
-53.154
-48.689
-45.069
-42.696
-42.221
-44.002
-47.6
-51.757
-54.336
-52.964
-45.816
-31.107
-6.536
30.065
79.064
138.595
205.705
276.655
350.138
427.395
507.18
585.729
654.91
702.438
717.642
693.591
629.253
528.509
400.245
258.412
117.456
-5.451
-96.719
-154.331
-180.63
-184.663
-177.706
-161.221
-137.497
-109.945
-79.397
-53.454
-36.151
-24.555
-18.071
-13.598
-9.52
-9.478
-14.669
-24.835
-39.251
-54.825
-68.958
-80.431
-88.569
-93.384
-95.302
-94.924
-92.806
-89.696
-86.631
-84.317
-83.139
-83.333
-84.781
-87.209
-90.398
-93.967
-97.416
-100.459
-102.931
-104.75
-105.978
-106.662
-106.804
-106.472
-105.747
-104.673
-103.286
-101.598
-99.594
-97.3
-94.766
-92.05
-89.22
-86.324
-83.388
-80.44
-77.497
-74.577
-71.69
-68.836
-66.009
-63.209
-60.44
-57.706
-55.014
-52.36
-49.737
-47.136
-44.549
-41.967
-39.388
-36.808
-34.224
-31.635
-29.041
-26.444
-23.848
-21.254
-18.66
-16.066
-13.47
-10.872
-8.272
-5.668
-3.06
-0.448
2.168
4.787
7.407
10.028
12.647
15.261
17.869
20.467
23.05
25.616
28.159
30.675
33.158
35.602
38
40.348
42.637
44.863
47.017
49.094
51.088
52.992
54.803
56.513
58.118
59.613
60.994
62.255
63.393
64.403
65.281
66.024
66.629
67.092
67.411
67.585
67.612
67.491
67.222
66.803
66.236
65.521
64.658
63.651
62.499
61.207
59.777
58.213
56.517
54.695
52.75
50.686
48.51
46.224
43.834
41.344
38.76
36.086
33.328
30.491
27.58
24.601
21.559
18.46
15.309
12.114
8.879
5.61
2.313
-1.007
-4.343
-7.69
-11.043
-14.395
-17.741
-21.077
-24.396
-27.693
-30.963
-34.202
-37.405
-40.568
-43.687
-46.758
-49.778
-52.743
-55.65
-58.496
-61.277
-63.99
-66.633
-69.201
-71.694
-74.108
-76.442
-78.693
-80.861
-82.945
-84.945
-86.858
-88.685
-90.426
-92.079
-93.646
-95.126
-96.52
-97.831
-99.059
-100.207
-101.278
-102.276
-103.203
-104.062
-104.856
-105.588
-106.261
-106.879
-107.443
-107.958
-108.429
-108.858
-109.251
-109.613
-109.95
-110.268
-110.571
-110.865
-111.153
-111.439
-111.726
-112.015
-112.311
-112.615
-112.929
-113.259
-113.608
-113.981
-114.386
-114.824
-115.298
-115.807
-116.35
-116.926
-117.529
-118.155
-118.799
-119.459
-120.136
-120.837
-121.567
-122.322
-123.091
-123.862
-124.609
-125.311
-125.947
-126.486
-126.905
-127.19
-127.336
-127.352
-127.258
-127.056
-126.74
-126.29
-125.68
-124.906
-123.978
-122.908
-121.727
-120.47
-119.175
-117.912
-116.742
-115.696
-114.78
-113.96
-113.168
-112.36
-111.506
-110.59
-109.607
-108.521
-107.276
-105.817
-104.083
-102.004
-99.503
-96.455
-92.732
-88.263
-83.02
-77.037
-70.41
-63.22
-55.534
-47.43
-38.985
-30.306
-21.536
-12.811
-4.252
4.012
11.838
19.049
25.441
30.874
35.26
38.567
40.823
42.051
42.268
41.522
39.882
37.442
34.332
30.691
26.631
22.277
17.767
13.255
8.919
4.899
1.291
-1.836
-4.437
-6.464
-7.867
-8.622
-8.742
-8.245
-7.187
-5.66
-3.745
-1.561
0.771
3.155
5.478
7.623
9.489
10.978
12.005
12.522
12.466
11.7
10.171
7.936
5.204
2.398
-0.054
-1.86
-2.696
-2.074
0.342
4.567
10.2
16.284
21.939
26.68
30.019
31.239
29.685
26.303
23.853
25.525
34.489
49.942
67.156
84.878
104.053
130.479
176.493
247.03
341.159
453.122
567.739
673.492
761.206
821.418
849.081
837.748
783.907
689.395
561.177
413.819
263.498
126.816
16.858
-61.736
-108.788
-128.915
-129.307
-114.13
-88.182
-57.717
-26.998
-1.343
16.789
30.585
41.976
52.562
62.183
67.052
65.424
57.26
44.031
28.938
14.251
1.709
-7.703
-14.037
-17.367
-18.031
-16.768
-14.144
-10.909
-8.11
-6.303
-5.731
-6.504
-8.391
-11.113
-14.466
-18.091
-21.542
-24.568
-27.038
-28.906
-30.263
-31.156
-31.596
-31.645
-31.373
-30.831
-30.065
-29.096
-27.923
-26.576
-25.105
-23.565
-22.018
-20.504
-19.045
-17.661
-16.361
-15.155
-14.047
-13.031
-12.099
-11.243
-10.459
-9.743
-9.09
-8.489
-7.924
-7.38
-6.838
-6.284
-5.706
-5.09
-4.426
-3.705
-2.919
-2.059
-1.12
-0.096
1.023
2.242
3.57
5.011
6.571
8.253
10.061
11.996
14.059
16.249
18.565
21.004
23.562
26.236
29.021
31.909
34.895
37.97
41.125
44.352
47.638
50.974
54.346
57.742
61.149
64.554
67.943
71.302
74.617
77.875
81.063
84.167
87.176
90.076
92.858
95.509
98.02
100.381
102.584
104.62
106.483
108.168
109.668
110.98
112.1
113.027
113.758
114.292
114.63
114.771
114.718
114.472
114.037
113.416
112.615
111.638
110.492
109.184
107.721
106.11
104.362
102.483
100.484
98.374
96.163
93.86
91.476
89.021
86.504
83.937
81.329
78.689
76.028
73.355
70.678
68.007
65.35
62.716
60.113
57.548
55.029
52.565
50.161
47.824
45.561
43.378
41.281
39.273
37.36
35.545
33.833
32.226
30.726
29.335
28.055
26.887
25.832
24.888
24.057
23.336
22.725
22.221
21.824
21.532
21.341
21.249
21.255
21.355
21.547
21.827
22.193
22.64
23.164
23.761
24.426
25.154
25.939
26.776
27.659
28.584
29.544
30.534
31.548
32.582
33.629
34.686
35.745
36.803
37.855
38.894
39.918
40.921
41.9
42.852
43.772
44.658
45.506
46.313
47.076
47.791
48.455
49.067
49.623
50.125
50.569
50.958
51.294
51.579
51.817
52.013
52.168
52.288
52.376
52.436
52.471
52.484
52.477
52.455
52.425
52.394
52.371
52.365
52.384
52.439
52.541
52.7
52.923
53.213
53.577
54.022
54.558
55.203
55.964
56.847
57.851
58.977
60.222
61.577
63.022
64.526
66.059
67.6
69.144
70.697
72.262
73.84
75.431
77.034
78.665
80.343
82.083
83.889
85.77
87.744
89.856
92.171
94.746
97.6
100.729
104.1
107.684
111.443
115.326
119.264
123.155
126.907
130.446
133.72
136.673
139.234
141.299
142.739
143.455
143.389
142.521
140.85
138.379
135.125
131.132
126.484
121.3
115.687
109.719
103.454
96.956
90.312
83.651
77.112
70.803
64.801
59.162
53.938
49.185
44.949
41.247
38.055
35.322
33.002
31.068
29.497
28.253
27.279
26.471
25.71
24.89
23.901
22.642
21.029
18.935
16.196
12.73
8.563
3.844
-1.105
-5.946
-10.424
-14.217
-16.921
-18.285
-18.256
-17.167
-15.859
-15.251
-16.081
-18.996
-24.53
-32.869
-43.773
-56.189
-68.135
-77.15
-80.771
-76.809
-63.14
-37.996
-0.285
50.344
111.893
179.898
249.933
317.448
380.567
441.109
497.481
544.932
574.07
571.061
529.273
449.868
340.594
214.303
80.803
-51.578
-174.219
-276.985
-349.195
-386.943
-391.648
-371.146
-336.548
-292.601
-244.29
-196.434
-151.519
-116.723
-95.021
-83.884
-81.655
-83.259
-86.271
-93.059
-103.676
-118.155
-135.307
-151.009
-163.155
-171.425
-175.778
-177.228
-176.785
-174.82
-172.113
-169.871
-168.719
-168.88
-170.393
-172.882
-175.964
-179.463
-183.064
-186.349
-189.12
-191.289
-192.839
-193.909
-194.594
-194.928
-194.98
-194.816
-194.47
-193.985
-193.393
-192.707
-191.964
-191.199
-190.432
-189.683
-188.962
-188.269
-187.605
-186.967
-186.344
-185.732
-185.13
-184.541
-183.97
-183.413
-182.866
-182.318
-181.761
-181.186
-180.585
-179.95
-179.275
-178.556
-177.79
-176.977
-176.119
-175.212
-174.252
-173.235
-172.155
-171.009
-169.794
-168.505
-167.139
-165.696
-164.173
-162.57
-160.889
-159.129
-157.29
-155.37
-153.372
-151.294
-149.14
-146.909
-144.604
-142.227
-139.782
-137.271
-134.699
-132.07
-129.388
-126.658
-123.884
-121.073
-118.23
-115.361
-112.472
-109.57
-106.662
-103.754
-100.853
-97.967
-95.103
-92.268
-89.469
-86.714
-84.009
-81.362
-78.778
-76.267
-73.834
-71.486
-69.229
-67.071
-65.017
-63.072
-61.243
-59.534
-57.949
-56.494
-55.171
-53.986
-52.94
-52.037
-51.279
-50.667
-50.204
-49.89
-49.724
-49.707
-49.837
-50.112
-50.531
-51.09
-51.787
-52.618
-53.577
-54.66
-55.86
-57.171
-58.587
-60.098
-61.697
-63.375
-65.123
-66.933
-68.794
-70.697
-72.633
-74.592
-76.564
-78.539
-80.508
-82.46
-84.387
-86.277
-88.122
-89.913
-91.641
-93.299
-94.877
-96.369
-97.768
-99.067
-100.261
-101.344
-102.311
-103.159
-103.883
-104.482
-104.954
-105.298
-105.514
-105.602
-105.564
-105.401
-105.117
-104.714
-104.195
-103.564
-102.825
-101.983
-101.044
-100.012
-98.894
-97.696
-96.424
-95.085
-93.686
-92.233
-90.735
-89.197
-87.626
-86.031
-84.417
-82.791
-81.161
-79.532
-77.911
-76.304
-74.715
-73.15
-71.613
-70.107
-68.637
-67.204
-65.812
-64.461
-63.153
-61.889
-60.669
-59.494
-58.363
-57.275
-56.229
-55.222
-54.254
-53.32
-52.419
-51.545
-50.696
-49.866
-49.051
-48.246
-47.445
-46.642
-45.833
-45.011
-44.17
-43.304
-42.409
-41.478
-40.505
-39.487
-38.419
-37.296
-36.114
-34.871
-33.563
-32.19
-30.749
-29.239
-27.66
-26.012
-24.297
-22.517
-20.674
-18.77
-16.811
-14.802
-12.748
-10.658
-8.539
-6.401
-4.254
-2.111
0.017
2.115
4.17
6.168
8.095
9.936
11.68
13.312
14.821
16.194
17.42
18.484
19.377
20.087
20.603
20.918
21.021
20.906
20.575
20.027
19.26
18.274
17.062
15.623
13.959
12.076
9.978
7.679
5.194
2.553
-0.2
-3.024
-5.877
-8.722
-11.532
-14.277
-16.913
-19.4
-21.691
-23.742
-25.529
-27.028
-28.206
-29.049
-29.57
-29.822
-29.896
-29.883
-29.847
-29.829
-29.878
-30.063
-30.477
-31.21
-32.338
-33.894
-35.916
-38.51
-41.704
-45.397
-49.337
-53.034
-55.972
-57.782
-58.074
-56.368
-52.469
-46.446
-38.669
-30.142
-21.839
-14.377
-8.507
-4.915
-3.627
-4.101
-5.154
-4.576
0.018
10.762
30.14
60.717
103.384
156.737
218.546
285.421
355.706
431.715
513.449
596.337
670.54
719.313
728.736
694.594
620.994
520.095
404.216
280.533
155.031
34.218
-72.109
-152.796
-201.684
-219.062
-211.288
-186.744
-151.817
-112.381
-74.449
-43.015
-21.941
-10.817
-4.473
1.297
8.538
16.58
21.327
20.324
14.104
4.262
-6.168
-14.494
-19.95
-22.455
-22.135
-19.45
-14.864
-8.767
-1.966
4.45
9.885
14.074
16.901
18.575
19.337
19.354
18.991
18.715
18.776
19.303
20.336
21.775
23.565
25.696
28.102
30.709
33.468
36.334
39.286
42.325
45.42
48.519
51.566
54.501
57.281
59.885
62.296
64.503
66.5
68.287
69.87
71.258
72.461
73.482
74.33
75.009
75.534
75.92
76.186
76.35
76.43
76.439
76.391
76.296
76.165
76.008
75.833
75.647
75.459
75.277
75.113
74.974
74.87
74.808
74.795
74.837
74.94
75.107
75.344
75.65
76.03
76.483
77.009
77.608
78.279
79.018
79.822
80.688
81.609
82.582
83.598
84.652
85.735
86.84
87.96
89.085
90.208
91.32
92.413
93.48
94.512
95.502
96.443
97.327
98.149
98.902
99.58
100.177
100.691
101.116
101.449
101.687
101.829
101.873
101.818
101.663
101.409
101.055
100.604
100.056
99.414
98.68
97.857
96.95
95.962
94.897
93.76
92.557
91.291
89.969
88.596
87.177
85.718
84.224
82.701
81.155
79.592
78.015
76.432
74.847
73.265
71.689
70.124
68.574
67.042
65.532
64.045
62.585
61.155
59.756
58.391
57.061
55.767
54.511
53.294
52.114
50.974
49.871
48.807
47.779
46.788
45.833
44.914
44.03
43.178
42.359
41.571
40.812
40.081
39.375
38.694
38.035
37.398
36.782
36.188
35.614
35.062
34.531
34.022
33.537
33.076
32.639
32.227
31.842
31.484
31.157
30.863
30.603
30.382
30.201
30.065
29.977
29.937
29.949
30.014
30.133
30.31
30.544
30.836
31.189
31.603
32.084
32.632
33.249
33.935
34.691
35.519
36.416
37.379
38.405
39.487
40.621
41.804
43.034
44.306
45.618
46.964
48.341
49.747
51.179
52.627
54.075
55.506
56.91
58.286
59.638
60.97
62.281
63.574
64.856
66.141
67.434
68.725
69.992
71.205
72.349
73.418
74.421
75.368
76.258
77.077
77.808
78.438
78.951
79.323
79.502
79.424
79.049
78.374
77.434
76.275
74.93
73.423
71.768
69.988
68.112
66.163
64.163
62.123
60.062
58.026
56.096
54.377
52.944
51.829
51.006
50.433
50.071
49.862
49.746
49.633
49.443
49.119
48.623
47.929
47.003
45.792
44.207
42.138
39.493
36.195
32.217
27.563
22.25
16.33
9.887
3.04
-4.096
-11.416
-18.846
-26.33
-33.806
-41.214
-48.475
-55.489
-62.151
-68.344
-73.976
-78.992
-83.357
-87.063
-90.157
-92.73
-94.886
-96.75
-98.409
-99.926
-101.374
-102.829
-104.384
-106.145
-108.197
-110.667
-113.728
-117.456
-121.828
-126.677
-131.613
-136.211
-140.121
-142.911
-144.108
-143.443
-140.873
-136.813
-132.188
-127.92
-124.727
-123.218
-123.916
-127.119
-132.629
-139.226
-144.792
-147.016
-143.534
-132.119
-110.649
-76.771
-29.495
29.291
96.5
168.544
243.358
323.047
408.905
497.282
578.785
637.168
656.773
630.79
562.19
462.237
344.233
218.758
93.104
-25.29
-126.084
-201.636
-247.987
-267.994
-272.199
-267.794
-258.285
-244.266
-222.404
-193.154
-160.567
-128.518
-101.585
-82.812
-72.61
-70.6
-75.84
-86.671
-101.133
-117.601
-134.302
-149.118
-160.865
-169.046
-173.429
-174.519
-173.142
-169.9
-165.703
-161.786
-158.806
-157.084
-156.781
-157.627
-159.325
-161.678
-164.28
-166.654
-168.552
-169.837
-170.478
-170.59
-170.227
-169.412
-168.228
-166.748
-165.027
-163.111
-161.013
-158.734
-156.31
-153.79
-151.234
-148.691
-146.189
-143.745
-141.372
-139.075
-136.864
-134.736
-132.678
-130.687
-128.76
-126.892
-125.083
-123.325
-121.603
-119.904
-118.21
-116.503
-114.772
-113.003
-111.186
-109.311
-107.373
-105.362
-103.276
-101.106
-98.846
-96.488
-94.025
-91.452
-88.763
-85.956
-83.028
-79.977
-76.806
-73.515
-70.11
-66.594
-62.972
-59.251
-55.439
-51.545
-47.578
-43.549
-39.469
-35.35
-31.206
-27.051
-22.897
-18.761
-14.656
-10.597
-6.599
-2.677
1.155
4.883
8.493
11.971
15.303
18.479
21.485
24.31
26.944
29.378
31.602
33.609
35.392
36.947
38.269
39.356
40.206
40.818
41.193
41.333
41.24
40.918
40.371
39.606
38.63
37.448
36.071
34.507
32.765
30.856
28.789
26.577
24.231
21.762
19.183
16.506
13.743
10.907
8.012
5.069
2.092
-0.907
-3.914
-6.919
-9.909
-12.873
-15.799
-18.677
-21.498
-24.251
-26.928
-29.521
-32.022
-34.425
-36.722
-38.911
-40.984
-42.94
-44.774
-46.484
-48.068
-49.526
-50.855
-52.057
-53.132
-54.08
-54.903
-55.604
-56.185
-56.649
-56.999
-57.239
-57.373
-57.406
-57.343
-57.187
-56.945
-56.621
-56.22
-55.749
-55.213
-54.617
-53.966
-53.267
-52.524
-51.743
-50.928
-50.084
-49.215
-48.326
-47.422
-46.504
-45.579
-44.648
-43.716
-42.785
-41.858
-40.938
-40.028
-39.129
-38.243
-37.373
-36.519
-35.683
-34.867
-34.071
-33.296
-32.543
-31.812
-31.102
-30.415
-29.748
-29.101
-28.473
-27.862
-27.267
-26.685
-26.115
-25.553
-24.997
-24.444
-23.89
-23.334
-22.769
-22.194
-21.602
-20.991
-20.355
-19.688
-18.988
-18.247
-17.462
-16.626
-15.737
-14.787
-13.772
-12.687
-11.527
-10.288
-8.965
-7.554
-6.05
-4.452
-2.757
-0.962
0.933
2.929
5.025
7.222
9.515
11.904
14.383
16.948
19.595
22.315
25.101
27.945
30.837
33.765
36.716
39.675
42.629
45.561
48.454
51.292
54.058
56.735
59.306
61.757
64.071
66.232
68.223
70.026
71.624
73.004
74.15
75.05
75.692
76.068
76.173
76.006
75.564
74.842
73.828
72.512
70.89
68.962
66.734
64.217
61.423
58.375
55.108
51.661
48.071
44.374
40.593
36.755
32.895
29.061
25.315
21.719
18.318
15.146
12.233
9.589
7.221
5.102
3.17
1.377
-0.339
-2.036
-3.758
-5.585
-7.604
-9.89
-12.58
-15.847
-19.766
-24.331
-29.393
-34.605
-39.649
-44.235
-47.943
-50.326
-51.059
-50.026
-47.673
-44.894
-42.486
-41.107
-41.263
-43.336
-47.69
-54.258
-61.826
-68.299
-71.42
-68.88
-58.83
-39.515
-8.923
34.23
89.805
156.453
231.901
313.047
395.879
474.92
544.187
598.977
638.312
663.506
674.995
671.421
646.048
591.876
505.937
388.629
250.401
106.732
-26.047
-129.969
-196.302
-225.336
-221.876
-196.116
-156.241
-106.774
-54.137
-6.626
27.857
43.436
40.678
27.787
13.033
1.089
-7.432
-16.404
-28.269
-41.986
-55.179
-64.842
-69.593
-69.939
-66.947
-61.856
-55.808
-49.901
-45.021
-41.675
-40.024
-39.925
-41.097
-43.292
-46.173
-49.272
-52.248
-54.875
-57.023
-58.71
-59.963
-60.766
-61.142
-61.136
-60.766
-60.064
-59.054
-57.734
-56.123
-54.256
-52.166
-49.903
-47.52
-45.063
-42.583
-40.12
-37.699
-35.346
-33.078
-30.907
-28.841
-26.879
-25.012
-23.236
-21.543
-19.927
-18.38
-16.891
-15.447
-14.038
-12.653
-11.285
-9.926
-8.57
-7.209
-5.838
-4.453
-3.051
-1.629
-0.184
1.289
2.791
4.329
5.905
7.522
9.184
10.895
12.656
14.471
16.339
18.261
20.237
22.264
24.34
26.463
28.627
30.829
33.061
35.317
37.591
39.875
42.16
44.438
46.7
48.939
51.144
53.306
55.417
57.468
59.449
61.353
63.171
64.895
66.515
68.026
69.419
70.685
71.82
72.814
73.662
74.359
74.898
75.276
75.489
75.534
75.409
75.114
74.647
74.01
73.203
72.23
71.093
69.796
68.344
66.742
64.994
63.108
61.09
58.947
56.686
54.316
51.843
49.275
46.622
43.892
41.093
38.234
35.325
32.374
29.392
26.387
23.369
20.347
17.331
14.329
11.349
8.401
5.492
2.629
-0.181
-2.931
-5.616
-8.23
-10.769
-13.229
-15.605
-17.897
-20.1
-22.213
-24.235
-26.165
-28.001
-29.744
-31.393
-32.949
-34.412
-35.783
-37.064
-38.255
-39.359
-40.378
-41.314
-42.17
-42.948
-43.652
-44.285
-44.849
-45.349
-45.788
-46.171
-46.5
-46.782
-47.019
-47.217
-47.379
-47.511
-47.614
-47.693
-47.752
-47.792
-47.818
-47.831
-47.837
-47.838
-47.837
-47.837
-47.843
-47.858
-47.885
-47.926
-47.986
-48.066
-48.17
-48.302
-48.464
-48.66
-48.892
-49.164
-49.479
-49.837
-50.24
-50.689
-51.182
-51.719
-52.297
-52.913
-53.564
-54.248
-54.962
-55.703
-56.47
-57.261
-58.074
-58.906
-59.755
-60.615
-61.48
-62.342
-63.191
-64.017
-64.812
-65.566
-66.27
-66.916
-67.497
-68.006
-68.437
-68.779
-69.019
-69.142
-69.135
-68.988
-68.7
-68.271
-67.71
-67.032
-66.254
-65.397
-64.475
-63.496
-62.457
-61.345
-60.147
-58.846
-57.437
-55.928
-54.324
-52.632
-50.854
-48.987
-47.018
-44.92
-42.663
-40.208
-37.533
-34.635
-31.535
-28.283
-24.943
-21.599
-18.318
-15.154
-12.151
-9.352
-6.798
-4.533
-2.615
-1.105
-0.076
0.386
0.213
-0.645
-2.212
-4.468
-7.361
-10.811
-14.742
-19.091
-23.801
-28.816
-34.064
-39.479
-44.985
-50.51
-55.976
-61.28
-66.322
-71.006
-75.248
-79.003
-82.264
-85.057
-87.41
-89.355
-90.929
-92.181
-93.186
-94.03
-94.804
-95.596
-96.5
-97.633
-99.097
-101.03
-103.608
-106.904
-110.893
-115.434
-120.233
-125.008
-129.562
-133.584
-136.667
-138.572
-139.177
-138.654
-137.626
-136.577
-135.795
-135.623
-136.257
-137.674
-139.768
-141.886
-142.598
-140.521
-134.163
-121.956
-102.858
-75.734
-39.325
6.922
63.054
127.672
196.909
266.867
334.122
397.526
460.54
524.711
587.315
640.406
667.499
654.323
594.923
490.734
356.012
209.758
68.588
-51.18
-140.654
-198.108
-224.663
-226.733
-211.753
-184.817
-152.408
-120.805
-94.195
-77.507
-71.391
-71.951
-76.908
-82.783
-87.89
-94.177
-101.355
-108.784
-115.901
-120.37
-120.858
-117.509
-110.811
-102.062
-92.953
-84.464
-77.036
-71.046
-66.69
-63.972
-62.874
-63.123
-64.139
-65.539
-67.129
-68.732
-70.281
-71.688
-72.784
-73.497
-73.843
-73.821
-73.438
-72.698
-71.571
-70.067
-68.237
-66.129
-63.799
-61.298
-58.66
-55.935
-53.178
-50.446
-47.801
-45.286
-42.928
-40.746
-38.747
-36.933
-35.302
-33.84
-32.526
-31.34
-30.262
-29.274
-28.364
-27.517
-26.717
-25.944
-25.182
-24.413
-23.624
-22.803
-21.937
-21.017
-20.032
-18.977
-17.846
-16.634
-15.334
-13.941
-12.447
-10.847
-9.137
-7.313
-5.37
-3.309
-1.128
1.17
3.583
6.106
8.735
11.463
14.283
17.187
20.166
23.211
26.311
29.454
32.63
35.825
39.027
42.222
45.399
48.542
51.64
54.679
57.647
60.53
63.317
65.996
68.554
70.982
73.268
75.402
77.374
79.176
80.799
82.236
83.482
84.532
85.38
86.025
86.463
86.695
86.718
86.535
86.147
85.555
84.764
83.776
82.597
81.233
79.69
77.975
76.094
74.055
71.868
69.539
67.078
64.493
61.795
58.993
56.096
53.115
50.061
46.944
43.774
40.563
37.321
34.057
30.784
27.509
24.244
20.998
17.78
14.599
11.465
8.384
5.365
2.416
-0.457
-3.247
-5.948
-8.555
-11.063
-13.468
-15.765
-17.95
-20.021
-21.974
-23.806
-25.515
-27.099
-28.558
-29.89
-31.097
-32.177
-33.133
-33.965
-34.676
-35.268
-35.744
-36.106
-36.359
-36.506
-36.553
-36.504
-36.364
-36.141
-35.839
-35.466
-35.029
-34.535
-33.989
-33.4
-32.773
-32.116
-31.435
-30.738
-30.032
-29.323
-28.619
-27.928
-27.256
-26.612
-26
-25.429
-24.903
-24.428
-24.011
-23.655
-23.365
-23.145
-22.999
-22.929
-22.939
-23.029
-23.198
-23.446
-23.772
-24.171
-24.639
-25.17
-25.757
-26.393
-27.071
-27.786
-28.529
-29.292
-30.07
-30.854
-31.64
-32.416
-33.173
-33.897
-34.575
-35.195
-35.743
-36.203
-36.561
-36.801
-36.911
-36.881
-36.702
-36.362
-35.845
-35.134
-34.216
-33.087
-31.744
-30.188
-28.419
-26.447
-24.289
-21.977
-19.541
-17
-14.361
-11.621
-8.782
-5.846
-2.819
0.296
3.507
6.829
10.267
13.817
17.479
21.262
25.2
29.348
33.748
38.415
43.338
48.485
53.824
59.315
64.907
70.529
76.084
81.479
86.648
91.54
96.105
100.281
103.977
107.077
109.487
111.147
112.016
112.084
111.345
109.814
107.534
104.589
101.1
97.178
92.922
88.408
83.712
78.924
74.153
69.531
65.177
61.191
57.668
54.68
52.276
50.494
49.336
48.758
48.7
49.081
49.789
50.727
51.78
52.815
53.729
54.358
54.489
53.989
52.785
50.932
48.694
46.328
44.035
42.141
41.016
40.884
41.855
43.591
45.244
46.027
45.24
42.186
36.387
27.622
16.055
2.784
-10.156
-20.575
-26.089
-24.23
-12.863
9.906
45.533
94.253
154.966
226.105
304.047
383.316
459.089
526.035
581.886
628.771
665.497
689.486
695.11
670.613
611.499
518.5
395.451
256.985
117.03
-11.546
-112.972
-179.786
-210.793
-207.664
-179.62
-137.615
-90.524
-49.062
-20.235
-4.666
0.109
1.321
5.308
12.974
22.352
28.89
29.365
24.169
15.144
5.06
-3.782
-10.421
-14.605
-16.459
-16.277
-14.511
-11.577
-8.01
-4.629
-2.035
-0.528
-0.264
-1.106
-2.765
-5.011
-7.509
-9.858
-11.823
-13.275
-14.157
-14.534
-14.46
-13.967
-13.133
-12.031
-10.708
-9.201
-7.527
-5.699
-3.754
-1.747
0.264
2.23
4.124
5.929
7.635
9.234
10.724
12.112
13.413
14.636
15.785
16.863
17.872
18.819
19.72
20.587
21.435
22.281
23.135
24.008
24.911
25.851
26.834
27.865
28.947
30.087
31.29
32.564
33.916
35.35
36.871
38.482
40.188
41.99
43.888
45.881
47.968
50.146
52.413
54.765
57.197
59.704
62.278
64.914
67.602
70.334
73.1
75.889
78.691
81.494
84.285
87.052
89.782
92.462
95.078
97.617
100.065
102.408
104.634
106.729
108.682
110.481
112.114
113.571
114.842
115.919
116.794
117.46
117.912
118.146
118.156
117.942
117.503
116.836
115.944
114.829
113.492
111.938
110.171
108.197
106.022
103.653
101.098
98.365
95.466
92.408
89.204
85.864
82.4
78.825
75.15
71.389
67.554
63.657
59.711
55.73
51.724
47.705
43.686
39.677
35.688
31.729
27.81
23.939
20.123
16.37
12.686
9.076
5.546
2.101
-1.257
-4.522
-7.694
-10.768
-13.743
-16.618
-19.393
-22.065
-24.637
-27.108
-29.48
-31.753
-33.93
-36.012
-38.003
-39.904
-41.718
-43.448
-45.097
-46.668
-48.164
-49.587
-50.941
-52.227
-53.449
-54.608
-55.705
-56.743
-57.723
-58.647
-59.514
-60.327
-61.086
-61.793
-62.449
-63.055
-63.613
-64.123
-64.589
-65.011
-65.392
-65.733
-66.036
-66.304
-66.539
-66.742
-66.916
-67.063
-67.185
-67.283
-67.361
-67.419
-67.46
-67.485
-67.496
-67.494
-67.483
-67.462
-67.434
-67.401
-67.365
-67.326
-67.287
-67.248
-67.212
-67.179
-67.15
-67.124
-67.101
-67.081
-67.062
-67.043
-67.02
-66.992
-66.955
-66.907
-66.844
-66.762
-66.658
-66.528
-66.369
-66.177
-65.948
-65.68
-65.368
-65.011
-64.607
-64.154
-63.649
-63.093
-62.484
-61.824
-61.112
-60.35
-59.537
-58.676
-57.769
-56.818
-55.827
-54.8
-53.742
-52.66
-51.564
-50.463
-49.368
-48.29
-47.239
-46.228
-45.27
-44.373
-43.548
-42.802
-42.147
-41.593
-41.153
-40.836
-40.65
-40.604
-40.704
-40.959
-41.376
-41.954
-42.691
-43.587
-44.645
-45.875
-47.294
-48.911
-50.725
-52.737
-54.942
-57.338
-59.913
-62.644
-65.49
-68.409
-71.365
-74.329
-77.281
-80.186
-82.994
-85.649
-88.09
-90.275
-92.186
-93.807
-95.119
-96.126
-96.848
-97.33
-97.68
-98.004
-98.397
-98.969
-99.815
-101.024
-102.745
-105.148
-108.316
-112.254
-116.824
-121.752
-126.814
-131.798
-136.43
-140.412
-143.466
-145.451
-146.646
-147.653
-149.012
-151.195
-154.37
-158.39
-163.326
-169.225
-175.201
-179.899
-181.055
-175.281
-161.522
-140.081
-111.776
-79.824
-43.573
0.475
53.891
119.859
195.943
274.22
350.256
418.342
475.056
519.604
545.472
544.341
508.926
434.699
323.126
184.559
35.683
-105.767
-219.712
-294.184
-330.632
-335.271
-321.191
-300.162
-272.885
-240.718
-205.652
-168.954
-138.9
-119.276
-107.352
-101.743
-97.782
-93.601
-92.599
-95.606
-102.711
-113.002
-122.894
-130.178
-134.365
-135.206
-133.179
-129.037
-123.272
-116.602
-110.102
-104.508
-100.099
-97.011
-95.134
-94.209
-94.039
-94.282
-94.435
-94.198
-93.445
-92.124
-90.321
-88.097
-85.456
-82.466
-79.221
-75.783
-72.207
-68.525
-64.737
-60.88
-57.013
-53.2
-49.515
-46.003
-42.694
-39.611
-36.772
-34.191
-31.882
-29.844
-28.071
-26.563
-25.318
-24.336
-23.618
-23.152
-22.924
-22.918
-23.114
-23.495
-24.047
-24.754
-25.601
-26.571
-27.651
-28.824
-30.076
-31.39
-32.745
-34.123
-35.501
-36.861
-38.183
-39.447
-40.635
-41.728
-42.711
-43.567
-44.282
-44.842
-45.235
-45.45
-45.477
-45.308
-44.938
-44.362
-43.576
-42.581
-41.377
-39.968
-38.358
-36.553
-34.562
-32.394
-30.06
-27.574
-24.948
-22.198
-19.338
-16.387
-13.362
-10.28
-7.162
-4.025
-0.89
2.224
5.297
8.31
11.244
14.081
16.802
19.392
21.833
24.111
26.211
28.12
29.826
31.318
32.588
33.626
34.426
34.984
35.295
35.359
35.173
34.74
34.061
33.14
31.982
30.594
28.981
27.153
25.118
22.888
20.472
17.883
15.133
12.235
9.203
6.049
2.787
-0.568
-4.002
-7.502
-11.054
-14.643
-18.257
-21.882
-25.506
-29.117
-32.702
-36.251
-39.755
-43.203
-46.588
-49.901
-53.137
-56.287
-59.349
-62.316
-65.186
-67.954
-70.62
-73.18
-75.634
-77.981
-80.22
-82.353
-84.38
-86.301
-88.118
-89.831
-91.444
-92.956
-94.371
-95.691
-96.919
-98.056
-99.107
-100.075
-100.962
-101.772
-102.506
-103.168
-103.758
-104.279
-104.732
-105.117
-105.436
-105.688
-105.874
-105.994
-106.049
-106.038
-105.96
-105.815
-105.603
-105.324
-104.976
-104.56
-104.073
-103.518
-102.896
-102.208
-101.456
-100.638
-99.752
-98.802
-97.79
-96.706
-95.542
-94.291
-92.943
-91.502
-89.983
-88.373
-86.661
-84.874
-83.037
-81.167
-79.293
-77.395
-75.43
-73.422
-71.413
-69.292
-66.928
-64.398
-61.692
-58.786
-55.963
-52.465
-47.554
-42.283
-36.966
-33.542
-34.341
-36.797
-39.205
-39.028
-32.773
-23.567
-14.074
-6.13
-2.741
-1.807
-1.179
-0.384
1.88
4.84
7.5
10.045
12.368
14.555
16.819
19.052
21.168
23.233
25.317
27.455
29.685
32.037
34.507
37.092
39.795
42.577
45.381
48.149
50.786
53.184
55.264
56.943
58.135
58.763
58.715
57.891
56.228
53.671
50.196
45.81
40.526
34.373
27.425
19.776
11.557
2.934
-5.946
-14.949
-23.94
-32.793
-41.367
-49.516
-57.124
-64.085
-70.295
-75.691
-80.222
-83.843
-86.561
-88.415
-89.472
-89.853
-89.678
-89.043
-88.063
-86.847
-85.507
-84.176
-82.947
-81.936
-81.309
-81.127
-81.377
-81.95
-82.55
-82.879
-82.713
-81.701
-79.42
-75.619
-70.16
-63.317
-55.834
-48.321
-41.271
-35.106
-30.131
-26.681
-24.871
-23.906
-22.213
-18.05
-9.58
4.578
25.772
55.901
96.437
148.032
209.484
277.28
347.827
417.967
485.926
552.489
616.524
673.331
715.776
732.913
715.58
661.864
573.716
457.222
323.224
182.273
48.055
-61.438
-133.977
-165.184
-159.896
-133.895
-102.64
-74.6
-52.635
-33.263
-11.881
11.535
34.869
54.803
67.546
72.501
71.105
64.915
55.85
45.17
33.415
21.668
11.534
3.884
-1.053
-3.409
-3.811
-2.738
-0.412
2.568
5.26
7.075
7.756
7.276
5.942
4.015
1.629
-0.921
-3.25
-5.123
-6.412
-7.094
-7.272
-7.019
-6.361
-5.365
-4.097
-2.602
-0.92
0.929
2.939
5.077
7.294
9.542
11.778
13.974
16.114
18.186
20.181
22.099
23.944
25.726
27.449
29.113
30.721
32.273
33.777
35.243
36.682
38.106
39.528
40.958
42.405
43.878
45.382
46.92
48.497
50.115
51.779
53.492
55.261
57.089
58.98
60.936
62.962
65.06
67.229
69.472
71.788
74.175
76.634
79.163
81.76
84.42
87.141
89.919
92.747
95.619
98.529
101.469
104.431
107.405
110.383
113.355
116.31
119.239
122.13
124.974
127.76
130.477
133.115
135.664
138.114
140.456
142.68
144.777
146.739
148.556
150.219
151.722
153.057
154.216
155.193
155.981
156.575
156.97
157.162
157.147
156.923
156.486
155.837
154.974
153.899
152.612
151.116
149.414
147.509
145.405
143.109
140.624
137.959
135.119
132.111
128.943
125.624
122.162
118.565
114.844
111.008
107.067
103.032
98.915
94.726
90.477
86.179
81.846
77.488
73.118
68.748
64.39
60.055
55.754
51.499
47.3
43.166
39.107
35.132
31.248
27.463
23.785
20.218
16.769
13.443
10.245
7.178
4.246
1.452
-1.202
-3.715
-6.085
-8.312
-10.397
-12.34
-14.142
-15.807
-17.336
-18.733
-20.003
-21.149
-22.178
-23.094
-23.906
-24.618
-25.24
-25.777
-26.236
-26.626
-26.952
-27.222
-27.442
-27.618
-27.757
-27.866
-27.95
-28.016
-28.069
-28.116
-28.163
-28.214
-28.274
-28.347
-28.439
-28.552
-28.691
-28.858
-29.056
-29.287
-29.553
-29.856
-30.194
-30.567
-30.973
-31.409
-31.871
-32.353
-32.85
-33.356
-33.865
-34.371
-34.867
-35.35
-35.812
-36.25
-36.661
-37.037
-37.373
-37.661
-37.893
-38.059
-38.151
-38.158
-38.07
-37.881
-37.582
-37.167
-36.635
-35.982
-35.201
-34.285
-33.224
-32.012
-30.651
-29.142
-27.49
-25.711
-23.821
-21.851
-19.837
-17.8
-15.758
-13.721
-11.686
-9.655
-7.63
-5.609
-3.601
-1.614
0.349
2.274
4.156
6.004
7.839
9.701
11.644
13.689
15.837
18.08
20.374
22.678
24.935
27.067
29.012
30.723
32.157
33.291
34.1
34.528
34.507
33.952
32.768
30.9
28.318
25.012
21.014
16.381
11.209
5.633
-0.228
-6.281
-12.45
-18.672
-24.877
-30.964
-36.815
-42.317
-47.354
-51.84
-55.712
-58.925
-61.481
-63.428
-64.867
-65.937
-66.769
-67.471
-68.139
-68.88
-69.783
-70.968
-72.605
-74.766
-77.465
-80.625
-83.985
-87.26
-90.229
-92.566
-93.869
-93.881
-92.448
-89.749
-86.513
-83.441
-81.024
-79.638
-79.553
-81.059
-84.361
-88.977
-92.613
-91.98
-84.477
-68.761
-46.557
-21.031
7.562
41.728
87.069
149.982
231.124
326.228
427.262
523.857
608.585
674.172
713.416
721.37
692.914
628.853
534.927
416.823
285.037
150.152
22.663
-83
-158.214
-200.902
-213.386
-203.933
-179.609
-145.018
-105.955
-69.089
-41.091
-26.519
-24.365
-28.419
-32.792
-34.217
-33.265
-34.094
-39.089
-48.173
-59.779
-70.623
-78.682
-83.741
-85.916
-85.814
-84.172
-81.29
-77.687
-74.287
-71.697
-70.22
-70.023
-70.976
-72.84
-75.458
-78.532
-81.612
-84.393
-86.697
-88.427
-89.623
-90.325
-90.532
-90.288
-89.662
-88.709
-87.473
-85.983
-84.239
-82.264
-80.103
-77.811
-75.455
-73.094
-70.769
-68.51
-66.34
-64.276
-62.328
-60.499
-58.786
-57.179
-55.673
-54.266
-52.954
-51.733
-50.594
-49.522
-48.504
-47.525
-46.573
-45.639
-44.713
-43.787
-42.852
-41.902
-40.931
-39.935
-38.907
-37.839
-36.724
-35.554
-34.323
-33.024
-31.651
-30.199
-28.664
-27.042
-25.331
-23.529
-21.635
-19.651
-17.577
-15.415
-13.168
-10.841
-8.439
-5.966
-3.431
-0.84
1.799
4.478
7.186
9.914
12.652
15.39
18.116
20.819
23.489
26.113
28.681
31.18
33.6
35.93
38.157
40.273
42.266
44.126
45.845
47.413
48.823
50.067
51.138
52.033
52.745
53.27
53.607
53.752
53.705
53.465
53.033
52.411
51.6
50.604
49.426
48.072
46.546
44.854
43.003
41
38.854
36.572
34.163
31.637
29.004
26.275
23.458
20.566
17.609
14.598
11.545
8.459
5.352
2.236
-0.879
-3.983
-7.065
-10.116
-13.126
-16.086
-18.988
-21.824
-24.589
-27.274
-29.873
-32.382
-34.796
-37.108
-39.316
-41.416
-43.404
-45.278
-47.036
-48.677
-50.2
-51.605
-52.894
-54.065
-55.122
-56.064
-56.895
-57.615
-58.228
-58.735
-59.139
-59.445
-59.655
-59.775
-59.808
-59.759
-59.632
-59.432
-59.164
-58.831
-58.436
-57.985
-57.48
-56.927
-56.329
-55.691
-55.019
-54.318
-53.594
-52.854
-52.101
-51.34
-50.577
-49.815
-49.057
-48.305
-47.559
-46.822
-46.098
-45.392
-44.709
-44.055
-43.436
-42.857
-42.327
-41.848
-41.424
-41.052
-40.729
-40.455
-40.232
-40.063
-39.957
-39.92
-39.949
-40.045
-40.204
-40.414
-40.657
-40.903
-41.111
-41.251
-41.306
-41.265
-41.133
-40.915
-40.614
-40.238
-39.792
-39.272
-38.685
-38.038
-37.328
-36.569
-35.777
-35.002
-34.338
-33.875
-33.68
-33.769
-34.144
-34.847
-35.93
-37.422
-39.298
-41.443
-43.749
-46.202
-48.707
-50.946
-52.648
-53.607
-53.65
-52.97
-50.961
-46.091
-37.908
-27.292
-17.797
-14.959
-20.94
-32.796
-42.947
-42.239
-26.76
-0.443
27.717
49.24
60.245
63.228
64.077
65.439
67.774
68.631
64.176
56.181
46.703
38.653
35.805
35.361
34.871
32.331
24.674
14.129
2.911
-8.252
-17.729
-26.207
-34.649
-42.642
-50.146
-56.978
-62.787
-67.709
-71.902
-75.298
-77.873
-79.695
-80.826
-81.388
-81.575
-81.492
-81.232
-80.928
-80.679
-80.599
-80.807
-81.351
-82.309
-83.795
-85.838
-88.43
-91.441
-94.511
-97.291
-99.505
-100.743
-100.585
-98.763
-95.098
-89.856
-83.855
-77.825
-72.227
-67.676
-64.823
-63.955
-65.269
-67.435
-67.195
-62.668
-53.021
-38.496
-21.355
0.522
32.847
80.428
147.339
229.429
316.406
399.329
472.194
536.723
595.644
646.426
680.092
681.241
640.802
560.321
449.91
326.353
201.71
81.483
-30.248
-130.083
-210.546
-261.917
-278.312
-258.099
-208.514
-143.499
-78.417
-29.276
-3.307
1.588
-7.516
-18.929
-26.327
-29.769
-31.603
-36.811
-46.763
-59.255
-71.992
-81.973
-87.865
-90.141
-89.406
-86.633
-82.98
-79.354
-76.393
-74.612
-74.19
-75.054
-77.089
-80.033
-83.46
-86.895
-89.987
-92.527
-94.448
-95.79
-96.574
-96.818
-96.567
-95.899
-94.883
-93.564
-91.966
-90.092
-87.961
-85.625
-83.144
-80.585
-78.013
-75.468
-72.975
-70.561
-68.241
-66.029
-63.936
-61.96
-60.092
-58.331
-56.676
-55.126
-53.678
-52.323
-51.044
-49.827
-48.655
-47.518
-46.405
-45.308
-44.214
-43.116
-42.005
-40.875
-39.719
-38.53
-37.296
-36.008
-34.655
-33.231
-31.726
-30.133
-28.446
-26.657
-24.763
-22.761
-20.647
-18.42
-16.08
-13.626
-11.06
-8.383
-5.601
-2.716
0.265
3.335
6.487
9.713
13.002
16.344
19.729
23.145
26.579
30.02
33.455
36.87
40.252
43.587
46.863
50.065
53.179
56.193
59.093
61.867
64.504
66.992
69.321
71.481
73.464
75.262
76.867
78.274
79.478
80.473
81.257
81.828
82.184
82.325
82.253
81.968
81.474
80.775
79.874
78.779
77.494
76.028
74.387
72.581
70.619
68.511
66.268
63.9
61.419
58.836
56.163
53.412
50.595
47.724
44.809
41.864
38.9
35.927
32.957
30.001
27.068
24.17
21.315
18.513
15.772
13.1
10.504
7.992
5.57
3.243
1.017
-1.104
-3.117
-5.019
-6.807
-8.479
-10.035
-11.475
-12.798
-14.006
-15.1
-16.082
-16.953
-17.717
-18.376
-18.933
-19.391
-19.754
-20.025
-20.209
-20.31
-20.333
-20.281
-20.161
-19.978
-19.736
-19.443
-19.104
-18.724
-18.311
-17.871
-17.41
-16.935
-16.452
-15.967
-15.486
-15.015
-14.559
-14.126
-13.719
-13.343
-13.003
-12.704
-12.451
-12.246
-12.095
-11.999
-11.963
-11.991
-12.084
-12.245
-12.476
-12.779
-13.153
-13.6
-14.119
-14.708
-15.364
-16.083
-16.863
-17.697
-18.58
-19.503
-20.46
-21.444
-22.446
-23.458
-24.471
-25.475
-26.46
-27.419
-28.339
-29.209
-30.017
-30.75
-31.397
-31.947
-32.391
-32.718
-32.916
-32.977
-32.891
-32.655
-32.26
-31.696
-30.95
-30.012
-28.879
-27.559
-26.059
-24.382
-22.535
-20.526
-18.368
-16.083
-13.682
-11.163
-8.525
-5.764
-2.893
0.06
3.069
6.108
9.16
12.225
15.295
18.344
21.362
24.346
27.299
30.237
33.143
35.956
38.622
41.09
43.326
45.321
47.059
48.515
49.666
50.48
50.943
51.056
50.793
50.109
48.956
47.278
45.073
42.397
39.302
35.84
32.058
27.999
23.715
19.278
14.743
10.15
5.535
0.934
-3.585
-7.922
-11.981
-15.679
-18.974
-21.868
-24.381
-26.543
-28.409
-30.059
-31.568
-33.018
-34.483
-36.026
-37.725
-39.675
-41.955
-44.698
-48.073
-52.148
-56.888
-62.12
-67.451
-72.471
-76.832
-80.077
-81.708
-81.458
-79.27
-75.533
-71.172
-67.065
-63.887
-62.277
-62.744
-65.475
-70.232
-75.806
-79.978
-80.382
-74.778
-60.898
-36.621
-0.139
50.033
113.155
185.758
264.115
344.082
422.815
501.127
578.221
649.463
707.847
741.079
737.027
691.886
606.974
489.144
352.085
208.373
71.11
-43.629
-125.635
-172.186
-187.031
-181.35
-167.221
-148.968
-126.488
-100.611
-70.528
-40.842
-18.885
-4.706
1.334
0.569
-2.663
-9.044
-18.638
-29.512
-41.111
-51.367
-58.35
-61.94
-62.172
-59.524
-55.001
-49.645
-44.511
-40.366
-37.691
-36.634
-37.086
-38.914
-41.862
-45.498
-49.347
-53.031
-56.289
-59.013
-61.213
-62.878
-64.008
-64.633
-64.8
-64.565
-63.974
-63.054
-61.813
-60.274
-58.476
-56.475
-54.338
-52.133
-49.919
-47.739
-45.623
-43.595
-41.673
-39.868
-38.187
-36.624
-35.17
-33.819
-32.567
-31.411
-30.345
-29.357
-28.431
-27.554
-26.711
-25.893
-25.092
-24.299
-23.505
-22.703
-21.888
-21.055
-20.199
-19.315
-18.394
-17.429
-16.411
-15.334
-14.19
-12.973
-11.676
-10.293
-8.819
-7.252
-5.588
-3.825
-1.964
-0.004
2.054
4.206
6.45
8.783
11.197
13.689
16.25
18.874
21.551
24.273
27.031
29.813
32.609
35.408
38.197
40.966
43.701
46.391
49.022
51.581
54.056
56.433
58.701
60.845
62.854
64.716
66.421
67.957
69.316
70.489
71.468
72.248
72.823
73.188
73.341
73.278
72.998
72.501
71.787
70.858
69.716
68.365
66.809
65.052
63.103
60.966
58.651
56.165
53.518
50.72
47.781
44.714
41.53
38.242
34.863
31.407
27.886
24.316
20.711
17.084
13.449
9.819
6.209
2.63
-0.905
-4.385
-7.798
-11.132
-14.379
-17.529
-20.572
-23.499
-26.304
-28.978
-31.516
-33.912
-36.16
-38.257
-40.199
-41.983
-43.608
-45.072
-46.375
-47.517
-48.499
-49.325
-49.996
-50.517
-50.892
-51.127
-51.227
-51.198
-51.047
-50.781
-50.407
-49.934
-49.367
-48.717
-47.99
-47.195
-46.34
-45.435
-44.487
-43.505
-42.498
-41.474
-40.442
-39.41
-38.385
-37.377
-36.392
-35.438
-34.522
-33.651
-32.83
-32.066
-31.362
-30.725
-30.156
-29.658
-29.234
-28.885
-28.611
-28.413
-28.289
-28.238
-28.258
-28.346
-28.498
-28.71
-28.978
-29.295
-29.656
-30.054
-30.483
-30.936
-31.403
-31.878
-32.351
-32.814
-33.257
-33.672
-34.047
-34.374
-34.642
-34.842
-34.966
-35.003
-34.946
-34.787
-34.519
-34.134
-33.627
-32.992
-32.224
-31.321
-30.278
-29.096
-27.773
-26.311
-24.71
-22.974
-21.109
-19.118
-17.009
-14.788
-12.464
-10.048
-7.549
-4.98
-2.353
0.319
3.018
5.728
8.431
11.107
13.739
16.305
18.788
21.167
23.425
25.545
27.512
29.311
30.925
32.337
33.532
34.496
35.219
35.689
35.898
35.839
35.509
34.912
34.052
32.931
31.547
29.891
27.958
25.753
23.281
20.554
17.587
14.396
11.01
7.475
3.833
0.127
-3.607
-7.348
-11.066
-14.718
-18.255
-21.612
-24.735
-27.587
-30.132
-32.346
-34.218
-35.756
-36.994
-37.999
-38.84
-39.592
-40.324
-41.11
-42.038
-43.177
-44.624
-46.534
-48.989
-52.006
-55.502
-59.199
-62.758
-65.931
-68.409
-69.784
-69.772
-68.22
-65.332
-61.878
-58.817
-56.844
-56.349
-57.808
-61.62
-67.721
-75.507
-82.574
-84.891
-80.305
-68.083
-48.568
-24.256
6.676
49.328
106.582
180.499
266.826
355.365
438.918
513.226
576.528
628.714
665.102
676.112
652.833
591.562
495.306
373.133
237.619
99.848
-30.291
-141.785
-226.017
-277.828
-294.872
-281.992
-249.48
-207.618
-168.741
-141.778
-127.379
-122.086
-117.448
-105.658
-85.878
-62.019
-40.979
-27.829
-23.265
-25.513
-31.861
-40.68
-51.189
-62.154
-72.23
-80.364
-85.985
-89.154
-90.114
-89.063
-86.394
-82.928
-79.703
-77.401
-76.277
-76.252
-77.058
-78.478
-80.341
-82.344
-84.108
-85.403
-86.137
-86.338
-86.134
-85.615
-84.82
-83.808
-82.638
-81.356
-80.003
-78.609
-77.189
-75.775
-74.398
-73.076
-71.831
-70.669
-69.589
-68.587
-67.648
-66.753
-65.894
-65.064
-64.262
-63.485
-62.724
-61.968
-61.205
-60.422
-59.609
-58.752
-57.84
-56.86
-55.807
-54.675
-53.463
-52.168
-50.786
-49.312
-47.741
-46.068
-44.288
-42.399
-40.397
-38.279
-36.044
-33.694
-31.229
-28.652
-25.966
-23.176
-20.284
-17.297
-14.222
-11.064
-7.832
-4.533
-1.178
2.224
5.662
9.125
12.601
16.08
19.548
22.992
26.401
29.761
33.061
36.287
39.428
42.471
45.403
48.214
50.891
53.423
55.799
58.007
60.039
61.886
63.538
64.989
66.231
67.26
68.071
68.66
69.025
69.163
69.075
68.76
68.219
67.455
66.471
65.272
63.861
62.245
60.432
58.427
56.24
53.88
51.356
48.679
45.859
42.907
39.836
36.659
33.387
30.036
26.618
23.148
19.64
16.108
12.566
9.027
5.506
2.015
-1.434
-4.828
-8.156
-11.406
-14.569
-17.633
-20.592
-23.435
-26.156
-28.748
-31.204
-33.52
-35.691
-37.713
-39.583
-41.299
-42.86
-44.265
-45.514
-46.608
-47.549
-48.339
-48.982
-49.482
-49.843
-50.072
-50.174
-50.156
-50.024
-49.785
-49.447
-49.017
-48.503
-47.912
-47.252
-46.531
-45.756
-44.935
-44.077
-43.187
-42.273
-41.343
-40.404
-39.461
-38.522
-37.593
-36.68
-35.788
-34.924
-34.093
-33.299
-32.547
-31.84
-31.183
-30.577
-30.025
-29.528
-29.087
-28.703
-28.376
-28.104
-27.887
-27.723
-27.61
-27.545
-27.525
-27.547
-27.607
-27.7
-27.822
-27.967
-28.13
-28.306
-28.486
-28.665
-28.836
-28.992
-29.125
-29.227
-29.29
-29.307
-29.269
-29.168
-28.995
-28.744
-28.406
-27.974
-27.442
-26.803
-26.053
-25.185
-24.197
-23.086
-21.848
-20.482
-18.988
-17.366
-15.618
-13.747
-11.756
-9.651
-7.437
-5.123
-2.717
-0.231
2.325
4.937
7.591
10.271
12.962
15.645
18.304
20.921
23.479
25.958
28.341
30.61
32.746
34.731
36.546
38.171
39.591
40.787
41.747
42.456
42.907
43.093
43.007
42.643
41.992
41.045
39.801
38.259
36.423
34.301
31.908
29.269
26.422
23.405
20.256
17.012
13.696
10.339
6.971
3.63
0.364
-2.783
-5.774
-8.577
-11.163
-13.509
-15.607
-17.495
-19.241
-20.919
-22.591
-24.286
-26.025
-27.852
-29.823
-32.009
-34.48
-37.271
-40.435
-44.079
-48.234
-52.838
-57.674
-62.284
-66.16
-68.914
-70.137
-69.395
-66.483
-61.46
-54.774
-47.464
-40.604
-34.913
-31.039
-29.544
-30.505
-33.437
-37.078
-39.001
-36.588
-27.793
-10.535
17.155
56.574
108.58
172.136
243.168
317.075
389.222
456.371
519.612
579.486
634.272
679.783
703.722
692.86
639.105
538.155
400.075
246.005
97.102
-23.017
-101.499
-142.48
-153.516
-147.843
-136.924
-119.415
-95.817
-68.595
-39.199
-16.462
-4.234
1.196
1.976
2.873
5.62
6.275
3.457
-3.185
-12.911
-22.456
-30.055
-35.224
-37.647
-37.755
-36.08
-33.059
-29.383
-25.899
-23.132
-21.364
-20.765
-21.297
-22.833
-25.195
-28.061
-30.976
-33.621
-35.826
-37.499
-38.663
-39.338
-39.512
-39.218
-38.533
-37.521
-36.229
-34.688
-32.896
-30.87
-28.655
-26.306
-23.893
-21.478
-19.102
-16.793
-14.574
-12.46
-10.466
-8.6
-6.856
-5.224
-3.699
-2.28
-0.967
0.239
1.348
2.37
3.32
4.208
5.043
5.831
6.578
7.291
7.975
8.632
9.263
9.87
10.456
11.024
11.579
12.125
12.667
13.208
13.752
14.301
14.859
15.427
16.007
16.599
17.203
17.82
18.449
19.089
19.738
20.395
21.058
21.723
22.387
23.047
23.698
24.337
24.959
25.559
26.132
26.675
27.182
27.648
28.071
28.444
28.765
29.03
29.233
29.373
29.445
29.446
29.374
29.225
28.996
28.688
28.297
27.823
27.265
26.623
25.898
25.088
24.196
23.222
22.167
21.033
19.823
18.538
17.182
15.758
14.268
12.717
11.108
9.445
7.732
5.972
4.169
2.328
0.453
-1.453
-3.385
-5.339
-7.31
-9.295
-11.289
-13.288
-15.289
-17.287
-19.278
-21.259
-23.226
-25.176
-27.104
-29.007
-30.881
-32.723
-34.53
-36.298
-38.024
-39.706
-41.341
-42.927
-44.461
-45.942
-47.367
-48.734
-50.042
-51.289
-52.474
-53.595
-54.651
-55.642
-56.567
-57.426
-58.218
-58.943
-59.601
-60.192
-60.716
-61.173
-61.564
-61.888
-62.148
-62.345
-62.481
-62.559
-62.581
-62.55
-62.47
-62.345
-62.178
-61.973
-61.734
-61.465
-61.17
-60.856
-60.525
-60.185
-59.84
-59.494
-59.153
-58.822
-58.506
-58.208
-57.934
-57.686
-57.47
-57.288
-57.146
-57.047
-56.994
-56.989
-57.036
-57.136
-57.29
-57.497
-57.755
-58.063
-58.419
-58.82
-59.263
-59.74
-60.242
-60.768
-61.315
-61.868
-62.414
-62.938
-63.424
-63.87
-64.281
-64.635
-64.905
-65.108
-65.252
-65.342
-65.394
-65.377
-65.238
-64.99
-64.667
-64.153
-63.31
-62.207
-60.824
-59.122
-57.378
-54.835
-50.761
-46.225
-41.558
-38.717
-40.051
-43.001
-45.864
-46.083
-40.131
-31.113
-21.673
-13.638
-10.03
-8.744
-7.634
-6.224
-3.197
0.669
4.375
8.104
11.74
15.372
19.195
23.037
26.718
30.2
33.439
36.392
39.048
41.393
43.399
45.046
46.328
47.218
47.686
47.692
47.17
46.047
44.298
41.944
39.057
35.717
31.985
27.918
23.571
19.007
14.296
9.496
4.652
-0.196
-4.991
-9.646
-14.05
-18.099
-21.726
-24.908
-27.673
-30.066
-32.141
-33.983
-35.674
-37.29
-38.909
-40.594
-42.405
-44.414
-46.707
-49.353
-52.465
-56.182
-60.55
-65.53
-70.924
-76.345
-81.383
-85.662
-88.753
-90.194
-89.698
-87.169
-82.909
-77.67
-72.213
-67.151
-63.046
-60.392
-59.441
-60.031
-61.217
-61.2
-57.986
-49.692
-34.357
-10.029
25.034
72.216
130.698
197.388
269.208
342.546
416.153
491.411
565.448
632.93
683.866
703.718
686.633
633.197
550.916
453.879
347.821
235.397
120.168
5.501
-95.5
-169.228
-211.293
-222.319
-211.064
-187.3
-153.046
-109.924
-61.112
-13.038
23.564
41.795
41.882
30.476
16.277
4.237
-5.297
-15.32
-28.097
-42.814
-56.95
-67.739
-73.896
-75.774
-74.444
-71.131
-66.816
-62.519
-59.118
-57.049
-56.491
-57.327
-59.215
-61.859
-64.891
-67.801
-70.265
-72.129
-73.325
-73.932
-74.025
-73.614
-72.764
-71.565
-70.061
-68.294
-66.285
-64.022
-61.536
-58.882
-56.119
-53.319
-50.531
-47.783
-45.101
-42.507
-40.016
-37.645
-35.398
-33.271
-31.266
-29.388
-27.637
-26.018
-24.525
-23.145
-21.864
-20.667
-19.54
-18.473
-17.454
-16.474
-15.524
-14.593
-13.675
-12.763
-11.848
-10.918
-9.963
-8.972
-7.934
-6.841
-5.682
-4.45
-3.136
-1.734
-0.238
1.356
3.053
4.857
6.768
8.789
10.918
13.154
15.494
17.934
20.468
23.089
25.789
28.557
31.385
34.261
37.172
40.106
43.051
45.991
48.914
51.806
54.651
57.436
60.147
62.769
65.288
67.69
69.963
72.094
74.071
75.882
77.517
78.967
80.223
81.276
82.119
82.748
83.158
83.344
83.304
83.038
82.546
81.829
80.889
79.732
78.362
76.784
75.007
73.037
70.883
68.555
66.063
63.418
60.631
57.714
54.678
51.537
48.304
44.991
41.61
38.176
34.701
31.198
27.679
24.156
20.643
17.15
13.69
10.273
6.91
3.61
0.383
-2.762
-5.819
-8.779
-11.637
-14.388
-17.027
-19.55
-21.954
-24.236
-26.394
-28.427
-30.334
-32.115
-33.77
-35.301
-36.708
-37.994
-39.16
-40.209
-41.145
-41.969
-42.685
-43.297
-43.808
-44.222
-44.543
-44.775
-44.924
-44.994
-44.989
-44.916
-44.78
-44.586
-44.34
-44.047
-43.711
-43.339
-42.934
-42.502
-42.047
-41.574
-41.088
-40.594
-40.096
-39.598
-39.107
-38.625
-38.158
-37.71
-37.284
-36.885
-36.518
-36.185
-35.892
-35.642
-35.439
-35.287
-35.188
-35.146
-35.162
-35.236
-35.37
-35.561
-35.809
-36.11
-36.459
-36.855
-37.295
-37.772
-38.285
-38.829
-39.399
-39.993
-40.608
-41.235
-41.868
-42.497
-43.111
-43.702
-44.258
-44.766
-45.215
-45.591
-45.886
-46.095
-46.207
-46.212
-46.096
-45.842
-45.437
-44.878
-44.16
-43.28
-42.242
-41.054
-39.738
-38.326
-36.84
-35.293
-33.69
-32.022
-30.286
-28.484
-26.614
-24.674
-22.662
-20.568
-18.394
-16.149
-13.825
-11.405
-8.851
-6.098
-3.111
0.111
3.558
7.192
10.967
14.835
18.724
22.542
26.208
29.647
32.801
35.636
38.096
40.108
41.579
42.382
42.429
41.679
40.105
37.707
34.515
30.572
25.974
20.865
15.369
9.592
3.623
-2.489
-8.669
-14.821
-20.836
-26.578
-31.94
-36.848
-41.237
-45.057
-48.289
-50.943
-53.103
-54.92
-56.53
-58.038
-59.505
-60.965
-62.483
-64.144
-66.045
-68.281
-70.91
-74.003
-77.676
-81.979
-86.857
-92.093
-97.221
-101.706
-105.122
-107.029
-106.956
-104.639
-100.073
-93.648
-86.345
-79.217
-73.006
-68.371
-65.93
-65.913
-67.96
-70.908
-72.403
-69.798
-61.003
-43.862
-16.253
23.478
76.524
141.6
214.314
290.278
365.059
437.242
509.285
579.053
641.752
687.854
701.266
674.401
606.185
501.061
374.721
240.653
110.543
-1.393
-87.498
-144.256
-171.486
-177.471
-172.096
-160.886
-147.528
-131.794
-111.129
-86.956
-62.094
-39.318
-22.478
-13.276
-11.1
-15.03
-23.408
-34.164
-46.069
-58.08
-68.732
-76.997
-82.47
-85.007
-84.998
-83.259
-80.332
-76.79
-73.524
-71.124
-69.874
-69.944
-71.179
-73.27
-76.015
-79.097
-82.063
-84.648
-86.698
-88.127
-88.996
-89.352
-89.199
-88.598
-87.635
-86.36
-84.82
-83.04
-81.017
-78.782
-76.39
-73.901
-71.387
-68.895
-66.453
-64.084
-61.807
-59.634
-57.574
-55.62
-53.761
-51.993
-50.312
-48.717
-47.207
-45.774
-44.403
-43.083
-41.795
-40.527
-39.269
-38.01
-36.74
-35.453
-34.141
-32.799
-31.423
-30.009
-28.548
-27.034
-25.458
-23.815
-22.099
-20.305
-18.427
-16.462
-14.408
-12.263
-10.027
-7.699
-5.28
-2.772
-0.177
2.501
5.257
8.086
10.983
13.939
16.947
19.999
23.083
26.192
29.314
32.438
35.554
38.649
41.714
44.736
47.705
50.609
53.436
56.177
58.821
61.356
63.774
66.063
68.214
70.219
72.07
73.758
75.278
76.623
77.788
78.767
79.558
80.157
80.561
80.77
80.782
80.597
80.216
79.641
78.874
77.919
76.779
75.458
73.961
72.294
70.463
68.473
66.331
64.045
61.622
59.07
56.398
53.614
50.727
47.747
44.683
41.545
38.343
35.087
31.788
28.455
25.1
21.731
18.36
14.997
11.651
8.332
5.05
1.813
-1.368
-4.486
-7.533
-10.5
-13.379
-16.164
-18.847
-21.422
-23.883
-26.224
-28.439
-30.524
-32.474
-34.286
-35.957
-37.484
-38.865
-40.099
-41.186
-42.125
-42.918
-43.565
-44.069
-44.433
-44.661
-44.756
-44.724
-44.569
-44.299
-43.919
-43.436
-42.858
-42.193
-41.448
-40.632
-39.754
-38.822
-37.847
-36.838
-35.803
-34.754
-33.699
-32.647
-31.609
-30.593
-29.608
-28.663
-27.765
-26.923
-26.143
-25.432
-24.795
-24.237
-23.763
-23.375
-23.075
-22.864
-22.742
-22.709
-22.762
-22.898
-23.113
-23.403
-23.761
-24.182
-24.658
-25.18
-25.74
-26.328
-26.934
-27.548
-28.157
-28.751
-29.318
-29.844
-30.319
-30.731
-31.067
-31.315
-31.464
-31.502
-31.418
-31.203
-30.846
-30.34
-29.676
-28.848
-27.851
-26.682
-25.338
-23.819
-22.125
-20.259
-18.224
-16.027
-13.672
-11.17
-8.529
-5.76
-2.877
0.107
3.177
6.315
9.502
12.717
15.941
19.15
22.323
25.437
28.469
31.396
34.199
36.856
39.347
41.652
43.747
45.613
47.233
48.589
49.667
50.456
50.941
51.117
50.983
50.537
49.778
48.702
47.296
45.555
43.48
41.078
38.358
35.338
32.032
28.47
24.694
20.748
16.675
12.514
8.294
4.051
-0.166
-4.302
-8.284
-12.051
-15.563
-18.783
-21.684
-24.258
-26.505
-28.453
-30.158
-31.685
-33.106
-34.493
-35.918
-37.464
-39.213
-41.279
-43.835
-46.967
-50.668
-54.829
-59.168
-63.398
-67.283
-70.475
-72.523
-73.139
-72.196
-69.918
-67.026
-64.165
-61.859
-60.682
-61.092
-63.373
-67.55
-72.861
-77.655
-80.159
-78.408
-70.365
-54.246
-28.116
9.689
59.666
121.321
192.538
269.137
346.936
421.3
489.114
550.961
605.684
650.54
680.275
682.968
649.307
576.105
463.283
321.485
167.754
18.192
-107.292
-193.965
-240.033
-250.582
-237.609
-215.29
-188.764
-156.293
-117.496
-73.98
-31.878
-2.034
11.242
11.053
1.841
-9.473
-19.591
-30.56
-42.662
-55.499
-67.937
-77.089
-81.788
-82.377
-79.529
-74.515
-68.657
-63.054
-58.563
-55.682
-54.53
-54.94
-56.647
-59.362
-62.663
-66.041
-69.121
-71.69
-73.677
-75.141
-76.131
-76.656
-76.749
-76.482
-75.913
-75.085
-74.026
-72.731
-71.214
-69.521
-67.706
-65.836
-63.972
-62.152
-60.4
-58.739
-57.182
-55.742
-54.427
-53.235
-52.154
-51.178
-50.303
-49.524
-48.836
-48.228
-47.68
-47.177
-46.702
-46.241
-45.785
-45.322
-44.842
-44.334
-43.791
-43.204
-42.567
-41.874
-41.114
-40.278
-39.357
-38.343
-37.229
-36.009
-34.674
-33.22
-31.643
-29.938
-28.104
-26.139
-24.043
-21.816
-19.46
-16.977
-14.373
-11.65
-8.816
-5.876
-2.838
0.289
3.496
6.774
10.111
13.496
16.917
20.363
23.82
27.276
30.718
34.132
37.506
40.826
44.08
47.253
50.333
53.307
56.161
58.885
61.465
63.893
66.157
68.248
70.158
71.88
73.407
74.734
75.855
76.768
77.47
77.958
78.233
78.295
78.145
77.786
77.22
76.453
75.489
74.335
72.995
71.479
69.793
67.946
65.948
63.809
61.538
59.148
56.65
54.056
51.38
48.633
45.83
42.983
40.106
37.212
34.315
31.427
28.561
25.729
22.944
20.216
17.556
14.973
12.478
10.079
7.783
5.597
3.527
1.579
-0.242
-1.932
-3.488
-4.907
-6.187
-7.327
-8.326
-9.186
-9.906
-10.489
-10.938
-11.256
-11.447
-11.516
-11.469
-11.311
-11.049
-10.692
-10.247
-9.723
-9.128
-8.473
-7.765
-7.015
-6.23
-5.42
-4.592
-3.754
-2.914
-2.08
-1.257
-0.453
0.326
1.073
1.784
2.452
3.073
3.643
4.157
4.613
5.008
5.339
5.604
5.802
5.933
5.996
5.992
5.924
5.795
5.608
5.371
5.089
4.772
4.426
4.063
3.689
3.315
2.948
2.598
2.271
1.975
1.717
1.504
1.344
1.25
1.229
1.294
1.453
1.717
2.099
2.609
3.257
4.048
4.988
6.084
7.345
8.786
10.413
12.227
14.224
16.399
18.74
21.236
23.865
26.589
29.377
32.194
35.022
37.857
40.691
43.513
46.312
49.069
51.785
54.478
57.158
59.827
62.497
65.171
67.882
70.694
73.649
76.78
80.089
83.544
87.113
90.768
94.461
98.138
101.718
105.084
108.147
110.851
113.128
114.92
116.134
116.634
116.318
115.121
113.006
109.98
106.058
101.255
95.634
89.301
82.387
75.06
67.451
59.646
51.745
43.849
36.087
28.629
21.61
15.118
9.223
3.983
-0.569
-4.421
-7.619
-10.279
-12.53
-14.488
-16.254
-17.909
-19.542
-21.272
-23.218
-25.487
-28.186
-31.419
-35.224
-39.561
-44.251
-48.937
-53.21
-56.724
-59.132
-60.02
-59.121
-56.488
-52.514
-48.006
-43.883
-40.612
-38.392
-37.748
-39.095
-42.15
-45.996
-48.079
-44.725
-33.602
-13.724
13.718
46.082
81.744
120.758
167.424
226.744
301.847
393.645
493.444
587.385
660.618
696.772
688.78
638.624
553.484
445.746
324.914
197.952
71.308
-47.083
-145.077
-214.55
-252.434
-262.803
-257.956
-245.838
-230.08
-211.699
-187.115
-156.383
-123.303
-91.211
-64.276
-45.367
-34.576
-31.194
-34.205
-42.033
-53.011
-65.867
-79.022
-90.489
-99.19
-104.731
-106.977
-106.458
-103.917
-99.868
-95.161
-90.954
-87.875
-86.213
-86.074
-87.164
-89.167
-91.87
-94.876
-97.727
-100.183
-102.119
-103.506
-104.456
-105.03
-105.255
-105.207
-104.956
-104.547
-104.013
-103.367
-102.61
-101.774
-100.907
-100.059
-99.268
-98.555
-97.928
-97.391
-96.942
-96.577
-96.284
-96.047
-95.855
-95.7
-95.575
-95.473
-95.381
-95.282
-95.16
-94.996
-94.773
-94.477
-94.097
-93.621
-93.044
-92.36
-91.563
-90.651
-89.619
-88.463
-87.177
-85.759
-84.204
-82.513
-80.682
-78.714
-76.609
-74.37
-72.002
-69.509
-66.896
-64.17
-61.338
-58.408
-55.39
-52.292
-49.126
-45.903
-42.634
-39.333
-36.013
-32.686
-29.367
-26.069
-22.806
-19.591
-16.44
-13.365
-10.379
-7.496
-4.727
-2.086
0.417
2.772
4.967
6.993
8.842
10.505
11.974
13.243
14.307
15.16
15.8
16.222
16.426
16.411
16.177
15.725
15.058
14.178
13.089
11.795
10.303
8.619
6.748
4.7
2.481
0.102
-2.43
-5.103
-7.908
-10.835
-13.872
-17.009
-20.234
-23.537
-26.906
-30.329
-33.795
-37.292
-40.807
-44.331
-47.85
-51.353
-54.831
-58.271
-61.665
-65.002
-68.273
-71.471
-74.587
-77.614
-80.545
-83.374
-86.094
-88.7
-91.189
-93.555
-95.795
-97.907
-99.888
-101.737
-103.453
-105.036
-106.484
-107.799
-108.98
-110.029
-110.947
-111.737
-112.401
-112.943
-113.367
-113.676
-113.877
-113.973
-113.97
-113.873
-113.689
-113.421
-113.076
-112.658
-112.171
-111.622
-111.015
-110.356
-109.65
-108.901
-108.115
-107.296
-106.45
-105.579
-104.688
-103.78
-102.859
-101.929
-100.992
-100.051
-99.111
-98.174
-97.242
-96.318
-95.402
-94.495
-93.597
-92.705
-91.82
-90.936
-90.053
-89.164
-88.267
-87.359
-86.435
-85.492
-84.529
-83.54
-82.524
-81.476
-80.392
-79.267
-78.093
-76.862
-75.565
-74.194
-72.742
-71.202
-69.568
-67.832
-65.99
-64.039
-61.973
-59.788
-57.473
-55.015
-52.404
-49.641
-46.728
-43.675
-40.5
-37.215
-33.838
-30.392
-26.895
-23.355
-19.772
-16.132
-12.42
-8.632
-4.777
-0.874
3.056
7.009
10.983
14.979
19.013
23.095
27.242
31.492
35.862
40.34
44.895
49.457
53.942
58.287
62.446
66.382
70.07
73.463
76.516
79.193
81.442
83.217
84.46
85.08
85.009
84.222
82.721
80.564
77.841
74.61
70.929
66.856
62.447
57.78
52.933
47.963
42.93
37.896
32.938
28.174
23.713
19.629
15.973
12.739
9.898
7.446
5.371
3.625
2.14
0.806
-0.482
-1.776
-3.105
-4.512
-6.07
-7.891
-10.087
-12.736
-15.866
-19.494
-23.687
-28.453
-33.671
-39.057
-44.105
-48.28
-51.196
-52.477
-51.68
-48.585
-43.218
-35.954
-27.76
-19.588
-12.07
-5.879
-1.605
0.644
1.27
1.463
3.393
9.26
21.138
41.303
71.771
114.194
168.428
231.676
300.382
370.716
440.675
511.891
583.792
651.441
706.54
735.194
725.299
674.125
584.166
464.074
328.986
191.136
63.87
-37.868
-108.72
-148.361
-163.377
-166.27
-162.134
-150.996
-128.688
-91.861
-46.183
-0.895
33.187
50.541
54.713
50.647
44.257
38.104
29.677
18.211
3.767
-12.234
-26.193
-36.453
-42.813
-45.376
-45.25
-43.463
-40.696
-38.032
-36.341
-35.938
-36.954
-39.258
-42.517
-46.446
-50.67
-54.713
-58.272
-61.221
-63.527
-65.273
-66.523
-67.299
-67.674
-67.731
-67.523
-67.088
-66.44
-65.577
-64.535
-63.364
-62.124
-60.867
-59.618
-58.39
-57.195
-56.038
-54.927
-53.861
-52.829
-51.824
-50.846
-49.893
-48.966
-48.061
-47.164
-46.261
-45.336
-44.376
-43.37
-42.309
-41.184
-39.989
-38.72
-37.372
-35.945
-34.435
-32.836
-31.143
-29.352
-27.46
-25.463
-23.36
-21.15
-18.834
-16.413
-13.892
-11.275
-8.566
-5.769
-2.892
0.06
3.078
6.154
9.28
12.447
15.644
18.861
22.087
25.311
28.521
31.705
34.852
37.951
40.989
43.955
46.838
49.628
52.314
54.886
57.333
59.646
61.818
63.838
65.701
67.398
68.925
70.275
71.445
72.431
73.231
73.843
74.265
74.498
74.541
74.396
74.064
73.546
72.847
71.968
70.914
69.689
68.298
66.746
65.039
63.181
61.181
59.043
56.776
54.387
51.883
49.273
46.565
43.767
40.89
37.942
34.932
31.871
28.766
25.629
22.469
19.294
16.114
12.939
9.777
6.637
3.529
0.459
-2.563
-5.53
-8.435
-11.269
-14.026
-16.7
-19.284
-21.771
-24.157
-26.436
-28.603
-30.655
-32.588
-34.399
-36.087
-37.649
-39.085
-40.395
-41.579
-42.64
-43.579
-44.397
-45.1
-45.69
-46.173
-46.552
-46.834
-47.023
-47.127
-47.151
-47.101
-46.984
-46.805
-46.571
-46.289
-45.964
-45.605
-45.216
-44.806
-44.38
-43.945
-43.507
-43.073
-42.647
-42.234
-41.838
-41.464
-41.116
-40.795
-40.506
-40.248
-40.023
-39.833
-39.674
-39.548
-39.449
-39.376
-39.323
-39.286
-39.259
-39.236
-39.21
-39.174
-39.124
-39.054
-38.958
-38.83
-38.664
-38.454
-38.194
-37.875
-37.487
-37.02
-36.464
-35.811
-35.052
-34.18
-33.189
-32.072
-30.824
-29.444
-27.928
-26.273
-24.471
-22.508
-20.381
-18.094
-15.658
-13.089
-10.404
-7.614
-4.739
-1.805
1.171
4.176
7.213
10.3
13.441
16.631
19.852
23.069
26.263
29.434
32.578
35.699
38.8
41.877
44.948
48.05
51.192
54.355
57.495
60.52
63.369
66.002
68.387
70.513
72.352
73.862
75.01
75.774
76.126
76.039
75.456
74.282
72.471
70.02
66.963
63.392
59.378
54.969
50.225
45.209
39.992
34.655
29.256
23.827
18.421
13.099
7.952
3.116
-1.316
-5.293
-8.798
-11.849
-14.472
-16.695
-18.583
-20.24
-21.761
-23.218
-24.674
-26.172
-27.779
-29.594
-31.72
-34.258
-37.323
-41.046
-45.462
-50.492
-55.894
-61.232
-66.041
-69.931
-72.487
-73.223
-71.887
-68.584
-63.812
-58.583
-53.886
-50.271
-48.189
-48.165
-50.282
-53.929
-57.735
-59.284
-56.048
-46.304
-28.31
-0.155
39.463
91.292
154.156
224.08
296.941
369.129
438.429
505.954
571.456
630.981
677.941
700.807
688.742
638.678
552.5
437.7
307.71
174.274
49.347
-53.234
-126.264
-168.053
-180.91
-172.928
-151.426
-120.735
-86.576
-56.289
-36.014
-30.074
-37.591
-50.873
-62.919
-69.824
-70.803
-69.495
-68.619
-68.583
-68.89
-67.9
-64.835
-60.146
-54.802
-49.901
-46.107
-43.636
-42.455
-42.407
-43.385
-45.314
-47.919
-50.944
-54.189
-57.424
-60.544
-63.455
-66.016
-68.128
-69.747
-70.839
-71.403
-71.464
-71.032
-70.144
-68.857
-67.219
-65.29
-63.125
-60.769
-58.282
-55.727
-53.17
-50.673
-48.284
-46.035
-43.952
-42.05
-40.335
-38.807
-37.454
-36.26
-35.211
-34.297
-33.505
-32.829
-32.252
-31.759
-31.337
-30.968
-30.639
-30.336
-30.045
-29.754
-29.452
-29.128
-28.773
-28.378
-27.934
-27.428
-26.85
-26.187
-25.428
-24.563
-23.582
-22.474
-21.231
-19.848
-18.318
-16.637
-14.802
-12.811
-10.665
-8.362
-5.907
-3.304
-0.557
2.327
5.339
8.47
11.708
15.043
18.462
21.951
25.497
29.083
32.696
36.318
39.933
43.526
47.078
50.573
53.994
57.325
60.549
63.649
66.61
69.417
72.054
74.509
76.768
78.82
80.652
82.255
83.621
84.743
85.614
86.23
86.588
86.687
86.528
86.111
85.439
84.516
83.347
81.94
80.301
78.438
76.362
74.083
71.611
68.96
66.142
63.169
60.056
56.816
53.465
50.016
46.485
42.887
39.237
35.551
31.844
28.131
24.428
20.748
17.105
13.514
9.986
6.534
3.167
-0.104
-3.27
-6.325
-9.26
-12.071
-14.752
-17.299
-19.709
-21.98
-24.11
-26.1
-27.95
-29.661
-31.235
-32.675
-33.984
-35.165
-36.223
-37.162
-37.987
-38.705
-39.322
-39.843
-40.278
-40.633
-40.917
-41.138
-41.305
-41.426
-41.509
-41.564
-41.596
-41.614
-41.624
-41.633
-41.646
-41.669
-41.708
-41.768
-41.854
-41.968
-42.116
-42.299
-42.521
-42.782
-43.084
-43.429
-43.816
-44.246
-44.72
-45.236
-45.795
-46.395
-47.033
-47.708
-48.415
-49.149
-49.906
-50.678
-51.458
-52.239
-53.013
-53.773
-54.512
-55.223
-55.9
-56.537
-57.129
-57.67
-58.153
-58.572
-58.918
-59.182
-59.355
-59.427
-59.39
-59.237
-58.959
-58.553
-58.014
-57.339
-56.527
-55.571
-54.467
-53.203
-51.775
-50.181
-48.426
-46.52
-44.479
-42.326
-40.088
-37.791
-35.458
-33.104
-30.735
-28.345
-25.929
-23.479
-20.998
-18.504
-16.011
-13.531
-11.073
-8.638
-6.216
-3.786
-1.319
1.227
3.874
6.626
9.462
12.33
15.165
17.891
20.444
22.782
24.865
26.658
28.126
29.24
29.958
30.226
29.973
29.105
27.55
25.271
22.268
18.579
14.277
9.462
4.229
-1.319
-7.092
-13.008
-18.992
-24.986
-30.921
-36.715
-42.259
-47.421
-52.081
-56.165
-59.626
-62.449
-64.669
-66.36
-67.615
-68.566
-69.325
-69.982
-70.643
-71.396
-72.343
-73.604
-75.276
-77.496
-80.438
-84.151
-88.591
-93.595
-98.788
-103.774
-108.234
-111.717
-113.728
-114.014
-112.486
-109.439
-105.635
-101.763
-98.31
-95.742
-94.434
-94.488
-95.676
-97.006
-96.671
-92.659
-83.061
-66.234
-40.574
-4.664
42.487
101.203
169.508
243.242
318.268
390.045
457.092
522.041
583.825
639.304
680.209
690.381
660.882
589.008
478.198
345.022
204.992
71.816
-39.59
-123.855
-180.312
-210.694
-221.403
-215.624
-194.249
-160.342
-120.272
-84.806
-63.063
-57.769
-63.62
-69.791
-69.552
-61.994
-50.839
-42.781
-40.81
-44.477
-52.141
-60.968
-69.095
-75.859
-80.909
-84.262
-86.105
-86.551
-85.727
-84.018
-82.121
-80.652
-79.978
-80.264
-81.397
-83.15
-85.356
-87.735
-89.911
-91.636
-92.773
-93.271
-93.197
-92.629
-91.609
-90.212
-88.528
-86.611
-84.507
-82.245
-79.84
-77.333
-74.781
-72.243
-69.766
-67.382
-65.107
-62.956
-60.935
-59.044
-57.277
-55.62
-54.066
-52.612
-51.257
-49.998
-48.829
-47.738
-46.71
-45.732
-44.79
-43.869
-42.959
-42.048
-41.128
-40.192
-39.232
-38.242
-37.213
-36.137
-35.003
-33.801
-32.523
-31.159
-29.703
-28.147
-26.486
-24.716
-22.835
-20.841
-18.733
-16.511
-14.175
-11.729
-9.176
-6.518
-3.761
-0.911
2.026
5.042
8.128
11.275
14.473
17.712
20.981
24.267
27.558
30.843
34.109
37.343
40.531
43.661
46.719
49.692
52.567
55.33
57.97
60.475
62.832
65.033
67.067
68.925
70.6
72.084
73.372
74.457
75.335
76.002
76.455
76.693
76.713
76.516
76.103
75.475
74.635
73.586
72.333
70.881
69.235
67.403
65.392
63.209
60.865
58.369
55.731
52.963
50.075
47.081
43.993
40.822
37.582
34.285
30.943
27.57
24.178
20.78
17.387
14.012
10.667
7.364
4.113
0.926
-2.188
-5.219
-8.159
-10.998
-13.73
-16.347
-18.844
-21.215
-23.456
-25.562
-27.531
-29.36
-31.049
-32.596
-34.003
-35.27
-36.4
-37.395
-38.259
-38.993
-39.604
-40.095
-40.47
-40.736
-40.899
-40.964
-40.939
-40.832
-40.65
-40.401
-40.095
-39.739
-39.342
-38.912
-38.457
-37.985
-37.504
-37.02
-36.542
-36.075
-35.627
-35.205
-34.813
-34.458
-34.144
-33.875
-33.654
-33.486
-33.372
-33.315
-33.317
-33.379
-33.503
-33.691
-33.943
-34.258
-34.635
-35.073
-35.568
-36.116
-36.712
-37.349
-38.019
-38.717
-39.436
-40.167
-40.904
-41.639
-42.367
-43.081
-43.776
-44.444
-45.075
-45.661
-46.191
-46.655
-47.043
-47.345
-47.549
-47.645
-47.625
-47.485
-47.22
-46.823
-46.283
-45.586
-44.724
-43.696
-42.503
-41.148
-39.636
-37.979
-36.197
-34.327
-32.399
-30.437
-28.45
-26.438
-24.404
-22.351
-20.286
-18.215
-16.129
-14.017
-11.874
-9.7
-7.497
-5.25
-2.923
-0.455
2.203
5.071
8.144
11.392
14.784
18.283
21.834
25.368
28.784
31.993
34.924
37.529
39.762
41.559
42.828
43.449
43.324
42.388
40.614
38.001
34.552
30.299
25.305
19.683
13.589
7.16
0.506
-6.29
-13.152
-19.99
-26.685
-33.099
-39.111
-44.624
-49.568
-53.892
-57.541
-60.501
-62.813
-64.575
-65.947
-67.063
-68.014
-68.877
-69.724
-70.644
-71.751
-73.153
-74.929
-77.175
-80.011
-83.503
-87.628
-92.195
-96.828
-101.08
-104.52
-106.717
-107.16
-105.481
-101.694
-96.212
-89.869
-83.654
-78.257
-74.223
-72.321
-73.022
-75.927
-79.833
-82.643
-81.825
-75.281
-61.01
-36.602
0.211
49.777
110.134
178.473
251.108
326.45
405.722
486.728
563.638
627.131
663.902
665.469
630.967
564.59
474.479
367.196
248.053
123.846
5.67
-90.546
-153.952
-181.364
-179.349
-163.504
-144.479
-127.044
-111.33
-92.477
-69.746
-45.957
-24.198
-8.426
-0.319
0.949
-3.396
-11.482
-21.269
-31.31
-40.315
-47.311
-51.725
-53.303
-52.17
-48.839
-44.105
-38.804
-33.774
-29.574
-26.508
-24.742
-24.237
-24.836
-26.285
-28.225
-30.217
-31.951
-33.263
-34.068
-34.38
-34.217
-33.577
-32.502
-31.067
-29.339
-27.361
-25.159
-22.737
-20.108
-17.321
-14.431
-11.504
-8.603
-5.767
-3.022
-0.391
2.111
4.471
6.684
8.759
10.708
12.539
14.257
15.866
17.369
18.777
20.108
21.379
22.604
23.797
24.97
26.133
27.297
28.472
29.665
30.883
32.129
33.412
34.738
36.117
37.554
39.058
40.634
42.286
44.021
45.841
47.749
49.747
51.835
54.013
56.28
58.634
61.073
63.594
66.191
68.86
71.595
74.388
77.231
80.116
83.033
85.973
88.924
91.876
94.817
97.735
100.619
103.455
106.233
108.938
111.56
114.084
116.5
118.796
120.959
122.978
124.843
126.543
128.068
129.411
130.562
131.514
132.26
132.794
133.111
133.206
133.076
132.717
132.128
131.308
130.257
128.975
127.466
125.731
123.775
121.603
119.219
116.631
113.845
110.871
107.718
104.395
100.913
97.285
93.522
89.637
85.643
81.556
77.387
73.153
68.868
64.547
60.204
55.855
51.515
47.198
42.921
38.696
34.539
30.463
26.481
22.607
18.852
15.228
11.746
8.417
5.249
2.252
-0.566
-3.2
-5.642
-7.888
-9.935
-11.779
-13.419
-14.855
-16.087
-17.118
-17.949
-18.585
-19.03
-19.289
-19.369
-19.277
-19.021
-18.608
-18.049
-17.353
-16.529
-15.589
-14.543
-13.403
-12.179
-10.883
-9.527
-8.123
-6.682
-5.217
-3.739
-2.26
-0.791
0.657
2.074
3.448
4.771
6.034
7.228
8.348
9.385
10.336
11.195
11.958
12.624
13.189
13.654
14.019
14.284
14.451
14.523
14.503
14.397
14.208
13.943
13.608
13.21
12.757
12.258
11.721
11.157
10.575
9.987
9.404
8.838
8.299
7.801
7.354
6.971
6.663
6.44
6.314
6.294
6.39
6.61
6.961
7.45
8.082
8.862
9.792
10.875
12.112
13.501
15.041
16.728
18.559
20.528
22.628
24.851
27.186
29.622
32.148
34.749
37.407
40.106
42.825
45.545
48.244
50.903
53.496
56.004
58.405
60.681
62.81
64.774
66.55
68.119
69.461
70.561
71.401
71.969
72.251
72.239
71.929
71.319
70.408
69.191
67.657
65.796
63.611
61.102
58.277
55.151
51.739
48.068
44.18
40.117
35.918
31.622
27.253
22.843
18.434
14.073
9.819
5.728
1.837
-1.816
-5.196
-8.303
-11.146
-13.763
-16.228
-18.592
-20.907
-23.239
-25.646
-28.204
-31.001
-34.092
-37.575
-41.586
-46.188
-51.367
-56.976
-62.662
-68.042
-72.784
-76.465
-78.62
-78.93
-77.273
-73.998
-69.935
-65.976
-62.907
-61.415
-62.134
-65.506
-71.475
-78.982
-86.095
-90.577
-89.965
-81.849
-63.889
-33.533
10.362
66.142
131.112
201.913
276.371
356.067
441.386
528.114
606.851
661.467
676.85
646.664
573.659
469.966
349.286
220.446
90.312
-36.026
-150.297
-240.259
-299.329
-326.836
-328.031
-314.436
-292.149
-262.895
-229.923
-193.091
-156.422
-126.75
-104.401
-90.549
-84.505
-82.448
-85.246
-92.749
-103.054
-115.679
-127.891
-137.092
-142.825
-144.739
-143.095
-138.915
-133.012
-126.233
-119.807
-114.596
-110.918
-108.928
-108.515
-109.357
-111.181
-113.589
-116.01
-118.096
-119.703
-120.764
-121.356
-121.539
-121.31
-120.734
-119.912
-118.903
-117.757
-116.496
-115.11
-113.63
-112.112
-110.616
-109.216
-107.955
-106.849
-105.916
-105.159
-104.583
-104.19
-103.965
-103.885
-103.936
-104.105
-104.38
-104.752
-105.201
-105.7
-106.226
-106.751
-107.251
-107.71
-108.108
-108.429
-108.658
-108.782
-108.788
-108.669
-108.412
-108.005
-107.436
-106.692
-105.764
-104.643
-103.322
-101.794
-100.055
-98.101
-95.933
-93.551
-90.956
-88.151
-85.142
-81.933
-78.532
-74.949
-71.192
-67.273
-63.205
-59.001
-54.676
-50.246
-45.726
-41.134
-36.486
-31.803
-27.1
-22.398
-17.715
-13.069
-8.48
-3.967
0.451
4.756
8.931
12.957
16.817
20.495
23.977
27.247
30.293
33.103
35.664
37.968
40.006
41.769
43.251
44.448
45.355
45.969
46.289
46.315
46.047
45.489
44.642
43.513
42.106
40.429
38.49
36.298
33.863
31.197
28.311
25.218
21.933
18.47
14.843
11.068
7.162
3.14
-0.982
-5.185
-9.455
-13.772
-18.121
-22.484
-26.845
-31.188
-35.495
-39.751
-43.941
-48.05
-52.063
-55.969
-59.752
-63.402
-66.907
-70.257
-73.444
-76.458
-79.293
-81.943
-84.404
-86.672
-88.744
-90.619
-92.297
-93.778
-95.064
-96.157
-97.06
-97.777
-98.313
-98.674
-98.867
-98.9
-98.779
-98.515
-98.117
-97.595
-96.959
-96.22
-95.389
-94.477
-93.496
-92.456
-91.37
-90.25
-89.107
-87.951
-86.794
-85.645
-84.514
-83.41
-82.34
-81.311
-80.33
-79.404
-78.537
-77.734
-76.999
-76.334
-75.743
-75.227
-74.787
-74.422
-74.13
-73.909
-73.755
-73.664
-73.63
-73.647
-73.706
-73.801
-73.925
-74.07
-74.226
-74.383
-74.532
-74.663
-74.766
-74.829
-74.839
-74.781
-74.644
-74.418
-74.092
-73.658
-73.106
-72.427
-71.614
-70.664
-69.573
-68.333
-66.933
-65.36
-63.609
-61.687
-59.607
-57.377
-55.006
-52.504
-49.887
-47.179
-44.396
-41.543
-38.614
-35.6
-32.506
-29.35
-26.162
-22.973
-19.8
-16.647
-13.512
-10.405
-7.335
-4.306
-1.302
1.698
4.694
7.648
10.492
13.156
15.596
17.782
19.702
21.34
22.665
23.644
24.246
24.453
24.239
23.57
22.389
20.639
18.297
15.396
12.014
8.234
4.129
-0.238
-4.812
-9.531
-14.334
-19.162
-23.965
-28.696
-33.291
-37.684
-41.796
-45.553
-48.912
-51.869
-54.459
-56.751
-58.837
-60.819
-62.797
-64.861
-67.069
-69.473
-72.126
-75.091
-78.426
-82.165
-86.324
-90.881
-95.869
-101.361
-107.274
-113.411
-119.418
-124.769
-129.026
-131.867
-132.783
-131.232
-127.059
-120.232
-111.103
-100.707
-89.874
-79.366
-70.53
-63.56
-56.944
-49.616
-39.886
-27.902
-17.612
-9.962
-2.506
11.542
43.454
99.128
177.624
272.073
371.604
468.187
554.971
624.337
667.326
674.133
640.167
568.309
467.918
350.005
223.365
95.393
-27.214
-135.161
-219.126
-274.773
-302.001
-305.094
-289.731
-259.423
-219.105
-176.318
-138.13
-110.376
-93.514
-81.803
-70.457
-57.453
-44.019
-34.823
-32.577
-36.938
-46.223
-57.452
-68.079
-76.754
-82.821
-86.193
-87.081
-85.842
-82.869
-78.639
-73.95
-69.681
-66.362
-64.242
-63.285
-63.218
-63.799
-64.792
-65.864
-66.661
-66.965
-66.684
-65.827
-64.493
-62.76
-60.675
-58.305
-55.719
-52.97
-50.095
-47.126
-44.082
-41
-37.932
-34.916
-31.981
-29.147
-26.42
-23.805
-21.303
-18.906
-16.603
-14.388
-12.26
-10.216
-8.254
-6.366
-4.54
-2.766
-1.031
0.678
2.374
4.068
5.768
7.482
9.214
10.969
12.751
14.566
16.421
18.324
20.281
22.3
24.386
26.547
28.787
31.11
33.519
36.017
38.603
41.281
44.049
46.907
49.853
52.886
56.001
59.194
62.461
65.795
69.189
72.634
76.124
79.648
83.198
86.763
90.333
93.897
97.445
100.965
104.447
107.88
111.251
114.55
117.766
120.888
123.903
126.803
129.575
132.209
134.697
137.029
139.196
141.191
143.006
144.636
146.075
147.32
148.365
149.209
149.85
150.288
150.521
150.552
150.382
150.014
149.45
148.696
147.755
146.633
145.335
143.868
142.239
140.455
138.524
136.454
134.254
131.933
129.5
126.967
124.342
121.638
118.864
116.032
113.152
110.235
107.292
104.334
101.37
98.411
95.465
92.542
89.65
86.798
83.991
81.239
78.545
75.917
73.36
70.878
68.476
66.159
63.929
61.789
59.744
57.794
55.943
54.19
52.537
50.984
49.531
48.178
46.923
45.764
44.7
43.729
42.846
42.049
41.335
40.698
40.136
39.642
39.213
38.844
38.531
38.268
38.052
37.878
37.742
37.641
37.57
37.524
37.5
37.493
37.498
37.512
37.529
37.545
37.556
37.558
37.548
37.522
37.475
37.406
37.311
37.187
37.032
36.844
36.622
36.365
36.074
35.75
35.395
35.01
34.599
34.165
33.712
33.243
32.761
32.268
31.767
31.26
30.751
30.241
29.735
29.236
28.751
28.289
27.858
27.466
27.119
26.825
26.589
26.417
26.316
26.285
26.329
26.452
26.661
26.97
27.385
27.905
28.524
29.232
30.009
30.84
31.706
32.581
33.447
34.293
35.115
35.928
36.744
37.563
38.376
39.163
39.9
40.585
41.216
41.797
42.346
42.878
43.414
43.997
44.646
45.353
46.092
46.798
47.396
47.833
48.07
48.083
47.862
47.379
46.601
45.505
44.041
42.16
39.811
36.912
33.406
29.293
24.596
19.393
13.805
7.924
1.83
-4.398
-10.711
-17.046
-23.329
-29.495
-35.46
-41.129
-46.418
-51.22
-55.436
-59.04
-62.035
-64.484
-66.509
-68.201
-69.64
-70.927
-72.149
-73.408
-74.826
-76.48
-78.486
-81.022
-84.164
-87.921
-92.175
-96.575
-100.758
-104.421
-107.125
-108.392
-107.969
-105.786
-102.224
-98.197
-94.54
-91.892
-90.875
-91.988
-95.442
-101.051
-107.632
-112.975
-114.76
-110.787
-98.804
-76.688
-42.546
5.281
66.096
136.38
212.469
290.274
367.336
445.034
522.575
595.079
654.744
688.09
682.798
635.425
548.314
430.256
295.699
156.469
24.346
-87.268
-170.104
-219.551
-237.239
-232.307
-214.529
-192.77
-171.561
-152.01
-134.416
-116.637
-98.724
-81.595
-65.765
-54.855
-50.495
-52.253
-59.93
-70.968
-83.205
-95.781
-107.088
-116.018
-122.257
-125.493
-125.922
-124.307
-121.197
-117.189
-113.267
-110.138
-108.141
-107.472
-108.003
-109.421
-111.513
-113.962
-116.298
-118.232
-119.611
-120.358
-120.546
-120.238
-119.447
-118.236
-116.688
-114.852
-112.776
-110.483
-107.97
-105.267
-102.428
-99.512
-96.589
-93.706
-90.89
-88.163
-85.542
-83.037
-80.657
-78.397
-76.248
-74.205
-72.268
-70.433
-68.7
-67.059
-65.497
-63.998
-62.546
-61.126
-59.729
-58.342
-56.958
-55.567
-54.164
-52.741
-51.295
-49.818
-48.302
-46.74
-45.122
-43.441
-41.689
-39.861
-37.949
-35.949
-33.855
-31.664
-29.373
-26.981
-24.485
-21.886
-19.186
-16.386
-13.49
-10.503
-7.43
-4.279
-1.056
2.228
5.567
8.949
12.366
15.805
19.257
22.711
26.154
29.576
32.966
36.312
39.602
42.824
45.969
49.023
51.975
54.815
57.531
60.112
62.547
64.826
66.938
68.876
70.629
72.191
73.555
74.715
75.666
76.405
76.928
77.234
77.322
77.192
76.845
76.283
75.508
74.524
73.334
71.945
70.36
68.586
66.63
64.498
62.198
59.737
57.125
54.37
51.482
48.471
45.349
42.126
38.815
35.429
31.979
28.48
24.944
21.384
17.814
14.245
10.69
7.16
3.668
0.223
-3.164
-6.483
-9.726
-12.884
-15.949
-18.914
-21.772
-24.518
-27.146
-29.651
-32.029
-34.275
-36.386
-38.36
-40.193
-41.884
-43.433
-44.837
-46.099
-47.22
-48.201
-49.047
-49.762
-50.35
-50.816
-51.168
-51.411
-51.552
-51.596
-51.55
-51.422
-51.217
-50.943
-50.605
-50.211
-49.767
-49.28
-48.757
-48.204
-47.626
-47.03
-46.421
-45.807
-45.191
-44.582
-43.983
-43.401
-42.841
-42.309
-41.809
-41.344
-40.918
-40.532
-40.187
-39.882
-39.616
-39.385
-39.186
-39.018
-38.878
-38.762
-38.667
-38.591
-38.533
-38.491
-38.461
-38.438
-38.417
-38.389
-38.348
-38.285
-38.193
-38.062
-37.88
-37.639
-37.334
-36.959
-36.505
-35.961
-35.311
-34.544
-33.655
-32.644
-31.511
-30.261
-28.897
-27.437
-25.909
-24.339
-22.752
-21.161
-19.56
-17.95
-16.334
-14.711
-13.089
-11.459
-9.793
-8.074
-6.292
-4.43
-2.478
-0.4
1.87
4.379
7.16
10.226
13.548
17.102
20.864
24.787
28.816
32.867
36.823
40.59
44.099
47.274
50.048
52.329
53.987
54.921
55.057
54.34
52.756
50.305
46.98
42.82
37.897
32.315
26.23
19.784
13.084
6.245
-0.629
-7.425
-13.996
-20.214
-25.982
-31.202
-35.808
-39.755
-42.993
-45.504
-47.316
-48.503
-49.211
-49.605
-49.823
-49.98
-50.166
-50.468
-51.022
-51.955
-53.366
-55.345
-57.931
-61.168
-65.187
-70.009
-75.489
-81.3
-86.881
-91.648
-95.189
-97.054
-96.705
-93.919
-88.761
-81.773
-74.021
-66.37
-59.551
-54.289
-51.037
-49.867
-49.362
-47.081
-41.317
-30.042
-13.046
9.619
42.288
87.821
147.998
222.672
304.127
384.907
461.261
531.793
596.717
654.331
696.358
708.701
682.954
616.099
511.738
385.409
251.347
121.719
10.896
-74.9
-135.005
-168.974
-183.021
-183.927
-171.66
-149.577
-122.248
-91.651
-65.345
-46.926
-33.096
-22.793
-13.282
-3.711
1.974
1.962
-4.206
-15.66
-29.471
-43.401
-55.701
-65.335
-72.23
-76.321
-77.82
-77.281
-75.137
-72.131
-69.329
-67.317
-66.382
-66.659
-67.935
-69.968
-72.564
-75.353
-77.897
-79.958
-81.411
-82.232
-82.516
-82.314
-81.655
-80.614
-79.267
-77.671
-75.866
-73.868
-71.686
-69.354
-66.93
-64.473
-62.033
-59.642
-57.32
-55.081
-52.937
-50.898
-48.961
-47.119
-45.369
-43.713
-42.15
-40.683
-39.305
-38.006
-36.775
-35.598
-34.46
-33.351
-32.258
-31.173
-30.086
-28.992
-27.881
-26.749
-25.588
-24.388
-23.14
-21.835
-20.463
-19.018
-17.491
-15.874
-14.163
-12.354
-10.443
-8.427
-6.305
-4.075
-1.739
0.703
3.247
5.892
8.633
11.464
14.379
17.37
20.427
23.542
26.704
29.901
33.122
36.352
39.58
42.791
45.972
49.109
52.187
55.194
58.115
60.935
63.643
66.225
68.667
70.959
73.088
75.044
76.818
78.4
79.784
80.961
81.926
82.675
83.202
83.505
83.581
83.43
83.052
82.448
81.621
80.573
79.31
77.838
76.163
74.292
72.234
69.998
67.594
65.032
62.323
59.478
56.51
53.429
50.25
46.984
43.645
40.244
36.794
33.309
29.8
26.279
22.759
19.25
15.764
12.313
8.905
5.553
2.263
-0.954
-4.091
-7.14
-10.096
-12.952
-15.703
-18.347
-20.878
-23.294
-25.594
-27.776
-29.838
-31.782
-33.607
-35.315
-36.906
-38.384
-39.749
-41.005
-42.154
-43.2
-44.145
-44.993
-45.748
-46.414
-46.996
-47.497
-47.924
-48.282
-48.575
-48.809
-48.988
-49.118
-49.203
-49.247
-49.254
-49.229
-49.174
-49.094
-48.991
-48.869
-48.732
-48.582
-48.422
-48.253
-48.08
-47.903
-47.725
-47.548
-47.374
-47.205
-47.043
-46.891
-46.751
-46.623
-46.509
-46.408
-46.321
-46.247
-46.184
-46.127
-46.075
-46.023
-45.97
-45.912
-45.848
-45.774
-45.69
-45.594
-45.487
-45.366
-45.227
-45.064
-44.872
-44.644
-44.376
-44.06
-43.687
-43.248
-42.739
-42.157
-41.498
-40.755
-39.92
-38.977
-37.919
-36.744
-35.454
-34.048
-32.532
-30.914
-29.213
-27.46
-25.686
-23.91
-22.139
-20.369
-18.599
-16.83
-15.065
-13.305
-11.536
-9.739
-7.906
-6.034
-4.119
-2.146
-0.077
2.15
4.584
7.242
10.121
13.194
16.435
19.808
23.263
26.732
30.118
33.329
36.3
38.98
41.319
43.254
44.697
45.533
45.674
45.064
43.665
41.469
38.472
34.694
30.189
25.049
19.399
13.359
7.03
0.494
-6.166
-12.857
-19.473
-25.888
-31.989
-37.681
-42.866
-47.468
-51.425
-54.701
-57.297
-59.262
-60.679
-61.632
-62.208
-62.491
-62.566
-62.532
-62.501
-62.592
-62.903
-63.562
-64.757
-66.588
-69.078
-72.132
-75.446
-78.695
-81.602
-83.792
-84.812
-84.38
-82.365
-79
-75.063
-71.295
-68.3
-66.724
-67.071
-69.617
-74.382
-80.607
-86.504
-90.054
-89.19
-81.795
-65.845
-39.329
-0.539
51.452
115.298
187.47
264.244
341.481
416.621
490.742
563.183
629.688
683.582
712.166
702.812
651.751
559.458
432.797
287.954
138.419
-0.259
-109.439
-183.233
-221.244
-229.951
-225.922
-217.362
-206.327
-192.409
-169.929
-138.28
-101.681
-64.124
-30.576
-4.492
12.996
21.564
21.824
15.092
2.964
-13.064
-31.448
-50.079
-66.819
-80.281
-89.774
-95.337
-97.548
-96.956
-94.168
-90.251
-86.443
-83.557
-81.989
-81.769
-82.608
-84.229
-86.419
-88.806
-90.931
-92.529
-93.484
-93.795
-93.592
-92.977
-91.988
-90.698
-89.188
-87.501
-85.679
-83.746
-81.705
-79.591
-77.443
-75.285
-73.145
-71.042
-68.978
-66.963
-65
-63.08
-61.202
-59.37
-57.588
-55.865
-54.204
-52.598
-51.042
-49.527
-48.047
-46.591
-45.15
-43.714
-42.276
-40.833
-39.383
-37.924
-36.452
-34.961
-33.445
-31.899
-30.315
-28.69
-27.017
-25.292
-23.51
-21.668
-19.767
-17.803
-15.776
-13.683
-11.525
-9.3
-7.01
-4.655
-2.236
0.244
2.783
5.377
8.019
10.705
13.429
16.182
18.959
21.751
24.548
27.341
30.123
32.882
35.61
38.296
40.931
43.503
46.004
48.422
50.749
52.972
55.083
57.071
58.928
60.644
62.21
63.618
64.86
65.929
66.817
67.518
68.025
68.335
68.441
68.341
68.032
67.511
66.779
65.834
64.678
63.312
61.739
59.963
57.987
55.818
53.461
50.922
48.209
45.331
42.297
39.115
35.798
32.356
28.8
25.144
21.399
17.58
13.699
9.771
5.809
1.828
-2.157
-6.133
-10.085
-14
-17.864
-21.663
-25.385
-29.017
-32.549
-35.968
-39.265
-42.431
-45.456
-48.332
-51.053
-53.611
-56.002
-58.221
-60.264
-62.129
-63.813
-65.316
-66.638
-67.78
-68.744
-69.532
-70.15
-70.601
-70.891
-71.028
-71.019
-70.871
-70.595
-70.2
-69.694
-69.089
-68.395
-67.621
-66.779
-65.879
-64.931
-63.946
-62.933
-61.903
-60.867
-59.833
-58.81
-57.808
-56.835
-55.9
-55.01
-54.171
-53.391
-52.674
-52.028
-51.456
-50.961
-50.547
-50.215
-49.964
-49.794
-49.701
-49.681
-49.728
-49.837
-50
-50.21
-50.459
-50.74
-51.044
-51.364
-51.693
-52.021
-52.338
-52.634
-52.896
-53.111
-53.266
-53.348
-53.343
-53.236
-53.012
-52.662
-52.174
-51.537
-50.735
-49.751
-48.572
-47.191
-45.604
-43.812
-41.819
-39.633
-37.266
-34.746
-32.098
-29.345
-26.51
-23.598
-20.612
-17.563
-14.461
-11.317
-8.135
-4.901
-1.594
1.796
5.287
8.895
12.644
16.589
20.771
25.216
29.941
34.927
40.144
45.565
51.15
56.844
62.577
68.245
73.73
78.939
83.778
88.16
91.994
95.156
97.534
99.05
99.638
99.27
97.947
95.669
92.456
88.369
83.493
77.959
71.931
65.541
58.907
52.147
45.367
38.707
32.303
26.263
20.683
15.641
11.184
7.358
4.209
1.724
-0.155
-1.523
-2.534
-3.304
-3.899
-4.394
-4.873
-5.437
-6.216
-7.313
-8.778
-10.701
-13.193
-16.295
-19.982
-24.05
-28.061
-31.562
-34.16
-35.423
-34.934
-32.476
-28.036
-22.036
-15.396
-9.042
-3.715
-0.107
1.178
-0.081
-3.602
-8.235
-11.894
-12.324
-7.413
5.057
27.299
61.073
107.663
166.269
233.457
305.498
378.3
449.137
518.861
586.878
648.962
697.918
721.012
706.277
650.301
555.692
431.008
289.945
143.912
4.196
-114.624
-201.731
-251.758
-265.49
-253.682
-229.77
-201.826
-174.071
-145.958
-114.095
-79.26
-44.357
-12.648
11.404
25.879
31.453
29.404
21.742
10.465
-3.139
-17.729
-31.384
-42.466
-50.187
-54.391
-55.511
-54.253
-51.129
-46.674
-41.822
-37.538
-34.363
-32.476
-31.721
-31.744
-32.283
-33.149
-34.041
-34.617
-34.685
-34.171
-33.114
-31.651
-29.878
-27.841
-25.6
-23.218
-20.739
-18.21
-15.665
-13.126
-10.631
-8.215
-5.903
-3.718
-1.674
0.226
1.981
3.597
5.089
6.465
7.727
8.878
9.918
10.857
11.708
12.485
13.205
13.882
14.531
15.171
15.815
16.477
17.168
17.895
18.666
19.491
20.382
21.349
22.403
23.554
24.809
26.178
27.666
29.28
31.022
32.894
34.896
37.029
39.29
41.679
44.191
46.822
49.568
52.42
55.373
58.418
61.544
64.741
67.996
71.298
74.632
77.985
81.341
84.686
88.004
91.28
94.498
97.644
100.7
103.652
106.486
109.185
111.736
114.125
116.339
118.365
120.193
121.812
123.213
124.389
125.332
126.036
126.497
126.71
126.672
126.382
125.838
125.041
123.991
122.691
121.145
119.357
117.332
115.077
112.6
109.908
107.01
103.915
100.633
97.175
93.553
89.779
85.865
81.825
77.672
73.42
69.083
64.676
60.212
55.706
51.171
46.621
42.069
37.53
33.016
28.539
24.113
19.749
15.46
11.255
7.147
3.144
-0.745
-4.51
-8.144
-11.64
-14.991
-18.191
-21.234
-24.117
-26.835
-29.385
-31.765
-33.975
-36.013
-37.88
-39.579
-41.11
-42.478
-43.686
-44.739
-45.641
-46.399
-47.018
-47.505
-47.869
-48.116
-48.255
-48.296
-48.247
-48.119
-47.919
-47.659
-47.348
-46.996
-46.613
-46.208
-45.791
-45.371
-44.959
-44.562
-44.191
-43.853
-43.556
-43.308
-43.114
-42.981
-42.914
-42.917
-42.993
-43.145
-43.374
-43.681
-44.066
-44.528
-45.065
-45.673
-46.349
-47.088
-47.884
-48.731
-49.621
-50.545
-51.497
-52.465
-53.442
-54.416
-55.378
-56.316
-57.22
-58.079
-58.883
-59.619
-60.278
-60.85
-61.324
-61.69
-61.941
-62.068
-62.064
-61.921
-61.634
-61.2
-60.614
-59.875
-58.981
-57.934
-56.735
-55.388
-53.898
-52.271
-50.515
-48.639
-46.653
-44.571
-42.404
-40.167
-37.877
-35.552
-33.211
-30.874
-28.56
-26.292
-24.088
-21.972
-19.962
-18.077
-16.335
-14.753
-13.35
-12.145
-11.156
-10.397
-9.883
-9.626
-9.634
-9.919
-10.484
-11.328
-12.451
-13.85
-15.527
-17.492
-19.747
-22.288
-25.106
-28.187
-31.514
-35.069
-38.824
-42.735
-46.762
-50.864
-55.004
-59.16
-63.299
-67.378
-71.349
-75.148
-78.718
-82.023
-85.028
-87.709
-90.055
-92.068
-93.766
-95.2
-96.425
-97.5
-98.491
-99.455
-100.466
-101.587
-102.916
-104.608
-106.741
-109.315
-112.235
-115.243
-118.072
-120.519
-122.286
-122.991
-122.427
-120.505
-117.434
-113.912
-110.562
-107.882
-106.409
-106.473
-108.172
-111.449
-115.635
-119.285
-120.892
-118.735
-111.035
-96.531
-73.816
-41.539
0.783
53.218
114.391
180.546
248.194
314.168
376.663
437.661
497.173
550.626
590.225
603.536
580.074
517.984
420.782
295.977
154.579
6.842
-136.048
-258.939
-347.956
-396.105
-402.119
-372.706
-322.264
-262.317
-203.84
-157.774
-126.191
-109.124
-103.398
-100.179
-96.039
-90.283
-84.074
-82.698
-87.566
-97.293
-109.831
-121.006
-128.685
-132.925
-133.809
-132.119
-128.749
-124.007
-118.61
-113.727
-109.949
-107.538
-106.608
-106.878
-108.049
-109.917
-112.095
-114.106
-115.703
-116.76
-117.243
-117.249
-116.827
-115.999
-114.844
-113.437
-111.835
-110.076
-108.174
-106.134
-103.991
-101.797
-99.611
-97.476
-95.415
-93.443
-91.567
-89.792
-88.123
-86.55
-85.057
-83.637
-82.282
-80.987
-79.75
-78.559
-77.398
-76.252
-75.104
-73.937
-72.741
-71.503
-70.214
-68.867
-67.456
-65.977
-64.424
-62.795
-61.08
-59.275
-57.373
-55.367
-53.252
-51.026
-48.682
-46.219
-43.635
-40.93
-38.104
-35.156
-32.088
-28.903
-25.602
-22.19
-18.672
-15.052
-11.339
-7.54
-3.664
0.281
4.283
8.333
12.418
16.527
20.648
24.768
28.875
32.956
36.998
40.987
44.91
48.754
52.506
56.152
59.681
63.078
66.332
69.431
72.364
75.119
77.687
80.058
82.223
84.174
85.905
87.41
88.684
89.722
90.523
91.085
91.407
91.489
91.334
90.944
90.322
89.472
88.4
87.111
85.613
83.912
82.018
79.939
77.684
75.265
72.692
69.976
67.129
64.164
61.093
57.93
54.688
51.381
48.023
44.628
41.21
37.783
34.36
30.954
27.578
24.243
20.961
17.742
14.596
11.534
8.563
5.692
2.93
0.282
-2.244
-4.643
-6.91
-9.041
-11.032
-12.881
-14.584
-16.14
-17.548
-18.808
-19.92
-20.884
-21.704
-22.383
-22.923
-23.33
-23.61
-23.769
-23.813
-23.751
-23.588
-23.334
-22.994
-22.577
-22.09
-21.541
-20.937
-20.288
-19.601
-18.884
-18.145
-17.393
-16.635
-15.878
-15.13
-14.397
-13.686
-13.004
-12.358
-11.754
-11.197
-10.694
-10.249
-9.866
-9.549
-9.298
-9.114
-8.996
-8.941
-8.947
-9.007
-9.117
-9.272
-9.466
-9.693
-9.949
-10.227
-10.52
-10.822
-11.126
-11.422
-11.699
-11.945
-12.145
-12.29
-12.366
-12.364
-12.272
-12.08
-11.777
-11.359
-10.816
-10.136
-9.308
-8.313
-7.137
-5.777
-4.233
-2.51
-0.627
1.406
3.573
5.848
8.217
10.669
13.202
15.831
18.569
21.419
24.371
27.403
30.489
33.625
36.805
40.029
43.31
46.657
50.084
53.628
57.306
61.102
64.985
68.882
72.703
76.384
79.876
83.142
86.155
88.873
91.25
93.252
94.835
95.951
96.543
96.525
95.826
94.422
92.324
89.591
86.312
82.555
78.382
73.853
69.027
63.971
58.749
53.413
48.007
42.598
37.272
32.135
27.301
22.837
18.776
15.142
11.93
9.117
6.682
4.567
2.678
1.01
-0.441
-1.8
-3.159
-4.647
-6.457
-8.569
-10.97
-13.892
-17.473
-21.538
-25.85
-29.869
-32.94
-34.983
-35.889
-35.173
-32.586
-28.302
-22.88
-17.546
-13.69
-12.073
-13.195
-17.625
-25.775
-36.486
-47.715
-57.932
-64.178
-65.685
-62.488
-49.485
-22.96
21.084
86.637
167.934
257.139
347.275
429.917
504.741
575.132
639.352
694.918
733.17
739.118
706.212
633.008
523.143
391.549
251.751
115.769
-1.116
-90.856
-151.621
-183.217
-193.014
-189.549
-174.265
-150.643
-122.654
-91.927
-65.965
-48.736
-37.558
-31.244
-26.246
-21.122
-19.492
-22.706
-30.838
-42.604
-54.452
-64.363
-71.597
-75.76
-77.208
-76.334
-73.583
-69.909
-66.391
-63.705
-62.248
-62.166
-63.385
-65.799
-69.21
-73.216
-77.291
-81.061
-84.321
-86.992
-89.113
-90.706
-91.763
-92.318
-92.453
-92.239
-91.726
-90.947
-89.9
-88.604
-87.109
-85.474
-83.771
-82.064
-80.391
-78.776
-77.238
-75.785
-74.426
-73.167
-71.998
-70.901
-69.87
-68.895
-67.973
-67.098
-66.255
-65.425
-64.589
-63.729
-62.831
-61.884
-60.877
-59.798
-58.639
-57.393
-56.054
-54.618
-53.078
-51.427
-49.658
-47.764
-45.74
-43.581
-41.285
-38.846
-36.264
-33.538
-30.669
-27.66
-24.512
-21.23
-17.819
-14.285
-10.635
-6.877
-3.02
0.926
4.95
9.039
13.181
17.362
21.569
25.787
30.002
34.197
38.359
42.471
46.52
50.49
54.367
58.137
61.784
65.298
68.663
71.868
74.901
77.75
80.406
82.859
85.102
87.125
88.924
90.492
91.824
92.918
93.771
94.381
94.749
94.874
94.76
94.408
93.823
93.01
91.975
90.724
89.266
87.609
85.76
83.731
81.532
79.171
76.661
74.012
71.237
68.346
65.351
62.265
59.099
55.866
52.577
49.244
45.879
42.494
39.099
35.707
32.328
28.972
25.65
22.372
19.145
15.979
12.881
9.858
6.916
4.06
1.295
-1.374
-3.945
-6.415
-8.783
-11.047
-13.205
-15.259
-17.208
-19.052
-20.794
-22.435
-23.976
-25.419
-26.768
-28.024
-29.191
-30.271
-31.268
-32.186
-33.027
-33.798
-34.502
-35.144
-35.728
-36.261
-36.746
-37.189
-37.595
-37.968
-38.311
-38.629
-38.925
-39.202
-39.463
-39.709
-39.944
-40.168
-40.385
-40.595
-40.799
-40.999
-41.195
-41.388
-41.578
-41.766
-41.952
-42.135
-42.318
-42.499
-42.679
-42.857
-43.032
-43.203
-43.367
-43.521
-43.662
-43.783
-43.881
-43.949
-43.983
-43.978
-43.929
-43.834
-43.687
-43.488
-43.235
-42.925
-42.555
-42.12
-41.614
-41.032
-40.369
-39.62
-38.777
-37.835
-36.787
-35.634
-34.375
-33.006
-31.522
-29.912
-28.17
-26.3
-24.305
-22.195
-19.979
-17.671
-15.294
-12.886
-10.48
-8.109
-5.793
-3.533
-1.338
0.783
2.821
4.762
6.607
8.381
10.096
11.76
13.39
14.998
16.626
18.344
20.202
22.238
24.46
26.841
29.358
31.988
34.688
37.406
40.071
42.574
44.835
46.795
48.377
49.515
50.115
50.047
49.216
47.561
45.056
41.724
37.604
32.735
27.194
21.081
14.513
7.645
0.611
-6.486
-13.52
-20.376
-26.93
-33.032
-38.556
-43.43
-47.625
-51.158
-54.095
-56.484
-58.371
-59.836
-60.983
-61.946
-62.869
-63.869
-65.038
-66.498
-68.425
-70.919
-73.971
-77.385
-80.702
-83.421
-85.131
-85.402
-83.768
-80.028
-74.294
-67.094
-59.629
-53.163
-48.53
-46.466
-47.575
-51.808
-58.453
-66.013
-71.644
-72.181
-65.14
-48.15
-19.03
23.458
79.765
149.386
228.596
311.62
393.624
469.028
535.337
594.147
642.893
678.098
693.904
678.49
627.273
540.518
420.926
281.527
135.556
-3.266
-117.172
-195.911
-236.171
-241.099
-221.508
-186.914
-143.897
-96.725
-49.526
-10.183
15.088
22.983
15.476
1.715
-11.643
-21.807
-29.007
-37.528
-49.088
-62.142
-74.596
-83.853
-88.944
-90.533
-89.525
-86.917
-83.557
-80.306
-77.901
-76.686
-76.781
-78.056
-80.229
-83.09
-86.347
-89.548
-92.37
-94.644
-96.288
-97.364
-97.938
-98.008
-97.609
-96.817
-95.684
-94.263
-92.588
-90.659
-88.494
-86.14
-83.651
-81.093
-78.528
-75.993
-73.52
-71.133
-68.851
-66.694
-64.674
-62.791
-61.042
-59.425
-57.94
-56.586
-55.361
-54.255
-53.253
-52.34
-51.501
-50.724
-49.999
-49.314
-48.658
-48.018
-47.387
-46.755
-46.113
-45.452
-44.761
-44.028
-43.243
-42.397
-41.48
-40.483
-39.4
-38.221
-36.941
-35.555
-34.059
-32.449
-30.722
-28.878
-26.916
-24.838
-22.646
-20.344
-17.937
-15.432
-12.836
-10.157
-7.404
-4.589
-1.722
1.185
4.12
7.069
10.02
12.958
15.872
18.746
21.567
24.322
26.997
29.581
32.059
34.421
36.653
38.744
40.685
42.464
44.073
45.503
46.746
47.797
48.648
49.296
49.737
49.968
49.987
49.793
49.387
48.769
47.942
46.908
45.673
44.239
42.613
40.801
38.81
36.647
34.321
31.839
29.211
26.446
23.555
20.546
17.43
14.218
10.922
7.551
4.119
0.636
-2.887
-6.437
-10.003
-13.575
-17.14
-20.689
-24.21
-27.694
-31.13
-34.508
-37.82
-41.057
-44.211
-47.273
-50.236
-53.095
-55.842
-58.472
-60.98
-63.362
-65.614
-67.732
-69.714
-71.557
-73.26
-74.823
-76.244
-77.525
-78.666
-79.669
-80.537
-81.273
-81.88
-82.363
-82.728
-82.979
-83.123
-83.166
-83.115
-82.978
-82.763
-82.477
-82.13
-81.729
-81.284
-80.804
-80.297
-79.772
-79.238
-78.704
-78.177
-77.665
-77.177
-76.719
-76.299
-75.922
-75.595
-75.323
-75.11
-74.962
-74.88
-74.867
-74.925
-75.054
-75.254
-75.523
-75.86
-76.26
-76.72
-77.235
-77.8
-78.406
-79.046
-79.712
-80.395
-81.084
-81.768
-82.437
-83.078
-83.681
-84.232
-84.722
-85.138
-85.468
-85.702
-85.829
-85.838
-85.72
-85.464
-85.062
-84.506
-83.788
-82.902
-81.845
-80.611
-79.198
-77.605
-75.832
-73.881
-71.755
-69.457
-66.995
-64.376
-61.609
-58.705
-55.679
-52.544
-49.316
-46.016
-42.661
-39.274
-35.876
-32.49
-29.138
-25.844
-22.63
-19.518
-16.531
-13.69
-11.016
-8.531
-6.255
-4.211
-2.418
-0.895
0.341
1.274
1.891
2.185
2.149
1.778
1.068
0.009
-1.404
-3.172
-5.29
-7.753
-10.548
-13.657
-17.048
-20.677
-24.496
-28.461
-32.528
-36.667
-40.84
-45.009
-49.128
-53.144
-57.009
-60.687
-64.142
-67.344
-70.265
-72.9
-75.29
-77.509
-79.636
-81.739
-83.851
-85.998
-88.24
-90.645
-93.292
-96.255
-99.563
-103.261
-107.455
-112.177
-117.354
-122.752
-127.891
-132.246
-135.426
-137.014
-136.544
-133.771
-128.721
-121.833
-114.144
-106.727
-100.316
-95.586
-93.153
-93.182
-95.215
-97.929
-98.94
-95.72
-86.016
-67.529
-38.158
3.925
58.681
123.338
194.319
267.725
342.086
419.649
499.779
577.036
641.377
677.251
673.068
627.197
544.224
434.207
308.828
176.211
45.445
-70.367
-159.457
-214.563
-235.337
-231.885
-217.576
-200.197
-183.258
-165.37
-142.597
-115.372
-86.51
-59.08
-37.148
-23.093
-16.851
-17.593
-23.857
-33.829
-46.286
-60.354
-74.614
-87.258
-97.191
-103.96
-107.603
-108.769
-108.009
-105.668
-102.491
-99.517
-97.413
-96.515
-96.873
-98.168
-100.111
-102.509
-105.044
-107.323
-109.11
-110.288
-110.839
-110.873
-110.478
-109.7
-108.607
-107.268
-105.725
-104.01
-102.148
-100.154
-98.066
-95.942
-93.825
-91.75
-89.744
-87.82
-85.989
-84.259
-82.627
-81.082
-79.623
-78.248
-76.961
-75.763
-74.652
-73.616
-72.645
-71.725
-70.844
-69.986
-69.14
-68.293
-67.435
-66.559
-65.658
-64.725
-63.753
-62.732
-61.652
-60.503
-59.275
-57.96
-56.549
-55.035
-53.41
-51.669
-49.809
-47.827
-45.719
-43.485
-41.123
-38.633
-36.019
-33.281
-30.425
-27.455
-24.377
-21.198
-17.927
-14.573
-11.147
-7.66
-4.123
-0.55
3.047
6.654
10.258
13.844
17.399
20.908
24.357
27.732
31.019
34.204
37.274
40.214
43.012
45.656
48.135
50.438
52.555
54.477
56.197
57.708
59.003
60.079
60.931
61.557
61.955
62.125
62.068
61.786
61.283
60.561
59.627
58.486
57.146
55.614
53.899
52.01
49.956
47.749
45.4
42.919
40.32
37.614
34.817
31.939
28.997
26.003
22.971
19.917
16.852
13.793
10.751
7.741
4.774
1.864
-0.977
-3.739
-6.41
-8.981
-11.442
-13.785
-16.002
-18.085
-20.028
-21.825
-23.472
-24.964
-26.297
-27.469
-28.476
-29.318
-29.992
-30.5
-30.839
-31.013
-31.023
-30.872
-30.563
-30.1
-29.488
-28.733
-27.841
-26.819
-25.672
-24.409
-23.036
-21.56
-19.989
-18.332
-16.594
-14.785
-12.911
-10.983
-9.006
-6.99
-4.942
-2.869
-0.778
1.323
3.426
5.526
7.615
9.686
11.734
13.75
15.73
17.668
19.56
21.403
23.194
24.933
26.618
28.252
29.837
31.374
32.864
34.311
35.717
37.083
38.412
39.704
40.961
42.188
43.39
44.574
45.749
46.921
48.101
49.297
50.52
51.778
53.078
54.423
55.82
57.278
58.807
60.423
62.138
63.955
65.878
67.909
70.042
72.269
74.569
76.908
79.265
81.626
83.988
86.361
88.751
91.162
93.601
96.077
98.6
101.187
103.843
106.567
109.374
112.288
115.358
118.655
122.223
126.072
130.2
134.582
139.183
143.963
148.855
153.77
158.631
163.369
167.926
172.269
176.338
180.053
183.323
186.032
188.099
189.485
190.155
190.087
189.29
187.791
185.651
182.973
179.829
176.269
172.342
168.088
163.565
158.85
154.015
149.126
144.241
139.399
134.648
130.046
125.619
121.369
117.288
113.352
109.562
105.95
102.518
99.24
96.096
93.06
90.123
87.3
84.579
81.934
79.326
76.698
74.009
71.226
68.288
65.112
61.617
57.709
53.344
48.54
43.282
