Name,Criss Capps
Date of Birth,"Feb 5, 1952"
Recorded Date,2021-08-09 10:13:33 -0400
Classification,Sinus Rhythm
Symptoms,
Software Version,1.90
Device,"Watch5,4"
Sample Rate,512.844 hertz


Lead,Lead I
Unit,µV

-27.77
-28.803
-29.728
-30.536
-31.219
-31.771
-32.188
-32.463
-32.592
-32.573
-32.404
-32.083
-31.61
-30.986
-30.212
-29.292
-28.229
-27.027
-25.694
-24.234
-22.656
-20.967
-19.175
-17.29
-15.321
-13.278
-11.17
-9.007
-6.8
-4.56
-2.296
-0.018
2.262
4.535
6.793
9.026
11.225
13.383
15.493
17.548
19.543
21.471
23.33
25.114
26.822
28.45
29.998
31.465
32.851
34.157
35.385
36.537
37.617
38.626
39.57
40.45
41.271
42.038
42.753
43.422
44.048
44.636
45.188
45.71
46.205
46.675
47.124
47.554
47.965
48.361
48.742
49.107
49.459
49.795
50.117
50.422
50.71
50.979
51.226
51.449
51.644
51.809
51.938
52.029
52.077
52.077
52.027
51.923
51.759
51.533
51.241
50.88
50.447
49.94
49.355
48.691
47.947
47.122
46.215
45.228
44.16
43.014
41.791
40.492
39.121
37.679
36.171
34.598
32.965
31.275
29.533
27.742
25.908
24.036
22.13
20.196
18.24
16.266
14.281
12.29
10.299
8.313
6.337
4.377
2.438
0.526
-1.355
-3.2
-5.005
-6.765
-8.477
-10.137
-11.743
-13.29
-14.777
-16.202
-17.56
-18.852
-20.073
-21.222
-22.298
-23.297
-24.219
-25.061
-25.823
-26.503
-27.102
-27.617
-28.051
-28.403
-28.673
-28.864
-28.977
-29.013
-28.976
-28.867
-28.69
-28.447
-28.143
-27.781
-27.367
-26.905
-26.4
-25.857
-25.283
-24.683
-24.063
-23.43
-22.79
-22.148
-21.514
-20.894
-20.295
-19.726
-19.193
-18.706
-18.272
-17.897
-17.589
-17.353
-17.194
-17.118
-17.127
-17.225
-17.412
-17.69
-18.06
-18.524
-19.082
-19.733
-20.477
-21.31
-22.232
-23.237
-24.319
-25.47
-26.676
-27.928
-29.215
-30.527
-31.852
-33.18
-34.497
-35.793
-37.059
-38.285
-39.456
-40.554
-41.555
-42.442
-43.209
-43.853
-44.378
-44.787
-45.08
-45.263
-45.351
-45.348
-45.253
-45.051
-44.709
-44.21
-43.55
-42.734
-41.786
-40.717
-39.52
-38.191
-36.72
-35.098
-33.324
-31.377
-29.217
-26.832
-24.237
-21.477
-18.644
-15.804
-12.999
-10.261
-7.606
-5.061
-2.677
-0.493
1.458
3.137
4.514
5.525
6.074
6.103
5.585
4.543
3.06
1.195
-1.019
-3.548
-6.36
-9.405
-12.599
-15.875
-19.185
-22.472
-25.682
-28.722
-31.457
-33.779
-35.61
-36.919
-37.737
-38.092
-37.991
-37.465
-36.559
-35.341
-33.949
-32.516
-31.157
-30.004
-29.188
-28.838
-29.157
-30.394
-32.683
-36.039
-40.317
-45.17
-50.3
-55.494
-60.405
-64.555
-67.588
-69.272
-69.77
-69.821
-70.011
-70.702
-72.304
-75.076
-79.14
-84.514
-90.443
-95.194
-96.988
-93.953
-84.163
-66.024
-37.712
2.381
54.717
118.813
193.432
275.994
363.537
451.707
533.333
602.958
656.577
691.778
711.461
714.712
695.158
646.418
558.184
427.916
267.642
94.493
-67.449
-198.089
-292.215
-352.287
-388.584
-411.456
-423.379
-423.09
-406.859
-373.649
-327.236
-273.554
-219.609
-170.394
-128.922
-97.319
-76.108
-64.675
-61.894
-65.77
-73.788
-83.784
-93.262
-99.761
-102.033
-99.724
-93.119
-83.196
-71.149
-58.042
-45.259
-34.271
-25.847
-20.314
-17.642
-17.391
-19.113
-22.399
-26.688
-31.392
-36.149
-40.71
-44.907
-48.694
-51.969
-54.637
-56.679
-58.097
-58.889
-59.059
-58.613
-57.571
-55.992
-53.953
-51.517
-48.742
-45.675
-42.383
-38.957
-35.496
-32.102
-28.847
-25.784
-22.955
-20.387
-18.092
-16.07
-14.298
-12.745
-11.382
-10.186
-9.139
-8.225
-7.423
-6.702
-6.029
-5.366
-4.683
-3.961
-3.181
-2.332
-1.405
-0.4
0.68
1.824
3.024
4.276
5.578
6.929
8.327
9.766
11.243
12.75
14.282
15.834
17.398
18.969
20.542
22.109
23.666
25.208
26.731
28.226
29.684
31.095
32.45
33.737
34.945
36.064
37.082
37.987
38.77
39.422
39.933
40.294
40.496
40.532
40.395
40.076
39.569
38.87
37.972
36.871
35.564
34.046
32.317
30.375
28.219
25.85
23.271
20.483
17.491
14.3
10.916
7.347
3.6
-0.314
-4.385
-8.6
-12.945
-17.407
-21.971
-26.619
-31.337
-36.107
-40.912
-45.733
-50.553
-55.353
-60.116
-64.822
-69.454
-73.993
-78.422
-82.723
-86.879
-90.875
-94.694
-98.322
-101.746
-104.952
-107.929
-110.665
-113.151
-115.379
-117.341
-119.032
-120.448
-121.586
-122.444
-123.023
-123.326
-123.357
-123.119
-122.62
-121.868
-120.873
-119.645
-118.195
-116.537
-114.685
-112.653
-110.457
-108.113
-105.637
-103.048
-100.362
-97.598
-94.772
-91.904
-89.01
-86.108
-83.217
-80.353
-77.534
-74.775
-72.094
-69.506
-67.026
-64.667
-62.443
-60.367
-58.448
-56.699
-55.126
-53.738
-52.54
-51.539
-50.738
-50.139
-49.742
-49.549
-49.558
-49.766
-50.169
-50.762
-51.539
-52.494
-53.618
-54.902
-56.337
-57.911
-59.613
-61.431
-63.351
-65.359
-67.441
-69.581
-71.765
-73.976
-76.198
-78.414
-80.608
-82.763
-84.863
-86.892
-88.833
-90.672
-92.393
-93.984
-95.431
-96.723
-97.847
-98.795
-99.558
-100.128
-100.5
-100.668
-100.63
-100.384
-99.93
-99.27
-98.408
-97.348
-96.099
-94.67
-93.073
-91.32
-89.424
-87.403
-85.274
-83.055
-80.764
-78.421
-76.046
-73.661
-71.287
-68.947
-66.665
-64.462
-62.363
-60.39
-58.566
-56.913
-55.449
-54.188
-53.145
-52.333
-51.766
-51.462
-51.432
-51.682
-52.219
-53.044
-54.152
-55.535
-57.169
-59.017
-61.041
-63.203
-65.47
-67.814
-70.201
-72.594
-74.954
-77.229
-79.382
-81.378
-83.18
-84.758
-86.096
-87.19
-88.08
-88.853
-89.585
-90.364
-91.266
-92.334
-93.641
-95.271
-97.303
-99.835
-102.945
-106.663
-111.04
-116.167
-122.031
-128.508
-135.309
-141.896
-147.73
-152.434
-155.645
-156.887
-155.816
-152.374
-146.817
-139.984
-132.889
-125.942
-119.241
-113.385
-108.936
-105.683
-103.11
-98.572
-87.569
-68.936
-42.92
-10.516
24.087
62.831
111.034
170.802
246.968
336.31
430.14
525.055
610.961
679.748
724.06
728.165
687.436
603.59
483.213
342.504
189.811
31.225
-123.944
-265.638
-378.649
-451.956
-485.824
-489.522
-475.461
-452.186
-421.875
-382.199
-333.063
-278.701
-224.989
-178.632
-143.97
-121.782
-111.446
-111.217
-118.3
-129.691
-142.559
-153.993
-161.672
-164.516
-162.113
-154.709
-143.5
-130.006
-115.76
-102.508
-91.484
-83.161
-77.753
-75.11
-74.72
-76.047
-78.406
-80.938
-83.13
-84.767
-85.724
-86.049
-85.765
-84.789
-83.146
-80.923
-78.159
-74.9
-71.172
-66.957
-62.322
-57.396
-52.319
-47.262
-42.334
-37.585
-33.066
-28.814
-24.868
-21.281
-18.073
-15.233
-12.762
-10.657
-8.914
-7.536
-6.496
-5.743
-5.222
-4.869
-4.639
-4.507
-4.447
-4.437
-4.457
-4.489
-4.523
-4.562
-4.597
-4.619
-4.614
-4.57
-4.479
-4.339
-4.15
-3.912
-3.622
-3.279
-2.881
-2.428
-1.918
-1.348
-0.715
-0.015
0.755
1.592
2.495
3.46
4.483
5.559
6.681
7.843
9.036
10.254
11.488
12.733
13.979
15.221
16.449
17.658
18.839
19.986
21.092
22.15
23.153
24.097
24.976
25.784
26.517
27.172
27.745
28.232
28.631
28.937
29.149
29.264
29.279
29.194
29.006
28.717
28.326
27.833
27.242
26.553
25.771
24.897
23.935
22.889
21.763
20.562
19.291
17.953
16.555
15.102
13.6
12.055
10.472
8.857
7.217
5.558
3.885
2.206
0.527
-1.144
-2.802
-4.438
-6.044
-7.614
-9.138
-10.61
-12.022
-13.367
-14.637
-15.825
-16.925
-17.93
-18.836
-19.636
-20.327
-20.904
-21.363
-21.701
-21.916
-22.005
-21.968
-21.802
-21.507
-21.084
-20.532
-19.852
-19.047
-18.119
-17.07
-15.905
-14.628
-13.245
-11.761
-10.183
-8.517
-6.773
-4.958
-3.08
-1.15
0.823
2.828
4.856
6.895
8.934
10.962
12.969
14.942
16.872
18.748
20.56
22.298
23.952
25.513
26.971
28.318
29.546
30.648
31.618
32.45
33.141
33.688
34.09
34.349
34.463
34.436
34.268
33.962
33.523
32.954
32.257
31.438
30.503
29.46
28.32
27.096
25.8
24.446
23.049
21.626
20.194
18.77
17.364
15.99
14.664
13.403
12.231
11.165
10.216
9.392
8.699
8.139
7.714
7.414
7.214
7.093
7.03
7.017
7.063
7.172
7.346
7.588
7.894
8.277
8.768
9.387
10.147
11.066
12.156
13.457
15.036
16.945
19.224
21.885
24.901
28.246
31.894
35.796
39.892
44.092
48.272
52.332
56.198
59.791
63.044
65.858
68.093
69.638
70.403
70.328
69.403
67.62
64.973
61.507
57.301
52.476
47.207
41.635
35.867
30.015
24.173
18.462
13.043
8.048
3.584
-0.25
-3.403
-5.828
-7.475
-8.364
-8.574
-8.226
-7.515
-6.606
-5.609
-4.654
-3.869
-3.389
-3.394
-4.024
-5.362
-7.529
-10.648
-14.753
-19.813
-25.603
-31.661
-37.524
-42.746
-46.798
-49.146
-49.393
-47.333
-43.217
-37.766
-31.712
-25.678
-20.326
-16.369
-14.314
-14.258
-15.394
-15.911
-13.736
-6.903
6.884
30.285
65.682
115.283
178.629
251.63
330.242
410.285
489.969
572.18
656.187
735.131
797.164
823.53
798.934
720.459
593.596
431.621
252.487
70.315
-101.279
-245.573
-349.952
-407.975
-420.864
-401.811
-367.432
-328.319
-289.889
-251.089
-208.325
-163.173
-119.832
-83.254
-58.062
-44.842
-41.838
-46.906
-56.963
-69.181
-81.175
-90.258
-94.78
-94.386
-89.21
-80.043
-68.184
-54.91
-41.669
-30.109
-21.186
-15.221
-12.259
-11.933
-13.746
-17.24
-21.765
-26.57
-31.174
-35.313
-38.845
-41.777
-44.064
-45.615
-46.422
-46.513
-45.908
-44.632
-42.697
-40.11
-36.933
-33.276
-29.27
-25.064
-20.794
-16.555
-12.422
-8.463
-4.739
-1.3
1.821
4.614
7.082
9.228
11.055
12.572
13.8
14.776
15.544
16.156
16.661
17.096
17.487
17.858
18.226
18.604
19.001
19.417
19.847
20.292
20.754
21.237
21.743
22.271
22.82
23.387
23.967
24.56
25.163
25.775
26.396
27.026
27.667
28.319
28.985
29.666
30.36
31.066
31.78
32.498
33.216
33.929
34.631
35.318
35.985
36.627
37.24
37.822
38.369
38.878
39.347
39.772
40.152
40.484
40.768
41
41.18
41.306
41.377
41.392
41.35
41.251
41.094
40.878
40.602
40.266
39.869
39.413
38.896
38.319
37.683
36.989
36.24
35.437
34.583
33.681
32.732
31.741
30.708
29.638
28.532
27.393
26.224
25.027
23.805
22.56
21.296
20.015
18.719
17.413
16.099
14.78
13.46
12.142
10.83
9.528
8.24
6.97
5.723
4.504
3.315
2.163
1.049
-0.022
-1.046
-2.021
-2.944
-3.813
-4.625
-5.378
-6.071
-6.703
-7.271
-7.776
-8.216
-8.591
-8.901
-9.145
-9.325
-9.44
-9.491
-9.481
-9.41
-9.281
-9.096
-8.859
-8.574
-8.243
-7.873
-7.467
-7.031
-6.571
-6.092
-5.601
-5.104
-4.606
-4.114
-3.635
-3.175
-2.74
-2.335
-1.967
-1.64
-1.361
-1.135
-0.966
-0.86
-0.821
-0.852
-0.959
-1.143
-1.409
-1.757
-2.189
-2.705
-3.306
-3.99
-4.754
-5.597
-6.513
-7.5
-8.55
-9.657
-10.814
-12.014
-13.246
-14.501
-15.768
-17.037
-18.296
-19.534
-20.739
-21.9
-23.004
-24.039
-24.993
-25.855
-26.611
-27.249
-27.759
-28.128
-28.345
-28.4
-28.284
-27.989
-27.508
-26.833
-25.96
-24.886
-23.608
-22.126
-20.441
-18.552
-16.468
-14.196
-11.745
-9.128
-6.356
-3.44
-0.397
2.749
5.991
9.317
12.707
16.158
19.642
23.105
26.533
29.912
33.17
36.265
39.169
41.807
44.169
46.328
48.258
49.901
51.427
52.975
54.364
55.628
56.849
57.472
58.366
60.664
62.875
64.517
63.272
54.849
41.834
28.114
17.74
18.342
28.838
42.029
53.052
54.242
43.755
28.94
14.155
3.772
0.881
1.198
2.023
2.543
1.035
-1.214
-3.104
-5.118
-7.104
-9.17
-11.63
-14.358
-17.261
-20.474
-24.072
-28.045
-32.483
-37.526
-43.212
-49.515
-56.243
-62.874
-68.836
-73.683
-76.908
-78.016
-76.754
-73.06
-67.352
-60.656
-54.111
-48.691
-45.299
-44.7
-47.22
-52.646
-59.787
-66.377
-69.642
-66.765
-55.131
-32.083
4.684
56.609
124.01
204.024
290.904
379.211
462.957
540.168
613.703
680.934
737.447
772.896
767.51
712.427
605.201
449.781
268.508
80.804
-93.864
-231.577
-325.895
-376.651
-390.471
-386.592
-374.938
-358.994
-339.549
-310.618
-271.757
-227.833
-183.4
-144.293
-114.21
-93.724
-82.509
-79.192
-81.814
-88.446
-97.418
-107.191
-115.852
-121.663
-123.715
-121.783
-116.343
-108.315
-98.488
-87.613
-76.808
-67.245
-59.617
-54.228
-50.992
-49.52
-49.494
-50.634
-52.533
-54.765
-57.064
-59.282
-61.383
-63.421
-65.367
-67.162
-68.757
-70.089
-71.112
-71.797
-72.115
-72.064
-71.672
-70.976
-70.009
-68.795
-67.343
-65.664
-63.77
-61.674
-59.409
-57.014
-54.547
-52.096
-49.723
-47.468
-45.357
-43.391
-41.564
-39.873
-38.306
-36.843
-35.475
-34.195
-32.999
-31.895
-30.877
-29.932
-29.038
-28.159
-27.271
-26.359
-25.411
-24.422
-23.391
-22.319
-21.213
-20.087
-18.952
-17.816
-16.681
-15.549
-14.42
-13.302
-12.199
-11.119
-10.069
-9.054
-8.078
-7.146
-6.264
-5.432
-4.652
-3.923
-3.244
-2.615
-2.038
-1.513
-1.041
-0.623
-0.259
0.051
0.305
0.505
0.651
0.746
0.791
0.788
0.74
0.649
0.518
0.35
0.146
-0.091
-0.36
-0.66
-0.988
-1.345
-1.729
-2.141
-2.58
-3.046
-3.54
-4.062
-4.613
-5.193
-5.804
-6.446
-7.121
-7.83
-8.573
-9.352
-10.167
-11.02
-11.909
-12.835
-13.799
-14.8
-15.837
-16.91
-18.017
-19.158
-20.331
-21.535
-22.765
-24.021
-25.297
-26.59
-27.895
-29.208
-30.523
-31.834
-33.135
-34.419
-35.68
-36.911
-38.105
-39.256
-40.355
-41.396
-42.371
-43.274
-44.098
-44.836
-45.481
-46.028
-46.473
-46.809
-47.034
-47.143
-47.133
-47.003
-46.75
-46.374
-45.874
-45.251
-44.506
-43.641
-42.659
-41.564
-40.361
-39.054
-37.651
-36.157
-34.581
-32.929
-31.211
-29.436
-27.613
-25.751
-23.861
-21.954
-20.041
-18.132
-16.24
-14.374
-12.547
-10.768
-9.05
-7.401
-5.832
-4.351
-2.968
-1.69
-0.526
0.52
1.44
2.23
2.887
3.407
3.789
4.032
4.136
4.103
3.935
3.636
3.209
2.66
1.995
1.222
0.348
-0.618
-1.666
-2.785
-3.963
-5.188
-6.449
-7.731
-9.022
-10.307
-11.573
-12.805
-13.99
-15.114
-16.163
-17.123
-17.983
-18.73
-19.354
-19.843
-20.19
-20.385
-20.421
-20.294
-19.999
-19.533
-18.894
-18.082
-17.099
-15.946
-14.629
-13.153
-11.525
-9.756
-7.856
-5.841
-3.724
-1.522
0.749
3.068
5.418
7.778
10.13
12.457
14.738
16.953
19.082
21.1
22.989
24.729
26.303
27.693
28.883
29.861
30.62
31.156
31.461
31.528
31.34
30.882
30.149
29.14
27.857
26.312
24.516
22.489
20.27
17.894
15.396
12.813
10.166
7.477
4.787
2.139
-0.403
-2.777
-4.942
-6.861
-8.503
-9.868
-10.961
-11.816
-12.503
-13.077
-13.6
-14.153
-14.805
-15.647
-16.786
-18.297
-20.315
-23.036
-26.531
-30.793
-35.667
-40.753
-45.69
-50.211
-53.914
-56.373
-57.308
-56.549
-54.47
-52.009
-49.953
-48.899
-49.244
-51.134
-54.763
-60.155
-66.271
-71.123
-72.502
-68.144
-56.539
-36.44
-5.872
36.975
92.758
159.675
233.487
309.951
386.708
465.047
546.9
629.26
703.17
752.727
761.924
724.244
643.569
533.97
411.939
288.114
166.912
47.934
-67.852
-175.848
-269.658
-342.544
-391.486
-416.863
-420.261
-404.824
-374.654
-334.134
-288.121
-241.297
-196.963
-157.599
-125.627
-102.57
-88.524
-82.574
-82.942
-87.42
-94.339
-102.205
-108.943
-112.686
-112.49
-108.149
-100.236
-89.8
-77.676
-64.671
-51.978
-40.776
-31.78
-25.305
-21.227
-19.147
-18.735
-19.679
-21.551
-23.897
-26.405
-28.892
-31.266
-33.488
-35.473
-37.104
-38.308
-39.066
-39.359
-39.176
-38.514
-37.377
-35.802
-33.857
-31.592
-29.05
-26.265
-23.27
-20.12
-16.899
-13.694
-10.598
-7.689
-5.019
-2.628
-0.538
1.245
2.73
3.939
4.906
5.658
6.216
6.597
6.814
6.887
6.847
6.728
6.572
6.415
6.28
6.19
6.162
6.205
6.326
6.524
6.792
7.125
7.524
7.988
8.521
9.126
9.8
10.542
11.348
12.214
13.137
14.112
15.135
16.2
17.303
18.439
19.605
20.796
22.006
23.228
24.454
25.675
26.885
28.075
29.236
30.36
31.44
32.467
33.436
34.34
35.174
35.931
36.607
37.196
37.694
38.097
38.402
38.603
38.696
38.679
38.549
38.302
37.938
37.455
36.852
36.132
35.294
34.342
33.277
32.103
30.824
29.443
27.965
26.396
24.74
23.005
21.196
19.321
17.387
15.402
13.371
11.303
9.204
7.081
4.943
2.795
0.646
-1.497
-3.627
-5.735
-7.813
-9.853
-11.848
-13.79
-15.672
-17.488
-19.229
-20.892
-22.47
-23.958
-25.351
-26.645
-27.837
-28.924
-29.902
-30.77
-31.527
-32.172
-32.705
-33.126
-33.436
-33.636
-33.728
-33.714
-33.595
-33.374
-33.053
-32.636
-32.128
-31.532
-30.854
-30.098
-29.271
-28.379
-27.428
-26.425
-25.374
-24.284
-23.161
-22.012
-20.843
-19.663
-18.478
-17.295
-16.122
-14.965
-13.831
-12.726
-11.655
-10.624
-9.638
-8.703
-7.823
-7.004
-6.249
-5.563
-4.95
-4.413
-3.955
-3.576
-3.278
-3.061
-2.923
-2.863
-2.878
-2.965
-3.122
-3.344
-3.63
-3.976
-4.378
-4.831
-5.331
-5.871
-6.445
-7.042
-7.651
-8.263
-8.867
-9.454
-10.018
-10.548
-11.035
-11.471
-11.854
-12.174
-12.424
-12.591
-12.655
-12.607
-12.444
-12.17
-11.797
-11.333
-10.784
-10.163
-9.49
-8.776
-8.026
-7.231
-6.364
-5.414
-4.381
-3.276
-2.129
-0.954
0.253
1.497
2.786
4.132
5.534
7.017
8.626
10.374
12.25
14.207
16.156
18.034
19.804
21.436
22.92
24.233
25.328
26.175
26.753
27.033
26.989
26.563
25.657
24.225
22.263
19.81
16.962
13.794
10.354
6.701
2.898
-0.992
-4.889
-8.74
-12.521
-16.185
-19.678
-22.916
-25.769
-28.15
-30.021
-31.368
-32.219
-32.612
-32.587
-32.212
-31.6
-30.842
-30.005
-29.157
-28.343
-27.638
-27.141
-26.949
-27.162
-27.9
-29.323
-31.502
-34.365
-37.652
-40.877
-43.543
-45.258
-45.593
-43.992
-40.125
-34.069
-26.395
-18.387
-11.325
-5.979
-3.081
-3.408
-7.245
-14.142
-22.586
-29.668
-32.333
-28.029
-13.975
12.489
53.497
108.951
175.843
250.208
328.638
411.558
500.933
593.556
679.47
741.417
761.735
733.718
663.592
566.688
458.524
344.833
222.731
89.353
-50.431
-180.751
-282.243
-343.753
-367.471
-366.902
-356.898
-345.36
-332.665
-314.566
-288.952
-258.133
-225.561
-194.445
-166.28
-140.768
-117.912
-98.277
-81.745
-67.641
-55.793
-46.401
-39.665
-35.856
-34.345
-33.508
-32.532
-31.368
-29.857
-28.011
-25.805
-23.01
-20.026
-17.9
-17.152
-17.847
-19.894
-22.862
-26.412
-30.424
-34.53
-38.163
-40.966
-42.725
-43.366
-43.035
-41.828
-39.771
-36.966
-33.531
-29.585
-25.278
-20.739
-16.069
-11.396
-6.825
-2.443
1.654
5.406
8.774
11.738
14.302
16.486
18.299
19.76
20.894
21.723
22.287
22.63
22.796
22.835
22.787
22.684
22.556
22.426
22.306
22.208
22.133
22.078
22.045
22.038
22.06
22.117
22.212
22.346
22.519
22.732
22.985
23.278
23.614
23.993
24.419
24.894
25.42
26.002
26.641
27.338
28.09
28.895
29.749
30.647
31.585
32.557
33.557
34.579
35.618
36.667
37.721
38.772
39.815
40.842
41.845
42.819
43.756
44.649
45.49
46.275
46.995
47.646
48.222
48.717
49.125
49.443
49.664
49.785
49.802
49.711
49.508
49.191
48.758
48.208
47.539
46.75
45.843
44.818
43.676
42.419
41.049
39.57
37.985
36.299
34.516
32.643
30.685
28.649
26.542
24.371
22.145
19.87
17.555
15.208
12.836
10.449
8.053
5.657
3.27
0.9
-1.445
-3.757
-6.028
-8.249
-10.414
-12.514
-14.544
-16.495
-18.363
-20.139
-21.82
-23.4
-24.874
-26.238
-27.491
-28.629
-29.652
-30.559
-31.349
-32.025
-32.587
-33.037
-33.378
-33.611
-33.739
-33.767
-33.696
-33.531
-33.276
-32.936
-32.515
-32.019
-31.453
-30.823
-30.135
-29.395
-28.609
-27.783
-26.923
-26.036
-25.13
-24.21
-23.283
-22.359
-21.443
-20.542
-19.664
-18.815
-18
-17.224
-16.494
-15.813
-15.185
-14.616
-14.109
-13.668
-13.298
-13.002
-12.783
-12.643
-12.585
-12.608
-12.714
-12.901
-13.168
-13.512
-13.93
-14.42
-14.979
-15.606
-16.296
-17.048
-17.858
-18.723
-19.637
-20.594
-21.585
-22.599
-23.624
-24.651
-25.666
-26.66
-27.621
-28.541
-29.411
-30.226
-30.975
-31.649
-32.235
-32.714
-33.074
-33.306
-33.407
-33.377
-33.227
-32.971
-32.63
-32.223
-31.766
-31.265
-30.717
-30.107
-29.418
-28.634
-27.748
-26.767
-25.699
-24.549
-23.318
-22.003
-20.585
-19.037
-17.322
-15.397
-13.234
-10.824
-8.188
-5.375
-2.452
0.495
3.401
6.217
8.902
11.418
13.725
15.782
17.54
18.945
19.924
20.386
20.258
19.481
18.044
15.976
13.338
10.222
6.71
2.869
-1.229
-5.513
-9.914
-14.363
-18.796
-23.153
-27.341
-31.243
-34.745
-37.732
-40.136
-41.936
-43.129
-43.76
-43.884
-43.559
-42.858
-41.865
-40.659
-39.34
-38.018
-36.802
-35.836
-35.259
-35.253
-36.078
-37.851
-40.543
-43.96
-47.662
-51.206
-54.282
-56.466
-57.226
-56.336
-53.875
-50.43
-47.215
-45.32
-45.474
-48.325
-54.387
-63.661
-75.512
-88.249
-99.093
-105.119
-103.636
-92.093
-68.214
-30.453
21.936
88.447
166.975
254.355
345.545
433.785
512.619
577.047
626.278
662.092
684.548
690.848
671.146
614.653
515.543
373.55
203.183
25.405
-137.173
-261.058
-339.011
-374.272
-377.61
-368.138
-355.071
-340.545
-324.001
-299.607
-266.867
-230.259
-193.74
-162.265
-139.087
-124.112
-116.354
-114.537
-116.893
-121.679
-127.606
-133.071
-136.05
-135.524
-131.234
-123.224
-112.255
-99.324
-85.195
-70.981
-58.094
-47.328
-39.04
-33.363
-30.007
-28.636
-29.019
-30.718
-33.137
-35.91
-38.833
-41.781
-44.756
-47.687
-50.368
-52.638
-54.438
-55.718
-56.398
-56.417
-55.694
-54.189
-51.989
-49.222
-45.938
-42.143
-38.034
-33.842
-29.521
-25.169
-20.932
-16.522
-13.114
-11.835
-11.209
-10.806
-7.853
0.985
12.021
22.816
29.72
27.701
21.235
14.108
8.933
10.02
14.34
18.825
22.813
24.428
24.789
25.321
25.765
26.309
26.855
27.11
27.259
27.457
27.658
27.86
28.089
28.343
28.616
28.908
29.194
29.449
29.689
29.933
30.181
30.44
30.717
31.016
31.347
31.719
32.133
32.588
33.086
33.628
34.213
34.841
35.511
36.221
36.969
37.754
38.571
39.417
40.288
41.177
42.078
42.984
43.888
44.78
45.652
46.495
47.298
48.052
48.748
49.374
49.921
50.381
50.743
50.998
51.14
51.16
51.053
50.811
50.431
49.908
49.241
48.427
47.465
46.358
45.105
43.709
42.175
40.505
38.708
36.788
34.753
32.614
30.379
28.059
25.668
23.216
20.718
18.187
15.639
13.088
10.549
8.038
5.569
3.159
0.821
-1.429
-3.578
-5.614
-7.523
-9.294
-10.918
-12.386
-13.689
-14.822
-15.781
-16.56
-17.159
-17.575
-17.81
-17.864
-17.741
-17.444
-16.978
-16.351
-15.569
-14.642
-13.581
-12.395
-11.097
-9.7
-8.217
-6.663
-5.052
-3.399
-1.718
-0.025
1.665
3.336
4.973
6.562
8.087
9.534
10.891
12.146
13.286
14.303
15.187
15.93
16.526
16.969
17.253
17.375
17.332
17.123
16.746
16.204
15.498
14.634
13.615
12.451
11.147
9.715
8.165
6.508
4.754
2.914
0.999
-0.979
-3.006
-5.072
-7.163
-9.262
-11.353
-13.419
-15.438
-17.395
-19.272
-21.054
-22.726
-24.275
-25.687
-26.955
-28.067
-29.012
-29.776
-30.34
-30.69
-30.819
-30.73
-30.427
-29.927
-29.242
-28.386
-27.384
-26.253
-24.999
-23.626
-22.117
-20.455
-18.637
-16.67
-14.575
-12.375
-10.072
-7.671
-5.173
-2.563
0.168
3.034
6.07
9.295
12.691
16.227
19.832
23.416
26.92
30.295
33.502
36.514
39.287
41.773
43.938
45.73
47.096
47.978
48.291
47.973
47.009
45.405
43.208
40.503
37.348
33.792
29.89
25.682
21.223
16.584
11.829
7.03
2.271
-2.362
-6.763
-10.833
-14.506
-17.731
-20.474
-22.745
-24.549
-25.88
-26.755
-27.204
-27.267
-27.028
-26.585
-26.006
-25.388
-24.839
-24.468
-24.413
-24.792
-25.697
-27.249
-29.585
-32.745
-36.653
-41.082
-45.596
-49.743
-53.121
-55.24
-55.519
-53.612
-49.597
-43.981
-37.767
-32.045
-27.516
-24.819
-24.774
-27.698
-32.987
-39.198
-43.869
-44.079
-37.445
-21.748
5.385
45.873
100.563
168.679
247.926
333.578
419.146
500.01
571.897
631.843
680.74
713.422
721.23
698.527
636.974
539.056
415.87
273.563
124.259
-22.708
-160.116
-270.995
-346.272
-384.087
-387.899
-373.161
-350.42
-323.816
-295.613
-262.514
-224.408
-184.564
-145.599
-111.389
-84.547
-65.588
-54.17
-48.846
-47.93
-50.444
-55.67
-62.653
-69.895
-75.705
-79.181
-80.293
-79.456
-77.074
-73.369
-68.595
-63.454
-58.953
-55.679
-53.778
-53.084
-53.238
-53.99
-55.175
-56.466
-57.412
-57.726
-57.245
-55.957
-54.007
-51.515
-48.595
-45.413
-42.125
-38.853
-35.669
-32.604
-29.682
-26.938
-24.4
-22.084
-19.999
-18.141
-16.529
-15.181
-14.082
-13.203
-12.477
-11.827
-11.205
-10.585
-9.967
-9.356
-8.744
-8.124
-7.494
-6.864
-6.244
-5.638
-5.032
-4.407
-3.76
-3.096
-2.436
-1.803
-1.206
-0.638
-0.086
0.463
1.016
1.578
2.157
2.767
3.418
4.11
4.835
5.584
6.349
7.13
7.927
8.74
9.564
10.392
11.214
12.025
12.819
13.588
14.326
15.021
15.667
16.257
16.792
17.266
17.678
18.024
18.299
18.502
18.631
18.685
18.661
18.556
18.37
18.103
17.753
17.324
16.813
16.224
15.556
14.813
13.995
13.107
12.15
11.128
10.044
8.902
7.705
6.458
5.163
3.825
2.449
1.038
-0.403
-1.869
-3.355
-4.858
-6.374
-7.897
-9.425
-10.954
-12.481
-14.003
-15.517
-17.02
-18.508
-19.979
-21.43
-22.858
-24.26
-25.633
-26.975
-28.283
-29.555
-30.788
-31.979
-33.126
-34.226
-35.277
-36.276
-37.221
-38.11
-38.941
-39.714
-40.425
-41.076
-41.664
-42.19
-42.653
-43.053
-43.39
-43.662
-43.871
-44.015
-44.095
-44.111
-44.062
-43.949
-43.774
-43.537
-43.24
-42.884
-42.47
-42.003
-41.483
-40.914
-40.299
-39.642
-38.949
-38.222
-37.467
-36.691
-35.897
-35.092
-34.282
-33.472
-32.667
-31.874
-31.098
-30.344
-29.618
-28.926
-28.272
-27.663
-27.105
-26.601
-26.158
-25.78
-25.472
-25.238
-25.081
-25.005
-25.013
-25.106
-25.286
-25.554
-25.911
-26.355
-26.885
-27.499
-28.193
-28.962
-29.802
-30.706
-31.667
-32.678
-33.731
-34.816
-35.925
-37.046
-38.171
-39.288
-40.387
-41.457
-42.486
-43.462
-44.373
-45.209
-45.958
-46.608
-47.149
-47.569
-47.858
-48.009
-48.01
-47.856
-47.537
-47.049
-46.386
-45.544
-44.522
-43.319
-41.934
-40.372
-38.635
-36.731
-34.666
-32.45
-30.095
-27.613
-25.021
-22.333
-19.567
-16.742
-13.877
-10.993
-8.111
-5.25
-2.432
0.323
2.994
5.558
7.994
10.28
12.393
14.314
16.022
17.498
18.727
19.697
20.4
20.825
20.966
20.807
20.343
19.571
18.489
17.102
15.417
13.448
11.225
8.787
6.175
3.43
0.587
-2.325
-5.271
-8.215
-11.117
-13.924
-16.6
-19.109
-21.415
-23.487
-25.304
-26.862
-28.207
-29.415
-30.557
-31.704
-32.897
-34.176
-35.615
-37.29
-39.289
-41.705
-44.581
-47.99
-52.054
-56.818
-62.234
-68.092
-73.937
-79.254
-83.619
-86.557
-87.582
-86.398
-82.882
-77.372
-70.731
-63.917
-57.815
-53.179
-50.605
-50.387
-52.361
-55.514
-57.966
-57.343
-51.027
-36.717
-12.408
23.716
72.913
135.395
210.11
293.253
378.745
461.225
536.205
602.859
662.625
712.487
745.553
750.37
714.517
634.594
514.695
364.72
200.247
34.178
-120.176
-247.22
-338.874
-391.581
-409.412
-406.548
-392.562
-372.688
-349.043
-317.862
-279.433
-238.333
-198.831
-165.987
-142.585
-128.184
-121.495
-120.502
-122.708
-125.641
-127.244
-126.112
-121.204
-112.241
-99.618
-84.097
-67.005
-49.981
-34.428
-21.266
-11.09
-4.072
-0.099
1.052
-0.158
-3.084
-7.056
-11.557
-16.273
-21.035
-25.735
-30.222
-34.297
-37.785
-40.604
-42.707
-44.048
-44.6
-44.325
-43.225
-41.382
-38.906
-35.919
-32.541
-28.845
-24.891
-20.763
-16.558
-12.395
-8.405
-4.668
-1.229
1.871
4.61
6.97
8.946
10.569
11.888
12.944
13.775
14.404
14.845
15.127
15.285
15.36
15.397
15.427
15.468
15.541
15.663
15.843
16.092
16.407
16.777
17.2
17.675
18.204
18.793
19.441
20.148
20.912
21.732
22.606
23.535
24.515
25.546
26.625
27.751
28.924
30.145
31.41
32.718
34.062
35.438
36.839
38.259
39.69
41.125
42.557
43.978
45.381
46.76
48.109
49.418
50.683
51.896
53.05
54.137
55.151
56.086
56.936
57.694
58.355
58.914
59.365
59.704
59.926
60.029
60.008
59.861
59.585
59.179
58.642
57.975
57.177
56.252
55.201
54.028
52.736
51.33
49.815
48.198
46.483
44.679
42.791
40.828
38.797
36.709
34.57
32.391
30.181
27.951
25.709
23.467
21.235
19.022
16.839
14.697
12.606
10.575
8.615
6.734
4.942
3.247
1.656
0.178
-1.183
-2.421
-3.531
-4.508
-5.351
-6.057
-6.625
-7.054
-7.345
-7.5
-7.52
-7.408
-7.169
-6.805
-6.324
-5.729
-5.027
-4.227
-3.335
-2.36
-1.311
-0.199
0.968
2.177
3.418
4.681
5.954
7.227
8.489
9.729
10.936
12.101
13.213
14.263
15.24
16.136
16.942
17.652
18.258
18.754
19.135
19.395
19.531
19.54
19.418
19.164
18.775
18.25
17.591
16.8
15.879
14.832
13.665
12.385
11.002
9.523
7.959
6.319
4.612
2.847
1.036
-0.812
-2.692
-4.591
-6.499
-8.403
-10.287
-12.137
-13.94
-15.679
-17.339
-18.905
-20.363
-21.703
-22.918
-23.998
-24.934
-25.71
-26.309
-26.721
-26.942
-26.969
-26.802
-26.448
-25.918
-25.239
-24.451
-23.582
-22.646
-21.653
-20.597
-19.475
-18.29
-17.038
-15.716
-14.322
-12.846
-11.289
-9.663
-7.959
-6.157
-4.216
-2.064
0.339
2.998
5.909
9.038
12.345
15.781
19.271
22.721
26.051
29.185
32.067
34.667
36.924
38.768
40.111
40.832
40.85
40.121
38.606
36.3
33.231
29.442
25.024
20.112
14.816
9.242
3.492
-2.365
-8.233
-14.003
-19.574
-24.812
-29.597
-33.838
-37.429
-40.299
-42.423
-43.788
-44.43
-44.447
-43.913
-42.919
-41.579
-39.981
-38.24
-36.492
-34.857
-33.487
-32.52
-32.094
-32.399
-33.515
-35.416
-37.994
-40.955
-43.972
-46.778
-49.026
-50.305
-50.376
-49.077
-46.542
-43.384
-40.119
-37.251
-35.234
-34.154
-34.347
-36.283
-39.415
-42.531
-43.348
-38.027
-24.977
-4.164
23.563
54.998
91.04
135.157
191.101
264.369
355.199
459.706
569.916
671.859
749.998
788.075
776.175
715.204
615.438
493.925
364.99
234.916
104.521
-24.54
-147.612
-254.884
-335.425
-387.871
-414.405
-419.736
-411.068
-389.453
-356.763
-317.344
-274.355
-232.819
-196.551
-167.119
-145.878
-132.741
-126.436
-125.297
-127.063
-129.884
-132.49
-133.412
-131.492
-126.292
-117.855
-106.89
-94.599
-81.878
-69.509
-58.505
-49.55
-42.963
-38.89
-37.089
-37.091
-38.533
-40.97
-43.853
-46.838
-49.687
-52.193
-54.257
-55.782
-56.671
-56.917
-56.568
-55.645
-54.168
-52.156
-49.629
-46.66
-43.349
-39.789
-36.059
-32.223
-28.344
-24.509
-20.827
-17.392
-14.263
-11.47
-9.026
-6.94
-5.224
-3.872
-2.856
-2.135
-1.67
-1.43
-1.39
-1.526
-1.806
-2.19
-2.631
-3.09
-3.541
-3.962
-4.335
-4.644
-4.873
-5.016
-5.072
-5.046
-4.936
-4.738
-4.446
-4.057
-3.571
-2.989
-2.315
-1.548
-0.69
0.257
1.291
2.408
3.605
4.879
6.229
7.652
9.143
10.694
12.3
13.951
15.639
17.357
19.092
20.836
22.578
24.308
26.019
27.7
29.341
30.935
32.472
33.945
35.345
36.666
37.899
39.039
40.079
41.014
41.838
42.546
43.133
43.596
43.931
44.134
44.203
44.135
43.929
43.583
43.097
42.47
41.703
40.796
39.752
38.573
37.263
35.826
34.265
32.587
30.797
28.901
26.905
24.816
22.641
20.388
18.063
15.677
13.235
10.748
8.224
5.671
3.099
0.517
-2.066
-4.641
-7.198
-9.729
-12.223
-14.672
-17.066
-19.397
-21.655
-23.832
-25.919
-27.91
-29.796
-31.57
-33.228
-34.763
-36.171
-37.447
-38.589
-39.594
-40.459
-41.182
-41.764
-42.203
-42.5
-42.655
-42.672
-42.551
-42.296
-41.91
-41.398
-40.763
-40.012
-39.149
-38.179
-37.111
-35.95
-34.704
-33.381
-31.988
-30.535
-29.03
-27.482
-25.9
-24.294
-22.673
-21.045
-19.419
-17.805
-16.211
-14.645
-13.115
-11.63
-10.197
-8.823
-7.515
-6.279
-5.12
-4.044
-3.053
-2.153
-1.344
-0.631
-0.012
0.509
0.934
1.263
1.498
1.64
1.692
1.659
1.543
1.351
1.088
0.76
0.375
-0.06
-0.538
-1.05
-1.587
-2.14
-2.701
-3.258
-3.803
-4.326
-4.816
-5.264
-5.662
-5.999
-6.267
-6.46
-6.569
-6.59
-6.517
-6.345
-6.072
-5.696
-5.215
-4.63
-3.941
-3.15
-2.26
-1.276
-0.203
0.953
2.184
3.48
4.831
6.222
7.642
9.074
10.505
11.917
13.294
14.621
15.883
17.068
18.159
19.143
20.002
20.72
21.287
21.688
21.916
21.96
21.814
21.473
20.942
20.222
19.315
18.217
16.914
15.4
13.675
11.741
9.606
7.284
4.784
2.131
-0.636
-3.48
-6.358
-9.235
-12.089
-14.884
-17.575
-20.107
-22.405
-24.409
-26.079
-27.376
-28.284
-28.799
-28.926
-28.695
-28.164
-27.41
-26.532
-25.635
-24.827
-24.227
-23.936
-24.123
-25.029
-26.764
-29.328
-32.549
-36.029
-39.432
-42.543
-45.004
-46.378
-46.426
-45.078
-42.842
-40.811
-39.777
-40.267
-42.682
-47.13
-53.604
-61.8
-70.24
-76.541
-78.525
-74.001
-61.135
-38.723
-5.464
39.777
96.845
164.262
240.206
320.796
400.392
475.707
543.81
602.799
654.391
693.831
710.965
698.243
647.432
559.966
448.019
319.558
182.023
41.219
-99.432
-227.218
-327.342
-391.511
-418.858
-420.131
-408.435
-390.833
-369.353
-341.17
-304.843
-262.933
-219.14
-177.826
-141.911
-112.816
-91.316
-76.948
-68.586
-64.968
-65.042
-67.955
-72.642
-77.407
-80.503
-81.106
-79.251
-75.448
-70.203
-63.847
-56.809
-50.006
-44.598
-41.243
-40.059
-40.787
-42.992
-46.387
-50.756
-55.689
-60.615
-65.064
-68.725
-71.489
-73.414
-74.531
-74.832
-74.333
-73.079
-71.149
-68.64
-65.63
-62.18
-58.33
-54.124
-49.632
-44.949
-40.194
-35.488
-30.911
-26.508
-22.315
-18.361
-14.672
-11.267
-8.131
-5.236
-2.554
-0.067
2.237
4.358
6.316
8.139
9.86
11.514
13.125
14.702
16.259
17.805
19.345
20.883
22.412
23.919
25.395
26.838
28.247
29.623
30.965
32.269
33.532
34.75
35.923
37.05
38.128
39.156
40.133
41.06
41.939
42.771
43.559
44.303
45.003
45.657
46.264
46.824
47.336
47.797
48.205
48.561
48.863
49.111
49.305
49.444
49.528
49.557
49.531
49.449
49.311
49.118
48.869
48.566
48.207
47.794
47.328
46.81
46.24
45.621
44.954
44.239
43.48
42.677
41.832
40.948
40.026
39.069
38.079
37.059
36.011
34.939
33.846
32.735
31.609
30.471
29.325
28.173
27.019
25.866
24.718
23.577
22.449
21.335
20.24
19.168
18.12
17.101
16.114
15.16
14.242
13.364
12.527
11.734
10.987
10.287
9.638
9.041
8.498
8.009
7.576
7.2
6.881
6.618
6.413
6.263
6.17
6.131
6.145
6.211
6.328
6.492
6.702
6.954
7.246
7.573
7.934
8.322
8.736
9.17
9.622
10.085
10.558
11.033
11.508
11.976
12.433
12.873
13.291
13.681
14.038
14.356
14.631
14.857
15.03
15.144
15.197
15.183
15.099
14.941
14.707
14.393
13.998
13.519
12.957
12.309
11.577
10.761
9.863
8.884
7.827
6.695
5.492
4.221
2.887
1.497
0.056
-1.429
-2.95
-4.499
-6.066
-7.642
-9.217
-10.781
-12.323
-13.833
-15.298
-16.709
-18.053
-19.321
-20.5
-21.58
-22.55
-23.4
-24.12
-24.7
-25.133
-25.41
-25.524
-25.468
-25.237
-24.827
-24.235
-23.456
-22.491
-21.337
-19.997
-18.472
-16.765
-14.882
-12.828
-10.611
-8.241
-5.728
-3.085
-0.324
2.538
5.484
8.497
11.558
14.647
17.743
20.825
23.874
26.869
29.791
32.619
35.336
37.922
40.356
42.62
44.695
46.561
48.203
49.604
50.752
51.639
52.256
52.597
52.655
52.418
51.876
51.025
49.862
48.388
46.612
44.549
42.229
39.696
36.994
34.167
31.258
28.3
25.329
22.386
19.511
16.755
14.166
11.781
9.632
7.748
6.14
4.79
3.634
2.571
1.494
0.307
-1.062
-2.687
-4.662
-7.088
-10.069
-13.698
-18.033
-23.153
-29.191
-36.175
-43.981
-52.31
-60.602
-68.262
-74.839
-79.821
-82.606
-82.892
-80.698
-76.452
-71.272
-66.25
-62.062
-59.422
-58.942
-60.634
-63.953
-67.529
-68.74
-64.832
-53.404
-31.999
1.246
47.534
107.425
180.017
262.658
350.601
437.331
516.363
582.789
635.616
676.08
703.897
715.792
701.461
650.073
555.446
416.585
247.587
68.669
-98.059
-228.019
-312.635
-354.447
-363.74
-360.027
-353.32
-345.096
-333.496
-312.288
-280.708
-242.953
-203.338
-166.606
-135.572
-111.441
-94.663
-84.472
-79.758
-79.236
-81.676
-86.335
-91.961
-96.567
-98.889
-98.411
-95.138
-89.786
-83.005
-75.161
-67.06
-59.913
-54.478
-51.14
-49.956
-50.49
-52.334
-55.179
-58.526
-61.814
-64.675
-66.878
-68.316
-69.027
-69.026
-68.314
-66.949
-65.006
-62.55
-59.634
-56.309
-52.641
-48.733
-44.722
-40.74
-36.885
-33.223
-29.808
-26.685
-23.903
-21.495
-19.465
-17.812
-16.538
-15.64
-15.121
-14.973
-15.162
-15.65
-16.392
-17.337
-18.446
-19.69
-21.042
-22.482
-23.991
-25.554
-27.163
-28.814
-30.497
-32.199
-33.906
-35.601
-37.275
-38.92
-40.525
-42.085
-43.592
-45.037
-46.412
-47.711
-48.922
-50.038
-51.049
-51.945
-52.72
-53.367
-53.885
-54.272
-54.528
-54.654
-54.652
-54.527
-54.283
-53.926
-53.459
-52.89
-52.223
-51.466
-50.626
-49.71
-48.727
-47.686
-46.595
-45.465
-44.304
-43.123
-41.932
-40.739
-39.554
-38.386
-37.244
-36.136
-35.069
-34.053
-33.094
-32.198
-31.372
-30.622
-29.951
-29.363
-28.861
-28.445
-28.116
-27.875
-27.72
-27.651
-27.664
-27.759
-27.933
-28.181
-28.501
-28.889
-29.339
-29.846
-30.405
-31.009
-31.651
-32.326
-33.026
-33.745
-34.475
-35.209
-35.941
-36.663
-37.369
-38.052
-38.704
-39.319
-39.892
-40.417
-40.888
-41.301
-41.652
-41.938
-42.155
-42.302
-42.375
-42.374
-42.297
-42.142
-41.91
-41.599
-41.211
-40.745
-40.202
-39.585
-38.895
-38.134
-37.304
-36.409
-35.451
-34.433
-33.359
-32.233
-31.059
-29.84
-28.582
-27.288
-25.965
-24.617
-23.25
-21.867
-20.475
-19.078
-17.682
-16.29
-14.908
-13.541
-12.195
-10.873
-9.582
-8.326
-7.111
-5.942
-4.825
-3.763
-2.761
-1.825
-0.959
-0.166
0.55
1.184
1.733
2.195
2.566
2.844
3.028
3.116
3.109
3.007
2.811
2.521
2.14
1.67
1.114
0.475
-0.242
-1.033
-1.892
-2.814
-3.791
-4.817
-5.882
-6.979
-8.098
-9.23
-10.365
-11.493
-12.603
-13.685
-14.73
-15.725
-16.66
-17.526
-18.312
-19.007
-19.603
-20.091
-20.463
-20.711
-20.831
-20.815
-20.66
-20.361
-19.917
-19.327
-18.59
-17.707
-16.68
-15.512
-14.209
-12.778
-11.226
-9.562
-7.797
-5.944
-4.017
-2.032
-0.006
2.045
4.103
6.151
8.171
10.144
12.052
13.88
15.609
17.222
18.701
20.029
21.19
22.169
22.956
23.541
23.919
24.085
24.04
23.782
23.309
22.616
21.704
20.574
19.233
17.686
15.944
14.03
11.97
9.8
7.556
5.266
2.952
0.638
-1.655
-3.888
-6.016
-8.009
-9.83
-11.46
-12.888
-14.06
-14.944
-15.564
-15.956
-16.196
-16.376
-16.46
-16.414
-16.379
-16.472
-16.868
-17.784
-19.146
-20.883
-23.218
-26.264
-29.8
-33.509
-36.642
-38.338
-38.496
-37.023
-33.434
-27.595
-19.838
-10.89
-2.44
3.675
6.793
6.377
1.618
-7.574
-20.552
-35.654
-49.637
-58.817
-60.359
-51.44
-29.073
8.893
63.502
133.927
217.146
308.855
404.116
497.041
580.847
648.594
694.045
712.858
702.547
662.388
593.633
499.483
385.317
258.341
126.295
-3.548
-124.077
-229.11
-313.941
-375.317
-412.362
-426.338
-419.579
-395.421
-358.417
-313.334
-264.946
-217.826
-175.169
-139.286
-111.896
-93.369
-82.914
-79.16
-80.017
-83.215
-86.996
-89.491
-89.115
-85.306
-78.071
-67.946
-56.052
-43.482
-31.202
-20.387
-11.887
-6.011
-2.862
-2.203
-3.547
-6.466
-10.459
-14.949
-19.566
-24.076
-28.283
-32.068
-35.309
-37.89
-39.789
-41.033
-41.636
-41.61
-40.967
-39.739
-38.004
-35.859
-33.401
-30.693
-27.777
-24.707
-21.555
-18.419
-15.41
-12.596
-10.011
-7.684
-5.629
-3.856
-2.364
-1.124
-0.087
0.787
1.532
2.172
2.721
3.203
3.647
4.088
4.567
5.113
5.742
6.474
7.32
8.289
9.388
10.611
11.945
13.381
14.915
16.541
18.26
20.065
21.948
23.903
25.921
27.992
30.109
32.261
34.439
36.632
38.832
41.031
43.221
45.395
47.543
49.656
51.722
53.732
55.675
57.543
59.323
61.008
62.589
64.057
65.406
66.629
67.722
68.677
69.491
70.16
70.68
71.048
71.263
71.323
71.228
70.978
70.573
70.016
69.308
68.453
67.455
66.316
65.042
63.639
62.111
60.464
58.706
56.844
54.883
52.833
50.701
48.494
46.223
43.894
41.516
39.097
36.647
34.172
31.681
29.182
26.683
24.192
21.718
19.267
16.847
14.465
12.128
9.844
7.617
5.455
3.362
1.344
-0.595
-2.45
-4.217
-5.894
-7.477
-8.963
-10.351
-11.638
-12.825
-13.911
-14.895
-15.777
-16.56
-17.243
-17.829
-18.319
-18.716
-19.021
-19.238
-19.369
-19.419
-19.39
-19.287
-19.113
-18.873
-18.571
-18.213
-17.803
-17.346
-16.847
-16.312
-15.745
-15.153
-14.539
-13.911
-13.273
-12.631
-11.989
-11.354
-10.729
-10.121
-9.534
-8.972
-8.44
-7.942
-7.483
-7.066
-6.695
-6.373
-6.105
-5.893
-5.74
-5.65
-5.625
-5.667
-5.778
-5.959
-6.212
-6.537
-6.935
-7.404
-7.944
-8.552
-9.228
-9.968
-10.768
-11.626
-12.537
-13.495
-14.496
-15.533
-16.6
-17.69
-18.796
-19.909
-21.022
-22.126
-23.214
-24.276
-25.305
-26.291
-27.225
-28.098
-28.901
-29.625
-30.261
-30.8
-31.234
-31.555
-31.756
-31.83
-31.772
-31.576
-31.24
-30.761
-30.137
-29.369
-28.456
-27.4
-26.206
-24.878
-23.422
-21.845
-20.157
-18.366
-16.487
-14.533
-12.518
-10.458
-8.369
-6.268
-4.171
-2.096
-0.058
1.929
3.851
5.691
7.432
9.057
10.551
11.899
13.089
14.108
14.944
15.592
16.05
16.318
16.397
16.281
15.958
15.419
14.662
13.687
12.5
11.113
9.541
7.81
5.96
4.03
2.062
0.088
-1.871
-3.788
-5.629
-7.35
-8.89
-10.198
-11.238
-11.972
-12.379
-12.47
-12.263
-11.814
-11.208
-10.504
-9.775
-9.105
-8.57
-8.268
-8.298
-8.739
-9.723
-11.446
-14
-17.343
-21.261
-25.281
-28.925
-31.833
-33.544
-33.474
-31.288
-27.047
-21.328
-15.443
-10.716
-7.952
-7.893
-11.31
-18.434
-28.692
-40.415
-50.499
-55.639
-53.034
-39.846
-13.378
28.718
86.364
156.389
234.757
316.594
400.794
489.88
580.853
666.86
734.342
763.224
743.87
676.282
569.808
444.777
315.167
188.343
68.02
-48.181
-158.33
-256.713
-338.127
-397.09
-431.435
-442.339
-432.06
-404.053
-362.853
-313.045
-259.554
-207.222
-159.888
-120.86
-92.221
-74.472
-67.007
-68.36
-76.15
-87.74
-100.568
-111.712
-119.161
-122.066
-120.046
-113.524
-103.575
-91.33
-78.2
-65.916
-55.506
-47.4
-41.831
-38.528
-37.071
-37.072
-37.863
-38.752
-39.405
-39.701
-39.678
-39.484
-39.133
-38.607
-37.97
-37.277
-36.56
-35.8
-34.892
-33.776
-32.477
-31.068
-29.673
-28.359
-27.109
-25.894
-24.658
-23.368
-22.035
-20.645
-19.163
-17.59
-15.936
-14.246
-12.608
-11.064
-9.606
-8.218
-6.85
-5.477
-4.106
-2.736
-1.373
-0.023
1.316
2.634
3.906
5.131
6.319
7.495
8.706
9.978
11.319
12.734
14.218
15.769
17.385
19.058
20.775
22.525
24.302
26.105
27.936
29.791
31.662
33.539
35.407
37.253
39.067
40.84
42.561
44.221
45.814
47.335
48.784
50.157
51.453
52.666
53.793
54.831
55.778
56.629
57.383
58.037
58.592
59.046
59.402
59.66
59.824
59.895
59.877
59.771
59.579
59.305
58.95
58.516
58.005
57.419
56.759
56.029
55.229
54.362
53.431
52.437
51.383
50.269
49.096
47.867
46.583
45.246
43.856
42.416
40.928
39.393
37.815
36.194
34.533
32.834
31.098
29.327
27.522
25.686
23.819
21.926
20.009
18.071
16.116
14.149
12.174
10.196
8.221
6.254
4.301
2.368
0.463
-1.409
-3.241
-5.027
-6.758
-8.43
-10.036
-11.57
-13.026
-14.401
-15.687
-16.882
-17.98
-18.978
-19.872
-20.658
-21.334
-21.896
-22.342
-22.671
-22.882
-22.975
-22.951
-22.811
-22.558
-22.195
-21.724
-21.152
-20.483
-19.723
-18.879
-17.96
-16.973
-15.928
-14.834
-13.702
-12.542
-11.364
-10.18
-8.999
-7.831
-6.687
-5.578
-4.513
-3.503
-2.555
-1.682
-0.894
-0.2
0.39
0.868
1.23
1.467
1.576
1.555
1.402
1.117
0.702
0.156
-0.52
-1.328
-2.269
-3.333
-4.51
-5.793
-7.169
-8.626
-10.152
-11.728
-13.33
-14.953
-16.584
-18.213
-19.836
-21.431
-22.976
-24.449
-25.823
-27.084
-28.224
-29.231
-30.092
-30.812
-31.395
-31.858
-32.236
-32.528
-32.728
-32.837
-32.842
-32.748
-32.57
-32.309
-31.969
-31.548
-31.031
-30.404
-29.654
-28.737
-27.596
-26.169
-24.369
-22.153
-19.503
-16.398
-12.838
-8.828
-4.363
0.526
5.791
11.382
17.232
23.25
29.345
35.382
41.197
46.635
51.526
55.723
59.123
61.622
63.137
63.617
63.017
61.327
58.577
54.809
50.085
44.516
38.224
31.363
24.132
16.702
9.244
1.934
-5.087
-11.683
-17.725
-23.125
-27.816
-31.739
-34.886
-37.285
-38.984
-40.1
-40.754
-41.059
-41.165
-41.218
-41.351
-41.727
-42.486
-43.719
-45.559
-48.158
-51.566
-55.761
-60.542
-65.474
-70.1
-74.002
-76.686
-77.63
-76.499
-73.199
-68.126
-62.204
-56.412
-51.585
-48.47
-47.744
-49.741
-54.195
-59.911
-64.753
-66.164
-61.561
-48.533
-24.69
11.938
62.364
126.291
201.935
286.096
374.519
462.402
544.222
613.987
665.961
695.11
697.53
672.529
622.583
550.534
459.525
350.035
221.018
77.133
-70.271
-203.083
-302.655
-359.972
-378.006
-369.992
-350.236
-327.027
-302.421
-273.17
-237.774
-199.011
-161.102
-129.372
-107.148
-94.458
-90.222
-92.81
-100.12
-110.212
-121.285
-131.214
-138.279
-141.79
-141.513
-137.608
-130.819
-121.951
-111.876
-101.856
-92.815
-85.102
-78.889
-74.045
-70.24
-67.249
-64.744
-62.195
-59.318
-56.027
-52.331
-48.445
-44.557
-40.759
-37.19
-33.987
-31.22
-28.956
-27.22
-25.965
-25.165
-24.786
-24.766
-25.092
-25.725
-26.598
-27.645
-28.758
-29.837
-30.813
-31.624
-32.218
-32.563
-32.627
-32.385
-31.857
-31.064
-30.045
-28.86
-27.537
-26.099
-24.576
-22.992
-21.382
-19.782
-18.202
-16.644
-15.114
-13.611
-12.14
-10.705
-9.289
-7.872
-6.431
-4.935
-3.368
-1.722
0.011
1.831
3.737
5.727
7.787
9.898
12.044
14.21
16.384
18.556
20.709
22.825
24.887
26.879
28.786
30.593
32.288
33.859
35.296
36.591
37.738
38.735
39.577
40.26
40.781
41.137
41.325
41.345
41.197
40.88
40.395
39.747
38.938
37.975
36.864
35.612
34.227
32.717
31.093
29.362
27.536
25.624
23.635
21.581
19.472
17.317
15.128
12.915
10.687
8.456
6.23
4.019
1.832
-0.323
-2.438
-4.506
-6.521
-8.475
-10.363
-12.181
-13.922
-15.582
-17.158
-18.646
-20.043
-21.348
-22.559
-23.675
-24.695
-25.621
-26.452
-27.189
-27.834
-28.389
-28.855
-29.235
-29.531
-29.746
-29.885
-29.95
-29.947
-29.879
-29.751
-29.568
-29.335
-29.056
-28.737
-28.38
-27.992
-27.576
-27.136
-26.676
-26.202
-25.716
-25.223
-24.726
-24.23
-23.738
-23.254
-22.78
-22.32
-21.876
-21.452
-21.05
-20.672
-20.322
-20.001
-19.711
-19.455
-19.232
-19.045
-18.895
-18.78
-18.703
-18.662
-18.657
-18.688
-18.754
-18.855
-18.99
-19.159
-19.36
-19.594
-19.859
-20.153
-20.477
-20.828
-21.206
-21.608
-22.033
-22.479
-22.944
-23.425
-23.92
-24.427
-24.942
-25.462
-25.984
-26.505
-27.022
-27.529
-28.025
-28.503
-28.962
-29.396
-29.802
-30.175
-30.51
-30.804
-31.052
-31.25
-31.392
-31.475
-31.492
-31.441
-31.315
-31.111
-30.825
-30.451
-29.986
-29.426
-28.77
-28.014
-27.157
-26.196
-25.131
-23.962
-22.69
-21.315
-19.84
-18.267
-16.6
-14.844
-13.005
-11.089
-9.104
-7.06
-4.966
-2.835
-0.679
1.489
3.654
5.802
7.918
9.987
11.995
13.929
15.774
17.518
19.143
20.636
21.982
23.167
24.174
24.993
25.609
26.013
26.203
26.177
25.93
25.459
24.752
23.801
22.606
21.169
19.489
17.577
15.446
13.126
10.666
8.112
5.506
2.884
0.268
-2.316
-4.829
-7.233
-9.482
-11.532
-13.365
-14.956
-16.268
-17.292
-18.045
-18.593
-19.053
-19.534
-20.108
-20.823
-21.72
-22.873
-24.377
-26.324
-28.807
-31.87
-35.559
-40.016
-45.265
-51.166
-57.403
-63.34
-68.304
-71.849
-73.46
-72.568
-69.109
-63.283
-55.721
-47.9
-41.045
-35.916
-33.507
-34.468
-38.373
-44.284
-50.261
-52.956
-49.555
-37.53
-13.994
23.101
74.701
140.544
218.327
304.104
392.518
477.484
553.814
615.544
659.745
684.823
685.636
660.285
604.605
516.08
401.544
268.056
128.988
-1.968
-117.3
-209.096
-277.697
-325.601
-353.544
-365.467
-360.76
-339.227
-304.732
-260.624
-212.379
-165.426
-122.472
-85.756
-57.345
-38.346
-28.684
-27.332
-32.573
-42.441
-55.446
-70.064
-84.019
-95.265
-102.772
-106.261
-106.138
-103.131
-97.749
-90.6
-82.821
-75.601
-69.641
-65.201
-62.118
-60.017
-58.638
-57.772
-57.073
-56.138
-54.733
-52.776
-50.329
-47.558
-44.577
-41.443
-38.217
-34.973
-31.763
-28.632
-25.615
-22.723
-19.985
-17.433
-15.084
-12.955
-11.055
-9.378
-7.916
-6.653
-5.568
-4.645
-3.879
-3.263
-2.787
-2.439
-2.198
-2.047
-1.964
-1.931
-1.929
-1.936
-1.934
-1.911
-1.855
-1.758
-1.612
-1.408
-1.137
-0.79
-0.359
0.162
0.777
1.492
2.309
3.23
4.253
5.378
6.6
7.917
9.326
10.822
12.399
14.051
15.771
17.551
19.381
21.253
23.155
25.075
27.003
28.927
30.833
32.71
34.545
36.326
38.041
39.68
41.233
42.689
44.039
45.277
46.393
47.384
48.242
48.963
49.545
49.983
50.276
50.423
50.422
50.275
49.981
49.543
48.961
48.24
47.381
46.391
45.272
44.031
42.674
41.208
39.64
37.978
36.23
34.405
32.511
30.558
28.552
26.505
24.423
22.314
20.188
18.05
15.909
13.77
11.641
9.525
7.43
5.36
3.321
1.316
-0.65
-2.571
-4.444
-6.266
-8.031
-9.737
-11.381
-12.96
-14.472
-15.915
-17.288
-18.589
-19.818
-20.975
-22.06
-23.072
-24.013
-24.883
-25.682
-26.413
-27.076
-27.673
-28.203
-28.669
-29.071
-29.409
-29.684
-29.897
-30.047
-30.136
-30.165
-30.134
-30.044
-29.899
-29.7
-29.448
-29.148
-28.801
-28.411
-27.981
-27.514
-27.015
-26.486
-25.933
-25.358
-24.766
-24.161
-23.548
-22.932
-22.316
-21.706
-21.105
-20.519
-19.952
-19.408
-18.894
-18.414
-17.974
-17.579
-17.234
-16.945
-16.716
-16.552
-16.456
-16.432
-16.483
-16.609
-16.812
-17.091
-17.448
-17.879
-18.384
-18.958
-19.599
-20.301
-21.06
-21.868
-22.719
-23.605
-24.518
-25.448
-26.386
-27.323
-28.248
-29.151
-30.02
-30.846
-31.615
-32.317
-32.938
-33.467
-33.892
-34.2
-34.379
-34.42
-34.311
-34.043
-33.609
-33
-32.212
-31.238
-30.076
-28.724
-27.182
-25.45
-23.531
-21.43
-19.155
-16.712
-14.113
-11.369
-8.492
-5.499
-2.406
0.767
4.003
7.28
10.577
13.871
17.14
20.361
23.512
26.572
29.516
32.322
34.966
37.425
39.676
41.7
43.476
44.989
46.223
47.17
47.822
48.174
48.219
47.946
47.347
46.416
45.153
43.56
41.647
39.433
36.94
34.208
31.275
28.18
24.96
21.646
18.269
14.864
11.477
8.161
4.973
1.964
-0.826
-3.352
-5.594
-7.562
-9.287
-10.838
-12.283
-13.673
-15.063
-16.521
-18.122
-19.962
-22.147
-24.75
-27.896
-31.758
-36.41
-41.837
-47.843
-53.987
-59.804
-64.886
-68.731
-70.8
-70.771
-68.57
-64.659
-60.066
-55.829
-52.81
-51.788
-53.424
-58.015
-65.274
-73.885
-81.51
-85.431
-82.912
-71.344
-48.27
-11.787
39.28
104.948
183.637
272.435
366.241
458.133
541.289
610.257
663.84
703.338
728.352
735.436
713.878
652.339
544.847
391.69
208.654
17.7
-157.883
-293.856
-382.311
-425.354
-432.51
-422.552
-405.071
-383.293
-357.922
-323.883
-281.5
-235.958
-191.837
-154.868
-128.347
-111.774
-103.849
-102.756
-106.031
-111.462
-117.21
-121.212
-121.807
-118.511
-111.391
-100.969
-88.455
-75.041
-61.802
-50.052
-40.722
-34.135
-30.388
-29.234
-30.149
-32.674
-36.257
-40.218
-44.104
-47.62
-50.562
-52.882
-54.522
-55.403
-55.527
-54.931
-53.639
-51.69
-49.112
-45.937
-42.249
-38.153
-33.771
-29.238
-24.667
-20.173
-15.856
-11.789
-8.047
-4.68
-1.712
0.84
2.972
4.696
6.023
6.971
7.579
7.877
7.906
7.715
7.345
6.848
6.266
5.628
4.963
4.294
3.636
3.004
2.411
1.86
1.359
0.916
0.539
0.238
0.02
-0.109
-0.145
-0.084
0.077
0.344
0.722
1.214
1.826
2.56
3.42
4.41
5.531
6.783
8.163
9.667
11.289
13.025
14.868
16.809
18.839
20.948
23.128
25.367
27.656
29.983
32.335
34.701
37.068
39.423
41.753
44.046
46.288
48.465
50.565
52.575
54.482
56.274
57.938
59.464
60.84
62.056
63.103
63.972
64.654
65.143
65.431
65.515
65.389
65.051
64.497
63.728
62.744
61.546
60.137
58.522
56.704
54.69
52.488
50.104
47.55
44.834
41.968
38.964
35.836
32.596
29.26
25.842
22.359
18.825
15.258
11.673
8.087
4.517
0.979
-2.511
-5.935
-9.279
-12.526
-15.661
-18.671
-21.54
-24.256
-26.807
-29.183
-31.373
-33.369
-35.165
-36.753
-38.128
-39.288
-40.228
-40.949
-41.45
-41.732
-41.798
-41.653
-41.3
-40.746
-39.998
-39.064
-37.954
-36.676
-35.242
-33.663
-31.951
-30.118
-28.177
-26.144
-24.031
-21.854
-19.628
-17.368
-15.089
-12.805
-10.533
-8.285
-6.076
-3.919
-1.828
0.186
2.11
3.934
5.646
7.238
8.701
10.028
11.21
12.245
13.126
13.851
14.417
14.822
15.067
15.151
15.078
14.849
14.468
13.941
13.274
12.474
11.55
10.512
9.37
8.135
6.82
5.436
3.998
2.519
1.012
-0.509
-2.029
-3.534
-5.008
-6.438
-7.808
-9.106
-10.316
-11.427
-12.424
-13.297
-14.034
-14.626
-15.062
-15.335
-15.437
-15.362
-15.106
-14.664
-14.037
-13.223
-12.225
-11.048
-9.696
-8.177
-6.501
-4.679
-2.725
-0.652
1.524
3.784
6.11
8.484
10.885
13.294
15.691
18.054
20.363
22.598
24.736
26.755
28.635
30.353
31.89
33.228
34.35
35.246
35.905
36.318
36.476
36.367
35.981
35.313
34.359
33.122
31.607
29.827
27.807
25.583
23.19
20.666
18.039
15.336
12.582
9.805
7.044
4.347
1.758
-0.683
-2.941
-4.988
-6.797
-8.364
-9.733
-10.972
-12.155
-13.341
-14.55
-15.806
-17.167
-18.698
-20.496
-22.653
-25.225
-28.311
-32.068
-36.55
-41.68
-47.19
-52.539
-57.168
-60.678
-62.635
-62.534
-60.119
-55.531
-49.401
-42.956
-37.452
-33.61
-31.988
-33.276
-37.626
-44.299
-51.682
-57.007
-57.188
-50.003
-33.412
-4.996
36.82
92.42
160.946
239.529
324.285
411.585
496.95
574.63
639.068
685.053
708.246
706.276
677.847
622.412
541.615
439.505
321.486
194.175
64.445
-61.229
-176.084
-273.884
-350.357
-403.594
-433.674
-442.166
-431.221
-403.883
-364.79
-319.115
-271.497
-225.291
-182.577
-145.02
-114.499
-92.224
-77.824
-69.894
-66.635
-66.679
-69.212
-73.173
-76.806
-78.368
-77.07
-73.022
-66.881
-59.277
-50.571
-41.231
-32.176
-24.518
-18.931
-15.544
-14.118
-14.259
-15.669
-18.107
-21.193
-24.407
-27.343
-29.769
-31.575
-32.76
-33.331
-33.258
-32.548
-31.266
-29.467
-27.209
-24.552
-21.535
-18.205
-14.625
-10.845
-6.918
-2.922
1.071
4.983
8.724
12.239
15.488
18.435
21.066
23.383
25.387
27.098
28.546
29.747
30.722
31.486
32.048
32.428
32.651
32.741
32.736
32.66
32.532
32.369
32.183
31.98
31.766
31.54
31.296
31.033
30.75
30.451
30.142
29.828
29.509
29.189
28.868
28.547
28.228
27.912
27.601
27.296
27
26.717
26.45
26.204
25.981
25.781
25.604
25.451
25.321
25.214
25.128
25.061
25.011
24.978
24.959
24.954
24.96
24.975
24.997
25.021
25.045
25.066
25.078
25.079
25.063
25.026
24.964
24.871
24.744
24.578
24.368
24.11
23.799
23.432
23.005
22.513
21.954
21.325
20.624
19.848
18.996
18.067
17.06
15.975
14.812
13.572
12.255
10.863
9.398
7.863
6.26
4.594
2.868
1.088
-0.741
-2.613
-4.523
-6.464
-8.429
-10.411
-12.403
-14.398
-16.388
-18.365
-20.323
-22.252
-24.148
-26.001
-27.807
-29.557
-31.248
-32.871
-34.424
-35.899
-37.294
-38.603
-39.824
-40.953
-41.987
-42.924
-43.763
-44.502
-45.142
-45.681
-46.122
-46.463
-46.708
-46.859
-46.917
-46.885
-46.768
-46.569
-46.292
-45.942
-45.524
-45.043
-44.505
-43.916
-43.281
-42.605
-41.895
-41.156
-40.395
-39.617
-38.828
-38.033
-37.239
-36.45
-35.672
-34.91
-34.169
-33.453
-32.767
-32.115
-31.5
-30.926
-30.398
-29.916
-29.485
-29.105
-28.779
-28.507
-28.29
-28.128
-28.02
-27.964
-27.961
-28.007
-28.1
-28.236
-28.414
-28.628
-28.875
-29.149
-29.447
-29.763
-30.09
-30.424
-30.759
-31.09
-31.41
-31.714
-31.997
-32.252
-32.474
-32.658
-32.798
-32.888
-32.923
-32.899
-32.813
-32.659
-32.436
-32.14
-31.771
-31.329
-30.813
-30.226
-29.568
-28.843
-28.056
-27.21
-26.313
-25.371
-24.392
-23.385
-22.361
-21.333
-20.314
-19.317
-18.353
-17.437
-16.582
-15.802
-15.106
-14.505
-14.009
-13.627
-13.374
-13.26
-13.297
-13.491
-13.851
-14.381
-15.089
-15.975
-17.033
-18.257
-19.643
-21.189
-22.903
-24.788
-26.837
-29.046
-31.404
-33.891
-36.489
-39.169
-41.888
-44.606
-47.286
-49.893
-52.41
-54.807
-57.047
-59.09
-60.875
-62.355
-63.502
-64.279
-64.661
-64.665
-64.31
-63.645
-62.758
-61.695
-60.512
-59.295
-58.113
-57.071
-56.287
-55.839
-55.857
-56.504
-57.827
-59.801
-62.236
-64.684
-66.702
-67.935
-67.96
-66.407
-63.105
-58.062
-51.811
-45.428
-39.966
-36.323
-35.096
-36.469
-40.589
-47.365
-55.439
-62.635
-65.599
-59.725
-42.9
-14.618
24.204
69.668
121.133
179.955
247.543
327.769
419.804
519.818
621.836
712.582
778.965
806.759
782.404
705.135
580.334
418.806
240.986
62.401
-101.792
-232.973
-325.217
-377.76
-396.617
-399.49
-396.608
-391.713
-384.364
-367.649
-339.974
-304.69
-265.747
-228.053
-193.386
-161.262
-131.954
-105.385
-81.829
-62
-45.799
-33.483
-25.727
-22.789
-24.657
-30.991
-40.563
-51.812
-63.522
-74.14
-82.342
-87.263
-87.879
-83.714
-75.373
-63.892
-50.538
-36.992
-24.399
-13.544
-5.537
-0.979
0.229
-1.551
-5.453
-10.263
-15.289
-20.068
-23.973
-26.712
-28.179
-28.327
-27.489
-26.142
-24.489
-22.628
-20.628
-18.445
-16.112
-13.698
-11.155
-8.433
-5.541
-2.523
0.511
3.445
6.239
8.877
11.36
13.701
15.891
17.926
19.825
21.599
23.263
24.829
26.295
27.67
28.978
30.247
31.519
32.827
34.182
35.594
37.064
38.589
40.167
41.791
43.444
45.118
46.806
48.502
50.205
51.91
53.608
55.288
56.939
58.55
60.111
61.613
63.045
64.399
65.67
66.851
67.937
68.924
69.805
70.575
71.227
71.755
72.154
72.419
72.546
72.531
72.371
72.066
71.616
71.02
70.278
69.393
68.366
67.2
65.896
64.457
62.886
61.187
59.363
57.418
55.357
53.186
50.909
48.532
46.062
43.505
40.868
38.158
35.381
32.546
29.659
26.729
23.763
20.769
17.754
14.726
11.693
8.662
5.641
2.636
-0.346
-3.298
-6.214
-9.088
-11.912
-14.681
-17.389
-20.03
-22.596
-25.082
-27.481
-29.789
-31.998
-34.104
-36.101
-37.984
-39.749
-41.392
-42.908
-44.294
-45.547
-46.664
-47.644
-48.484
-49.183
-49.74
-50.155
-50.429
-50.561
-50.551
-50.403
-50.115
-49.692
-49.134
-48.445
-47.627
-46.684
-45.62
-44.441
-43.15
-41.755
-40.261
-38.675
-37.006
-35.26
-33.447
-31.576
-29.655
-27.694
-25.702
-23.69
-21.667
-19.643
-17.628
-15.632
-13.664
-11.734
-9.85
-8.022
-6.257
-4.564
-2.951
-1.424
0.01
1.343
2.57
3.684
4.682
5.559
6.312
6.938
7.434
7.802
8.041
8.154
8.142
8.009
7.761
7.402
6.941
6.385
5.743
5.026
4.242
3.405
2.525
1.615
0.689
-0.243
-1.167
-2.07
-2.939
-3.762
-4.526
-5.218
-5.826
-6.338
-6.741
-7.025
-7.178
-7.191
-7.054
-6.761
-6.303
-5.676
-4.875
-3.897
-2.741
-1.407
0.103
1.786
3.635
5.642
7.799
10.092
12.509
15.033
17.645
20.33
23.069
25.842
28.629
31.406
34.149
36.836
39.447
41.959
44.348
46.591
48.665
50.55
52.232
53.696
54.925
55.904
56.613
57.045
57.201
57.081
56.687
56.017
55.062
53.828
52.324
50.562
48.558
46.325
43.872
41.229
38.428
35.507
32.519
29.488
26.428
23.346
20.234
17.118
14.056
11.096
8.303
5.72
3.322
1.131
-0.796
-2.511
-4.092
-5.758
-7.915
-10.749
-14.21
-18.235
-22.666
-27.333
-32.197
-36.781
-40.148
-41.75
-41.319
-38.912
-35.084
-30.149
-24.093
-17.549
-11.715
-7.622
-6.349
-8.268
-12.855
-19.937
-29.503
-40.965
-53.262
-64.787
-73.228
-76.836
-74.37
-64.116
-44.57
-14.494
27.283
80.914
145.471
220.143
301.635
383.874
462.098
531.233
590.718
646.104
696.685
737.374
756.803
734.881
662.754
542.078
381.612
203.23
24.904
-139.504
-274.309
-372.868
-431.391
-449.118
-435.291
-398.824
-349.54
-299.511
-254.436
-218.879
-193.656
-172.471
-151.702
-128.822
-104.198
-83.511
-69.709
-63.558
-64.237
-68.573
-74.496
-80.711
-85.966
-89.508
-90.933
-90.268
-87.858
-84.029
-79.173
-73.83
-68.719
-64.775
-62.501
-61.881
-62.718
-64.653
-67.368
-70.627
-74.072
-77.231
-79.788
-81.584
-82.568
-82.824
-82.405
-81.316
-79.604
-77.346
-74.62
-71.515
-68.116
-64.492
-60.723
-56.9
-53.101
-49.393
-45.832
-42.465
-39.318
-36.403
-33.726
-31.282
-29.068
-27.08
-25.304
-23.716
-22.289
-20.989
-19.784
-18.634
-17.506
-16.374
-15.216
-14.018
-12.77
-11.468
-10.11
-8.699
-7.236
-5.721
-4.152
-2.532
-0.86
0.859
2.62
4.417
6.242
8.091
9.956
11.834
13.72
15.609
17.497
19.382
21.258
23.121
24.962
26.774
28.55
30.28
31.957
33.572
35.117
36.583
37.964
39.254
40.446
41.535
42.516
43.384
44.134
44.764
45.269
45.648
45.899
46.019
46.009
45.869
45.601
45.204
44.683
44.038
43.273
42.392
41.398
40.295
39.089
37.786
36.389
34.907
33.346
31.713
30.015
28.259
26.454
24.607
22.726
20.819
18.893
16.956
15.016
13.079
11.154
9.246
7.365
5.515
3.703
1.936
0.22
-1.441
-3.041
-4.577
-6.044
-7.438
-8.756
-9.995
-11.153
-12.229
-13.218
-14.122
-14.938
-15.667
-16.308
-16.861
-17.329
-17.712
-18.012
-18.233
-18.376
-18.445
-18.444
-18.375
-18.245
-18.056
-17.812
-17.52
-17.182
-16.805
-16.392
-15.948
-15.478
-14.985
-14.473
-13.946
-13.406
-12.858
-12.302
-11.744
-11.184
-10.627
-10.074
-9.529
-8.994
-8.473
-7.968
-7.481
-7.015
-6.569
-6.146
-5.747
-5.372
-5.021
-4.695
-4.394
-4.118
-3.865
-3.638
-3.435
-3.255
-3.1
-2.969
-2.863
-2.782
-2.728
-2.702
-2.707
-2.746
-2.82
-2.932
-3.084
-3.28
-3.519
-3.803
-4.13
-4.499
-4.909
-5.359
-5.846
-6.368
-6.926
-7.517
-8.141
-8.799
-9.492
-10.218
-10.975
-11.761
-12.572
-13.402
-14.247
-15.1
-15.954
-16.8
-17.631
-18.441
-19.225
-19.972
-20.671
-21.306
-21.862
-22.334
-22.719
-23.015
-23.228
-23.364
-23.436
-23.472
-23.495
-23.527
-23.587
-23.671
-23.778
-23.907
-24.059
-24.239
-24.442
-24.641
-24.801
-24.897
-24.897
-24.769
-24.473
-23.931
-23.077
-21.867
-20.268
-18.291
-15.963
-13.307
-10.354
-7.153
-3.77
-0.312
3.096
6.364
9.404
12.13
14.451
16.224
17.314
17.632
17.116
15.747
13.539
10.501
6.656
2.08
-3.117
-8.791
-14.762
-20.904
-27.104
-33.247
-39.227
-44.892
-50.095
-54.724
-58.671
-61.863
-64.272
-65.88
-66.717
-66.832
-66.227
-65.058
-63.632
-62.204
-61.069
-60.353
-59.868
-59.685
-60.161
-61.25
-62.658
-63.9
-64.049
-62.767
-60.508
-57.26
-52.65
-46.728
-39.718
-32.594
-27.326
-24.925
-25.339
-28.674
-34.96
-44.094
-55.829
-68.488
-79.046
-85.032
-84.456
-75.585
-57.178
-27.762
14.013
68.114
133.276
207.645
287.146
366.199
439.959
504.241
559.052
607.424
648.087
674.954
676.241
638.076
555.623
432.829
280.332
114.943
-48.674
-196.032
-311.594
-388.218
-424.809
-428.407
-414.763
-393.842
-370.7
-346.537
-316.867
-281.86
-245.121
-209.999
-181.566
-162.405
-151.781
-148.497
-150.527
-155.361
-161.462
-167.509
-171.698
-172.697
-169.973
-163.407
-153.556
-141.542
-128.224
-114.499
-101.584
-90.307
-81.085
-74.12
-69.214
-65.966
-64.078
-63.157
-62.686
-62.355
-61.991
-61.504
-60.944
-60.321
-59.57
-58.624
-57.427
-55.923
-54.08
-51.878
-49.292
-46.33
-43.035
-39.474
-35.723
-31.831
-27.827
-23.724
-19.532
-15.283
-11.029
-6.838
-2.793
1.045
4.635
7.945
10.965
13.691
16.131
18.315
20.278
22.049
23.646
25.079
26.352
27.481
28.492
29.416
30.294
31.158
32.032
32.939
33.898
34.921
36.017
37.184
38.415
39.706
41.057
42.468
43.942
45.48
47.077
48.731
50.434
52.183
53.969
55.788
57.628
59.485
61.348
63.213
65.074
66.922
68.75
70.548
72.306
74.012
75.656
77.228
78.717
80.11
81.399
82.574
83.626
84.549
85.333
85.973
86.462
86.796
86.969
86.979
86.823
86.498
86.002
85.336
84.499
83.492
82.317
80.975
79.47
77.806
75.987
74.018
71.905
69.655
67.275
64.772
62.155
59.433
56.616
53.714
50.737
47.696
44.601
41.463
38.294
35.103
31.902
28.701
25.511
22.34
19.201
16.1
13.049
10.055
7.126
4.27
1.493
-1.196
-3.794
-6.294
-8.691
-10.981
-13.159
-15.224
-17.171
-18.999
-20.707
-22.294
-23.761
-25.108
-26.337
-27.449
-28.449
-29.337
-30.119
-30.798
-31.379
-31.865
-32.264
-32.579
-32.817
-32.984
-33.086
-33.129
-33.119
-33.062
-32.963
-32.83
-32.666
-32.478
-32.271
-32.051
-31.822
-31.591
-31.361
-31.139
-30.927
-30.731
-30.554
-30.4
-30.271
-30.172
-30.103
-30.067
-30.065
-30.101
-30.173
-30.284
-30.433
-30.621
-30.846
-31.108
-31.405
-31.736
-32.097
-32.487
-32.903
-33.341
-33.799
-34.273
-34.758
-35.251
-35.747
-36.241
-36.728
-37.201
-37.656
-38.085
-38.482
-38.84
-39.153
-39.414
-39.615
-39.75
-39.811
-39.793
-39.688
-39.489
-39.19
-38.784
-38.266
-37.631
-36.873
-35.988
-34.972
-33.823
-32.538
-31.115
-29.554
-27.855
-26.018
-24.044
-21.938
-19.703
-17.343
-14.865
-12.277
-9.588
-6.806
-3.944
-1.013
1.972
4.997
8.043
11.093
14.13
17.133
20.084
22.963
25.75
28.428
30.98
33.39
35.64
37.712
39.586
41.247
42.68
43.87
44.807
45.476
45.87
45.989
45.83
45.392
44.672
43.657
42.338
40.716
38.795
36.582
34.097
31.358
28.393
25.248
21.97
18.603
15.191
11.757
8.331
4.958
1.682
-1.429
-4.311
-6.931
-9.257
-11.262
-12.954
-14.349
-15.492
-16.475
-17.371
-18.255
-19.215
-20.316
-21.642
-23.3
-25.362
-27.963
-31.29
-35.394
-40.251
-45.696
-51.331
-56.788
-61.749
-65.726
-68.211
-68.87
-67.525
-64.583
-60.955
-57.379
-54.517
-52.923
-52.981
-55.074
-59.218
-64.285
-68.309
-69.232
-64.79
-53.04
-32.295
-0.668
43.35
100.023
168.357
246.513
330.185
413.459
491.098
558.295
614.043
660.389
695.514
713.651
704.382
655.688
563.863
433.044
275.068
107.476
-53.234
-190.31
-291.592
-353.466
-379.586
-381.874
-372.213
-356.778
-336.973
-309.902
-274.706
-234.647
-194.385
-159.169
-131.976
-113.351
-102.892
-99.106
-99.958
-103.384
-107.309
-109.937
-110.144
-107.094
-100.381
-90.255
-77.489
-63.287
-48.993
-35.871
-24.724
-16.044
-10.082
-6.778
-5.92
-7.106
-9.779
-13.318
-17.276
-21.404
-25.545
-29.63
-33.54
-37.102
-40.18
-42.72
-44.688
-46.05
-46.783
-46.843
-46.225
-44.997
-43.242
-41.054
-38.516
-35.672
-32.551
-29.214
-25.734
-22.214
-18.763
-15.451
-12.317
-9.398
-6.713
-4.275
-2.089
-0.124
1.661
3.302
4.829
6.255
7.589
8.849
10.062
11.261
12.488
13.767
15.117
16.552
18.084
19.721
21.465
23.31
25.239
27.242
29.313
31.446
33.64
35.89
38.188
40.526
42.895
45.286
47.693
50.107
52.517
54.917
57.299
59.656
61.984
64.277
66.526
68.725
70.864
72.935
74.93
76.841
78.658
80.375
81.985
83.48
84.857
86.109
87.233
88.224
89.078
89.793
90.364
90.791
91.07
91.201
91.182
91.013
90.693
90.222
89.601
88.83
87.911
86.846
85.636
84.283
82.792
81.164
79.405
77.518
75.508
73.379
71.138
68.789
66.34
63.796
61.163
58.449
55.659
52.801
49.882
46.91
43.892
40.835
37.748
34.638
31.515
28.386
25.26
22.146
19.052
15.986
12.959
9.979
7.054
4.192
1.403
-1.306
-3.927
-6.453
-8.877
-11.193
-13.394
-15.474
-17.43
-19.255
-20.946
-22.5
-23.913
-25.183
-26.308
-27.288
-28.121
-28.808
-29.351
-29.749
-30.007
-30.126
-30.111
-29.965
-29.693
-29.302
-28.798
-28.188
-27.479
-26.68
-25.799
-24.845
-23.827
-22.755
-21.639
-20.489
-19.314
-18.125
-16.933
-15.747
-14.579
-13.438
-12.334
-11.278
-10.278
-9.344
-8.485
-7.709
-7.025
-6.438
-5.957
-5.587
-5.335
-5.203
-5.197
-5.318
-5.568
-5.949
-6.459
-7.099
-7.864
-8.753
-9.761
-10.885
-12.118
-13.454
-14.886
-16.406
-18.006
-19.675
-21.404
-23.182
-24.997
-26.837
-28.69
-30.544
-32.386
-34.203
-35.981
-37.707
-39.369
-40.952
-42.446
-43.836
-45.112
-46.262
-47.277
-48.147
-48.866
-49.425
-49.82
-50.045
-50.097
-49.976
-49.678
-49.206
-48.559
-47.742
-46.76
-45.617
-44.322
-42.883
-41.311
-39.62
-37.824
-35.939
-33.981
-31.968
-29.92
-27.855
-25.793
-23.751
-21.748
-19.801
-17.928
-16.151
-14.488
-12.959
-11.58
-10.368
-9.337
-8.5
-7.87
-7.448
-7.239
-7.248
-7.48
-7.952
-8.676
-9.655
-10.891
-12.381
-14.111
-16.066
-18.222
-20.533
-22.959
-25.455
-27.982
-30.515
-33.022
-35.462
-37.791
-39.947
-41.872
-43.531
-44.889
-45.924
-46.646
-47.077
-47.27
-47.326
-47.323
-47.348
-47.499
-47.856
-48.519
-49.604
-51.187
-53.398
-56.407
-60.272
-64.98
-70.375
-76.071
-81.668
-86.802
-90.979
-93.672
-94.53
-93.394
-90.583
-86.904
-83.179
-80.116
-78.333
-78.372
-80.518
-84.581
-89.488
-93.3
-93.738
-88.501
-75.451
-52.45
-17.682
29.935
90.306
161.888
242.055
327.335
413.421
495.107
566.978
623.539
659.75
671.852
657.084
615.387
549.743
464.131
362.535
246.276
115.413
-25.329
-165.379
-287.823
-375.649
-421.757
-429.58
-411.79
-382.642
-350.348
-317.497
-282.102
-243.304
-203.301
-165.744
-135.526
-114.993
-103.597
-99.902
-101.55
-106.074
-111.925
-117.467
-120.556
-120.059
-115.678
-107.486
-96.38
-83.578
-69.925
-56.474
-44.558
-34.864
-27.697
-23.19
-20.98
-20.637
-21.836
-24.049
-26.709
-29.517
-32.248
-34.755
-36.997
-38.829
-40.124
-40.865
-41.045
-40.673
-39.755
-38.267
-36.214
-33.663
-30.702
-27.429
-23.92
-20.209
-16.349
-12.409
-8.481
-4.686
-1.107
2.215
5.237
7.938
10.299
12.3
13.954
15.301
16.375
17.208
17.825
18.235
18.458
18.527
18.476
18.352
18.188
18.007
17.829
17.675
17.561
17.5
17.498
17.548
17.649
17.804
18.016
18.293
18.638
19.052
19.534
20.086
20.706
21.394
22.151
22.972
23.857
24.804
25.811
26.879
28.004
29.183
30.41
31.68
32.984
34.315
35.666
37.027
38.389
39.743
41.081
42.394
43.674
44.913
46.101
47.232
48.298
49.29
50.201
51.024
51.752
52.38
52.9
53.308
53.597
53.763
53.803
53.712
53.488
53.128
52.631
51.995
51.22
50.307
49.257
48.073
46.756
45.312
43.743
42.057
40.259
38.354
36.35
34.255
32.074
29.817
27.492
25.107
22.67
20.192
17.68
15.145
12.596
10.042
7.493
4.958
2.448
-0.029
-2.463
-4.845
-7.165
-9.415
-11.586
-13.669
-15.657
-17.543
-19.321
-20.985
-22.531
-23.954
-25.253
-26.425
-27.468
-28.382
-29.168
-29.825
-30.355
-30.76
-31.043
-31.207
-31.256
-31.193
-31.023
-30.752
-30.382
-29.921
-29.374
-28.746
-28.043
-27.272
-26.441
-25.558
-24.629
-23.665
-22.673
-21.662
-20.642
-19.62
-18.605
-17.604
-16.623
-15.669
-14.749
-13.866
-13.027
-12.235
-11.495
-10.811
-10.185
-9.619
-9.117
-8.68
-8.309
-8.005
-7.77
-7.604
-7.508
-7.484
-7.532
-7.654
-7.848
-8.114
-8.449
-8.853
-9.32
-9.846
-10.425
-11.05
-11.714
-12.411
-13.133
-13.875
-14.631
-15.394
-16.162
-16.931
-17.695
-18.45
-19.189
-19.903
-20.586
-21.23
-21.825
-22.363
-22.836
-23.238
-23.564
-23.811
-23.975
-24.047
-24.018
-23.874
-23.606
-23.212
-22.689
-22.04
-21.274
-20.408
-19.469
-18.49
-17.491
-16.486
-15.483
-14.473
-13.455
-12.426
-11.377
-10.314
-9.241
-8.152
-7.056
-5.952
-4.821
-3.637
-2.352
-0.903
0.736
2.575
4.605
6.782
9.062
11.385
13.669
15.855
17.893
19.73
21.336
22.675
23.683
24.301
24.443
24.004
22.925
21.181
18.768
15.747
12.19
8.188
3.872
-0.653
-5.303
-9.99
-14.652
-19.226
-23.626
-27.778
-31.594
-34.963
-37.814
-40.12
-41.899
-43.241
-44.254
-45.045
-45.728
-46.413
-47.207
-48.223
-49.564
-51.318
-53.549
-56.345
-59.861
-64.181
-69.235
-74.765
-80.229
-85.011
-88.643
-90.619
-90.336
-87.498
-82.176
-74.897
-66.98
-59.841
-54.415
-51.599
-52.184
-56.246
-63.18
-71.494
-78.138
-79.622
-73.122
-55.904
-25.391
20.036
81.134
157.611
245.267
337.107
427.291
509.34
580.778
644.53
698.216
737.326
753.345
729.673
658.941
541.302
382.422
202.316
19.668
-148.442
-282.921
-376.83
-428.388
-439.963
-423.311
-386.822
-338.381
-288.202
-240.92
-201.57
-172.111
-147.603
-125.286
-103.084
-81.591
-65.853
-58.227
-59.267
-67.738
-79.977
-93.474
-106.08
-115.768
-121.95
-124.421
-123.211
-118.919
-112.107
-103.389
-93.931
-84.976
-77.249
-71.065
-66.355
-62.791
-60.116
-58.134
-56.519
-54.899
-53.099
-51.088
-48.947
-46.833
-44.818
-42.902
-41.069
-39.329
-37.688
-36.144
-34.697
-33.331
-32.05
-30.871
-29.791
-28.786
-27.798
-26.771
-25.658
-24.437
-23.108
-21.691
-20.238
-18.796
-17.402
-16.082
-14.844
-13.686
-12.602
-11.579
-10.601
-9.667
-8.788
-7.976
-7.243
-6.591
-6.008
-5.475
-4.957
-4.423
-3.843
-3.195
-2.463
-1.637
-0.712
0.309
1.419
2.615
3.895
5.26
6.714
8.255
9.879
11.581
13.351
15.18
17.057
18.971
20.91
22.867
24.832
26.8
28.764
30.719
32.659
34.576
36.462
38.309
40.108
41.852
43.531
45.137
46.664
48.106
49.457
50.714
51.87
52.924
53.871
54.708
55.434
56.046
56.542
56.921
57.182
57.326
57.353
57.263
57.059
56.744
56.319
55.788
55.156
54.424
53.598
52.682
51.68
50.596
49.435
48.204
46.906
45.548
44.135
42.674
41.169
39.627
38.052
36.449
34.825
33.184
31.532
29.874
28.217
26.565
24.924
23.301
21.7
20.126
18.585
17.079
15.614
14.192
12.817
11.491
10.216
8.995
7.827
6.716
5.661
4.663
3.722
2.838
2.011
1.24
0.526
-0.133
-0.737
-1.286
-1.781
-2.223
-2.612
-2.95
-3.238
-3.477
-3.67
-3.818
-3.925
-3.993
-4.026
-4.026
-3.997
-3.943
-3.867
-3.771
-3.658
-3.531
-3.393
-3.245
-3.09
-2.929
-2.763
-2.596
-2.428
-2.261
-2.097
-1.937
-1.785
-1.642
-1.511
-1.395
-1.298
-1.221
-1.17
-1.148
-1.157
-1.202
-1.283
-1.405
-1.567
-1.771
-2.017
-2.302
-2.625
-2.984
-3.378
-3.802
-4.256
-4.737
-5.244
-5.776
-6.332
-6.909
-7.505
-8.115
-8.735
-9.358
-9.978
-10.587
-11.175
-11.732
-12.247
-12.714
-13.12
-13.455
-13.704
-13.85
-13.878
-13.78
-13.551
-13.188
-12.693
-12.069
-11.331
-10.498
-9.591
-8.627
-7.621
-6.58
-5.51
-4.412
-3.292
-2.154
-0.995
0.206
1.472
2.835
4.329
5.988
7.857
9.996
12.456
15.275
18.479
22.074
26.052
30.391
35.056
40.004
45.166
50.447
55.738
60.912
65.845
70.425
74.528
78.023
80.787
82.719
83.729
83.759
82.776
80.77
77.753
73.762
68.873
63.198
56.889
50.121
43.058
35.847
28.632
21.559
14.776
8.419
2.613
-2.544
-6.986
-10.666
-13.546
-15.629
-16.979
-17.697
-17.953
-17.933
-17.773
-17.612
-17.597
-17.869
-18.594
-19.92
-21.944
-24.786
-28.586
-33.374
-39.077
-45.455
-52.041
-58.374
-64.053
-68.606
-71.507
-72.442
-71.429
-68.866
-65.559
-62.257
-59.275
-56.853
-55.418
-55.015
-55.01
-54.193
-50.598
-42.205
-27.783
-6.259
23.759
63.225
112.398
170.812
236.997
307.723
378.594
445.521
503.891
553.437
598.851
640.576
675.129
691.104
669.067
600.542
489.857
351.315
207.917
71.457
-57.568
-180.702
-299.655
-403.472
-474.359
-498.893
-472.029
-405.979
-322.678
-245.06
-190.066
-160.601
-149.733
-145.182
-137.25
-123.647
-107.157
-94.412
-89.348
-91.373
-97.945
-104.445
-107.729
-107.31
-103.381
-96.837
-88.797
-79.979
-71.22
-63.676
-58.154
-54.961
-54.18
-55.556
-58.604
-62.849
-67.698
-72.496
-76.84
-80.522
-83.411
-85.472
-86.679
-87.005
-86.499
-85.253
-83.327
-80.765
-77.606
-73.917
-69.813
-65.455
-61.014
-56.614
-52.334
-48.238
-44.376
-40.807
-37.579
-34.707
-32.18
-29.991
-28.138
-26.62
-25.434
-24.547
-23.91
-23.47
-23.167
-22.955
-22.807
-22.691
-22.587
-22.475
-22.34
-22.176
-21.987
-21.767
-21.508
-21.199
-20.828
-20.392
-19.889
-19.318
-18.679
-17.973
-17.197
-16.352
-15.439
-14.455
-13.399
-12.267
-11.057
-9.768
-8.402
-6.962
-5.45
-3.873
-2.236
-0.543
1.197
2.978
4.794
6.637
8.501
10.379
12.263
14.146
16.02
17.877
19.709
21.51
23.27
24.984
26.645
28.246
29.782
31.246
32.634
33.941
35.164
36.297
37.338
38.283
39.129
39.874
40.515
41.05
41.479
41.798
42.009
42.109
42.099
41.978
41.745
41.402
40.948
40.384
39.711
38.931
38.045
37.056
35.966
34.779
33.496
32.123
30.662
29.117
27.492
25.793
24.022
22.185
20.286
18.332
16.326
14.275
12.184
10.06
7.909
5.737
3.552
1.359
-0.832
-3.016
-5.184
-7.329
-9.443
-11.518
-13.547
-15.522
-17.436
-19.282
-21.054
-22.744
-24.348
-25.859
-27.274
-28.587
-29.794
-30.892
-31.876
-32.745
-33.495
-34.124
-34.632
-35.016
-35.277
-35.416
-35.434
-35.333
-35.115
-34.785
-34.348
-33.807
-33.168
-32.439
-31.624
-30.733
-29.771
-28.749
-27.674
-26.555
-25.402
-24.225
-23.032
-21.834
-20.64
-19.459
-18.301
-17.176
-16.092
-15.059
-14.087
-13.183
-12.357
-11.617
-10.972
-10.427
-9.99
-9.664
-9.455
-9.364
-9.394
-9.543
-9.81
-10.194
-10.692
-11.301
-12.018
-12.838
-13.757
-14.771
-15.876
-17.064
-18.328
-19.657
-21.04
-22.464
-23.918
-25.387
-26.857
-28.31
-29.734
-31.116
-32.446
-33.707
-34.884
-35.953
-36.897
-37.707
-38.375
-38.898
-39.275
-39.505
-39.602
-39.589
-39.49
-39.324
-39.101
-38.812
-38.452
-38.021
-37.516
-36.944
-36.294
-35.538
-34.657
-33.639
-32.465
-31.122
-29.57
-27.742
-25.585
-23.063
-20.165
-16.923
-13.366
-9.524
-5.45
-1.201
3.135
7.437
11.61
15.582
19.275
22.626
25.536
27.87
29.518
30.392
30.436
29.643
28.014
25.55
22.302
18.347
13.797
8.823
3.556
-1.908
-7.464
-13.035
-18.513
-23.747
-28.613
-33.002
-36.813
-39.999
-42.509
-44.299
-45.39
-45.842
-45.758
-45.306
-44.605
-43.746
-42.843
-41.979
-41.273
-40.877
-40.887
-41.439
-42.724
-44.827
-47.769
-51.435
-55.442
-59.37
-62.845
-65.364
-66.423
-65.685
-62.975
-58.644
-53.607
-48.869
-45.353
-43.799
-44.777
-48.674
-55.459
-64.116
-72.583
-78.134
-77.941
-69.717
-51.152
-19.905
25.812
86.685
160.443
241.981
326.203
409.375
491.085
572.632
650.859
716.654
754.669
749.529
695.102
596.777
470.995
335.684
202.93
78.04
-40.142
-151.063
-250.58
-333.628
-394.597
-431.349
-445.407
-439.02
-415.483
-379.376
-335.079
-286.903
-239.242
-194.997
-156.354
-125.746
-104.237
-91.258
-85.732
-85.905
-89.556
-95.204
-101.119
-104.871
-105.138
-101.595
-94.366
-84.372
-72.724
-60.142
-47.67
-36.752
-28.187
-22.338
-19.277
-18.549
-19.665
-22.272
-25.871
-29.876
-33.905
-37.671
-40.941
-43.643
-45.717
-47.094
-47.783
-47.806
-47.168
-45.883
-43.988
-41.527
-38.577
-35.236
-31.573
-27.646
-23.534
-19.322
-15.127
-11.072
-7.24
-3.677
-0.425
2.489
5.043
7.226
9.059
10.581
11.825
12.824
13.602
14.176
14.578
14.844
15.016
15.143
15.258
15.385
15.547
15.764
16.049
16.416
16.866
17.392
17.995
18.676
19.44
20.294
21.238
22.271
23.394
24.604
25.9
27.278
28.737
30.271
31.877
33.551
35.288
37.087
38.942
40.844
42.786
44.759
46.751
48.753
50.754
52.742
54.706
56.636
58.521
60.351
62.115
63.803
65.404
66.91
68.309
69.592
70.75
71.775
72.66
73.397
73.979
74.401
74.657
74.745
74.66
74.4
73.965
73.354
72.568
71.609
70.48
69.185
67.728
66.115
64.352
62.446
60.403
58.232
55.941
53.539
51.034
48.436
45.755
43.003
40.189
37.325
34.422
31.492
28.546
25.596
22.655
19.732
16.841
13.993
11.198
8.467
5.811
3.238
0.758
-1.621
-3.893
-6.052
-8.091
-10.007
-11.795
-13.452
-14.974
-16.361
-17.61
-18.72
-19.692
-20.526
-21.223
-21.785
-22.215
-22.516
-22.692
-22.747
-22.686
-22.515
-22.24
-21.867
-21.404
-20.858
-20.239
-19.554
-18.813
-18.026
-17.202
-16.348
-15.475
-14.59
-13.7
-12.814
-11.937
-11.077
-10.24
-9.434
-8.663
-7.935
-7.254
-6.627
-6.057
-5.549
-5.107
-4.734
-4.433
-4.208
-4.061
-3.994
-4.01
-4.109
-4.293
-4.56
-4.909
-5.338
-5.842
-6.418
-7.057
-7.756
-8.505
-9.3
-10.135
-11.003
-11.898
-12.817
-13.754
-14.705
-15.663
-16.622
-17.573
-18.507
-19.414
-20.282
-21.103
-21.866
-22.564
-23.187
-23.729
-24.186
-24.551
-24.815
-24.968
-24.996
-24.887
-24.636
-24.244
-23.715
-23.063
-22.306
-21.466
-20.57
-19.634
-18.671
-17.68
-16.653
-15.576
-14.437
-13.233
-11.974
-10.673
-9.334
-7.962
-6.551
-5.086
-3.538
-1.874
-0.047
1.97
4.186
6.581
9.104
11.69
14.256
16.738
19.091
21.273
23.247
24.977
26.426
27.549
28.291
28.583
28.334
27.467
25.934
23.733
20.9
17.505
13.651
9.427
4.919
0.22
-4.594
-9.446
-14.27
-19.007
-23.589
-27.922
-31.889
-35.37
-38.267
-40.532
-42.146
-43.121
-43.533
-43.453
-42.981
-42.246
-41.343
-40.371
-39.442
-38.643
-38.082
-37.884
-38.148
-39.023
-40.698
-43.233
-46.6
-50.621
-54.882
-58.972
-62.545
-65.121
-66.196
-65.464
-62.807
-58.568
-53.57
-48.62
-44.371
-41.406
-40.219
-40.987
-43.47
-46.62
-48.569
-47.161
-40.181
-25.62
-1.68
33.148
79.966
138.899
208.839
286.482
366.537
444.067
514.913
578.559
636.339
685.61
720.233
728.954
699.594
628.392
517.966
376.357
217.371
53.32
-101.402
-229.187
-320.165
-370.761
-386.629
-383.191
-370.494
-352.905
-330.646
-298.881
-257.439
-210.869
-163.948
-122.528
-90.563
-68.733
-56.576
-52.769
-55.349
-62.205
-71.581
-81.534
-89.601
-94.33
-95.2
-92.096
-85.768
-77.317
-67.509
-57.399
-48.435
-41.376
-36.53
-34.007
-33.355
-34.052
-35.757
-37.929
-39.964
-41.568
-42.554
-42.831
-42.484
-41.517
-39.906
-37.729
-35.052
-31.926
-28.423
-24.589
-20.493
-16.276
-12.066
-7.968
-4.066
-0.392
3.026
6.154
8.968
11.451
13.593
15.404
16.88
18.016
18.823
19.322
19.555
19.589
19.475
19.257
18.97
18.637
18.278
17.915
17.559
17.212
16.883
16.578
16.308
16.091
15.938
15.855
15.848
15.916
16.06
16.282
16.584
16.966
17.429
17.975
18.605
19.325
20.135
21.035
22.02
23.087
24.228
25.438
26.707
28.027
29.388
30.78
32.194
33.62
35.049
36.471
37.877
39.257
40.602
41.902
43.15
44.337
45.454
46.494
47.45
48.315
49.082
49.746
50.3
50.742
51.065
51.266
51.341
51.288
51.104
50.788
50.34
49.758
49.046
48.203
47.232
46.137
44.922
43.59
42.147
40.597
38.945
37.198
35.361
33.44
31.443
29.376
27.245
25.058
22.821
20.543
18.229
15.889
13.529
11.158
8.782
6.411
4.052
1.715
-0.594
-2.866
-5.094
-7.268
-9.382
-11.429
-13.402
-15.295
-17.102
-18.818
-20.438
-21.958
-23.373
-24.682
-25.881
-26.969
-27.945
-28.807
-29.555
-30.189
-30.711
-31.12
-31.419
-31.609
-31.692
-31.671
-31.549
-31.33
-31.018
-30.617
-30.133
-29.573
-28.941
-28.245
-27.492
-26.691
-25.85
-24.975
-24.077
-23.161
-22.238
-21.315
-20.399
-19.499
-18.622
-17.774
-16.962
-16.193
-15.472
-14.806
-14.199
-13.656
-13.181
-12.779
-12.454
-12.209
-12.047
-11.972
-11.986
-12.092
-12.29
-12.583
-12.969
-13.448
-14.016
-14.672
-15.408
-16.219
-17.1
-18.041
-19.038
-20.081
-21.165
-22.28
-23.422
-24.583
-25.757
-26.934
-28.103
-29.253
-30.373
-31.451
-32.476
-33.433
-34.309
-35.092
-35.776
-36.352
-36.81
-37.137
-37.313
-37.327
-37.173
-36.848
-36.351
-35.689
-34.864
-33.897
-32.819
-31.659
-30.448
-29.199
-27.909
-26.577
-25.209
-23.806
-22.379
-20.921
-19.404
-17.809
-16.126
-14.337
-12.427
-10.352
-8.035
-5.417
-2.455
0.862
4.505
8.441
12.639
17.046
21.593
26.187
30.692
35.006
39.055
42.755
46.029
48.765
50.802
52.017
52.324
51.671
50.055
47.486
43.977
39.599
34.469
28.736
22.585
16.162
9.564
2.903
-3.719
-10.164
-16.256
-21.862
-26.891
-31.269
-34.959
-37.932
-40.172
-41.751
-42.817
-43.531
-44.082
-44.599
-45.147
-45.825
-46.736
-48.004
-49.769
-52.118
-55.087
-58.734
-63.151
-68.344
-74.189
-80.345
-86.249
-91.349
-95.212
-97.432
-97.517
-95.122
-90.253
-83.261
-75.015
-66.508
-58.303
-50.887
-44.954
-40.852
-38.307
-36.49
-33.549
-27.07
-15.306
3.335
30.975
69.447
119.794
182.245
253.938
329.096
403.103
472.707
537.964
601.295
660.25
705.37
721.597
695.399
621.976
509.002
371.91
222.787
71.699
-75.323
-212.523
-326.112
-406.433
-448.592
-451.823
-425.904
-379.854
-322.748
-267.203
-220.639
-188.04
-169.187
-155.855
-141.939
-124.79
-105.454
-89.987
-82.169
-81.643
-86.451
-92.629
-96.775
-97.973
-96.173
-91.67
-85.151
-77.259
-68.51
-59.82
-52.416
-46.925
-43.601
-42.516
-43.286
-45.47
-48.697
-52.408
-56.019
-59.198
-61.74
-63.524
-64.56
-64.834
-64.332
-63.118
-61.273
-58.859
-55.926
-52.535
-48.763
-44.735
-40.61
-36.518
-32.543
-28.747
-25.171
-21.858
-18.857
-16.193
-13.862
-11.854
-10.163
-8.784
-7.718
-6.944
-6.418
-6.088
-5.895
-5.792
-5.749
-5.738
-5.738
-5.73
-5.699
-5.638
-5.549
-5.43
-5.274
-5.071
-4.81
-4.484
-4.093
-3.637
-3.116
-2.53
-1.879
-1.162
-0.381
0.465
1.378
2.36
3.413
4.537
5.732
6.993
8.316
9.696
11.129
12.608
14.124
15.672
17.244
18.833
20.432
22.033
23.63
25.213
26.777
28.312
29.81
31.264
32.665
34.006
35.277
36.473
37.585
38.606
39.531
40.353
41.068
41.671
42.157
42.522
42.763
42.878
42.865
42.722
42.447
42.041
41.505
40.838
40.043
39.122
38.078
36.913
35.63
34.235
32.73
31.122
29.416
27.617
25.732
23.769
21.734
19.636
17.482
15.283
13.046
10.78
8.495
6.2
3.903
1.614
-0.658
-2.906
-5.12
-7.292
-9.415
-11.48
-13.481
-15.408
-17.257
-19.02
-20.691
-22.264
-23.734
-25.097
-26.348
-27.483
-28.5
-29.395
-30.166
-30.813
-31.333
-31.727
-31.995
-32.138
-32.157
-32.055
-31.836
-31.503
-31.06
-30.511
-29.863
-29.12
-28.288
-27.373
-26.381
-25.318
-24.19
-23.005
-21.77
-20.491
-19.177
-17.836
-16.476
-15.106
-13.735
-12.369
-11.019
-9.692
-8.397
-7.143
-5.936
-4.787
-3.702
-2.691
-1.76
-0.916
-0.166
0.486
1.034
1.476
1.81
2.032
2.145
2.147
2.04
1.825
1.503
1.076
0.545
-0.088
-0.819
-1.647
-2.566
-3.57
-4.648
-5.792
-6.987
-8.222
-9.483
-10.757
-12.032
-13.293
-14.529
-15.729
-16.881
-17.971
-18.98
-19.887
-20.675
-21.331
-21.848
-22.222
-22.458
-22.565
-22.559
-22.455
-22.263
-21.987
-21.62
-21.144
-20.541
-19.793
-18.891
-17.842
-16.649
-15.316
-13.843
-12.228
-10.453
-8.492
-6.313
-3.876
-1.158
1.841
5.097
8.556
12.15
15.793
19.413
22.954
26.366
29.605
32.624
35.374
37.796
39.82
41.372
42.359
42.71
42.377
41.339
39.613
37.253
34.341
30.951
27.149
22.997
18.553
13.89
9.078
4.19
-0.7
-5.513
-10.154
-14.523
-18.533
-22.108
-25.198
-27.799
-29.933
-31.618
-32.894
-33.808
-34.419
-34.82
-35.09
-35.3
-35.532
-35.868
-36.422
-37.316
-38.652
-40.568
-43.242
-46.741
-51.037
-55.952
-61.079
-66.016
-70.417
-73.815
-75.729
-75.83
-73.976
-70.594
-66.646
-62.993
-60.383
-59.378
-60.278
-63.342
-68.465
-74.363
-78.907
-79.831
-74.661
-61.445
-38.758
-4.936
41.266
99.676
169.178
248.017
331.999
415.758
494.724
563.299
619.721
667.209
704.898
730.477
736.919
708.521
636.985
520.46
364.589
190.243
18.751
-129.711
-239.154
-308.139
-342.483
-353.302
-351.774
-341.86
-324.015
-296.292
-258.723
-216.023
-173.846
-137.979
-112.38
-97.729
-93.121
-96.803
-106.069
-117.972
-129.989
-139.618
-144.926
-145.176
-140.215
-130.437
-117.066
-101.581
-85.44
-70.289
-57.293
-46.946
-39.5
-34.852
-32.621
-32.43
-33.771
-36.021
-38.754
-41.707
-44.724
-47.797
-50.892
-53.907
-56.751
-59.297
-61.437
-63.108
-64.246
-64.803
-64.765
-64.133
-62.952
-61.305
-59.268
-56.915
-54.298
-51.443
-48.401
-45.239
-42.04
-38.917
-35.948
-33.173
-30.629
-28.337
-26.305
-24.543
-23.035
-21.737
-20.619
-19.654
-18.825
-18.127
-17.545
-17.049
-16.607
-16.179
-15.734
-15.255
-14.724
-14.127
-13.454
-12.696
-11.854
-10.941
-9.961
-8.915
-7.804
-6.624
-5.375
-4.061
-2.686
-1.254
0.232
1.768
3.35
4.972
6.63
8.321
10.042
11.79
13.562
15.352
17.156
18.965
20.774
22.575
24.362
26.126
27.861
29.559
31.216
32.825
34.38
35.874
37.303
38.659
39.938
41.133
42.237
43.247
44.155
44.958
45.65
46.227
46.684
47.017
47.224
47.3
47.244
47.052
46.724
46.259
45.656
44.917
44.042
43.034
41.895
40.628
39.238
37.729
36.105
34.372
32.536
30.601
28.576
26.465
24.278
22.022
19.705
17.336
14.924
12.479
10.01
7.528
5.041
2.561
0.096
-2.343
-4.746
-7.103
-9.405
-11.643
-13.807
-15.889
-17.881
-19.777
-21.57
-23.254
-24.825
-26.278
-27.609
-28.816
-29.897
-30.848
-31.669
-32.356
-32.908
-33.332
-33.63
-33.806
-33.864
-33.8
-33.62
-33.339
-32.958
-32.46
-31.834
-31.068
-30.165
-29.164
-28.078
-26.882
-25.602
-24.32
-23.103
-22.02
-21.092
-20.233
-19.416
-18.744
-18.14
-17.246
-15.963
-14.418
-12.57
-10.78
-8.454
-3.314
4.37
12.406
17.541
13.327
-0.457
-17.192
-30.489
-31.251
-18.064
0.287
16.958
24.815
21.944
14.861
7.782
3.334
2.607
2.972
3.078
3.058
2.799
2.689
2.875
2.999
2.94
2.77
2.487
2.079
1.567
0.973
0.336
-0.273
-0.824
-1.338
-1.814
-2.242
-2.614
-2.919
-3.15
-3.308
-3.388
-3.379
-3.273
-3.065
-2.748
-2.321
-1.781
-1.127
-0.36
0.52
1.507
2.596
3.782
5.055
6.407
7.827
9.304
10.827
12.383
13.959
15.543
17.119
18.674
20.19
21.652
23.043
24.346
25.543
26.618
27.552
28.333
28.949
29.39
29.646
29.705
29.553
29.18
28.58
27.748
26.683
25.39
23.877
22.166
20.292
18.291
16.201
14.054
11.875
9.695
7.546
5.463
3.488
1.652
-0.017
-1.492
-2.752
-3.786
-4.595
-5.223
-5.756
-6.278
-6.877
-7.631
-8.581
-9.8
-11.367
-13.363
-15.878
-18.97
-22.673
-27.05
-32.199
-38.121
-44.685
-51.582
-58.289
-64.291
-69.175
-72.489
-73.689
-72.41
-68.642
-62.757
-55.637
-48.26
-41.219
-35.077
-30.6
-28.159
-27.435
-27.446
-26.188
-21.18
-10.576
7.401
35.068
74.233
125.762
189.762
263.275
340.87
418.397
490.953
556.456
617.072
669.919
710.73
731.085
714.893
655.172
550.308
403.778
234.344
58.581
-106.258
-238.802
-332.529
-386.509
-406.241
-408.134
-400.413
-385.673
-364.398
-331.659
-287.693
-237.927
-187.402
-142.066
-106.14
-80.463
-64.738
-57.883
-57.921
-62.477
-69.57
-77.078
-82.466
-84.308
-82.106
-75.81
-66.286
-54.791
-42.265
-29.895
-19.18
-10.929
-5.505
-3.037
-3.094
-5.145
-8.797
-13.466
-18.488
-23.46
-28.065
-32.045
-35.356
-37.948
-39.755
-40.82
-41.18
-40.843
-39.848
-38.236
-36.046
-33.364
-30.284
-26.885
-23.261
-19.5
-15.704
-12.001
-8.488
-5.227
-2.263
0.387
2.704
4.67
6.291
7.595
8.616
9.388
9.941
10.296
10.483
10.537
10.5
10.417
10.324
10.243
10.192
10.185
10.236
10.356
10.549
10.809
11.134
11.524
11.983
12.517
13.129
13.818
14.582
15.42
16.333
17.32
18.38
19.511
20.712
21.981
23.316
24.718
26.183
27.706
29.283
30.906
32.569
34.264
35.985
37.721
39.465
41.208
42.943
44.661
46.354
48.013
49.63
51.195
52.7
54.137
55.496
56.768
57.946
59.021
59.986
60.832
61.554
62.144
62.597
62.906
63.069
63.08
62.938
62.64
62.184
61.57
60.798
59.87
58.785
57.547
56.158
54.621
52.94
51.119
49.163
47.078
44.87
42.545
40.11
37.574
34.945
32.231
29.442
26.588
23.679
20.726
17.739
14.73
11.711
8.691
5.683
2.697
-0.256
-3.167
-6.025
-8.821
-11.547
-14.194
-16.755
-19.223
-21.59
-23.85
-25.999
-28.029
-29.938
-31.72
-33.373
-34.894
-36.281
-37.532
-38.646
-39.625
-40.468
-41.178
-41.757
-42.207
-42.534
-42.741
-42.834
-42.82
-42.703
-42.492
-42.193
-41.814
-41.362
-40.844
-40.269
-39.644
-38.977
-38.274
-37.545
-36.796
-36.034
-35.267
-34.501
-33.745
-33.004
-32.285
-31.594
-30.937
-30.32
-29.747
-29.225
-28.755
-28.343
-27.989
-27.697
-27.467
-27.299
-27.194
-27.149
-27.163
-27.233
-27.355
-27.527
-27.743
-27.999
-28.289
-28.608
-28.949
-29.306
-29.671
-30.039
-30.402
-30.753
-31.084
-31.388
-31.657
-31.884
-32.061
-32.18
-32.235
-32.217
-32.12
-31.938
-31.665
-31.296
-30.828
-30.256
-29.578
-28.795
-27.905
-26.909
-25.811
-24.612
-23.318
-21.933
-20.466
-18.922
-17.311
-15.643
-13.929
-12.182
-10.416
-8.646
-6.888
-5.157
-3.471
-1.845
-0.297
1.159
2.51
3.74
4.837
5.783
6.563
7.164
7.573
7.778
7.771
7.544
7.093
6.42
5.53
4.425
3.106
1.566
-0.203
-2.195
-4.41
-6.838
-9.463
-12.266
-15.22
-18.28
-21.406
-24.558
-27.699
-30.808
-33.855
-36.805
-39.614
-42.226
-44.581
-46.642
-48.369
-49.727
-50.722
-51.367
-51.703
-51.813
-51.75
-51.576
-51.375
-51.212
-51.182
-51.398
-51.937
-52.932
-54.573
-56.937
-60.009
-63.62
-67.337
-70.703
-73.344
-74.77
-74.467
-72.182
-67.93
-62.271
-56.345
-51.321
-48.151
-47.633
-50.392
-56.573
-65.645
-76.051
-85.217
-90.143
-87.862
-75.814
-51.771
-14.011
38.321
104.826
183.597
270.199
358.258
441.859
516.069
579.584
633.586
676.381
702.591
701.916
663.142
581.589
460.093
310.306
148.685
-8.938
-146.877
-254.951
-329.795
-373.479
-395.358
-404.498
-405.314
-398.463
-380.892
-351.586
-313.45
-271.015
-229.42
-191.737
-159.35
-133.648
-114.916
-102.695
-96.252
-94.188
-95.257
-98.698
-103.184
-106.749
-108.167
-106.961
-103.18
-97.51
-90.532
-82.541
-74.265
-66.869
-61.077
-57.199
-55.194
-54.561
-54.87
-55.868
-57.163
-58.259
-58.82
-58.625
-57.563
-55.717
-53.165
-49.947
-46.148
-41.856
-37.155
-32.152
-26.973
-21.741
-16.575
-11.575
-6.811
-2.336
1.804
5.568
8.92
11.851
14.364
16.469
18.171
19.467
20.368
20.904
21.123
21.088
20.847
20.437
19.888
19.228
18.483
17.674
16.819
15.92
14.986
14.029
13.063
12.107
11.177
10.282
9.427
8.618
7.862
7.166
6.538
5.982
5.504
5.11
4.809
4.61
4.518
4.538
4.67
4.915
5.272
5.739
6.315
6.993
7.769
8.637
9.592
10.629
11.738
12.914
14.147
15.429
16.75
18.101
19.472
20.851
22.23
23.597
24.942
26.256
27.529
28.749
29.909
30.999
32.009
32.931
33.757
34.478
35.085
35.574
35.935
36.165
36.258
36.209
36.015
35.674
35.182
34.538
33.742
32.793
31.692
30.441
29.042
27.499
25.815
23.997
22.049
19.979
17.793
15.499
13.106
10.622
8.057
5.421
2.723
-0.025
-2.812
-5.627
-8.458
-11.293
-14.12
-16.927
-19.703
-22.436
-25.114
-27.726
-30.262
-32.712
-35.065
-37.312
-39.444
-41.453
-43.332
-45.074
-46.674
-48.128
-49.43
-50.578
-51.571
-52.406
-53.084
-53.604
-53.969
-54.179
-54.237
-54.148
-53.915
-53.543
-53.038
-52.406
-51.654
-50.79
-49.821
-48.756
-47.602
-46.369
-45.065
-43.7
-42.283
-40.823
-39.33
-37.812
-36.28
-34.741
-33.205
-31.679
-30.173
-28.692
-27.245
-25.837
-24.476
-23.166
-21.913
-20.72
-19.592
-18.531
-17.541
-16.622
-15.777
-15.004
-14.306
-13.679
-13.124
-12.639
-12.22
-11.865
-11.57
-11.332
-11.144
-11.003
-10.903
-10.836
-10.797
-10.778
-10.773
-10.774
-10.773
-10.763
-10.735
-10.681
-10.593
-10.463
-10.284
-10.047
-9.746
-9.373
-8.922
-8.388
-7.765
-7.049
-6.235
-5.32
-4.302
-3.18
-1.951
-0.616
0.824
2.368
4.013
5.754
7.588
9.507
11.503
13.565
15.682
17.843
20.035
22.245
24.457
26.659
28.838
30.981
33.076
35.107
37.059
38.915
40.66
42.279
43.761
45.092
46.259
47.253
48.071
48.709
49.161
49.42
49.466
49.282
48.863
48.207
47.316
46.202
44.878
43.365
41.705
39.938
38.103
36.239
34.364
32.502
30.692
28.978
27.421
26.081
24.986
24.157
23.611
23.324
23.265
23.374
23.542
23.677
23.689
23.464
22.918
21.955
20.451
18.328
15.449
11.629
6.832
1.107
-5.356
-12.132
-18.845
-25.195
-30.727
-34.952
-37.571
-38.394
-37.761
-36.485
-35.135
-34.14
-33.795
-34.203
-35.517
-37.683
-39.687
-39.824
-36.431
-27.66
-12.188
10.841
42.933
85.492
138.779
202.268
273.28
346.648
418.347
485.847
549.436
611.578
670.336
717.3
737.333
715.214
645.204
533.56
397.975
257.445
123.733
1.466
-110.399
-212.115
-300.051
-369.047
-414.694
-435.747
-433.713
-411.959
-375.301
-328.519
-276.404
-223.913
-174.65
-131.425
-96.94
-72.263
-56.946
-49.963
-49.415
-52.903
-58.715
-65.025
-69.51
-70.975
-69.16
-64.181
-56.922
-48.498
-39.613
-31.233
-24.665
-20.553
-19.107
-20.291
-23.56
-28.34
-34.232
-40.674
-47.016
-52.852
-57.885
-61.944
-65.08
-67.313
-68.64
-69.124
-68.829
-67.82
-66.191
-64.026
-61.392
-58.396
-55.15
-51.77
-48.392
-45.119
-42.033
-39.201
-36.656
-34.419
-32.501
-30.898
-29.598
-28.582
-27.817
-27.267
-26.903
-26.685
-26.571
-26.516
-26.465
-26.376
-26.22
-25.974
-25.623
-25.159
-24.57
-23.853
-23.011
-22.046
-20.959
-19.749
-18.413
-16.952
-15.367
-13.664
-11.848
-9.926
-7.899
-5.772
-3.55
-1.237
1.16
3.635
6.186
8.805
11.483
14.209
16.971
19.758
22.557
25.356
28.141
30.899
33.617
36.283
38.885
41.412
43.851
46.192
48.423
50.533
52.513
54.354
56.045
57.579
58.948
60.146
61.166
62.003
62.654
63.115
63.383
63.458
63.339
63.028
62.525
61.835
60.961
59.909
58.684
57.294
55.747
54.05
52.213
50.246
48.157
45.958
43.659
41.271
38.804
36.269
33.679
31.045
28.377
25.688
22.988
20.289
17.601
14.936
12.304
9.715
7.178
4.703
2.3
-0.025
-2.264
-4.41
-6.456
-8.398
-10.231
-11.952
-13.557
-15.044
-16.411
-17.657
-18.782
-19.785
-20.667
-21.428
-22.07
-22.595
-23.005
-23.302
-23.49
-23.57
-23.548
-23.425
-23.207
-22.897
-22.5
-22.021
-21.466
-20.84
-20.149
-19.397
-18.592
-17.738
-16.842
-15.907
-14.939
-13.943
-12.924
-11.887
-10.836
-9.775
-8.711
-7.646
-6.586
-5.535
-4.499
-3.481
-2.486
-1.519
-0.585
0.312
1.167
1.975
2.733
3.436
4.082
4.666
5.189
5.649
6.047
6.384
6.662
6.883
7.047
7.158
7.218
7.227
7.186
7.097
6.963
6.787
6.576
6.334
6.069
5.789
5.505
5.225
4.964
4.73
4.533
4.384
4.295
4.282
4.364
4.556
4.866
5.3
5.862
6.548
7.353
8.263
9.252
10.3
11.388
12.5
13.63
14.775
15.933
17.1
18.27
19.447
20.651
21.907
23.248
24.709
26.328
28.155
30.256
32.69
35.498
38.709
42.326
46.336
50.712
55.413
60.395
65.583
70.878
76.168
81.321
86.215
90.738
94.763
98.145
100.751
102.464
103.193
102.891
101.531
99.112
95.661
91.224
85.894
79.804
73.109
65.983
58.587
51.053
43.526
36.172
29.146
22.6
16.661
11.403
6.89
3.165
0.217
-1.986
-3.53
-4.561
-5.217
-5.659
-6.06
-6.555
-7.305
-8.478
-10.186
-12.59
-15.887
-20.133
-25.298
-31.212
-37.446
-43.589
-49.326
-54.199
-57.703
-59.544
-59.594
-58.197
-56.239
-54.547
-53.692
-54.144
-56.276
-60.158
-65.532
-71.354
-75.65
-76.165
-70.855
-58.047
-35.969
-3.092
41.717
99.105
166.82
240.013
314.593
386.497
455.759
527.2
599.411
666.137
713.066
718.734
674.452
582.093
454.83
313.724
167.456
20.804
-122.923
-259.37
-371.385
-445.905
-478.575
-472.956
-445.4
-408.466
-368.202
-327.358
-282.54
-234.139
-186.167
-142.591
-109.074
-88.132
-78.824
-79.649
-88.12
-101.406
-117.576
-134.367
-148.807
-159.195
-164.918
-165.843
-162.723
-156.623
-148.279
-138.816
-129.835
-122.209
-116.307
-112.254
-109.624
-107.971
-107.031
-106.347
-105.371
-103.832
-101.612
-98.701
-95.28
-91.475
-87.348
-83.011
-78.564
-74.069
-69.584
-65.141
-60.754
-56.469
-52.344
-48.421
-44.734
-41.3
-38.12
-35.197
-32.527
-30.099
-27.9
-25.918
-24.15
-22.593
-21.243
-20.089
-19.114
-18.3
-17.627
-17.075
-16.625
-16.26
-15.966
-15.729
-15.542
-15.394
-15.278
-15.182
-15.095
-15.004
-14.898
-14.766
-14.598
-14.385
-14.12
-13.797
-13.412
-12.961
-12.442
-11.853
-11.191
-10.455
-9.645
-8.76
-7.801
-6.769
-5.667
-4.497
-3.264
-1.973
-0.629
0.762
2.193
3.657
5.148
6.656
8.175
9.695
11.209
12.709
14.185
15.63
17.036
18.394
19.697
20.937
22.108
23.204
24.219
25.148
25.986
26.729
27.373
27.914
28.349
28.676
28.893
28.996
28.986
28.861
28.62
28.265
27.797
27.216
26.525
25.725
24.821
23.816
22.712
21.516
20.23
18.861
17.413
15.893
14.306
12.659
10.959
9.211
7.422
5.599
3.749
1.879
-0.006
-1.898
-3.79
-5.676
-7.55
-9.404
-11.232
-13.029
-14.786
-16.499
-18.162
-19.769
-21.315
-22.795
-24.206
-25.543
-26.801
-27.978
-29.07
-30.074
-30.988
-31.809
-32.536
-33.168
-33.703
-34.141
-34.484
-34.73
-34.881
-34.938
-34.903
-34.779
-34.567
-34.269
-33.889
-33.43
-32.896
-32.29
-31.617
-30.882
-30.092
-29.252
-28.368
-27.447
-26.492
-25.51
-24.508
-23.491
-22.465
-21.436
-20.41
-19.398
-18.407
-17.447
-16.526
-15.65
-14.826
-14.059
-13.356
-12.721
-12.156
-11.66
-11.234
-10.886
-10.619
-10.444
-10.359
-10.353
-10.42
-10.557
-10.757
-11.014
-11.318
-11.647
-11.992
-12.358
-12.747
-13.167
-13.611
-14.059
-14.494
-14.896
-15.261
-15.606
-15.931
-16.222
-16.478
-16.693
-16.875
-17.057
-17.234
-17.37
-17.442
-17.422
-17.305
-17.118
-16.87
-16.551
-16.144
-15.6
-14.882
-13.988
-12.899
-11.599
-10.066
-8.244
-6.125
-3.759
-1.164
1.64
4.649
7.911
11.438
15.191
19.124
23.152
27.18
31.151
35.002
38.655
42.047
45.085
47.711
49.926
51.705
53.015
53.809
53.984
53.472
52.268
50.385
47.876
44.825
41.284
37.317
33.011
28.446
23.716
18.895
14.012
9.103
4.224
-0.55
-5.098
-9.313
-13.135
-16.535
-19.514
-22.091
-24.286
-26.15
-27.77
-29.259
-30.722
-32.214
-33.777
-35.461
-37.334
-39.511
-42.117
-45.236
-48.973
-53.45
-58.695
-64.66
-71.13
-77.645
-83.707
-88.862
-92.59
-94.375
-93.891
-91.048
-86.256
-80.436
-74.584
-69.577
-66.216
-65.279
-67.232
-71.925
-78.221
-84.016
-86.729
-83.709
-72.439
-50.283
-14.932
34.923
99.201
176.204
262.72
354.403
446.283
532.446
606.356
661.868
693.569
697.015
671.066
617.909
540.322
443.051
328.409
194.841
46.299
-109.046
-256.18
-372.684
-445.434
-471.747
-459.451
-427.161
-387.897
-348.187
-309.673
-267.792
-222.346
-176.595
-134.242
-100.95
-78.97
-67.074
-63.778
-66.737
-73.388
-82.197
-91.2
-97.672
-100.193
-98.396
-92.354
-83.03
-71.61
-58.883
-46.01
-34.548
-25.339
-18.759
-14.918
-13.375
-13.667
-15.469
-18.257
-21.444
-24.68
-27.725
-30.411
-32.693
-34.509
-35.791
-36.553
-36.83
-36.635
-35.97
-34.842
-33.274
-31.323
-29.068
-26.575
-23.886
-21.044
-18.106
-15.151
-12.283
-9.58
-7.08
-4.809
-2.783
-1.012
0.493
1.745
2.784
3.65
4.375
4.988
5.504
5.945
6.341
6.728
7.147
7.628
8.191
8.852
9.624
10.519
11.545
12.7
13.973
15.357
16.845
18.436
20.127
21.915
23.792
25.749
27.779
29.873
32.023
34.22
36.453
38.711
40.986
43.27
45.553
47.829
50.086
52.315
54.505
56.646
58.728
60.742
62.676
64.524
66.277
67.927
69.469
70.898
72.208
73.395
74.454
75.383
76.179
76.839
77.36
77.743
77.985
78.087
78.049
77.871
77.555
77.103
76.517
75.8
74.955
73.986
72.896
71.69
70.373
68.948
67.421
65.797
64.079
62.275
60.388
58.423
56.387
54.284
52.12
49.898
47.625
45.305
42.945
40.549
38.125
35.679
33.216
30.744
28.269
25.797
23.336
20.892
18.47
16.077
13.717
11.397
9.123
6.899
4.73
2.622
0.578
-1.396
-3.298
-5.122
-6.866
-8.528
-10.104
-11.592
-12.99
-14.296
-15.509
-16.629
-17.654
-18.586
-19.425
-20.174
-20.835
-21.412
-21.909
-22.331
-22.683
-22.971
-23.2
-23.377
-23.508
-23.598
-23.655
-23.685
-23.695
-23.693
-23.685
-23.678
-23.68
-23.698
-23.738
-23.808
-23.914
-24.061
-24.256
-24.504
-24.812
-25.186
-25.629
-26.146
-26.741
-27.417
-28.177
-29.022
-29.951
-30.962
-32.055
-33.226
-34.472
-35.787
-37.166
-38.604
-40.095
-41.634
-43.213
-44.825
-46.462
-48.116
-49.779
-51.443
-53.095
-54.723
-56.316
-57.863
-59.355
-60.781
-62.129
-63.39
-64.551
-65.605
-66.546
-67.364
-68.046
-68.58
-68.95
-69.152
-69.194
-69.08
-68.809
-68.386
-67.815
-67.107
-66.28
-65.339
-64.276
-63.085
-61.757
-60.3
-58.737
-57.085
-55.368
-53.595
-51.757
-49.857
-47.911
-45.92
-43.88
-41.782
-39.603
-37.359
-35.104
-32.886
-30.754
-28.735
-26.832
-25.058
-23.423
-21.944
-20.651
-19.563
-18.688
-18.057
-17.709
-17.682
-18.031
-18.75
-19.774
-21.047
-22.496
-24.063
-25.72
-27.421
-29.124
-30.791
-32.373
-33.827
-35.105
-36.134
-36.85
-37.187
-37.076
-36.52
-35.575
-34.313
-32.84
-31.246
-29.597
-27.996
-26.536
-25.313
-24.44
-23.994
-24.105
-24.975
-26.689
-29.265
-32.571
-36.22
-39.82
-43.026
-45.344
-46.268
-45.459
-42.723
-38.463
-33.61
-28.988
-25.381
-23.413
-23.503
-26.089
-31.221
-37.743
-43.609
-46.534
-43.924
-33.72
-14.192
16.942
61.537
119.934
191.12
271.752
356.226
439.677
518.059
589.66
654.54
709.726
748.091
756.989
724.101
645.326
526.789
385.164
238.619
99.251
-27.358
-141.102
-241.32
-324.539
-386.671
-424.437
-437.948
-430.121
-404.793
-367.005
-321.952
-274.349
-228.831
-188.758
-155.909
-131.394
-115.35
-106.686
-103.705
-104.322
-106.085
-107.071
-106.134
-102.345
-95.419
-85.757
-74.078
-61.457
-49.237
-38.563
-30.107
-24.303
-21.231
-20.663
-22.257
-25.476
-29.614
-33.956
-38.016
-41.502
-44.246
-46.18
-47.222
-47.315
-46.482
-44.807
-42.367
-39.22
-35.425
-31.035
-26.164
-20.973
-15.634
-10.329
-5.19
-0.3
4.266
8.443
12.178
15.435
18.206
20.509
22.36
23.77
24.759
25.35
25.588
25.534
25.25
24.804
24.247
23.618
22.95
22.271
21.604
20.967
20.37
19.814
19.308
18.863
18.49
18.202
18.006
17.905
17.903
18.001
18.202
18.507
18.919
19.44
20.072
20.816
21.676
22.653
23.747
24.955
26.272
27.691
29.204
30.803
32.477
34.216
36.009
37.845
39.712
41.6
43.498
45.394
47.278
49.138
50.963
52.742
54.465
56.121
57.7
59.192
60.589
61.882
63.062
64.124
65.058
65.86
66.523
67.042
67.412
67.628
67.688
67.59
67.333
66.915
66.337
65.602
64.71
63.666
62.473
61.134
59.655
58.04
56.295
54.426
52.439
50.34
48.137
45.837
43.448
40.978
38.436
35.83
33.17
30.466
27.725
24.96
22.181
19.397
16.621
13.863
11.135
8.448
5.812
3.24
0.741
-1.676
-3.999
-6.22
-8.331
-10.324
-12.192
-13.927
-15.523
-16.975
-18.279
-19.429
-20.423
-21.259
-21.934
-22.447
-22.799
-22.989
-23.02
-22.894
-22.614
-22.185
-21.612
-20.902
-20.061
-19.099
-18.024
-16.847
-15.579
-14.231
-12.816
-11.346
-9.835
-8.294
-6.738
-5.18
-3.632
-2.108
-0.621
0.818
2.195
3.501
4.723
5.851
6.876
7.79
8.584
9.252
9.789
10.188
10.448
10.565
10.539
10.369
10.058
9.608
9.024
8.311
7.479
6.534
5.487
4.349
3.134
1.852
0.52
-0.85
-2.242
-3.641
-5.032
-6.399
-7.726
-8.998
-10.199
-11.314
-12.329
-13.231
-14.005
-14.641
-15.127
-15.455
-15.615
-15.602
-15.408
-15.03
-14.465
-13.712
-12.773
-11.651
-10.351
-8.879
-7.244
-5.459
-3.537
-1.493
0.654
2.886
5.186
7.531
9.898
12.261
14.6
16.892
19.116
21.249
23.268
25.15
26.874
28.424
29.784
30.938
31.872
32.567
33.011
33.204
33.149
32.846
32.293
31.477
30.393
29.045
27.441
25.593
23.51
21.199
18.675
15.975
13.14
10.214
7.248
4.255
1.246
-1.754
-4.726
-7.606
-10.305
-12.777
-14.991
-16.923
-18.596
-19.986
-21.002
-21.728
-22.371
-23.131
-24.273
-25.851
-27.65
-29.635
-32.023
-34.844
-37.891
-40.816
-42.934
-43.934
-44.208
-43.902
-42.752
-40.626
-37.59
-34.013
-31.028
-29.554
-29.488
-30.933
-34.328
-39.837
-47.564
-57.164
-67.085
-75.408
-80.834
-81.61
-75.558
-60.865
-35.631
1.724
51.634
113.557
186.553
267.247
349.899
429.486
501.558
565.294
622.645
671.29
703.62
706.278
665.809
578.707
453.308
307.377
159.618
21.794
-101.493
-210.603
-305.249
-382.079
-437.426
-468.24
-474.033
-457.549
-423.103
-375.988
-321.761
-265.839
-212.511
-165.231
-127.18
-99.944
-83.548
-77.063
-78.428
-84.914
-94.394
-104.676
-113.063
-117.984
-118.842
-115.576
-109.069
-100.576
-90.985
-81.404
-73.289
-67.414
-64.096
-63.391
-64.793
-67.693
-71.62
-75.997
-80.182
-83.817
-86.674
-88.588
-89.589
-89.709
-88.952
-87.411
-85.184
-82.337
-78.942
-75.095
-70.888
-66.462
-61.986
-57.568
-53.292
-49.224
-45.409
-41.905
-38.758
-35.982
-33.567
-31.506
-29.792
-28.419
-27.38
-26.633
-26.127
-25.803
-25.599
-25.469
-25.379
-25.295
-25.193
-25.053
-24.859
-24.605
-24.293
-23.918
-23.47
-22.941
-22.32
-21.604
-20.794
-19.89
-18.894
-17.807
-16.631
-15.369
-14.024
-12.597
-11.088
-9.5
-7.833
-6.09
-4.279
-2.405
-0.478
1.493
3.497
5.522
7.557
9.59
11.608
13.6
15.556
17.463
19.312
21.093
22.794
24.408
25.923
27.333
28.628
29.802
30.848
31.76
32.533
33.162
33.645
33.979
34.162
34.194
34.073
33.801
33.378
32.807
32.091
31.232
30.235
29.106
27.849
26.472
24.98
23.382
21.684
19.893
18.018
16.066
14.045
11.963
9.827
7.645
5.425
3.174
0.901
-1.387
-3.683
-5.979
-8.268
-10.543
-12.796
-15.022
-17.212
-19.361
-21.461
-23.509
-25.496
-27.419
-29.272
-31.05
-32.75
-34.366
-35.895
-37.335
-38.682
-39.933
-41.086
-42.141
-43.095
-43.947
-44.697
-45.345
-45.89
-46.333
-46.674
-46.915
-47.056
-47.099
-47.047
-46.901
-46.666
-46.344
-45.941
-45.459
-44.905
-44.284
-43.6
-42.859
-42.065
-41.226
-40.345
-39.43
-38.486
-37.519
-36.536
-35.541
-34.541
-33.542
-32.548
-31.565
-30.597
-29.648
-28.722
-27.823
-26.955
-26.12
-25.322
-24.562
-23.844
-23.169
-22.537
-21.947
-21.399
-20.889
-20.417
-19.978
-19.567
-19.179
-18.81
-18.455
-18.11
-17.769
-17.426
-17.076
-16.713
-16.331
-15.924
-15.483
-14.999
-14.466
-13.874
-13.22
-12.499
-11.705
-10.835
-9.882
-8.841
-7.717
-6.51
-5.218
-3.837
-2.361
-0.788
0.866
2.575
4.336
6.158
8.044
9.995
11.982
13.96
15.919
17.894
19.864
21.741
23.436
24.865
25.993
26.91
27.656
28.124
28.396
28.846
29.572
30.468
31.612
32.603
34.091
38.401
45.092
51.94
55.48
49.008
32.639
13.146
-2.825
-5.802
5.218
21.196
35.109
39.508
32.774
21.685
10.568
2.262
-2.193
-5.472
-8.85
-12.15
-15.398
-18.142
-20.22
-21.965
-23.5
-24.77
-25.796
-26.657
-27.383
-28.003
-28.589
-29.175
-29.836
-30.725
-31.947
-33.578
-35.754
-38.612
-42.195
-46.453
-51.156
-55.869
-60.169
-63.705
-66.069
-66.753
-65.408
-62.036
-57.061
-51.379
-45.89
-41.039
-37.172
-34.896
-34.505
-35.539
-36.827
-36.243
-31.388
-20.681
-2.69
24.611
62.781
112.278
172.737
242.325
318.082
397.432
476.199
547.456
604.86
644.055
664.464
670.181
664.837
646.057
604.762
529.035
409.021
246.57
59.493
-126.039
-279.75
-379.433
-422.103
-417.612
-386.133
-348.876
-315.245
-287.324
-261.33
-230.795
-195.694
-159.134
-124.989
-98.256
-80.208
-69.243
-63.865
-62.205
-62.614
-64.434
-66.536
-67.033
-65.069
-60.635
-53.951
-45.771
-36.876
-27.625
-18.72
-11.338
-6.098
-3.216
-2.691
-4.065
-6.897
-10.928
-15.741
-20.779
-25.653
-30.042
-33.717
-36.665
-38.868
-40.291
-40.956
-40.887
-40.104
-38.658
-36.612
-34.024
-30.978
-27.56
-23.85
-19.94
-15.934
-11.949
-8.089
-4.423
-0.99
2.193
5.109
7.739
10.079
12.147
13.974
15.594
17.037
18.324
19.48
20.543
21.555
22.565
23.61
24.712
25.885
27.142
28.493
29.947
31.505
33.159
34.902
36.73
38.639
40.633
42.707
44.854
47.067
49.337
51.657
54.023
56.427
58.862
61.321
63.798
66.287
68.782
71.278
73.765
76.232
78.67
81.068
83.415
85.699
87.91
90.035
92.066
93.991
95.804
97.495
99.056
100.48
101.76
102.89
103.864
104.678
105.328
105.81
106.122
106.262
106.229
106.021
105.64
105.085
104.359
103.462
102.398
101.17
99.783
98.242
96.552
94.721
92.755
90.664
88.454
86.135
83.716
81.207
78.617
75.957
73.235
70.462
67.649
64.806
61.941
59.066
56.189
53.321
50.469
47.644
44.854
42.106
39.409
36.771
34.199
31.7
29.281
26.947
24.705
22.558
20.512
18.569
16.733
15.005
13.387
11.88
10.485
9.201
8.029
6.966
6.012
5.163
4.417
3.771
3.22
2.761
2.387
2.094
1.877
1.732
1.652
1.633
1.669
1.755
1.885
2.055
2.259
2.49
2.743
3.012
3.292
3.579
3.867
4.152
4.429
4.694
4.944
5.173
5.378
5.556
5.701
5.812
5.885
5.919
5.912
5.863
5.773
5.642
5.473
5.268
5.029
4.756
4.452
4.119
3.758
3.369
2.951
2.507
2.039
1.552
1.051
0.542
0.032
-0.473
-0.963
-1.431
-1.868
-2.27
-2.636
-2.96
-3.236
-3.452
-3.594
-3.654
-3.63
-3.52
-3.322
-3.042
-2.691
-2.29
-1.876
-1.47
-1.084
-0.721
-0.371
-0.026
0.316
0.664
1.024
1.403
1.816
2.269
2.757
3.297
3.912
4.65
5.59
6.778
8.225
9.929
11.861
13.979
16.242
18.582
20.909
23.149
25.228
27.094
28.725
30.069
31.057
31.598
31.559
30.848
29.422
27.255
24.344
20.726
16.45
11.615
6.382
0.881
-4.777
-10.503
-16.253
-21.955
-27.509
-32.807
-37.706
-42.086
-45.878
-49.018
-51.449
-53.178
-54.25
-54.773
-54.946
-54.922
-54.801
-54.685
-54.644
-54.774
-55.212
-56.08
-57.485
-59.572
-62.509
-66.376
-71.123
-76.479
-81.931
-86.911
-90.906
-93.398
-93.801
-91.792
-87.533
-81.638
-75.282
-69.722
-65.726
-63.927
-65.092
-69.384
-76.017
-83.385
-88.75
-89.008
-81.775
-64.782
-35.66
7.265
64.638
135.724
218.003
306.556
395.168
477.909
549.489
608.247
655.193
688.606
703.522
690.564
639.004
544.959
411.582
249.969
76.656
-91.839
-237.691
-348.019
-418.33
-451.64
-460.271
-456.484
-446.403
-430.924
-406.294
-370.613
-326.484
-279.096
-234.354
-196.081
-166.254
-145.399
-132.527
-126.587
-126.238
-129.43
-134.613
-140.08
-143.531
-143.756
-140.468
-133.747
-124.43
-113.586
-101.945
-90.528
-80.702
-73.196
-68.313
-66.096
-66.085
-67.789
-70.848
-74.766
-78.978
-83.121
-86.93
-90.192
-92.85
-94.855
-96.154
-96.766
-96.727
-96.054
-94.77
-92.926
-90.577
-87.804
-84.71
-81.358
-77.803
-74.113
-70.362
-66.65
-63.086
-59.739
-56.648
-53.842
-51.341
-49.16
-47.304
-45.747
-44.446
-43.363
-42.463
-41.722
-41.122
-40.635
-40.227
-39.862
-39.497
-39.101
-38.655
-38.136
-37.53
-36.822
-36.003
-35.073
-34.042
-32.912
-31.684
-30.359
-28.933
-27.409
-25.79
-24.081
-22.287
-20.412
-18.464
-16.448
-14.374
-12.247
-10.078
-7.872
-5.636
-3.379
-1.111
1.159
3.417
5.653
7.854
10.008
12.102
14.123
16.061
17.902
19.638
21.257
22.749
24.105
25.317
26.376
27.274
28.005
28.563
28.942
29.14
29.151
28.974
28.608
28.051
27.306
26.373
25.256
23.958
22.484
20.84
19.033
17.069
14.958
12.708
10.33
7.833
5.228
2.529
-0.254
-3.108
-6.02
-8.977
-11.967
-14.976
-17.99
-20.998
-23.985
-26.939
-29.847
-32.698
-35.478
-38.178
-40.786
-43.292
-45.687
-47.962
-50.109
-52.121
-53.993
-55.718
-57.293
-58.714
-59.98
-61.088
-62.039
-62.832
-63.47
-63.955
-64.289
-64.477
-64.524
-64.435
-64.217
-63.876
-63.421
-62.86
-62.2
-61.451
-60.622
-59.723
-58.762
-57.75
-56.695
-55.607
-54.496
-53.37
-52.238
-51.109
-49.991
-48.891
-47.816
-46.774
-45.769
-44.808
-43.895
-43.034
-42.229
-41.483
-40.798
-40.176
-39.617
-39.122
-38.69
-38.319
-38.009
-37.755
-37.555
-37.405
-37.3
-37.236
-37.207
-37.209
-37.235
-37.28
-37.337
-37.399
-37.46
-37.513
-37.551
-37.568
-37.556
-37.51
-37.422
-37.288
-37.1
-36.854
-36.544
-36.165
-35.711
-35.178
-34.562
-33.859
-33.067
-32.184
-31.207
-30.137
-28.975
-27.72
-26.376
-24.946
-23.431
-21.837
-20.17
-18.434
-16.638
-14.788
-12.894
-10.967
-9.019
-7.062
-5.11
-3.176
-1.273
0.584
2.381
4.106
5.749
7.295
8.733
10.049
11.227
12.254
13.12
13.813
14.323
14.642
14.764
14.689
14.418
13.95
13.284
12.411
11.321
10.015
8.496
6.767
4.844
2.739
0.476
-1.909
-4.378
-6.893
-9.418
-11.929
-14.4
-16.793
-19.064
-21.159
-23.021
-24.612
-25.903
-26.865
-27.497
-27.812
-27.847
-27.672
-27.358
-26.98
-26.629
-26.392
-26.371
-26.681
-27.422
-28.73
-30.781
-33.641
-37.3
-41.636
-46.32
-51.023
-55.446
-59.136
-61.623
-62.627
-61.952
-59.79
-56.885
-53.86
-51.306
-49.978
-50.245
-52.256
-56.341
-61.864
-67.01
-70.192
-68.183
-57.654
-37.952
-7.202
34.088
84.055
144.688
214.268
292.509
379.815
471.342
566.726
660.307
741.056
798.133
812.958
776.225
690.565
565.909
424.266
282.182
147.359
23.246
-92.792
-199.695
-292.185
-365.512
-415.572
-441.932
-446.912
-433.05
-404.048
-364.264
-318.038
-269.778
-222.852
-179.355
-141.319
-110.908
-88.971
-75.08
-68.042
-65.948
-67.199
-70.758
-75.025
-77.81
-77.837
-74.71
-68.626
-60.503
-51.12
-40.936
-30.864
-22.196
-15.731
-11.824
-10.434
-11.036
-13.166
-16.495
-20.52
-24.628
-28.339
-31.308
-33.367
-34.556
-34.917
-34.466
-33.251
-31.332
-28.776
-25.668
-22.09
-18.106
-13.789
-9.233
-4.537
0.185
4.8
9.199
13.307
17.072
20.472
23.495
26.129
28.371
30.242
31.773
32.998
33.952
34.658
35.148
35.462
35.651
35.77
35.862
35.957
36.079
36.243
36.464
36.757
37.128
37.574
38.095
38.692
39.369
40.133
40.988
41.934
42.97
44.091
45.296
46.586
47.958
49.408
50.935
52.533
54.201
55.937
57.734
59.587
61.486
63.42
65.38
67.353
69.328
71.291
73.23
75.131
76.984
78.776
80.497
82.136
83.68
85.121
86.448
87.651
88.721
89.649
90.428
91.049
91.506
91.794
91.907
91.841
91.592
91.158
90.538
89.73
88.736
87.556
86.192
84.649
82.93
81.042
78.992
76.786
74.434
71.945
69.328
66.593
63.752
60.814
57.792
54.695
51.537
48.328
45.081
41.809
38.522
35.235
31.958
28.705
25.487
22.316
19.203
16.159
13.194
10.319
7.543
4.874
2.321
-0.11
-2.412
-4.579
-6.609
-8.497
-10.24
-11.839
-13.293
-14.602
-15.767
-16.791
-17.676
-18.427
-19.047
-19.541
-19.915
-20.175
-20.328
-20.38
-20.34
-20.215
-20.015
-19.748
-19.423
-19.049
-18.635
-18.19
-17.724
-17.245
-16.761
-16.282
-15.815
-15.367
-14.945
-14.556
-14.205
-13.895
-13.632
-13.418
-13.256
-13.146
-13.09
-13.088
-13.14
-13.244
-13.398
-13.601
-13.849
-14.138
-14.465
-14.824
-15.21
-15.617
-16.038
-16.465
-16.891
-17.308
-17.709
-18.086
-18.43
-18.733
-18.987
-19.184
-19.318
-19.38
-19.364
-19.264
-19.075
-18.79
-18.408
-17.924
-17.337
-16.644
-15.845
-14.94
-13.93
-12.818
-11.605
-10.293
-8.889
-7.397
-5.823
-4.175
-2.461
-0.69
1.125
2.971
4.835
6.703
8.56
10.393
12.184
13.92
15.588
17.174
18.667
20.054
21.321
22.454
23.442
24.273
24.938
25.427
25.731
25.844
25.769
25.503
25.049
24.402
23.553
22.496
21.233
19.767
18.104
16.26
14.251
12.11
9.883
7.614
5.349
3.127
0.97
-1.084
-2.995
-4.723
-6.209
-7.417
-8.327
-8.913
-9.155
-9.07
-8.693
-8.101
-7.419
-6.751
-6.176
-5.791
-5.676
-5.934
-6.688
-8.029
-10.008
-12.666
-16.086
-20.288
-25.212
-30.641
-36.127
-41.221
-45.596
-48.921
-50.714
-50.643
-48.617
-44.823
-40.105
-35.219
-30.286
-25.62
-21.981
-19.858
-19.311
-18.764
-14.218
-2.117
18.33
43.854
69.085
90.189
108.824
136.053
184.758
264.678
377.095
505.685
625.88
711.903
744.746
723.152
659.045
571.05
473.712
373.247
267.95
152.244
29.899
-91.227
-199.971
-283.446
-341.026
-375.272
-389.911
-391.732
-380.565
-356.849
-324.338
-285.752
-246.498
-211.251
-181.355
-157.814
-141.166
-130.823
-125.703
-124.191
-123.941
-122.936
-120.371
-115.805
-108.709
-99.065
-87.268
-74.038
-60.744
-48.766
-38.725
-30.918
-25.588
-22.68
-22.075
-23.543
-26.475
-30.133
-34.036
-37.861
-41.372
-44.481
-47.05
-48.904
-50
-50.361
-50.01
-48.988
-47.314
-44.986
-42.054
-38.623
-34.801
-30.726
-26.528
-22.311
-18.189
-14.256
-10.584
-7.248
-4.293
-1.738
0.408
2.152
3.508
4.49
5.125
5.453
5.513
5.356
5.031
4.582
4.064
3.518
2.978
2.473
2.025
1.65
1.36
1.164
1.065
1.068
1.18
1.403
1.742
2.2
2.778
3.475
4.289
5.217
6.258
7.411
8.674
10.045
11.52
13.097
14.773
16.544
18.402
20.338
22.343
24.406
26.516
28.663
30.834
33.016
35.199
37.371
39.521
41.638
43.711
45.729
47.682
49.56
51.354
53.055
54.654
56.142
57.513
58.758
59.873
60.85
61.684
62.371
62.906
63.285
63.505
63.565
63.463
63.198
62.77
62.181
61.431
60.522
59.457
58.239
56.871
55.358
53.704
51.914
49.992
47.945
45.778
43.497
41.107
38.616
36.029
33.354
30.598
27.768
24.872
21.918
18.915
15.871
12.795
9.696
6.582
3.463
0.347
-2.757
-5.84
-8.893
-11.909
-14.878
-17.793
-20.645
-23.426
-26.129
-28.748
-31.275
-33.704
-36.03
-38.247
-40.349
-42.333
-44.193
-45.926
-47.528
-48.996
-50.329
-51.525
-52.583
-53.504
-54.288
-54.936
-55.451
-55.835
-56.092
-56.225
-56.238
-56.136
-55.925
-55.611
-55.2
-54.698
-54.114
-53.454
-52.727
-51.941
-51.103
-50.222
-49.306
-48.364
-47.404
-46.433
-45.461
-44.494
-43.542
-42.61
-41.706
-40.836
-40.006
-39.22
-38.483
-37.798
-37.168
-36.594
-36.079
-35.623
-35.225
-34.885
-34.602
-34.372
-34.193
-34.06
-33.97
-33.916
-33.893
-33.895
-33.915
-33.945
-33.98
-34.01
-34.03
-34.03
-34.002
-33.939
-33.833
-33.677
-33.464
-33.186
-32.839
-32.418
-31.919
-31.34
-30.678
-29.933
-29.104
-28.193
-27.202
-26.135
-24.996
-23.79
-22.525
-21.21
-19.856
-18.476
-17.082
-15.687
-14.307
-12.956
-11.65
-10.401
-9.22
-8.12
-7.115
-6.219
-5.448
-4.814
-4.33
-4.006
-3.852
-3.879
-4.092
-4.488
-5.066
-5.824
-6.764
-7.898
-9.231
-10.766
-12.502
-14.435
-16.552
-18.84
-21.273
-23.81
-26.412
-29.035
-31.644
-34.214
-36.713
-39.1
-41.329
-43.339
-45.076
-46.506
-47.583
-48.276
-48.593
-48.548
-48.193
-47.614
-46.864
-46.01
-45.147
-44.361
-43.767
-43.49
-43.619
-44.293
-45.717
-47.976
-51.041
-54.722
-58.541
-62.007
-64.75
-66.278
-66.02
-63.715
-59.436
-53.742
-47.946
-43.339
-40.747
-40.998
-44.816
-52.241
-62.552
-73.995
-83.34
-87.149
-82.571
-66.681
-36.926
8.259
69.295
144.783
231.072
323.495
417.017
505.605
583.07
643.454
681.408
693.426
677.951
634.948
565.892
474.208
364.728
243.602
117.829
-5.993
-121.467
-222.882
-305.632
-366.532
-404.155
-418.788
-412.369
-387.982
-349.895
-302.903
-252.041
-202.161
-157.196
-120.403
-93.685
-77.421
-70.891
-72.464
-79.691
-89.898
-100.546
-108.949
-113.359
-113.173
-108.305
-99.41
-87.702
-74.417
-60.956
-48.918
-39.246
-32.298
-28.193
-26.601
-27.044
-29.09
-32.104
-35.41
-38.602
-41.415
-43.709
-45.485
-46.688
-47.261
-47.225
-46.609
-45.432
-43.721
-41.481
-38.736
-35.56
-32.041
-28.288
-24.407
-20.481
-16.611
-12.878
-9.344
-6.072
-3.099
-0.438
1.887
3.871
5.525
6.857
7.891
8.663
9.201
9.545
9.738
9.821
9.843
9.844
9.852
9.891
9.981
10.133
10.361
10.675
11.073
11.56
12.138
12.809
13.578
14.448
15.415
16.477
17.63
18.869
20.191
21.594
23.072
24.621
26.237
27.915
29.652
31.441
33.275
35.146
37.041
38.951
40.864
42.769
44.654
46.506
48.314
50.069
51.76
53.378
54.915
56.362
57.712
58.956
60.089
61.103
61.994
62.756
63.383
63.874
64.225
64.434
64.5
64.421
64.198
63.831
63.323
62.674
61.887
60.967
59.917
58.742
57.448
56.043
54.532
52.923
51.224
49.443
47.587
45.665
43.684
41.653
39.578
37.467
35.328
33.168
30.995
28.818
26.643
24.479
22.332
20.211
18.122
16.074
14.071
12.122
10.232
8.407
6.654
4.977
3.381
1.87
0.449
-0.881
-2.115
-3.254
-4.294
-5.236
-6.079
-6.822
-7.467
-8.013
-8.461
-8.812
-9.067
-9.229
-9.298
-9.278
-9.173
-8.985
-8.718
-8.379
-7.97
-7.499
-6.968
-6.386
-5.756
-5.086
-4.382
-3.65
-2.896
-2.126
-1.348
-0.567
0.209
0.977
1.73
2.464
3.173
3.854
4.503
5.115
5.688
6.217
6.7
7.134
7.516
7.844
8.119
8.339
8.506
8.622
8.689
8.713
8.696
8.643
8.559
8.448
8.315
8.166
8.004
7.833
7.659
7.492
7.34
7.213
7.12
7.072
7.079
7.154
7.307
7.547
7.876
8.302
8.83
9.472
10.242
11.147
12.19
13.369
14.683
16.126
17.688
19.348
21.073
22.829
24.595
26.361
28.13
29.9
31.666
33.421
35.158
36.888
38.624
40.371
42.128
43.898
45.692
47.553
49.542
51.712
54.083
56.646
59.372
62.232
65.187
68.186
71.16
74.006
76.635
78.984
81.006
82.653
83.861
84.525
84.519
83.753
82.171
79.752
76.503
72.438
67.605
62.1
56.053
49.628
42.966
36.165
29.308
22.488
15.81
9.414
3.444
-2.004
-6.857
-11.048
-14.546
-17.344
-19.502
-21.155
-22.478
-23.633
-24.745
-25.918
-27.254
-28.882
-30.933
-33.531
-36.766
-40.701
-45.451
-51.068
-57.466
-64.383
-71.281
-77.529
-82.582
-85.903
-86.906
-85.267
-80.988
-74.438
-66.681
-58.909
-52.036
-46.997
-44.552
-44.813
-47.264
-50.619
-52.331
-49.479
-39.333
-19.114
13.348
59.491
119.936
193.588
277.519
366.495
453.32
532.261
598.71
649.802
685.761
702.769
695.034
657.532
583.787
473.841
333.432
172.244
5.764
-148.453
-272.885
-357.461
-400.871
-410.748
-402.577
-386.239
-366.117
-343.003
-312.273
-273.582
-231.024
-188.516
-151.349
-123.272
-104.633
-94.672
-92.163
-95.318
-102.251
-111.506
-121.191
-128.824
-133.042
-133.404
-129.827
-123.043
-114.068
-103.602
-92.738
-82.987
-75.168
-69.666
-66.652
-65.752
-66.556
-68.789
-71.939
-75.393
-78.803
-81.912
-84.54
-86.697
-88.326
-89.353
-89.811
-89.731
-89.124
-88.016
-86.411
-84.318
-81.805
-78.947
-75.813
-72.479
-69.001
-65.453
-61.936
-58.532
-55.311
-52.32
-49.58
-47.113
-44.943
-43.072
-41.491
-40.178
-39.101
-38.232
-37.555
-37.041
-36.666
-36.394
-36.18
-35.992
-35.804
-35.596
-35.352
-35.059
-34.701
-34.273
-33.775
-33.207
-32.571
-31.864
-31.078
-30.212
-29.264
-28.236
-27.13
-25.946
-24.684
-23.344
-21.929
-20.439
-18.878
-17.246
-15.544
-13.774
-11.94
-10.049
-8.105
-6.117
-4.09
-2.034
0.044
2.135
4.231
6.324
8.407
10.472
12.511
14.517
16.484
18.405
20.271
22.077
23.816
25.481
27.065
28.562
29.967
31.273
32.476
33.569
34.549
35.413
36.156
36.776
37.271
37.638
37.877
37.987
37.967
37.819
37.542
37.14
36.613
35.965
35.199
34.317
33.324
32.224
31.02
29.718
28.322
26.838
25.271
23.629
21.918
20.146
18.32
16.449
14.542
12.605
10.649
8.681
6.71
4.745
2.793
0.862
-1.039
-2.903
-4.722
-6.489
-8.199
-9.844
-11.418
-12.918
-14.337
-15.673
-16.92
-18.076
-19.138
-20.104
-20.97
-21.737
-22.403
-22.968
-23.432
-23.796
-24.062
-24.232
-24.309
-24.296
-24.196
-24.013
-23.751
-23.414
-23.005
-22.531
-21.994
-21.401
-20.754
-20.06
-19.321
-18.544
-17.732
-16.889
-16.018
-15.125
-14.212
-13.283
-12.341
-11.388
-10.43
-9.467
-8.504
-7.542
-6.585
-5.634
-4.691
-3.76
-2.84
-1.935
-1.046
-0.175
0.677
1.507
2.314
3.095
3.849
4.572
5.264
5.92
6.538
7.117
7.651
8.138
8.576
8.96
9.287
9.554
9.756
9.892
9.957
9.949
9.865
9.702
9.458
9.131
8.719
8.221
7.637
6.965
6.207
5.363
4.435
3.424
2.334
1.167
-0.072
-1.379
-2.748
-4.173
-5.648
-7.165
-8.716
-10.294
-11.889
-13.492
-15.093
-16.683
