Name,Criss Capps
Date of Birth,"Feb 5, 1952"
Recorded Date,2025-02-04 21:34:30 -0400
Classification,Sinus Rhythm
Symptoms,
Software Version,1.90
Device,"Watch5,4"
Sample Rate,512.844 hertz


Lead,Lead I
Unit,µV

14.882
17.041
21.155
28.319
39.514
55.521
77.49
107.968
148.88
199.708
256.144
310.09
354.005
387.014
416.182
453.832
512.912
594.109
683.255
758.265
789.959
759.152
664.801
513.994
328.159
132.633
-55.886
-217.257
-337.835
-414.367
-443.703
-437
-413.626
-388.818
-379.189
-388.916
-410.176
-434.248
-448.709
-448.848
-438.843
-422.803
-408.13
-396.348
-382.709
-368.64
-354.897
-345.517
-349.285
-362.086
-375.488
-381.97
-370.597
-343.175
-309.485
-275.81
-249.865
-232.944
-219.623
-207.376
-194.059
-179.012
-164.593
-151.581
-139.949
-128.747
-115.467
-100.418
-85.464
-73.867
-71.239
-76.697
-84.75
-89.649
-83.224
-65.625
-44.201
-24.557
-13.035
-10.073
-9.974
-9.483
-6.196
0.311
7.664
14.926
22.118
29.138
36.282
43.52
50.48
57.034
63.174
68.805
73.78
77.995
81.424
84.122
86.226
87.819
88.89
89.487
89.769
89.862
89.835
89.657
89.119
88.051
86.381
84.001
80.841
76.949
72.542
68.089
64.122
61.303
60.651
63.014
68.934
77.465
85.145
88.631
87.081
83.831
86.78
101.85
124.542
139.629
125.014
62.522
-43.899
-169.41
-278.729
-337.836
-338.198
-294.79
-230.312
-167.36
-112.089
-57.368
0.236
55.777
98.211
114.499
101.771
73.963
45.613
28.402
28.05
35.066
41.777
44.899
41.706
37.572
36.151
37.026
40.553
44.502
47.015
48.362
48.488
47.561
46.083
44.213
42.189
40.477
39.323
38.781
38.874
39.562
40.784
42.518
44.714
47.235
49.959
52.783
55.614
58.427
61.214
63.954
66.625
69.187
71.599
73.849
75.941
77.879
79.662
81.302
82.809
84.223
85.612
87.031
88.509
90.045
91.597
93.108
94.541
95.866
97.059
98.096
98.931
99.528
99.863
99.9
99.604
98.923
97.772
96.091
93.864
91.097
87.841
84.177
80.161
75.857
71.336
66.657
61.887
57.091
52.309
47.593
43.01
38.633
34.572
30.919
27.724
25.023
22.826
21.103
19.831
18.954
18.375
18.01
17.776
17.599
17.425
17.177
16.75
16.019
14.85
13.148
10.826
7.756
3.858
-0.871
-6.289
-11.99
-17.485
-22.36
-26.169
-28.438
-28.797
-26.948
-22.995
-17.747
-12.139
-6.973
-3.192
-1.603
-2.783
-7.417
-14.319
-19.925
-21.124
-14.8
-0.92
16.289
36.174
60.754
96.555
155.843
243.32
357.402
490.729
626.765
753.149
858.713
930.832
962.908
948.361
885.857
783.193
649.249
493.045
321.753
140.858
-40.858
-208.25
-344.639
-440.305
-494.232
-516.218
-521.209
-517.593
-508.32
-492.379
-466.251
-431.177
-391.699
-351.751
-315.221
-284.379
-259.453
-240.267
-226.449
-216.87
-210.149
-205.624
-202.731
-200.526
-198.33
-195.329
-190.547
-183.928
-175.947
-166.811
-156.864
-146.63
-136.49
-127.134
-119.469
-113.818
-110.128
-108.285
-107.967
-108.859
-110.771
-113.334
-116.051
-118.648
-120.972
-122.951
-124.654
-126.104
-127.252
-128.098
-128.655
-128.903
-128.861
-128.547
-127.958
-127.127
-126.09
-124.875
-123.54
-122.131
-120.676
-119.204
-117.723
-116.237
-114.77
-113.351
-112.009
-110.788
-109.705
-108.757
-107.937
-107.225
-106.597
-106.03
-105.486
-104.92
-104.297
-103.584
-102.752
-101.781
-100.636
-99.28
-97.673
-95.769
-93.533
-90.941
-87.971
-84.608
-80.841
-76.662
-72.073
-67.08
-61.688
-55.901
-49.723
-43.16
-36.218
-28.912
-21.256
-13.269
-4.969
3.626
12.493
21.612
30.958
40.507
50.238
60.124
70.142
80.262
90.455
100.691
110.937
121.164
131.34
141.431
151.408
161.238
170.892
180.34
189.555
198.508
207.172
215.522
223.532
231.18
238.443
245.3
251.733
257.724
263.256
268.317
272.893
276.975
280.554
283.624
286.18
288.219
289.741
290.749
291.244
291.234
290.725
289.728
288.254
286.315
283.928
281.108
277.874
274.244
270.24
265.883
261.195
256.201
250.924
245.391
239.626
233.657
227.509
221.21
214.787
208.267
201.675
195.039
188.384
181.736
175.119
168.557
162.073
155.688
149.425
143.301
137.337
131.548
125.951
120.559
115.386
110.444
105.742
101.29
97.095
93.162
89.496
86.1
82.977
80.127
77.548
75.239
73.197
71.416
69.893
68.62
67.59
66.795
66.226
65.874
65.729
65.781
66.017
66.427
67
67.723
68.584
69.571
70.673
71.877
73.171
74.543
75.983
77.478
79.016
80.589
82.184
83.792
85.403
87.007
88.597
90.164
91.7
93.198
94.651
96.055
97.402
98.689
99.91
101.063
102.143
103.148
104.076
104.925
105.694
106.382
106.988
107.513
107.957
108.32
108.604
108.811
108.942
108.998
108.984
108.9
108.75
108.537
108.264
107.935
107.552
107.12
106.641
106.12
105.559
104.961
104.331
103.672
102.986
102.277
101.547
100.799
100.037
99.261
98.474
97.679
96.877
96.07
95.258
94.443
93.627
92.809
91.99
91.171
90.352
89.532
88.712
87.89
87.067
86.242
85.414
84.582
83.746
82.904
82.054
81.196
80.327
79.448
78.556
77.65
76.729
75.793
74.842
73.877
72.895
71.896
70.878
69.843
68.793
67.73
66.656
65.573
64.483
63.39
62.297
61.208
60.125
59.045
57.968
56.892
55.82
54.761
53.717
52.688
51.67
50.659
49.654
48.66
47.679
46.708
45.746
44.789
43.845
42.934
42.073
41.28
40.563
39.913
39.337
38.853
38.493
38.307
38.321
38.528
38.92
39.473
40.191
41.123
42.259
43.522
44.882
46.324
47.974
50.141
52.956
56.343
60.164
64.18
68.167
72.007
75.207
76.9
76.51
73.763
68.9
62.774
56.157
49.626
44.176
41.11
41.55
46.458
55.768
68.28
82.766
98.034
112.759
125.697
135.527
140.838
141.308
137.742
131.208
123.052
114.379
105.869
98.39
92.974
90.01
89.287
90.236
91.895
93.637
95.259
96.463
96.912
96.428
94.938
92.597
89.803
86.765
83.514
80.082
76.441
72.591
68.576
64.359
59.882
55.155
50.228
45.191
40.158
35.169
30.289
25.644
21.28
17.212
13.345
9.406
5.311
1.213
-2.732
-6.349
-9.434
-11.878
-13.276
-12.864
-10.361
-5.996
-0.292
5.852
11.652
16.619
19.842
19.992
16.374
8.926
-1.685
-13.945
-26.598
-38.81
-49.377
-56.822
-60.137
-58.887
-53.778
-46.525
-38.457
-30.616
-24.257
-20.662
-20.917
-24.247
-27.259
-26.454
-19.748
-8.782
2.505
14.393
32.659
68.835
134.53
232.111
353.605
481.831
598
691.117
758.089
802.332
829.002
836.605
819.374
770.9
685.139
564.038
414.877
246.936
73.964
-91.288
-235.477
-347.023
-422.638
-463.428
-478.182
-477.543
-466.269
-450.323
-431.153
-409.073
-388.886
-369.221
-349.114
-328.551
-304.401
-279.294
-255.91
-234.565
-216.927
-201.981
-188.528
-177.237
-168.156
-160.98
-155.507
-150.925
-146.259
-141.24
-135.696
-129.278
-121.95
-113.954
-105.573
-97.406
-90.211
-84.264
-79.636
-76.362
-74.255
-73.132
-72.822
-72.965
-73.149
-73.162
-72.911
-72.388
-71.676
-70.806
-69.785
-68.659
-67.477
-66.262
-65.004
-63.681
-62.275
-60.782
-59.229
-57.648
-56.063
-54.489
-52.935
-51.398
-49.879
-48.378
-46.889
-45.412
-43.957
-42.547
-41.22
-40.002
-38.899
-37.909
-37.017
-36.203
-35.45
-34.734
-34.026
-33.302
-32.54
-31.722
-30.835
-29.86
-28.769
-27.532
-26.105
-24.454
-22.556
-20.393
-17.951
-15.221
-12.197
-8.876
-5.269
-1.382
2.78
7.215
11.926
16.919
22.187
27.715
33.484
39.468
45.641
51.985
58.471
65.066
71.746
78.493
85.304
92.187
99.14
106.148
113.188
120.221
127.225
134.192
141.112
147.982
154.802
161.561
168.271
174.96
181.628
188.255
194.793
201.157
207.286
213.141
218.689
223.912
228.784
233.258
237.297
240.873
243.946
246.483
248.426
249.689
250.229
250.039
249.145
247.623
245.524
242.876
239.711
236.053
231.93
227.386
222.448
217.13
211.461
205.48
199.244
192.842
186.328
179.73
173.049
166.26
159.349
152.325
145.192
137.953
130.616
123.19
115.697
108.178
100.659
93.159
85.685
78.23
70.8
63.418
56.114
48.926
41.89
35.029
28.374
21.954
15.793
9.909
4.315
-0.993
-6.01
-10.729
-15.142
-19.237
-23.01
-26.458
-29.582
-32.385
-34.87
-37.041
-38.905
-40.473
-41.754
-42.755
-43.486
-43.952
-44.161
-44.126
-43.856
-43.364
-42.662
-41.764
-40.685
-39.439
-38.042
-36.509
-34.855
-33.094
-31.24
-29.308
-27.312
-25.265
-23.181
-21.073
-18.953
-16.835
-14.73
-12.65
-10.605
-8.607
-6.665
-4.789
-2.987
-1.268
0.361
1.893
3.322
4.642
5.85
6.94
7.911
8.759
9.483
10.082
10.555
10.904
11.129
11.232
11.214
11.078
10.826
10.462
9.988
9.408
8.725
7.944
7.068
6.102
5.051
3.919
2.711
1.433
0.09
-1.313
-2.769
-4.275
-5.822
-7.407
-9.024
-10.668
-12.333
-14.015
-15.709
-17.411
-19.117
-20.823
-22.526
-24.223
-25.91
-27.585
-29.245
-30.888
-32.511
-34.112
-35.69
-37.241
-38.765
-40.26
-41.724
-43.155
-44.553
-45.916
-47.244
-48.538
-49.796
-51.019
-52.208
-53.364
-54.488
-55.581
-56.644
-57.679
-58.688
-59.672
-60.633
-61.572
-62.491
-63.39
-64.272
-65.137
-65.987
-66.822
-67.644
-68.453
-69.25
-70.037
-70.813
-71.581
-72.34
-73.093
-73.838
-74.577
-75.31
-76.037
-76.757
-77.47
-78.174
-78.869
-79.552
-80.22
-80.871
-81.501
-82.107
-82.684
-83.229
-83.737
-84.202
-84.621
-84.988
-85.299
-85.549
-85.734
-85.849
-85.89
-85.854
-85.734
-85.528
-85.231
-84.84
-84.35
-83.759
-83.062
-82.259
-81.345
-80.319
-79.181
-77.929
-76.563
-75.084
-73.493
-71.795
-69.992
-68.091
-66.097
-64.018
-61.865
-59.647
-57.376
-55.065
-52.726
-50.373
-48.021
-45.684
-43.378
-41.116
-38.913
-36.787
-34.752
-32.827
-31.027
-29.368
-27.865
-26.535
-25.394
-24.457
-23.737
-23.242
-22.98
-22.96
-23.19
-23.68
-24.435
-25.453
-26.73
-28.26
-30.037
-32.047
-34.268
-36.667
-39.204
-41.845
-44.557
-47.314
-50.084
-52.832
-55.518
-58.1
-60.542
-62.816
-64.895
-66.747
-68.347
-69.685
-70.772
-71.654
-72.392
-73.046
-73.673
-74.319
-75.017
-75.819
-76.804
-78.053
-79.648
-81.673
-84.167
-87.214
-90.949
-95.388
-100.439
-105.836
-111.08
-115.675
-119.248
-121.351
-121.477
-119.36
-114.9
-108.411
-100.839
-93.151
-86.105
-80.486
-76.961
-75.755
-76.741
-79.076
-80.778
-79.489
-72.922
-58.701
-34.479
1.6
50.828
113.853
188.739
271.108
356.753
440.885
520.67
597.49
669.973
732.706
777.342
789.731
758.235
681.143
561.501
408.414
237.386
60.229
-109.316
-254.339
-367.662
-446.184
-493.272
-522.172
-540.177
-549.728
-550.714
-537.927
-510.76
-473.101
-429.403
-385.353
-344.595
-308.727
-279.137
-256.423
-240.396
-230.365
-225.061
-223.062
-223.027
-223.469
-222.814
-219.684
-213.444
-204.19
-192.447
-178.96
-164.489
-149.87
-136.093
-124.155
-114.637
-107.662
-103.063
-100.481
-99.544
-99.891
-101.1
-102.712
-104.394
-105.987
-107.416
-108.683
-109.791
-110.709
-111.409
-111.886
-112.108
-112.023
-111.61
-110.858
-109.78
-108.422
-106.822
-105.01
-103.035
-100.94
-98.76
-96.532
-94.281
-92.022
-89.79
-87.624
-85.566
-83.669
-81.959
-80.439
-79.106
-77.943
-76.93
-76.048
-75.267
-74.548
-73.863
-73.182
-72.481
-71.741
-70.933
-70.022
-68.971
-67.739
-66.294
-64.615
-62.686
-60.496
-58.039
-55.31
-52.311
-49.051
-45.536
-41.772
-37.761
-33.507
-29.018
-24.304
-19.379
-14.257
-8.953
-3.482
2.141
7.901
13.781
19.766
25.842
31.995
38.208
44.463
50.742
57.022
63.284
69.507
75.666
81.74
87.708
93.55
99.245
104.777
110.128
115.28
120.216
124.92
129.373
133.558
137.456
141.047
144.317
147.251
149.835
152.059
153.912
155.388
156.483
157.191
157.508
157.424
156.928
156.011
154.672
152.913
150.745
148.183
145.244
141.946
138.318
134.381
130.152
125.638
120.834
115.732
110.334
104.652
98.705
92.517
86.098
79.456
72.604
65.536
58.247
50.727
42.937
34.855
26.479
17.823
8.932
-0.126
-9.3
-18.541
-27.797
-37.026
-46.165
-55.157
-63.967
-72.542
-80.823
-88.739
-96.186
-103.065
-109.314
-114.884
-119.762
-123.975
-127.544
-130.504
-132.914
-134.833
-136.341
-137.504
-138.359
-138.945
-139.311
-139.518
-139.656
-139.817
-140.067
-140.467
-141.065
-141.868
-142.882
-144.084
-145.415
-146.809
-148.179
-149.455
-150.596
-151.573
-152.354
-152.907
-153.185
-153.143
-152.745
-151.955
-150.726
-149.038
-146.875
-144.248
-141.198
-137.78
-134.061
-130.102
-125.947
-121.627
-117.171
-112.602
-107.943
-103.217
-98.44
-93.636
-88.843
-84.091
-79.409
-74.816
-70.314
-65.9
-61.562
-57.293
-53.088
-48.947
-44.875
-40.882
-36.98
-33.184
-29.511
-25.974
-22.58
-19.332
-16.234
-13.289
-10.503
-7.882
-5.433
-3.163
-1.077
0.819
2.525
4.039
5.365
6.507
7.473
8.269
8.902
9.38
9.71
9.898
9.952
9.88
9.689
9.387
8.984
8.489
7.914
7.27
6.566
5.814
5.025
4.207
3.372
2.527
1.682
0.845
0.025
-0.773
-1.54
-2.27
-2.957
-3.596
-4.183
-4.714
-5.187
-5.6
-5.952
-6.242
-6.471
-6.638
-6.746
-6.795
-6.786
-6.723
-6.607
-6.442
-6.23
-5.977
-5.686
-5.362
-5.01
-4.635
-4.243
-3.837
-3.424
-3.007
-2.592
-2.184
-1.787
-1.405
-1.043
-0.703
-0.39
-0.105
0.15
0.374
0.565
0.724
0.851
0.949
1.017
1.059
1.076
1.072
1.051
1.016
0.973
0.925
0.88
0.843
0.82
0.818
0.845
0.906
1.01
1.161
1.369
1.639
1.978
2.394
2.892
3.48
4.163
4.946
5.836
6.835
7.948
9.176
10.523
11.988
13.572
15.275
17.095
19.029
21.074
23.224
25.475
27.819
30.248
32.751
35.318
37.935
40.589
43.265
45.947
48.62
51.267
53.869
56.411
58.877
61.249
63.51
65.644
67.634
69.462
71.114
72.572
73.822
74.85
75.643
76.192
76.492
76.539
76.329
75.86
75.122
74.113
72.836
71.294
69.494
67.448
65.174
62.703
60.078
57.342
54.541
51.716
48.901
46.135
43.46
40.919
38.566
36.447
34.599
33.061
31.861
31.013
30.519
30.337
30.382
30.564
30.79
30.977
31.062
30.956
30.555
29.75
28.425
26.511
23.941
20.604
16.446
11.48
5.861
-0.001
-5.617
-10.552
-14.31
-16.361
-16.298
-13.81
-8.999
-2.597
4.591
11.864
18.334
23.138
25.599
25.056
22.749
22.039
25.644
36.377
54.106
75.07
99.499
129.317
170.148
233.207
321.683
433.643
562.972
692.95
811.092
907.529
969.34
992.721
974.795
911.663
809.754
673.717
507.193
323.736
134.579
-45.143
-193.112
-301.199
-368.585
-400.217
-413.706
-417.257
-411.617
-399.904
-378.527
-349.56
-320.961
-293.399
-268.468
-246.163
-223.166
-201.714
-183.633
-168.993
-158.589
-150.485
-143.124
-136.512
-129.966
-123.239
-116.138
-107.92
-98.545
-88.494
-77.956
-67.169
-56.55
-46.367
-37.112
-29.514
-23.801
-19.869
-17.589
-16.659
-16.792
-17.827
-19.451
-21.227
-22.9
-24.308
-25.367
-26.121
-26.56
-26.622
-26.283
-25.529
-24.368
-22.848
-21.013
-18.891
-16.531
-13.973
-11.265
-8.481
-5.674
-2.887
-0.155
2.51
5.083
7.522
9.78
11.806
13.573
15.08
16.334
17.351
18.152
18.755
19.193
19.508
19.739
19.915
20.064
20.205
20.365
20.583
20.898
21.356
21.992
22.831
23.895
25.202
26.766
28.597
30.7
33.069
35.705
38.609
41.781
45.225
48.937
52.913
57.145
61.623
66.338
71.279
76.436
81.794
87.343
93.067
98.955
104.994
111.169
117.463
123.859
130.336
136.876
143.456
150.056
156.653
163.223
169.745
176.196
182.553
188.795
194.899
200.844
206.608
212.17
217.511
222.609
227.447
232.005
236.267
240.214
243.832
247.105
250.019
252.561
254.721
256.487
257.849
258.801
259.336
259.448
259.134
258.393
257.223
255.626
253.605
251.166
248.314
245.059
241.409
237.377
232.974
228.215
223.115
217.69
211.958
205.939
199.651
193.115
186.354
179.39
172.247
164.947
157.516
149.977
142.358
134.681
126.974
119.26
111.564
103.911
96.325
88.829
81.445
74.194
67.097
60.172
53.439
46.914
40.611
34.545
28.728
23.171
17.884
12.875
8.151
3.716
-0.424
-4.268
-7.814
-11.062
-14.015
-16.674
-19.045
-21.133
-22.944
-24.486
-25.769
-26.803
-27.598
-28.165
-28.518
-28.67
-28.633
-28.421
-28.049
-27.53
-26.879
-26.109
-25.234
-24.268
-23.223
-22.114
-20.951
-19.748
-18.515
-17.263
-16.003
-14.745
-13.499
-12.273
-11.075
-9.914
-8.796
-7.727
-6.715
-5.763
-4.877
-4.059
-3.314
-2.643
-2.048
-1.53
-1.089
-0.725
-0.438
-0.226
-0.088
-0.023
-0.028
-0.1
-0.239
-0.44
-0.703
-1.024
-1.402
-1.832
-2.314
-2.845
-3.421
-4.042
-4.704
-5.406
-6.144
-6.916
-7.721
-8.554
-9.414
-10.298
-11.204
-12.13
-13.073
-14.031
-15.003
-15.986
-16.98
-17.982
-18.992
-20.008
-21.03
-22.057
-23.087
-24.119
-25.154
-26.189
-27.224
-28.258
-29.29
-30.318
-31.34
-32.356
-33.364
-34.362
-35.349
-36.323
-37.282
-38.225
-39.151
-40.058
-40.946
-41.814
-42.662
-43.488
-44.292
-45.075
-45.836
-46.575
-47.292
-47.987
-48.661
-49.313
-49.944
-50.555
-51.145
-51.716
-52.268
-52.803
-53.321
-53.823
-54.311
-54.786
-55.25
-55.705
-56.152
-56.595
-57.034
-57.473
-57.914
-58.359
-58.809
-59.268
-59.737
-60.216
-60.707
-61.21
-61.727
-62.256
-62.798
-63.352
-63.917
-64.492
-65.074
-65.663
-66.254
-66.846
-67.435
-68.017
-68.588
-69.144
-69.68
-70.191
-70.671
-71.116
-71.52
-71.876
-72.179
-72.422
-72.599
-72.704
-72.729
-72.668
-72.515
-72.264
-71.911
-71.45
-70.878
-70.19
-69.384
-68.458
-67.411
-66.242
-64.951
-63.539
-62.01
-60.368
-58.617
-56.763
-54.815
-52.782
-50.675
-48.506
-46.287
-44.033
-41.759
-39.479
-37.211
-34.971
-32.776
-30.642
-28.587
-26.629
-24.786
-23.078
-21.52
-20.13
-18.926
-17.925
-17.142
-16.59
-16.276
-16.21
-16.397
-16.847
-17.568
-18.566
-19.839
-21.385
-23.2
-25.274
-27.593
-30.131
-32.845
-35.694
-38.636
-41.631
-44.646
-47.643
-50.576
-53.404
-56.076
-58.55
-60.797
-62.782
-64.468
-65.843
-66.901
-67.672
-68.238
-68.683
-69.093
-69.555
-70.128
-70.883
-71.92
-73.334
-75.23
-77.684
-80.715
-84.385
-88.815
-94.057
-100.064
-106.573
-113.08
-119.109
-124.278
-128.125
-130.109
-129.725
-126.659
-121.226
-114.235
-106.436
-98.567
-91.422
-85.864
-82.811
-81.814
-80.389
-75.863
-66.543
-53.884
-41.181
-28.257
-10.062
23.958
83.463
169.819
276.201
388.092
492.943
585.281
662.915
727.194
774.267
794.851
781.837
727.892
633.453
504.35
344.827
166.817
-17.206
-192.092
-336.035
-438.957
-499.136
-523.275
-529.675
-529.281
-525.803
-519.262
-503.777
-478.108
-445.857
-410.956
-377.9
-348.748
-323.588
-302.273
-284.276
-269.293
-256.821
-246.017
-236.605
-228.438
-220.987
-213.889
-206.613
-198.419
-189.235
-179.316
-168.692
-157.533
-146.192
-134.931
-124.292
-115.029
-107.422
-101.489
-97.199
-94.324
-92.635
-91.975
-92.022
-92.34
-92.683
-92.917
-92.98
-92.922
-92.752
-92.434
-91.973
-91.391
-90.682
-89.824
-88.799
-87.586
-86.191
-84.642
-82.966
-81.201
-79.377
-77.519
-75.644
-73.766
-71.893
-70.031
-68.2
-66.419
-64.721
-63.152
-61.737
-60.482
-59.386
-58.435
-57.61
-56.89
-56.246
-55.643
-55.052
-54.446
-53.803
-53.102
-52.317
-51.415
-50.359
-49.107
-47.624
-45.886
-43.874
-41.573
-38.975
-36.072
-32.864
-29.358
-25.56
-21.472
-17.1
-12.444
-7.511
-2.311
3.142
8.836
14.755
20.886
27.212
33.717
40.385
47.197
54.137
61.189
68.335
75.554
82.825
90.125
97.43
104.717
111.961
119.138
126.222
133.188
140.011
146.669
153.137
159.391
165.409
171.168
176.648
181.827
186.687
191.208
195.372
199.163
202.565
205.565
208.15
210.307
212.028
213.303
214.127
214.494
214.401
213.845
212.828
211.351
209.417
207.033
204.205
200.944
197.26
193.167
188.68
183.814
178.589
173.022
167.135
160.95
154.488
147.775
140.833
133.689
126.369
118.898
111.304
103.614
95.855
88.054
80.238
72.434
64.667
56.963
49.347
41.843
34.473
27.258
20.221
13.38
6.752
0.355
-5.797
-11.691
-17.314
-22.659
-27.715
-32.477
-36.94
-41.101
-44.958
-48.51
-51.759
-54.708
-57.359
-59.72
-61.795
-63.593
-65.123
-66.395
-67.419
-68.206
-68.769
-69.121
-69.275
-69.244
-69.041
-68.682
-68.181
-67.55
-66.805
-65.958
-65.024
-64.016
-62.945
-61.825
-60.665
-59.478
-58.273
-57.06
-55.848
-54.644
-53.458
-52.295
-51.163
-50.066
-49.011
-48.002
-47.042
-46.135
-45.283
-44.489
-43.754
-43.079
-42.465
-41.911
-41.419
-40.987
-40.614
-40.299
-40.041
-39.837
-39.687
-39.589
-39.539
-39.538
-39.582
-39.671
-39.802
-39.973
-40.183
-40.431
-40.715
-41.033
-41.383
-41.764
-42.175
-42.615
-43.082
-43.574
-44.091
-44.632
-45.195
-45.78
-46.385
-47.01
-47.653
-48.315
-48.993
-49.688
-50.399
-51.125
-51.866
-52.621
-53.389
-54.171
-54.964
-55.769
-56.584
-57.409
-58.242
-59.081
-59.927
-60.777
-61.631
-62.486
-63.343
-64.199
-65.052
-65.902
-66.746
-67.584
-68.412
-69.23
-70.036
-70.828
-71.604
-72.362
-73.102
-73.82
-74.515
-75.184
-75.827
-76.44
-77.022
-77.571
-78.086
-78.564
-79.004
-79.405
-79.765
-80.083
-80.358
-80.589
-80.775
-80.914
-81.008
-81.053
-81.052
-81.002
-80.904
-80.759
-80.566
-80.327
-80.041
-79.709
-79.332
-78.911
-78.447
-77.941
-77.395
-76.809
-76.185
-75.525
-74.829
-74.1
-73.337
-72.543
-71.718
-70.862
-69.977
-69.061
-68.115
-67.139
-66.132
-65.095
-64.025
-62.923
-61.789
-60.619
-59.415
-58.174
-56.895
-55.577
-54.217
-52.815
-51.368
-49.874
-48.333
-46.743
-45.101
-43.407
-41.659
-39.856
-37.998
-36.084
-34.114
-32.089
-30.011
-27.882
-25.705
-23.485
-21.226
-18.936
-16.622
-14.292
-11.956
-9.625
-7.308
-5.017
-2.765
-0.564
1.575
3.64
5.617
7.494
9.257
10.892
12.387
13.728
14.901
15.893
16.692
17.287
17.673
17.843
17.792
17.512
16.996
16.238
15.24
14.004
12.532
10.833
8.922
6.821
4.571
2.207
-0.235
-2.719
-5.217
-7.697
-10.122
-12.455
-14.654
-16.68
-18.505
-20.096
-21.418
-22.461
-23.225
-23.735
-24.065
-24.289
-24.475
-24.7
-25.015
-25.476
-26.174
-27.189
-28.609
-30.537
-33.026
-36.149
-40.042
-44.72
-50.109
-56.014
-61.983
-67.531
-72.26
-75.706
-77.358
-76.898
-74.113
-69.145
-62.736
-55.682
-48.752
-42.639
-37.862
-35.008
-34.347
-35.313
-36.607
-35.399
-28.639
-15.218
6.771
37.455
76.16
127.159
191.261
267.695
356.387
448.883
539.314
626.803
707.01
777.417
831.565
853.848
830.786
756.85
633.417
471.644
289.734
102.775
-75.399
-229.19
-350.25
-436.456
-487.803
-512.596
-519.514
-508.988
-484.742
-451.607
-412.301
-376.256
-347.665
-322.861
-300.369
-276.56
-250.96
-228.474
-211.101
-199.539
-193.014
-188.447
-184.039
-178.594
-170.908
-160.85
-148.605
-134.481
-119.229
-103.495
-87.796
-72.971
-59.936
-49.217
-41.026
-35.273
-31.572
-29.571
-28.963
-29.298
-30.098
-31.025
-31.827
-32.385
-32.696
-32.725
-32.442
-31.859
-30.985
-29.825
-28.38
-26.621
-24.544
-22.191
-19.612
-16.881
-14.058
-11.188
-8.328
-5.531
-2.834
-0.271
2.144
4.411
6.511
8.424
10.13
11.595
12.811
13.791
14.548
15.112
15.513
15.776
15.936
16.038
16.113
16.195
16.31
16.478
16.727
17.092
17.609
18.32
19.258
20.447
21.907
23.655
25.701
28.055
30.72
33.691
36.966
40.545
44.424
48.605
53.08
57.841
62.877
68.173
73.715
79.487
85.475
91.66
98.025
104.552
111.223
118.021
124.928
131.921
138.979
146.078
153.196
160.308
167.39
174.417
181.364
188.206
194.919
201.479
207.863
214.047
220.009
225.726
231.177
236.341
241.2
245.734
249.927
253.763
257.227
260.305
262.987
265.26
267.117
268.549
269.551
270.117
270.245
269.932
269.179
267.987
266.36
264.302
261.821
258.923
255.619
251.92
247.839
243.39
238.59
233.455
228.004
222.257
216.236
209.961
203.456
196.745
189.852
182.801
175.617
168.327
160.956
153.529
146.072
138.609
131.167
123.768
116.436
109.195
102.065
95.069
88.225
81.553
75.071
68.794
62.739
56.918
51.345
46.03
40.983
36.211
31.721
27.517
23.602
19.978
16.645
13.601
10.844
8.37
6.174
4.248
2.586
1.178
0.014
-0.915
-1.621
-2.116
-2.413
-2.523
-2.459
-2.236
-1.866
-1.361
-0.737
-0.005
0.821
1.727
2.702
3.733
4.807
5.914
7.042
8.181
9.32
10.451
11.566
12.655
13.712
14.729
15.701
16.622
17.488
18.295
19.04
19.719
20.332
20.876
21.352
21.759
22.095
22.363
22.562
22.693
22.757
22.755
22.69
22.563
22.375
22.13
21.83
21.476
21.072
20.62
20.123
19.584
19.005
18.388
17.738
17.056
16.346
15.61
14.851
14.071
13.272
12.457
11.627
10.782
9.926
9.057
8.179
7.291
6.394
5.49
4.579
3.661
2.738
1.81
0.879
-0.057
-0.995
-1.935
-2.876
-3.819
-4.761
-5.702
-6.642
-7.58
-8.514
-9.446
-10.373
-11.297
-12.216
-13.131
-14.041
-14.946
-15.844
-16.735
-17.618
-18.492
-19.356
-20.208
-21.047
-21.872
-22.681
-23.474
-24.248
-25.003
-25.737
-26.45
-27.141
-27.809
-28.453
-29.074
-29.672
-30.246
-30.798
-31.328
-31.838
-32.327
-32.797
-33.249
-33.685
-34.104
-34.51
-34.902
-35.282
-35.651
-36.012
-36.365
-36.712
-37.054
-37.394
-37.733
-38.074
-38.416
-38.763
-39.116
-39.476
-39.845
-40.223
-40.611
-41.01
-41.419
-41.838
-42.266
-42.703
-43.146
-43.592
-44.04
-44.486
-44.927
-45.359
-45.778
-46.18
-46.559
-46.912
-47.233
-47.518
-47.762
-47.96
-48.108
-48.2
-48.232
-48.2
-48.099
-47.925
-47.675
-47.343
-46.928
-46.426
-45.835
-45.152
-44.377
-43.508
-42.545
-41.49
-40.344
-39.108
-37.787
-36.385
-34.906
-33.359
-31.748
-30.084
-28.377
-26.638
-24.88
-23.117
-21.363
-19.633
-17.943
-16.31
-14.747
-13.269
-11.889
-10.621
-9.479
-8.477
-7.63
-6.952
-6.456
-6.152
-6.053
-6.167
-6.5
-7.055
-7.832
-8.832
-10.057
-11.517
-13.218
-15.162
-17.352
-19.78
-22.434
-25.297
-28.342
-31.531
-34.822
-38.17
-41.533
-44.877
-48.164
-51.354
-54.401
-57.241
-59.813
-62.065
-63.944
-65.424
-66.498
-67.172
-67.482
-67.502
-67.3
-66.968
-66.615
-66.338
-66.257
-66.5
-67.178
-68.449
-70.521
-73.53
-77.529
-82.441
-87.986
-93.835
-99.699
-105.156
-109.68
-112.889
-114.545
-114.722
-114
-113.046
-112.308
-112.313
-113.59
-116.263
-120.259
-125.012
-128.966
-130.266
-127.215
-117.799
-99.993
-72.3
-33.307
17.947
81.186
155.465
239.626
330.504
422.941
512.121
592.558
661.27
720.343
769.858
807.101
825.842
811.729
752.869
645.468
490.906
303.204
103.057
-91.43
-260.172
-389.729
-479.562
-533.126
-559.465
-571.136
-570.778
-557.584
-534.371
-500.341
-460.471
-423.642
-389.676
-359.195
-332.084
-304.761
-279.538
-258.504
-241.508
-229.288
-220.349
-213.003
-206.659
-200.471
-194.072
-187.295
-179.72
-171.296
-162.164
-152.552
-143.17
-134.829
-128.026
-122.992
-119.728
-118.073
-117.763
-118.382
-119.096
-118.915
-117.259
-114.072
-109.735
-104.642
-99.075
-93.361
-88.017
-83.729
-80.919
-79.5
-78.979
-78.914
-79.053
-79.228
-79.301
-79.007
-78.147
-76.789
-75.184
-73.551
-71.991
-70.498
-69.001
-67.5
-66.024
-64.547
-63.034
-61.448
-59.79
-58.119
-56.498
-54.962
-53.521
-52.159
-50.856
-49.597
-48.368
-47.143
-45.902
-44.624
-43.291
-41.889
-40.397
-38.786
-37.018
-35.049
-32.843
-30.374
-27.622
-24.576
-21.229
-17.581
-13.633
-9.397
-4.879
-0.086
4.977
10.303
15.883
21.706
27.756
34.015
40.468
47.097
53.883
60.809
67.858
75.01
82.25
89.558
96.917
104.305
111.7
119.079
126.418
133.695
140.884
147.962
154.904
161.688
168.29
174.689
180.863
186.79
192.451
197.825
202.895
207.641
212.049
216.101
219.783
223.082
225.985
228.481
230.56
232.215
233.437
234.221
234.564
234.462
233.915
232.923
231.49
229.618
227.316
224.589
221.448
217.904
213.971
209.662
204.994
199.984
194.652
189.016
183.098
176.92
170.504
163.876
157.058
150.075
142.954
135.719
128.396
121.011
113.589
106.156
98.735
91.353
84.032
76.796
69.667
62.667
55.817
49.136
42.642
36.352
30.282
24.446
18.858
13.527
8.465
3.678
-0.826
-5.043
-8.968
-12.601
-15.94
-18.987
-21.745
-24.216
-26.405
-28.32
-29.966
-31.353
-32.487
-33.381
-34.042
-34.484
-34.715
-34.75
-34.598
-34.274
-33.789
-33.155
-32.387
-31.496
-30.496
-29.398
-28.215
-26.959
-25.641
-24.273
-22.866
-21.43
-19.974
-18.508
-17.041
-15.579
-14.132
-12.706
-11.307
-9.94
-8.612
-7.326
-6.086
-4.897
-3.761
-2.682
-1.663
-0.704
0.19
1.019
1.78
2.473
3.096
3.647
4.127
4.534
4.868
5.129
5.317
5.432
5.475
5.444
5.342
5.169
4.925
4.612
4.229
3.779
3.263
2.681
2.034
1.325
0.555
-0.276
-1.164
-2.11
-3.11
-4.162
-5.265
-6.415
-7.609
-8.845
-10.119
-11.427
-12.766
-14.132
-15.521
-16.928
-18.351
-19.784
-21.224
-22.666
-24.106
-25.54
-26.964
-28.373
-29.765
-31.134
-32.478
-33.793
-35.076
-36.324
-37.533
-38.7
-39.823
-40.899
-41.925
-42.9
-43.821
-44.687
-45.497
-46.25
-46.945
-47.582
-48.163
-48.686
-49.154
-49.567
-49.926
-50.234
-50.493
-50.705
-50.872
-50.999
-51.087
-51.14
-51.161
-51.155
-51.125
-51.073
-51.005
-50.923
-50.832
-50.735
-50.637
-50.541
-50.451
-50.372
-50.307
-50.26
-50.234
-50.232
-50.258
-50.315
-50.403
-50.527
-50.688
-50.887
-51.125
-51.404
-51.724
-52.084
-52.485
-52.924
-53.401
-53.912
-54.456
-55.029
-55.628
-56.25
-56.889
-57.541
-58.202
-58.866
-59.528
-60.18
-60.816
-61.429
-62.013
-62.56
-63.063
-63.516
-63.91
-64.24
-64.498
-64.677
-64.772
-64.775
-64.681
-64.484
-64.179
-63.761
-63.226
-62.571
-61.795
-60.894
-59.87
-58.723
-57.454
-56.066
-54.56
-52.943
-51.22
-49.397
-47.483
-45.487
-43.419
-41.292
-39.121
-36.919
-34.702
-32.487
-30.29
-28.129
-26.021
-23.983
-22.031
-20.183
-18.456
-16.867
-15.432
-14.168
-13.092
-12.219
-11.562
-11.136
-10.948
-11.005
-11.311
-11.87
-12.683
-13.757
-15.093
-16.689
-18.544
-20.652
-23.003
-25.582
-28.361
-31.3
-34.361
-37.501
-40.678
-43.857
-46.994
-50.044
-52.963
-55.696
-58.198
-60.427
-62.339
-63.893
-65.063
-65.844
-66.267
-66.397
-66.307
-66.07
-65.753
-65.43
-65.204
-65.191
-65.508
-66.279
-67.586
-69.538
-72.297
-75.949
-80.484
-85.747
-91.34
-96.795
-101.705
-105.568
-107.794
-107.975
-105.837
-101.466
-95.582
-89.028
-82.58
-77.148
-73.558
-72.269
-73.432
-76.465
-79.62
-80.633
-77.009
-65.965
-44.706
-10.793
37.639
101.677
179.913
268.484
363.167
458.746
551.587
641.423
725.465
797.977
849.707
866.045
836.915
760.712
642.56
495.046
329.507
153.117
-26.202
-199.512
-353.739
-474.471
-553.847
-591.007
-592.03
-566.689
-523.383
-470.889
-418.502
-373.568
-340.683
-318.955
-302.217
-285.16
-266.076
-246.754
-231.886
-224.186
-222.81
-225.235
-227.858
-228.024
-224.622
-217.4
-206.769
-193.361
-177.918
-161.287
-144.402
-128.295
-113.958
-101.968
-92.489
-85.431
-80.47
-77.258
-75.453
-74.619
-74.304
-74.216
-74.192
-74.147
-74.088
-74.009
-73.87
-73.667
-73.408
-73.076
-72.645
-72.079
-71.327
-70.347
-69.139
-67.713
-66.089
-64.286
-62.322
-60.219
-58
-55.69
-53.307
-50.87
-48.397
-45.906
-43.424
-40.978
-38.603
-36.344
-34.225
-32.252
-30.425
-28.73
-27.156
-25.688
-24.305
-22.977
-21.678
-20.383
-19.067
-17.71
-16.282
-14.752
-13.081
-11.229
-9.164
-6.863
-4.309
-1.489
1.604
4.978
8.634
12.564
16.766
21.236
25.972
30.971
36.228
41.734
47.477
53.445
59.624
66.003
72.566
79.3
86.188
93.217
100.37
107.632
114.987
122.415
129.896
137.406
144.925
152.429
159.895
167.296
174.609
181.809
188.872
195.774
202.491
208.999
215.274
221.294
227.037
232.481
237.606
242.391
246.818
250.87
254.529
257.781
260.612
263.009
264.961
266.46
267.498
268.068
268.167
267.793
266.944
265.622
263.832
261.577
258.866
255.708
252.113
248.095
243.67
238.853
233.664
228.121
222.247
216.062
209.592
202.861
195.893
188.715
181.354
173.838
166.194
158.45
150.634
142.773
134.896
127.03
119.201
111.435
103.757
96.192
88.763
81.492
74.399
67.505
60.828
54.384
48.19
42.259
36.603
31.232
26.155
21.378
16.907
12.746
8.895
5.355
2.126
-0.796
-3.415
-5.735
-7.764
-9.509
-10.979
-12.184
-13.135
-13.843
-14.32
-14.58
-14.634
-14.497
-14.181
-13.702
-13.072
-12.306
-11.419
-10.424
-9.335
-8.166
-6.931
-5.642
-4.312
-2.953
-1.576
-0.192
1.19
2.56
3.909
5.23
6.515
7.757
8.95
10.089
11.168
12.185
13.136
14.017
14.827
15.564
16.226
16.812
17.323
17.756
18.113
18.394
18.599
18.73
18.788
18.775
18.693
18.544
18.331
18.056
17.721
17.33
16.883
16.384
15.836
15.239
14.597
13.912
13.186
12.421
11.62
10.784
9.915
9.015
8.085
7.126
6.141
5.13
4.095
3.039
1.962
0.867
-0.246
-1.374
-2.515
-3.67
-4.836
-6.012
-7.198
-8.392
-9.594
-10.802
-12.016
-13.233
-14.453
-15.675
-16.896
-18.116
-19.333
-20.545
-21.751
-22.949
-24.136
-25.312
-26.473
-27.617
-28.743
-29.847
-30.929
-31.986
-33.017
-34.021
-34.996
-35.941
-36.855
-37.738
-38.587
-39.403
-40.183
-40.928
-41.636
-42.307
-42.94
-43.536
-44.093
-44.612
-45.093
-45.536
-45.943
-46.314
-46.65
-46.954
-47.226
-47.47
-47.688
-47.884
-48.06
-48.22
-48.369
-48.507
-48.64
-48.769
-48.898
-49.028
-49.163
-49.305
-49.457
-49.619
-49.796
-49.988
-50.198
-50.427
-50.676
-50.946
-51.238
-51.553
-51.89
-52.25
-52.63
-53.031
-53.455
-53.899
-54.363
-54.842
-55.329
-55.824
-56.327
-56.822
-57.297
-57.739
-58.131
-58.477
-58.788
-59.045
-59.23
-59.367
-59.477
-59.573
-59.68
-59.767
-59.78
-59.738
-59.685
-59.491
-59.005
-58.314
-57.406
-56.251
-55.168
-53.299
-49.81
-45.896
-41.916
-40.067
-42.983
-47.766
-52.492
-54.289
-49.199
-40.754
-31.955
-24.872
-22.902
-23.65
-24.675
-25.438
-24.459
-22.622
-21.069
-19.612
-18.406
-17.376
-16.292
-15.307
-14.548
-13.974
-13.557
-13.281
-13.124
-13.088
-13.201
-13.478
-13.908
-14.511
-15.292
-16.254
-17.417
-18.807
-20.438
-22.304
-24.39
-26.681
-29.188
-31.947
-34.98
-38.269
-41.747
-45.335
-48.961
-52.546
-56.026
-59.309
-62.252
-64.792
-66.967
-68.907
-70.854
-73.014
-75.438
-78.128
-81.106
-84.189
-87.054
-89.274
-90.218
-89.48
-87.046
-83.091
-77.94
-72.234
-66.714
-62.102
-59.265
-58.658
-60.206
-63.613
-68.356
-73.762
-79.316
-84.733
-89.807
-94.564
-99.202
-104.135
-109.789
-115.962
-121.941
-125.387
-122.381
-110.882
-89.555
-58.146
-19.329
28.978
91.194
169.294
266.769
379.197
496.333
611.408
715.41
802.921
869.891
906.537
905.007
858.208
764.959
632.362
467.99
283.887
92.129
-95.714
-262.077
-393.687
-484.901
-536.236
-558.846
-565.758
-563.037
-552.984
-534.203
-503.754
-463.678
-418.586
-372.462
-329.638
-292.909
-263.237
-241.07
-225.932
-216.42
-211.008
-208.701
-208.334
-208.339
-207.196
-203.384
-196.144
-185.779
-172.947
-158.225
-142.329
-126.147
-110.702
-97.221
-86.438
-78.426
-73.004
-69.814
-68.455
-68.572
-69.711
-71.303
-72.957
-74.477
-75.756
-76.811
-77.645
-78.194
-78.424
-78.314
-77.815
-76.907
-75.598
-73.888
-71.818
-69.445
-66.815
-63.991
-61.044
-58.03
-55.004
-52.009
-49.069
-46.221
-43.515
-41.004
-38.746
-36.771
-35.08
-33.664
-32.504
-31.573
-30.844
-30.278
-29.826
-29.447
-29.103
-28.763
-28.402
-27.987
-27.477
-26.831
-26.001
-24.953
-23.662
-22.107
-20.273
-18.146
-15.719
-12.989
-9.961
-6.636
-3.015
0.904
5.12
9.631
14.429
19.505
24.847
30.444
36.284
42.352
48.634
55.113
61.774
68.6
75.576
82.684
89.905
97.217
104.599
112.029
119.484
126.942
134.379
141.771
149.096
156.331
163.452
170.437
177.263
183.907
190.348
196.562
202.528
208.226
213.635
218.736
223.51
227.941
232.012
235.709
239.018
241.927
244.425
246.504
248.155
249.372
250.15
250.487
250.38
249.829
248.836
247.403
245.534
243.235
240.514
237.379
233.84
229.91
225.602
220.93
215.911
210.562
204.903
198.953
192.734
186.269
179.58
172.692
165.628
158.415
151.076
143.639
136.127
128.567
120.983
113.4
105.842
98.333
90.896
83.553
76.326
69.234
62.298
55.536
48.965
42.603
36.464
30.562
24.91
19.518
14.396
9.553
4.993
0.724
-3.254
-6.936
-10.324
-13.418
-16.221
-18.737
-20.971
-22.929
-24.619
-26.048
-27.226
-28.163
-28.869
-29.356
-29.634
-29.717
-29.616
-29.343
-28.913
-28.337
-27.629
-26.801
-25.868
-24.841
-23.733
-22.558
-21.326
-20.05
-18.741
-17.409
-16.066
-14.72
-13.38
-12.055
-10.751
-9.476
-8.236
-7.036
-5.881
-4.775
-3.721
-2.722
-1.782
-0.901
-0.081
0.677
1.371
2.001
2.568
3.071
3.51
3.887
4.201
4.453
4.646
4.779
4.854
4.873
4.836
4.746
4.604
4.411
4.169
3.879
3.541
3.158
2.73
2.257
1.741
1.182
0.579
-0.065
-0.752
-1.481
-2.251
-3.063
-3.915
-4.808
-5.74
-6.712
-7.722
-8.769
-9.851
-10.969
-12.119
-13.301
-14.511
-15.749
-17.012
-18.297
-19.601
-20.923
-22.259
-23.607
-24.963
-26.324
-27.686
-29.047
-30.402
-31.748
-33.082
-34.398
-35.694
-36.967
-38.211
-39.425
-40.604
-41.746
-42.848
-43.907
-44.922
-45.889
-46.807
-47.676
-48.493
-49.26
-49.975
-50.639
-51.253
-51.818
-52.336
-52.808
-53.236
-53.623
-53.973
-54.286
-54.568
-54.82
-55.047
-55.253
-55.442
-55.616
-55.782
-55.942
-56.101
-56.263
-56.432
-56.61
-56.802
-57.011
-57.24
-57.491
-57.766
-58.068
-58.397
-58.755
-59.143
-59.56
-60.005
-60.477
-60.974
-61.495
-62.035
-62.592
-63.161
-63.738
-64.319
-64.899
-65.471
-66.031
-66.572
-67.088
-67.572
-68.017
-68.416
-68.763
-69.05
-69.271
-69.419
-69.488
-69.471
-69.362
-69.156
-68.848
-68.432
-67.905
-67.262
-66.5
-65.617
-64.611
-63.481
-62.228
-60.851
-59.353
-57.736
-56.004
-54.162
-52.216
-50.172
-48.038
-45.824
-43.54
-41.195
-38.802
-36.371
-33.917
-31.455
-29.004
-26.581
-24.205
-21.895
-19.67
-17.548
-15.547
-13.683
-11.97
-10.418
-9.043
-7.86
-6.884
-6.133
-5.619
-5.351
-5.333
-5.562
-6.034
-6.745
-7.688
-8.856
-10.252
-11.874
-13.726
-15.812
-18.128
-20.662
-23.392
-26.276
-29.272
-32.347
-35.475
-38.655
-41.872
-45.088
-48.255
-51.301
-54.156
-56.789
-59.132
-61.074
-62.592
-63.707
-64.558
-65.455
-66.566
-67.855
-69.294
-70.806
-72.254
-73.572
-74.434
-74.207
-72.717
-70.22
-67.137
-64.148
-61.765
-60.14
-59.738
-61.336
-65.066
-70.538
-77.052
-83.443
-88.972
-93.558
-96.958
-98.752
-98.949
-97.723
-95.487
-93.255
-91.526
-89.918
-86.756
-79.021
-64.111
-41.013
-12.056
18.891
50.976
88.244
139.643
213.221
310.142
422.502
535.933
639.302
726.342
794.192
842.563
864.225
847.961
787.895
681.423
534.231
361.794
178.615
0.137
-156.127
-279.961
-367.058
-418.822
-446.137
-460.4
-466.977
-467.619
-460.262
-442.17
-415.331
-383.881
-351.634
-322.124
-297.127
-277.404
-263.06
-253.202
-246.52
-241.564
-237.266
-233.043
-228.018
-220.892
-210.956
-198.14
-182.878
-166.146
-148.743
-131.187
-114.271
-99.041
-86.185
-76.046
-68.656
-63.652
-60.675
-59.447
-59.546
-60.47
-61.865
-63.488
-65.173
-66.852
-68.443
-69.837
-70.964
-71.776
-72.196
-72.132
-71.527
-70.352
-68.633
-66.44
-63.843
-60.902
-57.679
-54.228
-50.615
-46.916
-43.191
-39.486
-35.851
-32.342
-29.028
-25.99
-23.275
-20.894
-18.843
-17.098
-15.635
-14.432
-13.453
-12.654
-11.995
-11.437
-10.945
-10.495
-10.05
-9.569
-9.004
-8.301
-7.419
-6.33
-5.01
-3.442
-1.609
0.5
2.89
5.558
8.504
11.731
15.241
19.04
23.126
27.496
32.142
37.058
42.234
47.662
53.331
59.229
65.344
71.662
78.172
84.861
91.712
98.708
105.829
113.055
120.363
127.731
135.134
142.546
149.941
157.294
164.58
171.772
178.844
185.771
192.528
199.092
205.436
211.536
217.368
222.907
228.135
233.033
237.578
241.747
245.532
248.924
251.915
254.5
256.66
258.369
259.632
260.455
260.802
260.646
259.969
258.742
256.992
254.77
252.057
248.815
245.178
241.305
237.122
232.654
227.944
222.696
217.78
214.045
210.329
206.298
199.804
188.27
174.599
160.733
149.553
145.007
143.65
142.566
139.765
131.94
121.497
110.874
100.629
92.257
84.924
77.555
70.376
63.268
56.319
49.768
43.484
37.363
31.455
25.778
20.326
15.109
10.142
5.432
1.003
-3.119
-6.944
-10.483
-13.735
-16.703
-19.392
-21.805
-23.95
-25.837
-27.471
-28.86
-30.011
-30.933
-31.637
-32.132
-32.43
-32.542
-32.479
-32.253
-31.875
-31.359
-30.715
-29.957
-29.095
-28.143
-27.11
-26.009
-24.85
-23.643
-22.398
-21.125
-19.831
-18.525
-17.214
-15.905
-14.605
-13.321
-12.057
-10.82
-9.616
-8.449
-7.323
-6.245
-5.216
-4.242
-3.326
-2.47
-1.678
-0.95
-0.29
0.302
0.825
1.278
1.661
1.975
2.221
2.398
2.509
2.555
2.538
2.458
2.317
2.116
1.857
1.542
1.17
0.745
0.266
-0.264
-0.844
-1.472
-2.147
-2.865
-3.627
-4.428
-5.267
-6.142
-7.05
-7.989
-8.955
-9.947
-10.961
-11.996
-13.049
-14.117
-15.199
-16.293
-17.398
-18.511
-19.632
-20.758
-21.889
-23.023
-24.157
-25.291
-26.422
-27.549
-28.67
-29.782
-30.884
-31.974
-33.049
-34.109
-35.15
-36.171
-37.171
-38.147
-39.099
-40.024
-40.921
-41.791
-42.633
-43.445
-44.227
-44.98
-45.702
-46.394
-47.055
-47.686
-48.285
-48.853
-49.391
-49.899
-50.377
-50.826
-51.248
-51.643
-52.014
-52.361
-52.685
-52.988
-53.272
-53.539
-53.792
-54.031
-54.26
-54.481
-54.697
-54.911
-55.124
-55.34
-55.559
-55.783
-56.015
-56.255
-56.506
-56.769
-57.045
-57.334
-57.639
-57.959
-58.295
-58.646
-59.01
-59.388
-59.778
-60.176
-60.581
-60.989
-61.398
-61.807
-62.211
-62.609
-62.997
-63.372
-63.73
-64.068
-64.382
-64.664
-64.908
-65.109
-65.26
-65.356
-65.394
-65.367
-65.272
-65.102
-64.854
-64.529
-64.122
-63.624
-63.03
-62.33
-61.522
-60.618
-59.62
-58.533
-57.361
-56.11
-54.789
-53.416
-51.994
-50.517
-48.979
-47.373
-45.701
-43.981
-42.227
-40.455
-38.674
-36.876
-35.065
-33.255
-31.45
-29.651
-27.853
-26.036
-24.213
-22.429
-20.726
-19.143
-17.71
-16.431
-15.319
-14.394
-13.675
-13.195
-12.97
-12.999
-13.296
-13.888
-14.803
-16.09
-17.756
-19.762
-22.075
-24.663
-27.498
-30.57
-33.851
-37.292
-40.84
-44.441
-48.049
-51.63
-55.14
-58.513
-61.684
-64.565
-67.092
-69.24
-70.982
-72.292
-73.153
-73.563
-73.541
-73.152
-72.476
-71.584
-70.567
-69.52
-68.546
-67.777
-67.346
-67.383
-68.049
-69.517
-71.889
-75.187
-79.319
-84.014
-88.961
-93.848
-98.217
-101.572
-103.587
-104.066
-103.079
-101.139
-98.798
-96.506
-94.925
-94.552
-95.362
-97.41
-100.432
-103.15
-104.222
-101.395
-90.868
-70.999
-41.572
-3.042
41.172
91.881
152.802
225.042
311.507
408.82
508.892
608.559
701.065
779.293
836.15
856.653
830.454
755.775
637.643
490.175
326.133
154.482
-17.648
-182.623
-327.577
-442.02
-520.405
-564.656
-586.246
-593.695
-590.758
-577.965
-551.747
-512.479
-464.495
-412.593
-361.848
-315.403
-275
-242.061
-217.113
-199.888
-189.323
-183.815
-182.172
-183.113
-184.837
-185.639
-184.011
-179.193
-171.443
-161.349
-149.422
-136.345
-123.017
-110.436
-99.688
-91.351
-85.385
-81.552
-79.488
-78.791
-79.1
-79.951
-80.785
-81.273
-81.301
-80.842
-79.988
-78.804
-77.297
-75.513
-73.522
-71.352
-69.015
-66.522
-63.875
-61.11
-58.281
-55.439
-52.641
-49.934
-47.344
-44.893
-42.592
-40.435
-38.419
-36.546
-34.813
-33.233
-31.834
-30.623
-29.596
-28.741
-28.026
-27.424
-26.904
-26.433
-25.98
-25.518
-25.021
-24.472
-23.856
-23.152
-22.341
-21.389
-20.256
-18.906
-17.308
-15.44
-13.291
-10.857
-8.138
-5.127
-1.81
1.828
5.811
10.142
14.799
19.773
25.06
30.651
36.56
42.752
49.122
55.683
62.543
69.795
77.577
85.86
94.371
102.994
111.792
120.6
129.136
137.078
143.912
149.607
154.719
159.532
164.097
168.665
173.476
178.918
185.705
193.866
202.678
211.699
220.653
229.227
237.295
244.527
250.263
254.41
257.439
259.656
261.314
262.582
263.389
263.831
264.207
264.556
264.697
264.497
263.805
262.566
260.872
258.744
256.135
253.049
249.511
245.554
241.231
236.566
231.543
226.164
220.436
214.377
208.02
201.392
194.52
187.427
180.139
172.683
165.087
157.379
149.59
141.748
133.88
126.014
118.18
110.406
102.721
95.15
87.714
80.433
73.328
66.417
59.721
53.256
47.039
41.083
35.4
30.003
24.901
20.101
15.61
11.43
7.565
4.015
0.78
-2.142
-4.754
-7.061
-9.069
-10.787
-12.222
-13.384
-14.284
-14.934
-15.345
-15.532
-15.506
-15.282
-14.874
-14.296
-13.563
-12.69
-11.691
-10.58
-9.374
-8.085
-6.729
-5.318
-3.867
-2.387
-0.891
0.61
2.106
3.586
5.042
6.464
7.845
9.178
10.456
11.673
12.825
13.907
14.916
15.85
16.704
17.48
18.174
18.786
19.318
19.768
20.138
20.428
20.642
20.782
20.849
20.847
20.78
20.651
20.464
20.223
19.931
19.592
19.21
18.789
18.331
17.84
17.319
16.772
16.2
15.608
14.997
14.371
13.732
13.081
12.422
11.755
11.082
10.406
9.728
9.048
8.369
7.692
7.018
6.347
5.68
5.018
4.36
3.706
3.056
2.408
1.763
1.119
0.475
-0.169
-0.814
-1.46
-2.109
-2.759
-3.412
-4.069
-4.728
-5.392
-6.059
-6.731
-7.406
-8.085
-8.767
-9.453
-10.142
-10.833
-11.527
-12.224
-12.924
-13.626
-14.331
-15.04
-15.751
-16.465
-17.181
-17.898
-18.617
-19.336
-20.053
-20.769
-21.483
-22.194
-22.901
-23.605
-24.304
-24.998
-25.688
-26.372
-27.051
-27.725
-28.394
-29.059
-29.719
-30.376
-31.031
-31.685
-32.338
-32.991
-33.645
-34.301
-34.959
-35.619
-36.281
-36.945
-37.611
-38.279
-38.95
-39.622
-40.297
-40.974
-41.652
-42.33
-43.009
-43.686
-44.361
-45.032
-45.697
-46.354
-47.002
-47.637
-48.257
-48.859
-49.44
-49.995
-50.522
-51.013
-51.466
-51.875
-52.234
-52.539
-52.784
-52.966
-53.079
-53.119
-53.081
-52.962
-52.757
-52.464
-52.077
-51.594
-51.013
-50.331
-49.547
-48.659
-47.667
-46.572
-45.374
-44.075
-42.677
-41.184
-39.599
-37.926
-36.173
-34.346
-32.453
-30.502
-28.505
-26.474
-24.422
-22.365
-20.316
-18.292
-16.309
-14.384
-12.533
-10.772
-9.116
-7.579
-6.176
-4.924
-3.835
-2.926
-2.21
-1.699
-1.405
-1.339
-1.506
-1.911
-2.555
-3.435
-4.555
-5.919
-7.529
-9.386
-11.487
-13.827
-16.394
-19.173
-22.134
-25.241
-28.45
-31.716
-34.997
-38.256
-41.452
-44.548
-47.498
-50.246
-52.743
-54.941
-56.795
-58.272
-59.354
-60.041
-60.371
-60.419
-60.263
-59.989
-59.683
-59.432
-59.345
-59.537
-60.138
-61.262
-63.033
-65.621
-69.136
-73.609
-78.954
-84.856
-90.897
-96.647
-101.574
-105.067
-106.675
-106.064
-103.237
-98.847
-93.69
-88.6
-84.578
-82.43
-82.729
-85.862
-91.37
-97.584
-102.326
-102.919
-96.442
-80.238
-51.502
-7.725
52.588
128.482
216.456
312.067
410.167
508.11
605.466
699.234
784.516
850.771
883.2
871.889
810.927
703.14
559.012
387.281
199.411
6.786
-178.781
-339.808
-462.729
-540.378
-574.371
-576.447
-559.846
-536.153
-510.836
-484.521
-456.95
-425.631
-391.105
-355.049
-318.458
-285.571
-258.852
-238.959
-226.626
-219.736
-216.242
-215.477
-216.051
-216.936
-217.215
-215.384
-210.781
-203.609
-194.129
-182.745
-170.076
-156.702
-143.438
-131.364
-121.031
-112.515
-105.758
-100.503
-96.501
-93.593
-91.459
-89.641
-87.858
-85.991
-84.025
-82.072
-80.208
-78.432
-76.771
-75.271
-73.963
-72.859
-71.939
-71.134
-70.363
-69.578
-68.747
-67.859
-66.919
-65.916
-64.828
-63.638
-62.336
-60.921
-59.406
-57.795
-56.086
-54.288
-52.425
-50.538
-48.686
-46.905
-45.208
-43.6
-42.072
-40.62
-39.238
-37.912
-36.614
-35.32
-34.003
-32.641
-31.218
-29.707
-28.075
-26.284
-24.289
-22.059
-19.575
-16.819
-13.781
-10.453
-6.83
-2.916
1.279
5.748
10.483
15.48
20.732
26.231
31.963
37.914
44.067
50.408
56.92
63.587
70.39
77.314
84.341
91.453
98.635
105.867
113.129
120.4
127.657
134.878
142.04
149.12
156.093
162.936
169.627
176.143
182.463
188.563
194.424
200.025
205.346
210.367
215.07
219.437
223.453
227.1
230.365
233.234
235.696
237.739
239.355
240.536
241.277
241.572
241.42
240.819
239.771
238.277
236.341
233.971
231.173
227.957
224.335
220.319
215.923
211.164
206.06
200.628
194.889
188.864
182.575
176.046
169.299
162.359
155.253
148.006
140.644
133.194
125.682
118.136
110.58
103.041
95.543
88.111
80.769
73.54
66.444
59.503
52.736
46.162
39.798
33.659
27.76
22.113
16.73
11.621
6.794
2.255
-1.991
-5.939
-9.587
-12.935
-15.983
-18.733
-21.189
-23.356
-25.239
-26.847
-28.188
-29.271
-30.106
-30.705
-31.08
-31.241
-31.203
-30.977
-30.576
-30.015
-29.305
-28.462
-27.497
-26.425
-25.258
-24.009
-22.691
-21.316
-19.896
-18.441
-16.963
-15.472
-13.979
-12.493
-11.023
-9.578
-8.165
-6.791
-5.464
-4.188
-2.969
-1.811
-0.718
0.307
1.263
2.146
2.954
3.687
4.344
4.924
5.427
5.852
6.202
6.475
6.673
6.798
6.85
6.831
6.743
6.586
6.363
6.076
5.726
5.318
4.852
4.332
3.762
3.143
2.479
1.774
1.029
0.248
-0.566
-1.411
-2.285
-3.183
-4.105
-5.047
-6.006
-6.981
-7.968
-8.966
-9.971
-10.981
-11.995
-13.01
-14.023
-15.032
-16.035
-17.029
-18.013
-18.983
-19.939
-20.877
-21.797
-22.696
-23.574
-24.43
-25.263
-26.071
-26.856
-27.616
-28.351
-29.061
-29.745
-30.404
-31.039
-31.648
-32.233
-32.794
-33.331
-33.846
-34.339
-34.811
-35.262
-35.694
-36.108
-36.504
-36.885
-37.252
-37.605
-37.948
-38.281
-38.607
-38.926
-39.242
-39.554
-39.866
-40.178
-40.492
-40.81
-41.132
-41.459
-41.794
-42.137
-42.489
-42.852
-43.226
-43.613
-44.013
-44.427
-44.857
-45.302
-45.764
-46.242
-46.738
-47.251
-47.782
-48.331
-48.898
-49.482
-50.082
-50.699
-51.331
-51.978
-52.637
-53.309
-53.99
-54.681
-55.378
-56.079
-56.784
-57.488
-58.189
-58.884
-59.571
-60.246
-60.905
-61.543
-62.158
-62.745
-63.298
-63.813
-64.285
-64.708
-65.078
-65.39
-65.638
-65.817
-65.923
-65.95
-65.895
-65.753
-65.519
-65.19
-64.762
-64.231
-63.595
-62.85
-61.995
-61.029
-59.949
-58.756
-57.451
-56.033
-54.505
-52.869
-51.129
-49.289
-47.355
-45.334
-43.233
-41.063
-38.832
-36.555
-34.242
-31.91
-29.571
-27.241
-24.937
-22.674
-20.47
-18.339
-16.298
-14.363
-12.551
-10.879
-9.361
-8.014
-6.852
-5.892
-5.148
-4.632
-4.356
-4.324
-4.543
-5.016
-5.747
-6.743
-8.005
-9.529
-11.309
-13.341
-15.612
-18.109
-20.806
-23.659
-26.628
-29.673
-32.75
-35.83
-38.873
-41.835
-44.676
-47.346
-49.803
-52.018
-53.953
-55.569
-56.85
-57.781
-58.381
-58.724
-58.881
-58.931
-58.955
-59.003
-59.138
-59.459
-60.063
-61.064
-62.569
-64.609
-67.258
-70.654
-74.845
-79.803
-85.293
-90.761
-95.655
-99.564
-102.021
-102.523
-100.655
-96.146
-89.345
-81.332
-73.233
-65.89
-60.033
-56.475
-55.959
-58.835
-63.271
-65.24
-61.055
-48.366
-28.524
-4.817
23.09
59.262
111.709
188.746
290.864
411.551
539.357
659.904
763.737
844.73
897.005
917.665
900.644
839.292
732.511
579.54
388.649
178.874
-29.295
-209.737
-342.711
-425.525
-464.443
-476.258
-479.507
-481.249
-481.922
-477.313
-461.826
-436.057
-404.119
-370.499
-339.11
-311.151
-286.584
-265.225
-246.64
-230.77
-217.337
-205.765
-196.008
-188.034
-181.297
-175.342
-169.539
-163.029
-155.62
-147.463
-138.515
-128.902
-118.974
-109.021
-99.616
-91.555
-85.136
-80.347
-77.116
-75.173
-74.266
-74.24
-74.764
-75.39
-75.861
-76.034
-75.855
-75.399
-74.689
-73.688
-72.407
-70.869
-69.076
-67.064
-64.863
-62.481
-59.946
-57.289
-54.542
-51.76
-48.99
-46.26
-43.592
-40.993
-38.472
-36.054
-33.768
-31.644
-29.721
-28.013
-26.519
-25.236
-24.146
-23.232
-22.47
-21.828
-21.264
-20.748
-20.251
-19.747
-19.217
-18.629
-17.946
-17.131
-16.141
-14.941
-13.507
-11.815
-9.846
-7.59
-5.034
-2.176
0.984
4.444
8.206
12.269
16.636
21.303
26.264
31.509
37.026
42.805
48.831
55.092
61.572
68.254
75.122
82.161
89.354
96.681
104.124
111.66
119.266
126.917
134.591
142.262
149.904
157.492
165
172.401
179.672
186.788
193.722
200.451
206.949
213.193
219.161
224.83
230.18
235.19
239.841
244.117
248.001
251.478
254.536
257.163
259.348
261.082
262.359
263.174
263.522
263.401
262.812
261.756
260.236
258.257
255.825
252.95
249.641
245.909
241.77
237.236
232.326
227.056
221.447
215.518
209.292
202.791
196.041
189.065
181.888
174.535
167.029
159.396
151.664
143.86
136.008
128.127
120.251
112.414
104.642
96.971
89.413
81.973
74.685
67.583
60.653
53.887
47.284
40.828
34.557
28.534
22.741
17.138
11.861
7.071
2.679
-1.303
-4.843
-8.271
-10.702
-11.278
-11.232
-10.943
-12.677
-19.146
-27.364
-35.344
-40.125
-37.636
-31.498
-24.785
-19.605
-19.437
-21.817
-24.246
-26.181
-26.105
-24.92
-23.784
-22.493
-21.207
-19.866
-18.25
-16.525
-14.826
-13.126
-11.429
-9.76
-8.128
-6.534
-4.984
-3.466
-1.961
-0.488
0.935
2.306
3.618
4.866
6.047
7.155
8.182
9.127
9.989
10.766
11.457
12.061
12.576
13.003
13.342
13.594
13.759
13.838
13.834
13.748
13.581
13.337
13.018
12.627
12.166
11.638
11.047
10.395
9.685
8.92
8.104
7.239
6.329
5.377
4.386
3.359
2.3
1.213
0.099
-1.037
-2.193
-3.366
-4.552
-5.75
-6.957
-8.169
-9.386
-10.603
-11.82
-13.033
-14.241
-15.441
-16.631
-17.811
-18.978
-20.13
-21.266
-22.384
-23.484
-24.564
-25.622
-26.657
-27.669
-28.656
-29.617
-30.552
-31.46
-32.342
-33.196
-34.025
-34.826
-35.602
-36.351
-37.075
-37.774
-38.448
-39.098
-39.724
-40.327
-40.907
-41.465
-42.001
-42.518
-43.015
-43.494
-43.955
-44.4
-44.828
-45.242
-45.643
-46.032
-46.411
-46.781
-47.145
-47.503
-47.858
-48.212
-48.565
-48.92
-49.278
-49.64
-50.006
-50.378
-50.757
-51.143
-51.537
-51.941
-52.355
-52.78
-53.217
-53.665
-54.126
-54.599
-55.086
-55.585
-56.098
-56.623
-57.162
-57.713
-58.275
-58.849
-59.432
-60.023
-60.62
-61.22
-61.82
-62.418
-63.009
-63.59
-64.158
-64.708
-65.238
-65.742
-66.218
-66.66
-67.066
-67.429
-67.747
-68.013
-68.225
-68.375
-68.462
-68.48
-68.424
-68.292
-68.08
-67.782
-67.397
-66.92
-66.348
-65.679
-64.909
-64.038
-63.064
-61.986
-60.806
-59.525
-58.144
-56.667
-55.097
-53.438
-51.697
-49.877
-47.986
-46.031
-44.021
-41.964
-39.87
-37.749
-35.614
-33.477
-31.353
-29.255
-27.198
-25.197
-23.269
-21.428
-19.69
-18.07
-16.581
-15.237
-14.051
-13.036
-12.206
-11.572
-11.147
-10.94
-10.959
-11.211
-11.699
-12.42
-13.373
-14.552
-15.953
-17.578
-19.425
-21.488
-23.762
-26.239
-28.904
-31.739
-34.714
-37.788
-40.921
-44.07
-47.197
-50.269
-53.252
-56.109
-58.8
-61.275
-63.488
-65.397
-66.964
-68.149
-68.932
-69.324
-69.362
-69.129
-68.705
-68.156
-67.556
-66.986
-66.548
-66.359
-66.531
-67.139
-68.276
-70.098
-72.725
-76.207
-80.417
-84.986
-89.481
-93.503
-96.609
-98.266
-98.021
-95.617
-91.292
-85.874
-80.257
-75.357
-72.143
-71.552
-74.523
-80.586
-87.26
-91.707
-90.992
-85.334
-78.211
-69.572
-56.709
-31.121
20.175
101.02
208.629
332.457
455.142
568.306
667.383
748.372
809.617
840.449
829.538
774.701
678.188
551.548
408.578
253.371
89.082
-80.102
-247.087
-394.716
-507.574
-578.956
-608.819
-606.02
-580.941
-540.444
-492.133
-443.967
-402.348
-371.917
-351.78
-335.439
-317.65
-296.405
-272.989
-252.055
-236.38
-225.6
-218.428
-212.361
-205.424
-197.037
-186.784
-174.782
-161.631
-147.821
-133.746
-119.896
-106.823
-95.126
-85.54
-78.434
-73.685
-71.018
-70.067
-70.469
-71.933
-74.115
-76.539
-78.83
-80.787
-82.297
-83.338
-83.893
-83.878
-83.223
-81.933
-80.047
-77.627
-74.754
-71.487
-67.883
-64.026
-59.995
-55.876
-51.765
-47.728
-43.809
-40.059
-36.524
-33.259
-30.336
-27.792
-25.627
-23.832
-22.377
-21.234
-20.378
-19.77
-19.359
-19.101
-18.951
-18.874
-18.844
-18.828
-18.787
-18.676
-18.443
-18.05
-17.469
-16.675
-15.649
-14.373
-12.832
-11.017
-8.929
-6.563
-3.913
-0.974
2.265
5.806
9.649
13.793
18.233
22.964
27.98
33.274
38.836
44.658
50.727
57.034
63.567
70.312
77.254
84.374
91.652
99.067
106.597
114.218
121.907
129.636
137.38
145.114
152.812
160.446
167.992
175.421
182.708
189.826
196.751
203.456
209.917
216.11
222.012
227.6
232.853
237.752
242.277
246.411
250.138
253.442
256.31
258.73
260.693
262.19
263.213
263.759
263.826
263.412
262.52
261.154
259.318
257.022
254.275
251.088
247.474
243.449
239.029
234.232
229.077
223.584
217.776
211.675
205.305
198.69
191.855
184.826
177.629
170.291
162.838
155.297
147.695
140.058
132.414
124.787
117.204
109.689
102.265
94.956
87.783
80.766
73.924
67.273
60.831
54.61
48.624
42.883
37.397
32.174
27.22
22.541
18.139
14.018
10.177
6.618
3.337
0.333
-2.397
-4.859
-7.059
-9.002
-10.695
-12.148
-13.37
-14.369
-15.157
-15.744
-16.143
-16.364
-16.419
-16.322
-16.083
-15.715
-15.229
-14.638
-13.95
-13.179
-12.333
-11.423
-10.458
-9.446
-8.396
-7.315
-6.211
-5.09
-3.959
-2.824
-1.69
-0.564
0.55
1.647
2.721
3.77
4.789
5.774
6.722
7.631
8.498
9.321
10.098
10.828
11.509
12.142
12.725
13.258
13.74
14.172
14.553
14.882
15.161
15.389
15.564
15.687
15.758
15.774
15.737
15.644
15.497
15.293
15.033
14.718
14.346
13.918
13.436
12.899
12.309
11.667
10.974
10.232
9.443
8.609
7.732
6.813
5.856
4.861
3.833
2.772
1.68
0.561
-0.584
-1.752
-2.941
-4.148
-5.369
-6.603
-7.844
-9.091
-10.34
-11.587
-12.828
-14.059
-15.278
-16.481
-17.663
-18.823
-19.956
-21.06
-22.132
-23.17
-24.172
-25.136
-26.062
-26.947
-27.793
-28.597
-29.361
-30.084
-30.766
-31.407
-32.008
-32.57
-33.092
-33.576
-34.023
-34.433
-34.809
-35.152
-35.463
-35.745
-36
-36.229
-36.436
-36.623
-36.793
-36.948
-37.092
-37.228
-37.358
-37.487
-37.616
-37.75
-37.889
-38.037
-38.196
-38.366
-38.549
-38.747
-38.959
-39.187
-39.431
-39.69
-39.966
-40.257
-40.564
-40.886
-41.221
-41.569
-41.929
-42.3
-42.68
-43.067
-43.461
-43.858
-44.258
-44.658
-45.055
-45.448
-45.832
-46.204
-46.562
-46.901
-47.217
-47.507
-47.768
-47.995
-48.184
-48.333
-48.437
-48.494
-48.5
-48.453
-48.35
-48.189
-47.967
-47.683
-47.335
-46.922
-46.441
-45.893
-45.275
-44.588
-43.83
-43.003
-42.106
-41.138
-40.102
-38.997
-37.826
-36.59
-35.292
-33.936
-32.525
-31.064
-29.559
-28.017
-26.444
-24.848
-23.24
-21.63
-20.026
-18.44
-16.884
-15.369
-13.908
-12.512
-11.191
-9.959
-8.825
-7.803
-6.905
-6.142
-5.524
-5.065
-4.775
-4.665
-4.745
-5.021
-5.498
-6.179
-7.068
-8.17
-9.491
-11.033
-12.793
-14.766
-16.947
-19.324
-21.884
-24.6
-27.432
-30.342
-33.291
-36.244
-39.172
-42.039
-44.803
-47.422
-49.848
-52.039
-53.964
-55.591
-56.884
-57.829
-58.425
-58.699
-58.728
-58.588
-58.351
-58.093
-57.868
-57.745
-57.829
-58.22
-59.021
-60.34
-62.23
-64.781
-68.136
-72.321
-77.274
-82.794
-88.431
-93.715
-98.266
-101.593
-103.145
-102.57
-99.619
-94.374
-87.512
-79.792
-71.899
-64.661
-58.824
-54.79
-52.723
-52.177
-51.636
-49.086
-42.327
-28.888
-6.243
27.796
74.992
136.59
211.088
294.069
381.051
467.033
549.71
631.824
712.821
786.715
842.456
861.897
830.972
747.862
619.005
458.024
281.652
101.79
-70.621
-221.408
-339.778
-419.938
-462.59
-479.125
-483.248
-482.446
-479.277
-471.362
-454.679
-429.982
-400.555
-369.554
-340.232
-314.042
-291.463
-272.9
-257.937
-245.683
-235.308
-226.409
-218.796
-212.083
-205.312
-197.298
-187.494
-176.073
-163.553
-150.392
-136.92
-123.498
-110.861
-100
-91.489
-85.445
-81.673
-79.789
-79.473
-80.469
-82.396
-84.772
-87.229
-89.508
-91.471
-93.104
-94.367
-95.187
-95.507
-95.27
-94.455
-93.085
-91.201
-88.852
-86.105
-83.024
-79.675
-76.132
-72.468
-68.76
-65.071
-61.444
-57.925
-54.561
-51.415
-48.564
-46.05
-43.881
-42.05
-40.532
-39.299
-38.331
-37.59
-37.029
-36.606
-36.28
-36.018
-35.795
-35.579
-35.33
-35.003
-34.548
-33.925
-33.11
-32.079
-30.815
-29.303
-27.53
-25.49
-23.186
-20.616
-17.778
-14.666
-11.274
-7.601
-3.65
0.574
5.066
9.818
14.825
20.078
25.565
31.278
37.206
43.336
49.659
56.161
62.826
69.637
76.575
83.621
90.754
97.953
105.194
112.456
119.715
126.949
134.134
141.245
148.26
155.154
161.903
168.484
174.873
181.046
186.982
192.658
198.052
203.144
207.914
212.343
216.413
220.108
223.412
226.311
228.791
230.842
232.454
233.617
234.327
234.577
234.365
233.689
232.55
230.95
228.892
226.384
223.433
220.047
216.238
212.019
207.405
202.411
197.055
191.357
185.336
179.014
172.415
165.56
158.476
151.188
143.721
136.102
128.358
120.517
112.604
104.648
96.675
88.712
80.783
72.914
65.13
57.453
49.906
42.511
35.287
28.254
21.429
14.829
8.468
2.359
-3.485
-9.054
-14.341
-19.338
-24.04
-28.443
-32.544
-36.343
-39.84
-43.038
-45.939
-48.549
-50.874
-52.92
-54.696
-56.211
-57.475
-58.499
-59.293
-59.869
-60.239
-60.416
-60.412
-60.24
-59.912
-59.442
-58.843
-58.127
-57.307
-56.395
-55.404
-54.345
-53.23
-52.068
-50.871
-49.648
-48.409
-47.162
-45.916
-44.677
-43.454
-42.252
-41.077
-39.934
-38.827
-37.76
-36.736
-35.759
-34.83
-33.953
-33.128
-32.357
-31.643
-30.984
-30.383
-29.839
-29.354
-28.926
-28.556
-28.242
-27.986
-27.785
-27.639
-27.548
-27.509
-27.521
-27.584
-27.695
-27.854
-28.057
-28.304
-28.593
-28.923
-29.29
-29.695
-30.135
-30.608
-31.113
-31.648
-32.21
-32.798
-33.408
-34.039
-34.688
-35.352
-36.028
-36.714
-37.406
-38.102
-38.797
-39.489
-40.175
-40.851
-41.514
-42.161
-42.788
-43.394
-43.975
-44.528
-45.051
-45.542
-45.997
-46.416
-46.794
-47.131
-47.424
-47.671
-47.871
-48.021
-48.122
-48.171
-48.169
-48.114
-48.007
-47.848
-47.637
-47.374
-47.061
-46.699
-46.289
-45.832
-45.331
-44.787
-44.203
-43.581
-42.923
-42.232
-41.511
-40.761
-39.985
-39.186
-38.366
-37.529
-36.679
-35.818
-34.95
-34.079
-33.209
-32.344
-31.487
-30.641
-29.809
-28.996
-28.203
-27.433
-26.69
-25.977
-25.295
-24.647
-24.036
-23.463
-22.931
-22.44
-21.992
-21.588
-21.228
-20.914
-20.646
-20.426
-20.254
-20.13
-20.055
-20.028
-20.049
-20.115
-20.225
-20.374
-20.56
-20.778
-21.023
-21.289
-21.572
-21.869
-22.174
-22.483
-22.79
-23.092
-23.382
-23.657
-23.908
-24.128
-24.308
-24.441
-24.52
-24.542
-24.499
-24.386
-24.197
-23.927
-23.576
-23.138
-22.606
-21.97
-21.218
-20.344
-19.353
-18.254
-17.055
-15.761
-14.379
-12.921
-11.407
-9.847
-8.242
-6.582
-4.855
-3.061
-1.21
0.676
2.575
4.475
6.38
8.292
10.207
12.118
14.021
15.929
17.859
19.81
21.747
23.609
25.335
26.887
28.243
29.394
30.326
31.016
31.428
31.537
31.33
30.797
29.92
28.667
26.996
24.899
22.404
19.576
16.476
13.143
9.598
5.86
1.956
-2.071
-6.153
-10.242
-14.298
-18.284
-22.181
-25.936
-29.48
-32.766
-35.745
-38.391
-40.695
-42.595
-43.994
-44.878
-45.307
-45.449
-45.607
-46.015
-46.823
-48.234
-50.382
-53.168
-56.289
-59.156
-61.023
-61.389
-59.933
-56.301
-50.33
-42.26
-32.798
-23.139
-14.484
-7.623
-3.127
-1.649
-3.852
-10.055
-19.9
-32.409
-46.641
-61.872
-77.376
-92.047
-104.045
-111.232
-111.749
-103.956
-85.898
-55.467
-10.745
49.739
125.306
213.029
309.537
410.625
513.518
618.168
722.784
822.978
909.108
965.194
977.086
937.22
847.767
720.7
569.19
402.229
225.387
43.411
-133.994
-290.265
-410.264
-485.702
-517.772
-518.321
-499.602
-471.377
-442.151
-414.981
-392.94
-377.001
-362.856
-347.523
-327.979
-304.143
-280.292
-258.842
-241.133
-226.819
-213.618
-200.961
-189.08
-177.789
-167.318
-157.409
-147.35
-137.189
-127.104
-116.964
-106.809
-96.853
-87.311
-78.694
-71.703
-66.544
-63.14
-61.399
-61.056
-61.859
-63.632
-66.017
-68.529
-70.866
-72.852
-74.393
-75.529
-76.248
-76.48
-76.207
-75.43
-74.173
-72.496
-70.449
-68.063
-65.386
-62.465
-59.362
-56.162
-52.932
-49.722
-46.565
-43.48
-40.498
-37.666
-35.032
-32.648
-30.539
-28.705
-27.14
-25.831
-24.757
-23.9
-23.226
-22.687
-22.247
-21.872
-21.535
-21.215
-20.882
-20.496
-20.015
-19.395
-18.599
-17.604
-16.385
-14.924
-13.206
-11.22
-8.961
-6.431
-3.63
-0.553
2.802
6.441
10.364
14.566
19.044
23.79
28.798
34.058
39.563
45.302
51.264
57.438
63.812
70.374
77.111
84.005
91.037
98.189
105.437
112.761
120.137
127.541
134.948
142.334
149.674
156.943
164.117
171.17
178.078
184.815
191.359
197.683
203.766
209.584
215.115
220.337
225.229
229.773
233.948
237.738
241.127
244.098
246.64
248.739
250.387
251.573
252.293
252.541
252.315
251.614
250.44
248.796
246.687
244.12
241.105
237.653
233.776
229.489
224.807
219.747
214.329
208.573
202.5
196.132
189.494
182.61
175.506
168.209
160.745
153.142
145.428
137.632
129.78
121.902
114.024
106.173
98.376
90.658
83.043
75.556
68.219
61.051
54.075
47.307
40.765
34.464
28.418
22.64
17.139
11.927
7.009
2.392
-1.919
-5.921
-9.613
-12.995
-16.068
-18.836
-21.304
-23.477
-25.363
-26.97
-28.308
-29.387
-30.218
-30.814
-31.187
-31.35
-31.317
-31.102
-30.718
-30.18
-29.502
-28.697
-27.781
-26.766
-25.665
-24.493
-23.261
-21.982
-20.668
-19.33
-17.979
-16.627
-15.282
-13.953
-12.65
-11.379
-10.148
-8.963
-7.829
-6.751
-5.732
-4.775
-3.884
-3.06
-2.304
-1.618
-1.002
-0.455
0.021
0.429
0.769
1.042
1.25
1.394
1.476
1.498
1.462
1.37
1.225
1.029
0.786
0.498
0.168
-0.201
-0.606
-1.044
-1.513
-2.01
-2.532
-3.079
-3.647
-4.236
-4.844
-5.469
-6.111
-6.767
-7.439
-8.123
-8.82
-9.529
-10.249
-10.98
-11.719
-12.468
-13.223
-13.986
-14.754
-15.527
-16.304
-17.084
-17.867
-18.653
-19.442
-20.234
-21.029
-21.827
-22.628
-23.433
-24.241
-25.052
-25.865
-26.681
-27.498
-28.316
-29.133
-29.949
-30.764
-31.575
-32.381
-33.181
-33.975
-34.76
-35.536
-36.302
-37.057
-37.802
-38.535
-39.257
-39.968
-40.667
-41.355
-42.031
-42.695
-43.347
-43.986
-44.612
-45.224
-45.822
-46.406
-46.976
-47.531
-48.073
-48.603
-49.119
-49.625
-50.12
-50.607
-51.087
-51.562
-52.034
-52.505
-52.978
-53.456
-53.94
-54.433
-54.936
-55.451
-55.979
-56.521
-57.077
-57.647
-58.233
-58.834
-59.449
-60.08
-60.726
-61.386
-62.06
-62.745
-63.442
-64.148
-64.86
-65.577
-66.295
-67.01
-67.72
-68.419
-69.105
-69.771
-70.412
-71.022
-71.595
-72.124
-72.601
-73.021
-73.375
-73.657
-73.861
-73.98
-74.009
-73.943
-73.777
-73.506
-73.127
-72.635
-72.029
-71.304
-70.46
-69.494
-68.407
-67.201
-65.875
-64.433
-62.877
-61.214
-59.446
-57.582
-55.627
-53.589
-51.478
-49.304
-47.077
-44.81
-42.517
-40.213
-37.917
-35.646
-33.418
-31.254
-29.173
-27.193
-25.335
-23.615
-22.047
-20.646
-19.427
-18.404
-17.591
-17
-16.642
-16.524
-16.654
-17.035
-17.671
-18.561
-19.696
-21.069
-22.675
-24.513
-26.591
-28.914
-31.476
-34.27
-37.287
-40.509
-43.92
-47.486
-51.159
-54.885
-58.613
-62.294
-65.893
-69.366
-72.654
-75.689
-78.391
-80.683
-82.517
-83.858
-84.671
-84.945
-84.685
-83.923
-82.756
-81.304
-79.685
-78.04
-76.5
-75.191
-74.298
-74.057
-74.664
-76.24
-78.756
-81.995
-85.688
-89.549
-93.192
-96.11
-97.837
-98.079
-96.913
-94.922
-92.917
-91.713
-92.148
-95.037
-100.882
-109.745
-120.994
-133.003
-143.46
-149.636
-148.559
-137.328
-113.26
-74.154
-18.784
53.139
139.807
236.783
339.231
441.741
540.238
634.502
722.779
799.697
857.16
881.864
861.643
793.079
678.371
525.719
349.289
161.82
-23.076
-188.654
-322.663
-418.872
-477.84
-509.843
-527.269
-536.877
-540.77
-536.391
-519.987
-492.592
-457.849
-420.088
-383.765
-350.967
-322.614
-299.631
-281.892
-268.568
-259.085
-251.911
-244.234
-235.234
-225.074
-214.724
-209.34
-210.687
-213.672
-212.104
-196.549
-161.78
-116.16
-71.92
-40.946
-32.282
-41.504
-57.681
-72.669
-79.457
-78.172
-74.621
-71.735
-71.46
-74.148
-77.447
-80.414
-83.084
-85.211
-87.016
-88.54
-89.435
-89.527
-88.794
-87.206
-84.789
-81.679
-78.042
-73.975
-69.554
-64.942
-60.364
-56.016
-52.037
-48.34
-44.609
-40.735
-36.925
-33.296
-29.718
-26.254
-23.182
-20.969
-20.846
-22.948
-25.356
-27.723
-30.91
-36.682
-49.591
-68.791
-87.201
-98.188
-93.906
-73.774
-46.395
-18.866
1.959
13.478
19.417
21.665
21.665
20.572
17.535
13.026
8.122
3.44
0.223
-0.424
1.81
6.866
14.104
22.491
31.398
40.553
49.71
58.617
67.072
74.966
82.434
89.839
97.392
105.116
112.967
120.853
128.735
136.626
144.499
152.27
159.873
167.275
174.468
181.475
188.303
194.928
201.324
207.459
213.308
218.856
224.092
228.999
233.561
237.755
241.56
244.958
247.933
250.47
252.552
254.163
255.29
255.926
256.07
255.724
254.891
253.573
251.776
249.504
246.767
243.575
239.942
235.88
231.406
226.537
221.293
215.694
209.764
203.526
197.004
190.224
183.211
175.993
168.597
161.052
153.386
145.628
137.806
129.95
122.087
114.246
106.454
98.737
91.121
83.63
76.288
69.115
62.134
55.362
48.817
42.514
36.468
30.691
25.194
19.987
15.077
10.471
6.172
2.184
-1.491
-4.855
-7.907
-10.652
-13.093
-15.235
-17.085
-18.65
-19.939
-20.961
-21.727
-22.248
-22.535
-22.602
-22.461
-22.126
-21.611
-20.929
-20.096
-19.125
-18.03
-16.825
-15.523
-14.138
-12.682
-11.168
-9.607
-8.011
-6.391
-4.757
-3.119
-1.487
0.131
1.726
3.291
4.817
6.299
7.729
9.103
10.413
11.656
12.827
13.922
14.938
15.873
16.725
17.492
18.173
18.769
19.279
19.704
20.044
20.302
20.479
20.576
20.596
20.54
20.411
20.211
19.942
19.607
19.208
18.747
18.229
17.654
17.027
16.351
15.628
14.862
14.056
13.215
12.341
11.439
10.511
9.562
8.595
7.612
6.618
5.615
4.606
3.592
2.577
1.561
0.547
-0.463
-1.469
-2.47
-3.463
-4.448
-5.423
-6.388
-7.341
-8.282
-9.209
-10.121
-11.018
-11.898
-12.761
-13.606
-14.433
-15.241
-16.032
-16.803
-17.556
-18.292
-19.009
-19.711
-20.396
-21.065
-21.72
-22.36
-22.987
-23.6
-24.2
-24.787
-25.361
-25.922
-26.471
-27.007
-27.531
-28.042
-28.541
-29.029
-29.506
-29.972
-30.43
-30.879
-31.321
-31.757
-32.19
-32.62
-33.049
-33.48
-33.912
-34.35
-34.793
-35.244
-35.703
-36.172
-36.651
-37.141
-37.643
-38.158
-38.687
-39.23
-39.788
-40.362
-40.953
-41.562
-42.189
-42.834
-43.497
-44.18
-44.881
-45.601
-46.338
-47.091
-47.86
-48.641
-49.434
-50.234
-51.039
-51.843
-52.644
-53.435
-54.212
-54.967
-55.696
-56.394
-57.056
-57.677
-58.252
-58.777
-59.248
-59.661
-60.011
-60.294
-60.502
-60.628
-60.666
-60.612
-60.462
-60.21
-59.854
-59.388
-58.812
-58.126
-57.332
-56.424
-55.397
-54.244
-52.964
-51.567
-50.065
-48.472
-46.797
-45.053
-43.258
-41.433
-39.597
-37.755
-35.903
-34.034
-32.152
-30.273
-28.421
-26.622
-24.891
-23.225
-21.62
-20.079
-18.606
-17.199
-15.843
-14.511
-13.201
-11.939
-10.783
-9.788
-8.988
-8.398
-8.018
-7.851
-7.914
-8.233
-8.835
-9.73
-10.932
-12.464
-14.367
-16.687
-19.427
-22.539
-25.924
-29.485
-33.144
-36.84
-40.526
-44.141
-47.615
-50.878
-53.865
-56.521
-58.792
-60.613
-61.906
-62.616
-62.738
-62.333
-61.528
-60.458
-59.237
-57.985
-56.827
-55.899
-55.351
-55.333
-55.944
-57.289
-59.512
-62.668
-66.766
-71.72
-77.195
-82.78
-88.097
-92.685
-96.043
-97.835
-97.748
-95.704
-92.207
-87.838
-83.03
-78.176
-73.644
-69.819
-67.099
-65.49
-62.852
-55.577
-41.09
-18.338
9.976
39.13
68.757
103.901
153.882
227.22
324.568
437.131
550.822
655.094
744.301
815.642
867.212
889.667
870.878
805.353
692.565
540.663
365.323
179.902
-2.026
-164.896
-298.026
-395.29
-456.144
-489.673
-506.922
-513.895
-513.015
-502.237
-478.332
-442.925
-400.4
-355.648
-313.68
-277.35
-247.803
-225.778
-210.979
-202.349
-198.555
-198.028
-199.178
-200.405
-200.102
-196.8
-189.805
-179.282
-165.802
-150.2
-133.386
-116.288
-100.03
-85.785
-74.201
-65.418
-59.288
-55.415
-53.477
-53.208
-54.093
-55.579
-57.236
-58.736
-60.066
-61.354
-62.504
-63.364
-63.93
-64.226
-64.532
-65.21
-66.141
-67.022
-67.634
-67.841
-67.593
-66.753
-64.793
-61.103
-55.596
-48.655
-40.989
-33.163
-25.438
-18.178
-12.013
-7.689
-5.702
-5.88
-7.429
-9.733
-12.512
-15.483
-18.345
-20.612
-21.713
-21.61
-20.799
-19.643
-18.319
-16.9
-15.316
-13.652
-12.173
-10.905
-9.638
-8.203
-6.464
-4.379
-2.036
0.543
3.42
6.614
10.109
13.886
17.898
22.13
26.609
31.346
36.344
41.6
47.094
52.809
58.738
64.87
71.196
77.701
84.366
91.168
98.086
105.097
112.178
119.307
126.456
133.599
140.711
147.766
154.744
161.623
168.382
174.997
181.445
187.703
193.75
199.563
205.122
210.407
215.397
220.074
224.42
228.418
232.055
235.315
238.185
240.654
242.711
244.348
245.558
246.335
246.675
246.577
246.04
245.064
243.654
241.813
239.548
236.867
233.777
230.289
226.415
222.168
217.563
212.614
207.338
201.754
195.88
189.736
183.344
176.725
169.901
162.897
155.737
148.444
141.043
133.558
126.015
118.438
110.852
103.279
95.744
88.27
80.878
73.591
66.429
59.412
52.558
45.885
39.408
33.145
27.107
21.308
15.761
10.474
5.458
0.721
-3.732
-7.895
-11.763
-15.334
-18.608
-21.584
-24.263
-26.649
-28.744
-30.555
-32.087
-33.348
-34.344
-35.086
-35.583
-35.845
-35.884
-35.711
-35.339
-34.78
-34.046
-33.152
-32.11
-30.933
-29.635
-28.229
-26.728
-25.146
-23.495
-21.789
-20.04
-18.26
-16.462
-14.657
-12.856
-11.069
-9.307
-7.579
-5.894
-4.26
-2.684
-1.174
0.264
1.626
2.905
4.097
5.2
6.21
7.126
7.944
8.666
9.289
9.814
10.241
10.571
10.806
10.947
10.997
10.957
10.831
10.622
10.333
9.969
9.532
9.027
8.458
7.83
7.146
6.411
5.628
4.803
3.94
3.042
2.114
1.16
0.183
-0.812
-1.823
-2.846
-3.878
-4.916
-5.957
-6.999
-8.039
-9.075
-10.105
-11.128
-12.141
-13.143
-14.134
-15.112
-16.076
-17.026
-17.96
-18.879
-19.782
-20.669
-21.539
-22.392
-23.228
-24.046
-24.847
-25.63
-26.396
-27.143
-27.873
-28.585
-29.278
-29.954
-30.611
-31.25
-31.871
-32.473
-33.057
-33.623
-34.171
-34.699
-35.209
-35.7
-36.172
-36.624
-37.056
-37.468
-37.859
-38.231
-38.582
-38.912
-39.222
-39.513
-39.783
-40.034
-40.267
-40.482
-40.68
-40.862
-41.03
-41.184
-41.326
-41.457
-41.579
-41.694
-41.802
-41.905
-42.004
-42.102
-42.199
-42.297
-42.398
-42.502
-42.613
-42.731
-42.859
-42.997
-43.147
-43.311
-43.49
-43.685
-43.897
-44.127
-44.374
-44.64
-44.924
-45.225
-45.543
-45.876
-46.223
-46.582
-46.95
-47.325
-47.703
-48.082
-48.459
-48.829
-49.189
-49.534
-49.861
-50.165
-50.442
-50.687
-50.896
-51.064
-51.186
-51.257
-51.274
-51.23
-51.121
-50.942
-50.689
-50.358
-49.946
-49.447
-48.861
-48.183
-47.414
-46.551
-45.595
-44.546
-43.405
-42.174
-40.857
-39.457
-37.981
-36.435
-34.824
-33.158
-31.448
-29.705
-27.94
-26.165
-24.392
-22.637
-20.916
-19.243
-17.634
-16.103
-14.665
-13.335
-12.13
-11.066
-10.159
-9.421
-8.865
-8.502
-8.348
-8.414
-8.706
-9.231
-9.983
-10.964
-12.18
-13.635
-15.33
-17.265
-19.429
-21.813
-24.402
-27.177
-30.109
-33.165
-36.3
-39.47
-42.631
-45.75
-48.805
-51.772
-54.619
-57.29
-59.716
-61.837
-63.617
-65.041
-66.138
-66.91
-67.331
-67.492
-67.575
-67.772
-68.325
-69.319
-70.627
-72.282
-74.477
-77.224
-80.458
-83.999
-87.384
-90.482
-93.548
-96.528
-99.192
-101.41
-102.944
-103.853
-104.679
-105.576
-106.445
-107.488
-108.811
-110.568
-113.101
-116.189
-119.183
-121.525
-122.25
-120.032
-113.601
-101.241
-81.152
-51.951
-12.079
39.706
103.846
179.493
263.993
353.623
444.178
533.407
620.888
705.264
783.954
848.324
885.067
882.908
832.454
733.603
594.462
423.332
233.427
37.832
-150.735
-314.359
-440.366
-523.559
-564.782
-573.439
-559.919
-530.897
-492.969
-453.071
-416.699
-388.747
-369.618
-353.471
-335.499
-313.753
-289.644
-268.529
-253.725
-245.146
-241.219
-238.879
-235.855
-231.224
-224.146
-214.393
-202.21
-187.902
-172.051
-155.373
-138.575
-122.519
-108.211
-96.269
-86.886
-80.024
-75.392
-72.652
-71.504
-71.538
-72.26
-73.348
-74.611
-75.903
-77.19
-78.418
-79.503
-80.4
-81.081
-81.474
-81.503
-81.124
-80.314
-79.093
-77.52
-75.64
-73.494
-71.126
-68.583
-65.925
-63.21
-60.478
-57.761
-55.1
-52.547
-50.171
-48.043
-46.199
-44.645
-43.374
-42.367
-41.601
-41.053
-40.688
-40.46
-40.33
-40.26
-40.218
-40.177
-40.102
-39.945
-39.658
-39.184
-38.485
-37.531
-36.299
-34.771
-32.933
-30.776
-28.296
-25.5
-22.389
-18.962
-15.216
-11.148
-6.758
-2.054
2.955
8.259
13.845
19.703
25.819
32.18
38.765
45.563
52.561
59.75
67.119
74.648
82.306
90.064
97.898
105.778
113.677
121.561
129.392
137.143
144.8
152.35
159.781
167.071
174.187
181.098
187.774
194.194
200.355
206.245
211.841
217.133
222.116
226.792
231.179
235.26
238.989
242.325
245.227
247.674
249.663
251.189
252.237
252.795
252.838
252.358
251.363
249.841
247.771
245.13
241.88
238.03
233.637
228.75
223.414
217.665
211.518
205.004
198.167
191.043
183.667
176.069
168.266
160.298
152.22
144.091
135.976
127.908
119.88
111.9
103.978
96.128
88.378
80.741
73.221
65.834
58.604
51.555
44.717
38.103
31.712
25.545
19.599
13.883
8.421
3.23
-1.682
-6.303
-10.63
-14.656
-18.369
-21.768
-24.864
-27.665
-30.183
-32.426
-34.397
-36.103
-37.552
-38.755
-39.726
-40.476
-41.018
-41.363
-41.528
-41.525
-41.37
-41.077
-40.656
-40.118
-39.474
-38.735
-37.912
-37.017
-36.059
-35.049
-33.996
-32.911
-31.804
-30.682
-29.554
-28.426
-27.305
-26.196
-25.106
-24.038
-22.997
-21.987
-21.01
-20.071
-19.171
-18.314
-17.502
-16.737
-16.021
-15.355
-14.741
-14.179
-13.672
-13.219
-12.821
-12.479
-12.193
-11.963
-11.79
-11.672
-11.609
-11.601
-11.646
-11.742
-11.887
-12.081
-12.321
-12.605
-12.931
-13.298
-13.703
-14.144
-14.618
-15.124
-15.658
-16.218
-16.8
-17.401
-18.018
-18.646
-19.283
-19.924
-20.565
-21.203
-21.833
-22.451
-23.055
-23.64
-24.202
-24.739
-25.248
-25.726
-26.171
-26.582
-26.957
-27.296
-27.596
-27.858
-28.082
-28.267
-28.414
-28.523
-28.595
-28.631
-28.631
-28.598
-28.532
-28.436
-28.312
-28.163
-27.99
-27.797
-27.587
-27.362
-27.127
-26.884
-26.637
-26.389
-26.144
-25.905
-25.675
-25.456
-25.251
-25.061
-24.89
-24.736
-24.603
-24.491
-24.4
-24.332
-24.285
-24.26
-24.258
-24.278
-24.32
-24.384
-24.469
-24.574
-24.7
-24.845
-25.01
-25.194
-25.395
-25.613
-25.847
-26.097
-26.361
-26.637
-26.925
-27.224
-27.531
-27.847
-28.17
-28.499
-28.834
-29.174
-29.52
-29.87
-30.225
-30.585
-30.949
-31.318
-31.692
-32.069
-32.449
-32.832
-33.217
-33.602
-33.987
-34.368
-34.745
-35.114
-35.472
-35.817
-36.146
-36.453
-36.736
-36.991
-37.213
-37.399
-37.544
-37.644
-37.695
-37.694
-37.635
-37.515
-37.33
-37.074
-36.745
-36.337
-35.848
-35.272
-34.608
-33.853
-33.004
-32.059
-31.018
-29.88
-28.646
-27.316
-25.894
-24.38
-22.781
-21.1
-19.345
-17.522
-15.64
-13.708
-11.738
-9.741
-7.73
-5.719
-3.721
-1.752
0.173
2.039
3.829
5.529
7.124
8.601
9.943
11.138
12.17
13.027
13.694
14.16
14.412
14.44
14.24
13.809
13.147
12.255
11.133
9.779
8.193
6.379
4.341
2.086
-0.375
-3.025
-5.833
-8.757
-11.756
-14.79
-17.821
-20.819
-23.751
-26.581
-29.272
-31.777
-34.057
-36.074
-37.784
-39.154
-40.159
-40.799
-41.116
-41.189
-41.101
-40.93
-40.731
-40.558
-40.494
-40.63
-41.082
-41.96
-43.319
-45.265
-47.971
-51.532
-55.926
-60.912
-65.94
-70.442
-74.003
-76.124
-76.236
-73.984
-69.294
-62.733
-55.611
-49.198
-44.302
-41.827
-42.818
-47.648
-56.124
-66.052
-72.842
-73.481
-66.296
-50.808
-29.05
1.568
46.291
108.799
195.084
302.009
419.713
538.834
641.829
718.552
766.257
781.04
770.945
740.267
685.585
607.208
496.565
348.573
173.318
-16.679
-198.689
-346.395
-450.139
-508.785
-531.513
-537.652
-537.069
-532.699
-524.016
-505.156
-475.38
-438.482
-398.376
-359.793
-325.339
-295.863
-271.989
-253.345
-239.183
-228.728
-220.958
-215.108
-210.429
-205.535
-199.053
-190.363
-179.412
-166.616
-152.639
-137.976
-123.147
-109.108
-96.927
-87.208
-80.143
-75.547
-73.003
-72.172
-72.74
-74.257
-76.192
-78.141
-79.845
-81.191
-82.179
-82.782
-82.936
-82.591
-81.712
-80.3
-78.381
-75.998
-73.199
-70.043
-66.608
-62.97
-59.21
-55.411
-51.641
-47.952
-44.385
-40.981
-37.782
-34.846
-32.241
-29.999
-28.125
-26.611
-25.428
-24.549
-23.946
-23.576
-23.387
-23.334
-23.374
-23.474
-23.608
-23.743
-23.837
-23.847
-23.721
-23.418
-22.912
-22.174
-21.186
-19.93
-18.389
-16.558
-14.435
-12.019
-9.302
-6.281
-2.946
0.704
4.667
8.941
13.519
18.396
23.564
29.013
34.734
40.714
46.942
53.405
60.09
66.984
74.067
81.322
88.727
96.263
103.905
111.632
119.417
127.236
135.063
142.872
150.638
158.335
165.936
173.414
180.745
187.902
194.859
201.591
208.075
214.286
220.201
225.799
231.059
235.962
240.489
244.624
248.351
251.657
254.528
256.955
258.927
260.438
261.481
262.052
262.149
261.771
260.919
259.597
257.81
255.564
252.869
249.734
246.173
242.199
237.827
233.075
227.962
222.507
216.731
210.657
204.308
197.709
190.883
183.858
176.658
169.31
161.84
154.274
146.639
138.96
131.264
123.576
115.92
108.321
100.801
93.384
86.091
78.942
71.957
65.154
58.55
52.161
46.001
40.083
34.417
29.013
23.88
19.024
14.45
10.161
6.159
2.446
-0.98
-4.12
-6.978
-9.557
-11.863
-13.902
-15.682
-17.21
-18.495
-19.548
-20.376
-20.992
-21.406
-21.629
-21.674
-21.551
-21.273
-20.852
-20.301
-19.633
-18.858
-17.99
-17.039
-16.018
-14.937
-13.807
-12.637
-11.438
-10.218
-8.986
-7.749
-6.516
-5.293
-4.088
-2.905
-1.75
-0.629
0.454
1.496
2.493
3.442
4.339
5.182
5.97
6.7
7.371
7.981
8.531
9.02
9.447
9.814
10.121
10.368
10.556
10.686
10.758
10.775
10.736
10.643
10.496
10.298
10.048
9.748
9.4
9.005
8.563
8.077
7.547
6.975
6.362
5.709
5.018
4.291
3.528
2.732
1.904
1.046
0.161
-0.751
-1.688
-2.649
-3.631
-4.634
-5.656
-6.696
-7.751
-8.82
-9.901
-10.991
-12.09
-13.194
-14.302
-15.412
-16.522
-17.63
-18.734
-19.832
-20.922
-22.003
-23.072
-24.128
-25.168
-26.193
-27.199
-28.187
-29.155
-30.102
-31.028
-31.932
-32.814
-33.672
-34.507
-35.317
-36.102
-36.862
-37.597
-38.307
-38.991
-39.651
-40.288
-40.901
-41.492
-42.062
-42.612
-43.144
-43.658
-44.156
-44.64
-45.11
-45.57
-46.02
-46.463
-46.9
-47.333
-47.763
-48.192
-48.622
-49.053
-49.486
-49.923
-50.365
-50.813
-51.268
-51.729
-52.2
-52.679
-53.168
-53.666
-54.175
-54.693
-55.22
-55.756
-56.299
-56.848
-57.402
-57.959
-58.517
-59.075
-59.629
-60.177
-60.717
-61.244
-61.755
-62.248
-62.716
-63.158
-63.567
-63.94
-64.273
-64.56
-64.798
-64.981
-65.106
-65.168
-65.163
-65.085
-64.932
-64.699
-64.382
-63.977
-63.482
-62.893
-62.207
-61.422
-60.538
-59.552
-58.465
-57.275
-55.983
-54.591
-53.1
-51.512
-49.831
-48.06
-46.205
-44.271
-42.267
-40.2
-38.08
-35.918
-33.727
-31.518
-29.305
-27.101
-24.922
-22.781
-20.694
-18.675
-16.739
-14.901
-13.178
-11.585
-10.14
-8.857
-7.75
-6.835
-6.127
-5.639
-5.383
-5.366
-5.594
-6.076
-6.818
-7.831
-9.119
-10.68
-12.507
-14.595
-16.933
-19.505
-22.286
-25.235
-28.31
-31.468
-34.668
-37.878
-41.059
-44.165
-47.149
-49.96
-52.556
-54.909
-56.99
-58.77
-60.231
-61.37
-62.209
-62.816
-63.27
-63.65
-64.041
-64.521
-65.162
-66.052
-67.286
-68.954
-71.154
-73.955
-77.379
-81.477
-86.317
-91.896
-98.133
-104.746
-111.223
-117.044
-121.771
-124.941
-126.038
-124.594
-120.263
-113.218
-104.284
-94.405
-84.304
-74.648
-66.252
-59.93
-56.265
-53.967
-49.533
-39.575
-22.296
0.583
25.534
52.003
84.732
133.174
205.381
302.702
417.103
534.159
641.933
732.904
804.868
857.346
884.413
876.86
825.044
723.749
575.738
391.394
187.399
-17.718
-203.991
-353.873
-458.64
-518.121
-540.083
-538.594
-524.296
-501.31
-473.813
-441.723
-405.642
-371.414
-339.218
-309.826
-285.367
-264.049
-247.543
-237.074
-231.263
-229.655
-230.28
-230.921
-230.108
-226.298
-218.944
-208.26
-194.738
-179.208
-162.419
-145.084
-128.276
-113.114
-100.29
-90.088
-82.433
-77.021
-73.547
-71.725
-71.118
-71.189
-71.578
-72.074
-72.564
-73.053
-73.516
-73.875
-74.11
-74.228
-74.202
-74.002
-73.578
-72.845
-71.782
-70.415
-68.772
-66.91
-64.869
-62.671
-60.362
-57.986
-55.577
-53.172
-50.795
-48.459
-46.198
-44.048
-42.047
-40.249
-38.678
-37.335
-36.215
-35.297
-34.561
-33.989
-33.549
-33.204
-32.92
-32.667
-32.415
-32.144
-31.82
-31.405
-30.857
-30.128
-29.183
-27.995
-26.541
-24.804
-22.771
-20.431
-17.781
-14.824
-11.562
-7.993
-4.118
0.064
4.549
9.33
14.396
19.737
25.34
31.192
37.281
43.591
50.107
56.816
63.7
70.748
77.941
85.261
92.689
100.203
107.78
115.4
123.037
130.667
138.266
145.809
153.271
160.628
167.855
174.928
181.823
188.516
194.983
201.202
207.151
212.809
218.155
223.17
227.836
232.136
236.056
239.58
242.696
245.392
247.659
249.487
250.87
251.801
252.276
252.292
251.849
250.947
249.589
247.78
245.524
242.832
239.711
236.175
232.236
227.908
223.208
218.153
212.762
207.055
201.054
194.78
188.259
181.512
174.566
167.445
160.175
152.782
145.291
137.727
130.117
122.485
114.855
107.253
99.701
92.223
84.841
77.576
70.449
63.479
56.683
50.079
43.682
37.506
31.564
25.868
20.426
15.248
10.34
5.71
1.36
-2.706
-6.487
-9.982
-13.195
-16.126
-18.78
-21.162
-23.277
-25.133
-26.737
-28.096
-29.221
-30.12
-30.804
-31.283
-31.569
-31.671
-31.603
-31.376
-31
-30.489
-29.854
-29.105
-28.255
-27.314
-26.293
-25.203
-24.055
-22.859
-21.625
-20.363
-19.082
-17.791
-16.499
-15.214
-13.942
-12.691
-11.467
-10.277
-9.125
-8.017
-6.958
-5.952
-5.003
-4.114
-3.289
-2.529
-1.838
-1.215
-0.664
-0.186
0.219
0.551
0.807
0.987
1.092
1.12
1.073
0.951
0.754
0.484
0.143
-0.267
-0.746
-1.29
-1.897
-2.564
-3.289
-4.07
-4.902
-5.783
-6.71
-7.679
-8.687
-9.73
-10.804
-11.908
-13.036
-14.187
-15.358
-16.544
-17.744
-18.954
-20.171
-21.393
-22.615
-23.836
-25.051
-26.257
-27.452
-28.633
-29.797
-30.942
-32.066
-33.168
-34.244
-35.294
-36.317
-37.311
-38.275
-39.209
-40.111
-40.983
-41.823
-42.631
-43.409
-44.155
-44.871
-45.556
-46.21
-46.834
-47.428
-47.991
-48.524
-49.027
-49.501
-49.945
-50.36
-50.748
-51.108
-51.443
-51.752
-52.038
-52.3
-52.54
-52.759
-52.957
-53.136
-53.297
-53.44
-53.567
-53.678
-53.775
-53.858
-53.929
-53.988
-54.036
-54.074
-54.103
-54.125
-54.14
-54.15
-54.157
-54.162
-54.167
-54.174
-54.185
-54.201
-54.224
-54.257
-54.299
-54.352
-54.417
-54.495
-54.586
-54.692
-54.811
-54.946
-55.096
-55.262
-55.442
-55.637
-55.846
-56.068
-56.301
-56.545
-56.798
-57.057
-57.32
-57.586
-57.851
-58.112
-58.365
-58.608
-58.835
-59.043
-59.225
-59.378
-59.495
-59.572
-59.603
-59.582
-59.506
-59.368
-59.164
-58.89
-58.542
-58.114
-57.603
-57.006
-56.318
-55.536
-54.658
-53.681
-52.603
-51.424
-50.143
-48.759
-47.275
-45.69
-44.009
-42.232
-40.365
-38.411
-36.377
-34.269
-32.096
-29.865
-27.587
-25.273
-22.934
-20.584
-18.238
-15.91
-13.616
-11.372
-9.195
-7.102
-5.108
-3.231
-1.484
0.118
1.56
2.829
3.909
4.786
5.449
5.884
6.084
6.038
5.742
5.194
4.394
3.347
2.053
0.509
-1.286
-3.332
-5.625
-8.16
-10.924
-13.899
-17.057
-20.358
-23.762
-27.223
-30.699
-34.153
-37.543
-40.83
-43.968
-46.899
-49.567
-51.917
-53.897
-55.465
-56.597
-57.294
-57.589
-57.553
-57.259
-56.779
-56.198
-55.606
-55.118
-54.866
-54.986
-55.597
-56.847
-58.945
-62.023
-66.108
-71.07
-76.512
-81.958
-86.975
-91.031
-93.505
-93.987
-92.267
-88.552
-83.793
-79.042
-75.195
-73.26
-74.047
-77.905
-84.84
-93.914
-102.753
-108.595
-108.589
-99.431
-78.11
-42.124
10.83
80.905
165.24
260.226
361.318
465.375
572.042
679.152
782.101
870.605
929.512
946.343
912.395
828.732
704.677
549.46
374.885
191.371
8.182
-159.628
-298.335
-400.186
-463.225
-495.833
-511.031
-516.824
-516.756
-509.603
-491.518
-462.879
-427.06
-388.264
-350.743
-316.392
-285.94
-259.846
-238.017
-220.476
-206.828
-196.19
-188.165
-182.358
-177.835
-173.754
-169.173
-163.085
-155.3
-146.086
-135.571
-124.074
-112.181
-100.433
-89.612
-80.615
-73.753
-68.985
-66.185
-65.024
-65.17
-66.364
-68.193
-70.164
-71.993
-73.521
-74.682
-75.528
-76.051
-76.199
-75.957
-75.316
-74.289
-72.913
-71.223
-69.241
-67.009
-64.569
-61.977
-59.306
-56.617
-53.952
-51.345
-48.81
-46.378
-44.088
-41.987
-40.123
-38.517
-37.168
-36.066
-35.192
-34.524
-34.036
-33.693
-33.445
-33.254
-33.085
-32.909
-32.705
-32.442
-32.081
-31.582
-30.9
-30.002
-28.863
-27.46
-25.777
-23.8
-21.519
-18.929
-16.035
-12.835
-9.33
-5.516
-1.392
3.04
7.774
12.804
18.119
23.708
29.563
35.669
42.015
48.585
55.366
62.343
69.503
76.829
84.303
91.905
99.615
107.41
115.27
123.17
131.088
138.999
146.878
154.702
162.446
170.087
177.598
184.956
192.136
199.114
205.867
212.371
218.604
224.544
230.169
235.461
240.4
244.967
249.146
252.921
256.278
259.204
261.686
263.715
265.281
266.378
267.001
267.144
266.807
265.988
264.69
262.915
260.669
257.958
254.791
251.18
247.136
242.673
237.807
232.557
226.94
220.977
214.69
208.101
201.235
194.117
186.772
179.227
171.508
163.644
155.663
147.591
139.458
131.291
123.117
114.965
106.861
98.831
90.9
83.092
75.431
67.94
60.639
53.548
46.686
40.07
33.715
27.634
21.84
16.344
11.152
6.274
1.712
-2.528
-6.445
-10.039
-13.31
-16.263
-18.9
-21.227
-23.251
-24.98
-26.423
-27.591
-28.494
-29.144
-29.555
-29.739
-29.711
-29.484
-29.073
-28.494
-27.76
-26.889
-25.893
-24.79
-23.592
-22.316
-20.975
-19.583
-18.152
-16.697
-15.227
-13.755
-12.292
-10.846
-9.428
-8.045
-6.705
-5.415
-4.181
-3.01
-1.906
-0.872
0.087
0.968
1.77
2.49
3.128
3.682
4.153
4.541
4.846
5.071
5.216
5.284
5.276
5.196
5.046
4.829
4.549
4.209
3.811
3.36
2.859
2.311
1.719
1.086
0.416
-0.289
-1.027
-1.794
-2.588
-3.405
-4.244
-5.101
-5.974
-6.862
-7.76
-8.668
-9.582
-10.501
-11.423
-12.346
-13.268
-14.187
-15.102
-16.011
-16.913
-17.807
-18.692
-19.568
-20.435
-21.291
-22.138
-22.974
-23.799
-24.614
-25.417
-26.209
-26.99
-27.758
-28.514
-29.257
-29.987
-30.704
-31.408
-32.099
-32.777
-33.442
-34.094
-34.733
-35.359
-35.974
-36.576
-37.166
-37.746
-38.314
-38.872
-39.419
-39.957
-40.483
-40.999
-41.504
-41.996
-42.475
-42.941
-43.392
-43.827
-44.247
-44.649
-45.034
-45.4
-45.749
-46.078
-46.388
-46.679
-46.95
-47.201
-47.431
-47.642
-47.832
-48.002
-48.153
-48.283
-48.394
-48.485
-48.556
-48.608
-48.641
-48.654
-48.649
-48.624
-48.582
-48.522
-48.446
-48.355
-48.25
-48.133
-48.004
-47.865
-47.717
-47.561
-47.398
-47.229
-47.054
-46.875
-46.691
-46.503
-46.31
-46.114
-45.913
-45.706
-45.494
-45.275
-45.048
-44.811
-44.563
-44.302
-44.027
-43.734
-43.423
-43.091
-42.735
-42.354
-41.945
-41.505
-41.032
-40.523
-39.976
-39.387
-38.755
-38.076
-37.348
-36.57
-35.739
-34.854
-33.914
-32.917
-31.864
-30.754
-29.587
-28.364
-27.087
-25.758
-24.379
-22.954
-21.488
-19.986
-18.454
-16.9
-15.33
-13.755
-12.186
-10.631
-9.105
-7.617
-6.182
-4.812
-3.521
-2.319
-1.219
-0.234
0.625
1.344
1.913
2.32
2.551
2.597
2.448
2.093
1.528
0.751
-0.242
-1.449
-2.873
-4.519
-6.389
-8.48
-10.788
-13.308
-16.026
-18.928
-21.983
-25.15
-28.387
-31.653
-34.911
-38.131
-41.277
-44.312
-47.198
-49.882
-52.324
-54.489
-56.338
-57.844
-58.993
-59.786
-60.271
-60.534
-60.662
-60.745
-60.852
-61.039
-61.391
-62.006
-63.001
-64.496
-66.556
-69.256
-72.734
-77.057
-82.214
-88.036
-94.055
-99.73
-104.646
-108.34
-110.296
-110.175
-107.736
-103.163
-97.39
-91.403
-85.898
-81.673
-79.544
-80.02
-83.429
-88.394
-91.29
-88.819
-79.114
-62.937
-42.722
-18.539
14.183
63.736
136.179
231.867
343.678
458.85
568.221
666.051
747.815
809.311
840.447
830.704
775.383
676.399
543.58
387.998
219.89
48.807
-115.148
-258.05
-369.803
-446.663
-492.804
-520.457
-538.284
-549.633
-553.168
-543.81
-521.223
-488.895
-451.014
-412.585
-376.002
-341.878
-311.704
-286.397
-265.97
-250.185
-238.173
-228.914
-221.866
-216.342
-210.879
-204.017
-195.054
-183.848
-170.785
-156.504
-141.443
-126.106
-111.448
-98.531
-87.995
-80.078
-74.633
-71.274
-69.68
-69.533
-70.385
-71.72
-73.145
-74.433
-75.484
-76.299
-76.866
-77.145
-77.104
-76.739
-76.029
-74.939
-73.463
-71.602
-69.384
-66.876
-64.132
-61.2
-58.146
-55.021
-51.87
-48.738
-45.653
-42.631
-39.713
-36.938
-34.348
-31.996
-29.904
-28.071
-26.489
-25.136
-23.986
-23.011
-22.177
-21.438
-20.76
-20.11
-19.459
-18.784
-18.051
-17.222
-16.255
-15.105
-13.735
-12.122
-10.242
-8.078
-5.62
-2.858
0.213
3.588
7.267
11.253
15.546
20.148
25.058
30.269
35.775
41.565
47.629
53.956
60.533
67.348
74.386
81.632
89.071
96.689
104.469
112.389
120.43
128.569
136.782
145.044
153.331
161.615
169.871
178.071
186.19
194.2
202.076
209.79
217.316
224.628
231.699
238.505
245.02
251.22
257.082
262.584
267.705
272.424
276.725
280.589
284.003
286.95
289.421
291.405
292.892
293.877
294.354
294.322
293.778
292.726
291.167
289.109
286.557
283.523
280.017
276.054
271.647
266.814
261.574
255.946
249.951
243.614
236.957
230.007
222.79
215.333
207.663
199.811
191.804
183.672
175.443
167.146
158.81
150.463
142.133
133.847
125.63
117.509
109.507
101.647
93.951
86.44
79.132
72.045
65.194
58.595
52.259
46.197
40.42
34.934
29.746
24.861
20.282
16.01
12.045
8.385
5.028
1.969
-0.798
-3.279
-5.481
-7.415
-9.088
-10.512
-11.698
-12.656
-13.4
-13.942
-14.294
-14.47
-14.483
-14.346
-14.072
-13.675
-13.167
-12.561
-11.869
-11.104
-10.276
-9.397
-8.477
-7.527
-6.557
-5.574
-4.589
-3.609
-2.642
-1.694
-0.773
0.117
0.97
1.782
2.547
3.264
3.928
4.537
5.089
5.583
6.017
6.391
6.703
6.956
7.148
7.281
7.356
7.374
7.337
7.246
7.104
6.912
6.672
6.386
6.057
5.687
5.278
4.833
4.354
3.843
3.303
2.737
2.146
1.535
0.904
0.257
-0.404
-1.076
-1.758
-2.447
-3.142
-3.839
-4.539
-5.238
-5.937
-6.633
-7.326
-8.015
-8.7
-9.379
-10.054
-10.724
-11.388
-12.047
-12.701
-13.349
-13.991
-14.628
-15.26
-15.885
-16.505
-17.12
-17.728
-18.332
-18.929
-19.522
-20.109
-20.69
-21.267
-21.839
-22.406
-22.968
-23.526
-24.078
-24.626
-25.167
-25.703
-26.232
-26.753
-27.267
-27.771
-28.265
-28.748
-29.217
-29.673
-30.114
-30.538
-30.945
-31.334
-31.704
-32.055
-32.386
-32.698
-32.991
-33.264
-33.518
-33.754
-33.973
-34.175
-34.362
-34.534
-34.693
-34.841
-34.978
-35.107
-35.23
-35.349
-35.464
-35.58
-35.697
-35.819
-35.947
-36.085
-36.234
-36.398
-36.578
-36.779
-37.003
-37.251
-37.527
-37.832
-38.168
-38.537
-38.94
-39.377
-39.848
-40.353
-40.893
-41.465
-42.069
-42.703
-43.365
-44.053
-44.763
-45.492
-46.238
-46.994
-47.759
-48.527
-49.293
-50.054
-50.804
-51.537
-52.249
-52.935
-53.589
-54.206
-54.78
-55.306
-55.778
-56.192
-56.542
-56.824
-57.034
-57.167
-57.22
-57.192
-57.078
-56.879
-56.593
-56.219
-55.759
-55.214
-54.587
-53.881
-53.099
-52.247
-51.332
-50.359
-49.337
-48.274
-47.18
-46.066
-44.942
-43.823
-42.719
-41.646
-40.617
-39.647
-38.748
-37.935
-37.22
-36.617
-36.137
-35.794
-35.598
-35.563
-35.699
-36.018
-36.528
-37.238
-38.152
-39.274
-40.602
-42.136
-43.875
-45.82
-47.971
-50.323
-52.873
-55.611
-58.525
-61.597
-64.798
-68.088
-71.426
-74.768
-78.072
-81.302
-84.416
-87.375
-90.135
-92.642
-94.854
-96.732
-98.236
-99.34
-100.026
-100.294
-100.19
-99.789
-99.178
-98.453
-97.692
-96.974
-96.411
-96.116
-96.22
-96.852
-98.075
-99.975
-102.687
-106.27
-110.712
-115.841
-121.219
-126.385
-130.986
-134.61
-136.77
-137.071
-135.218
-131.395
-126.363
-120.889
-115.478
-110.598
-106.917
-105.103
-105.526
-106.628
-104.911
-97.255
-81.911
-61.175
-39.37
-16.895
9.943
50.729
117.14
211.091
325.677
446.752
553.902
636.711
694.389
727.155
741.027
734.454
695.785
620.008
502.992
346.394
166.186
-22.617
-203.965
-358.045
-474.144
-548.122
-581.52
-586.725
-577.436
-561.289
-542.334
-519.356
-488.619
-451.296
-410.854
-370.794
-335.451
-306.555
-283.832
-267.048
-255.172
-246.812
-240.965
-236.728
-232.963
-228.781
-223.423
-216.069
-206.576
-195.368
-182.897
-169.688
-156.403
-143.616
-131.998
-122.345
-114.972
-109.794
-106.617
-105.084
-104.831
-105.591
-106.989
-108.542
-109.949
-111.041
-111.729
-112.033
-111.938
-111.367
-110.274
-108.669
-106.578
-104.055
-101.161
-97.934
-94.427
-90.708
-86.845
-82.921
-79.01
-75.16
-71.404
-67.78
-64.324
-61.093
-58.152
-55.536
-53.252
-51.293
-49.638
-48.263
-47.147
-46.253
-45.535
-44.947
-44.449
-44.008
-43.601
-43.198
-42.762
-42.249
-41.61
-40.806
-39.811
-38.599
-37.151
-35.451
-33.481
-31.236
-28.716
-25.919
-22.84
-19.476
-15.818
-11.865
-7.619
-3.083
1.735
6.831
12.197
17.824
23.702
29.82
36.167
42.731
49.501
56.463
63.6
70.895
78.328
85.878
93.526
101.247
109.02
116.82
124.625
132.409
140.149
147.821
155.401
162.863
170.184
177.339
184.305
191.06
197.579
203.841
209.825
215.51
220.878
225.909
230.587
234.894
238.816
242.34
245.452
248.142
250.4
252.219
253.591
254.513
254.982
254.994
254.553
253.658
252.315
250.528
248.305
245.655
242.589
239.117
235.255
231.017
226.419
221.48
216.219
210.656
204.812
198.709
192.371
185.821
179.084
172.184
165.145
157.994
150.755
143.454
136.115
128.764
121.423
114.118
106.872
99.706
92.642
85.701
78.902
72.265
65.807
59.544
53.491
47.662
42.068
36.722
31.631
26.805
22.249
17.969
13.967
10.247
6.809
3.652
0.774
-1.826
-4.154
-6.214
-8.012
-9.555
-10.851
-11.909
-12.737
-13.345
-13.744
-13.944
-13.957
-13.795
-13.468
-12.99
-12.372
-11.627
-10.767
-9.805
-8.753
-7.622
-6.425
-5.173
-3.876
-2.545
-1.191
0.178
1.553
2.925
4.286
5.63
6.949
8.237
9.489
10.698
11.861
12.973
14.03
15.029
15.967
16.841
17.649
18.39
19.062
19.666
20.199
20.663
21.057
21.384
21.643
21.837
21.968
22.037
22.046
21.999
21.898
21.744
21.54
21.288
20.992
20.652
20.271
19.852
19.397
18.908
18.388
17.839
17.263
16.663
16.04
15.398
14.737
14.061
13.37
12.668
11.955
11.235
10.507
9.773
9.035
8.294
7.548
6.8
6.049
5.296
4.541
3.783
3.024
2.264
1.502
0.74
-0.021
-0.783
-1.543
-2.301
-3.057
-3.811
-4.561
-5.307
-6.048
-6.783
-7.513
-8.236
-8.951
-9.657
-10.355
-11.043
-11.721
-12.388
-13.042
-13.683
-14.309
-14.918
-15.51
-16.082
-16.633
-17.162
-17.667
-18.146
-18.599
-19.025
-19.424
-19.794
-20.137
-20.45
-20.736
-20.995
-21.226
-21.431
-21.612
-21.77
-21.906
-22.022
-22.121
-22.204
-22.274
-22.332
-22.383
-22.428
-22.47
-22.513
-22.559
-22.612
-22.676
-22.754
-22.849
-22.966
-23.108
-23.278
-23.479
-23.715
-23.987
-24.3
-24.653
-25.05
-25.491
-25.977
-26.509
-27.086
-27.708
-28.373
-29.08
-29.827
-30.611
-31.428
-32.275
-33.149
-34.043
-34.954
-35.876
-36.803
-37.728
-38.644
-39.544
-40.422
-41.269
-42.079
-42.842
-43.552
-44.202
-44.783
-45.289
-45.712
-46.046
-46.284
-46.421
-46.45
-46.368
-46.171
-45.854
-45.416
-44.854
-44.168
-43.358
-42.425
-41.37
-40.197
-38.909
-37.514
-36.016
-34.424
-32.747
-30.997
-29.186
-27.328
-25.436
-23.527
-21.615
-19.72
-17.857
-16.043
-14.296
-12.632
-11.069
-9.625
-8.317
-7.162
-6.176
-5.375
-4.777
-4.395
-4.243
-4.333
-4.669
-5.257
-6.102
-7.208
-8.581
-10.224
-12.13
-14.294
-16.708
-19.358
-22.229
-25.292
-28.502
-31.816
-35.191
-38.587
-41.971
-45.308
-48.553
-51.663
-54.591
-57.29
-59.732
-61.884
-63.709
-65.192
-66.323
-67.124
-67.67
-68.039
-68.305
-68.54
-68.785
-69.094
-69.557
-70.261
-71.31
-72.809
-74.802
-77.377
-80.681
-84.753
-89.546
-94.836
-100.103
-104.799
-108.462
-110.541
-110.475
-107.908
-102.655
-95.008
-85.932
-76.502
-67.736
-60.692
-56.268
-54.943
-56.735
-60.722
-64.723
-66.075
-61.99
-49.336
-25.049
13.314
67.826
138.503
222.033
314.259
410.346
506.196
601.445
694.91
781.223
851.694
891.892
886.987
831.012
725.047
577.74
404.73
219.837
36.576
-129.444
-266.478
-367.254
-430.33
-464.528
-482.377
-492.032
-497.56
-497.176
-486.456
-465.84
-438.574
-408.539
-379.916
-353.947
-330.06
-308.131
-287.581
-267.692
-248.244
-229.125
-210.467
-192.824
-176.698
-162.192
-149.373
-138.398
-129.112
-121.097
-114.002
-107.468
-101.243
-95.335
-89.794
-84.645
-80.132
-76.689
-74.53
-73.701
-74.142
-75.619
-77.886
-80.715
-83.762
-86.584
-88.879
-90.465
-91.223
-91.162
-90.305
-88.672
-86.349
-83.463
-80.119
-76.417
-72.445
-68.255
-63.923
-59.543
-55.194
-50.962
-46.926
-43.151
-39.713
-36.664
-34.025
-31.792
-29.948
-28.464
-27.311
-26.453
-25.844
-25.441
-25.202
-25.085
-25.056
-25.071
-25.083
-25.045
-24.905
-24.62
-24.161
-23.502
-22.624
-21.511
-20.15
-18.532
-16.654
-14.514
-12.104
-9.417
-6.445
-3.182
0.372
4.217
8.35
12.769
17.47
22.449
27.698
33.21
38.977
44.991
51.243
57.721
64.413
71.301
78.368
85.596
92.966
100.454
108.04
115.699
123.409
131.146
138.886
146.605
154.278
161.881
169.389
176.776
184.019
191.092
197.97
204.629
211.044
217.194
223.055
228.604
233.822
238.689
243.185
247.294
250.998
254.284
257.137
259.546
261.5
262.991
264.013
264.56
264.63
264.222
263.339
261.984
260.161
257.877
255.142
251.964
248.356
244.333
239.908
235.098
229.922
224.401
218.554
212.405
205.977
199.296
192.385
185.273
177.985
170.549
162.992
155.344
147.631
139.882
132.125
124.386
116.692
109.069
101.541
94.132
86.864
79.758
72.832
66.105
59.593
53.312
47.275
41.494
35.98
30.742
25.787
21.121
16.748
12.671
8.891
5.408
2.22
-0.676
-3.285
-5.612
-7.665
-9.45
-10.978
-12.258
-13.302
-14.121
-14.728
-15.135
-15.356
-15.404
-15.291
-15.031
-14.636
-14.119
-13.493
-12.768
-11.957
-11.071
-10.119
-9.114
-8.063
-6.978
-5.865
-4.733
-3.591
-2.444
-1.299
-0.163
0.96
2.064
3.145
4.199
5.223
6.214
7.17
8.089
8.971
9.814
10.619
11.385
12.113
12.803
13.455
14.07
14.647
15.187
15.69
16.155
16.583
16.973
17.325
17.64
17.915
18.151
18.347
18.503
18.617
18.69
18.721
18.71
18.655
18.557
18.416
18.232
18.004
17.731
17.414
17.051
16.642
16.187
15.683
15.131
14.529
13.877
13.175
12.421
11.616
10.761
9.855
8.898
7.893
6.84
5.739
4.593
3.404
2.172
0.901
-0.408
-1.752
-3.129
-4.538
-5.975
-7.44
-8.929
-10.442
-11.975
-13.527
-15.096
-16.678
-18.271
-19.873
-21.48
-23.088
-24.695
-26.297
-27.89
-29.47
-31.034
-32.578
-34.099
-35.594
-37.058
-38.49
-39.886
-41.244
-42.563
-43.839
-45.072
-46.261
-47.403
-48.5
-49.548
-50.549
-51.502
-52.406
-53.261
-54.067
-54.825
-55.535
-56.197
-56.812
-57.383
-57.91
-58.396
-58.843
-59.254
-59.633
-59.983
-60.308
-60.612
-60.899
-61.173
-61.439
-61.7
-61.961
-62.225
-62.496
-62.777
-63.071
-63.381
-63.71
-64.057
-64.426
-64.818
-65.232
-65.669
-66.129
-66.612
-67.117
-67.644
-68.19
-68.754
-69.333
-69.926
-70.528
-71.136
-71.746
-72.352
-72.949
-73.531
-74.092
-74.625
-75.125
-75.585
-75.997
-76.355
-76.653
-76.884
-77.041
-77.118
-77.11
-77.011
-76.817
-76.525
-76.13
-75.631
-75.026
-74.313
-73.493
-72.566
-71.533
-70.396
-69.158
-67.823
-66.395
-64.882
-63.29
-61.627
-59.902
-58.129
-56.319
-54.485
-52.642
-50.805
-48.99
-47.211
-45.487
-43.83
-42.256
-40.779
-39.416
-38.18
-37.088
-36.154
-35.392
-34.815
-34.433
-34.257
-34.292
-34.541
-35.005
-35.681
-36.573
-37.685
-39.021
-40.58
-42.359
-44.351
-46.543
-48.915
-51.437
-54.065
-56.756
-59.465
-62.15
-64.778
-67.311
-69.714
-71.942
-73.943
-75.666
-77.066
-78.101
-78.739
-78.966
-78.796
-78.274
-77.487
-76.523
-75.469
-74.411
-73.438
-72.648
-72.148
-72.063
-72.498
-73.566
-75.43
-78.181
-81.836
-86.289
-91.204
-96.125
-100.593
-104.094
-106.051
-106.052
-103.826
-99.428
-93.543
-87.051
-80.863
-75.839
-72.616
-71.799
-73.66
-77.623
-82.239
-84.393
-80.608
-69.229
-47.994
-16.434
25.134
81.07
152.123
237.012
334.91
437.122
538.06
637.344
730.616
814.188
879.342
908.587
888.45
814.717
691.415
531.779
352.582
166.686
-14.216
-176.29
-307.839
-402.46
-459.706
-487.713
-499.625
-501.818
-495.634
-482.486
-460.038
-431.319
-403.351
-376.422
-351.444
-327.755
-302.113
-276.914
-254.202
-234.448
-218.878
-206.032
-194.729
-185.193
-176.815
-169.268
-162.168
-154.496
-145.927
-136.665
-126.684
-116.092
-105.24
-94.425
-84.243
-75.555
-68.702
-63.673
-60.399
-58.614
-58.058
-58.564
-59.783
-61.226
-62.6
-63.731
-64.529
-65.045
-65.267
-65.125
-64.596
-63.667
-62.35
-60.686
-58.707
-56.429
-53.882
-51.101
-48.13
-45.041
-41.89
-38.718
-35.558
-32.427
-29.358
-26.4
-23.606
-21.032
-18.709
-16.641
-14.825
-13.249
-11.897
-10.751
-9.779
-8.939
-8.194
-7.514
-6.871
-6.245
-5.607
-4.917
-4.132
-3.205
-2.102
-0.797
0.733
2.505
4.534
6.829
9.395
12.227
15.327
18.696
22.337
26.255
30.449
34.915
39.647
44.637
49.877
55.357
61.069
66.999
73.138
79.471
85.988
92.676
99.52
106.504
113.609
120.816
128.103
135.448
142.828
150.221
157.601
164.945
172.228
179.426
186.516
193.473
200.272
206.889
213.301
219.483
225.411
231.064
236.418
241.452
246.145
250.478
254.432
257.99
261.136
263.855
266.134
267.963
269.329
270.226
270.645
270.584
270.038
269.007
267.492
265.496
263.024
260.083
256.681
252.83
248.54
243.827
238.706
233.194
227.309
221.072
214.504
207.629
200.469
193.05
185.399
177.541
169.504
161.315
153.004
144.597
136.124
127.611
119.088
110.581
102.117
93.723
85.424
77.243
69.205
61.332
53.643
46.16
38.899
31.877
25.11
18.611
12.391
6.46
0.829
-4.497
-9.513
-14.213
-18.596
-22.662
-26.41
-29.844
-32.967
-35.784
-38.301
-40.526
-42.468
-44.135
-45.538
-46.688
-47.598
-48.279
-48.744
-49.008
-49.083
-48.984
-48.724
-48.318
-47.779
-47.122
-46.359
-45.505
-44.571
-43.57
-42.515
-41.416
-40.285
-39.132
-37.966
-36.798
-35.636
-34.487
-33.358
-32.257
-31.189
-30.16
-29.172
-28.232
-27.341
-26.503
-25.72
-24.994
-24.326
-23.716
-23.165
-22.673
-22.238
-21.862
-21.541
-21.275
-21.063
-20.902
-20.791
-20.729
-20.712
-20.739
-20.808
-20.917
-21.063
-21.245
-21.459
-21.704
-21.978
-22.279
-22.604
-22.953
-23.324
-23.714
-24.124
-24.55
-24.992
-25.448
-25.918
-26.399
-26.891
-27.393
-27.903
-28.421
-28.945
-29.474
-30.009
-30.547
-31.088
-31.63
-32.173
-32.716
-33.257
-33.796
-34.333
-34.865
-35.393
-35.916
-36.433
-36.944
-37.447
-37.943
-38.429
-38.906
-39.372
-39.826
-40.268
-40.697
-41.111
-41.511
-41.895
-42.262
-42.613
-42.947
-43.263
-43.561
-43.84
-44.101
-44.344
-44.568
-44.774
-44.962
-45.132
-45.285
-45.421
-45.54
-45.643
-45.731
-45.803
-45.859
-45.901
-45.928
-45.942
-45.942
-45.929
-45.904
-45.869
-45.824
-45.77
-45.708
-45.64
-45.568
-45.491
-45.412
-45.332
-45.252
-45.174
-45.098
-45.026
-44.958
-44.895
-44.838
-44.787
-44.743
-44.706
-44.676
-44.653
-44.638
-44.63
-44.63
-44.637
-44.652
-44.674
-44.704
-44.74
-44.783
-44.831
-44.883
-44.938
-44.994
-45.05
-45.103
-45.151
-45.191
-45.22
-45.235
-45.232
-45.208
-45.159
-45.082
-44.973
-44.829
-44.646
-44.422
-44.152
-43.835
-43.467
-43.047
-42.571
-42.037
-41.443
-40.788
-40.069
-39.286
-38.436
-37.52
-36.537
-35.486
-34.368
-33.186
-31.94
-30.633
-29.268
-27.851
-26.385
-24.877
-23.334
-21.765
-20.18
-18.588
-17.001
-15.43
-13.889
-12.39
-10.947
-9.571
-8.272
-7.064
-5.961
-4.977
-4.124
-3.415
-2.862
-2.476
-2.273
-2.264
-2.457
-2.858
-3.467
-4.287
-5.322
-6.577
-8.059
-9.766
-11.688
-13.815
-16.14
-18.647
-21.321
-24.135
-27.039
-29.996
-32.97
-35.931
-38.86
-41.725
-44.485
-47.097
-49.509
-51.687
-53.624
-55.307
-56.724
-57.866
-58.702
-59.249
-59.589
-59.794
-59.956
-60.123
-60.232
-60.361
-60.722
-61.507
-62.974
-65.209
-67.996
-71.337
-75.477
-80.329
-85.596
-90.73
-94.7
-96.961
-97.671
-96.657
-93.504
-88.144
-80.694
-72.008
-63.906
-57.614
-53.455
-51.811
-53.09
-57.398
-64.487
-72.837
-79.432
-81.296
-76.096
-61.584
-35.391
4.573
59.873
129.613
209.979
296.797
386.471
477.761
570.164
659.484
736.946
789.109
803.248
774.495
706.878
611.425
499.516
375.607
239.19
90.34
-65.3
-212.918
-336.315
-426.983
-485.468
-520.497
-539.401
-542.354
-527.414
-494.957
-453.372
-416.184
-392.372
-381.906
-375.365
-361.985
-337.452
-304.535
-270.845
-242.324
-220.497
-204.502
-192.367
-183.254
-177.09
-173.159
-170.481
-167.809
-164.315
-159.718
-153.748
-146.202
-137.154
-127.083
-116.834
-107.355
-99.113
-92.158
-86.45
-81.85
-78.256
-75.511
-73.25
-71.049
-68.682
-66.108
-63.403
-60.722
-58.176
-55.845
-53.869
-52.4
-51.547
-51.356
-51.802
-52.81
-54.277
-56.123
-58.282
-60.663
-63.181
-65.751
-68.293
-70.729
-72.986
-74.961
-76.525
-77.568
-78.011
-77.821
-77.006
-75.6
-73.671
-71.298
-68.572
-65.608
-62.493
-59.287
-56.028
-52.746
-49.47
-46.254
-43.168
-40.264
-37.572
-35.101
-32.839
-30.765
-28.833
-26.976
-25.106
-23.119
-20.94
-18.519
-15.826
-12.842
-9.549
-5.921
-1.93
2.434
7.178
12.306
17.815
23.703
29.953
36.532
43.39
50.474
57.738
65.148
72.676
80.296
87.983
95.713
103.464
111.218
118.955
126.65
134.277
141.805
149.207
156.462
163.549
170.45
177.144
183.608
189.822
195.763
201.411
206.743
211.737
216.369
220.62
224.472
227.911
230.925
233.504
235.637
237.319
238.545
239.312
239.62
239.467
238.854
237.786
236.267
234.303
231.904
229.079
225.841
222.203
218.181
213.793
209.056
203.991
198.619
192.963
187.044
180.888
174.518
167.961
161.241
154.386
147.421
140.372
133.265
126.126
118.978
111.845
104.75
97.716
90.763
83.911
77.178
70.584
64.145
57.877
51.794
45.91
40.237
34.787
29.569
24.592
19.862
15.386
11.168
7.212
3.519
0.091
-3.073
-5.974
-8.616
-11.001
-13.134
-15.02
-16.665
-18.078
-19.264
-20.232
-20.991
-21.55
-21.917
-22.103
-22.117
-21.969
-21.668
-21.225
-20.648
-19.949
-19.135
-18.218
-17.207
-16.111
-14.94
-13.703
-12.409
-11.069
-9.689
-8.28
-6.849
-5.406
-3.957
-2.51
-1.074
0.346
1.742
3.108
4.438
5.727
6.97
8.162
9.299
10.379
11.397
12.352
13.241
14.061
14.812
15.49
16.097
16.629
17.087
17.47
17.778
18.011
18.17
18.256
18.27
18.213
18.088
17.897
17.641
17.324
16.95
16.521
16.041
15.514
14.945
14.337
13.695
13.023
12.325
11.605
10.865
10.111
9.343
8.566
7.781
6.992
6.2
5.408
4.619
3.833
3.053
2.28
1.517
0.765
0.025
-0.701
-1.413
-2.109
-2.789
-3.451
-4.095
-4.721
-5.328
-5.917
-6.489
-7.043
-7.583
-8.107
-8.619
-9.119
-9.609
-10.09
-10.563
-11.028
-11.485
-11.936
-12.379
-12.816
-13.245
-13.667
-14.082
-14.488
-14.887
-15.277
-15.657
-16.028
-16.389
-16.741
-17.082
-17.414
-17.738
-18.055
-18.366
-18.672
-18.976
-19.279
-19.58
-19.882
-20.183
-20.485
-20.788
-21.092
-21.399
-21.707
-22.02
-22.337
-22.661
-22.992
-23.333
-23.682
-24.043
-24.416
-24.804
-25.211
-25.638
-26.088
-26.559
-27.053
-27.571
-28.113
-28.678
-29.263
-29.868
-30.489
-31.125
-31.776
-32.437
-33.106
-33.774
-34.435
-35.085
-35.724
-36.357
-36.99
-37.623
-38.255
-38.886
-39.515
-40.139
-40.752
-41.338
-41.881
-42.367
-42.787
-43.146
-43.455
-43.71
-43.892
-43.964
-43.88
-43.613
-43.171
-42.571
-41.82
-40.919
-39.855
-38.664
-37.452
-36.265
-35.035
-33.571
-31.651
-29.209
-26.404
-23.457
-20.435
-17.416
-14.633
-12.578
-11.862
-12.736
-14.869
-17.593
-20.434
-23.073
-25.133
-25.984
-24.805
-21.173
-15.434
-8.477
-1.025
6.471
13.637
19.996
24.85
27.705
28.654
28.236
26.885
24.818
22.129
18.88
15.319
11.699
8.029
4.135
-0.112
-4.745
-9.693
-14.808
-20.019
-25.28
-30.485
-35.506
-40.202
-44.452
-48.187
-51.346
-53.846
-55.645
-56.741
-57.146
-56.949
-56.198
-54.87
-53.104
-51.154
-49.267
-47.752
-46.751
-46.153
-46.052
-46.776
-48.383
-50.736
-53.496
-55.954
-57.848
-59.526
-61.017
-61.999
-62.36
-62.138
-61.846
-62.704
-65.319
-69.418
-74.838
-81.611
-89.638
-98.531
-107.144
-113.659
-116.613
-114.87
-107.45
-92.215
-65.947
-27.862
21.539
79.537
140.381
203.303
270.8
345.61
433.52
534.512
641.121
743.55
826.726
875.867
882.739
845.414
770.394
669.587
553.801
427.121
286.857
131.305
-36.42
-202.634
-344.978
-448.672
-508.816
-531.639
-534.089
-526.963
-513.908
-495.511
-467.552
-429.96
-387.158
-342.764
-300.804
-264.163
-233.644
-209.546
-191.919
-179.952
-172.31
-168.3
-167.277
-168.003
-169.434
-170.41
-169.588
-166.639
-161.871
-155.352
-147.381
-138.531
-129.257
-120.347
-112.775
-106.861
-102.581
-99.856
-98.363
-97.813
-97.987
-98.455
-98.739
-98.606
-97.962
-96.834
-95.365
-93.618
-91.631
-89.497
-87.3
-85.106
-82.952
-80.812
-78.666
-76.519
-74.389
-72.317
-70.338
-68.456
-66.674
-64.985
-63.371
-61.829
-60.348
-58.899
-57.473
-56.067
-54.691
-53.383
-52.163
-51.031
-49.983
-49.002
-48.071
-47.18
-46.312
-45.441
-44.549
-43.616
-42.624
-41.566
-40.425
-39.174
-37.784
-36.214
-34.433
-32.42
-30.158
-27.632
-24.834
-21.755
-18.394
-14.757
-10.85
-6.676
-2.238
2.463
7.423
12.631
18.077
23.748
29.632
35.718
41.99
48.435
55.039
61.787
68.665
75.661
82.758
89.939
97.186
104.479
111.797
119.12
126.425
133.691
140.893
148.009
155.018
161.896
168.623
175.175
181.531
187.672
193.575
199.222
204.594
209.671
214.436
218.872
222.962
226.69
230.042
233.004
235.563
237.708
239.428
240.715
241.562
241.962
241.912
241.41
240.455
239.05
237.196
234.901
232.17
229.015
225.445
221.475
217.118
212.391
207.313
201.9
196.175
190.158
183.871
177.338
170.582
163.628
156.502
149.23
141.839
134.355
126.806
119.218
111.619
104.036
96.494
89.02
81.637
74.371
67.244
60.278
53.493
46.91
40.546
34.417
28.538
22.923
17.583
12.527
7.764
3.299
-0.862
-4.717
-8.262
-11.499
-14.428
-17.05
-19.372
-21.396
-23.13
-24.582
-25.761
-26.677
-27.34
-27.764
-27.959
-27.941
-27.722
-27.316
-26.739
-26.004
-25.127
-24.122
-23.005
-21.79
-20.492
-19.125
-17.703
-16.24
-14.747
-13.239
-11.726
-10.219
-8.729
-7.267
-5.841
-4.46
-3.134
-1.868
-0.67
0.454
1.5
2.463
3.341
4.13
4.83
5.438
5.955
6.381
6.716
6.963
7.121
7.194
7.184
7.094
6.927
6.687
6.377
6.003
5.567
5.075
4.53
3.938
3.303
2.63
1.923
1.188
0.429
-0.348
-1.139
-1.94
-2.745
-3.551
-4.353
-5.15
-5.938
-6.714
-7.477
-8.225
-8.955
-9.668
-10.362
-11.036
-11.689
-12.322
-12.935
-13.528
-14.101
-14.655
-15.19
-15.709
-16.211
-16.698
-17.171
-17.632
-18.082
-18.522
-18.956
-19.384
-19.809
-20.233
-20.658
-21.086
-21.519
-21.959
-22.407
-22.864
-23.331
-23.807
-24.294
-24.792
-25.299
-25.816
-26.341
-26.874
-27.415
-27.961
-28.512
-29.067
-29.623
-30.18
-30.737
-31.291
-31.842
-32.388
-32.928
-33.462
-33.987
-34.503
-35.009
-35.504
-35.986
-36.456
-36.911
-37.352
-37.778
-38.19
-38.587
-38.971
-39.343
-39.704
-40.056
-40.4
-40.74
-41.078
-41.416
-41.756
-42.103
-42.458
-42.824
-43.205
-43.604
-44.023
-44.465
-44.932
-45.427
-45.951
-46.506
-47.094
-47.714
-48.368
-49.056
-49.778
-50.533
-51.32
-52.14
-52.988
-53.865
-54.765
-55.688
-56.627
-57.58
-58.54
-59.502
-60.461
-61.41
-62.342
-63.251
-64.129
-64.969
-65.765
-66.509
-67.193
-67.81
-68.354
-68.817
-69.193
-69.476
-69.659
-69.739
-69.71
-69.569
-69.313
-68.939
-68.446
-67.834
-67.102
-66.251
-65.283
-64.201
-63.01
-61.715
-60.321
-58.838
-57.274
-55.641
-53.953
-52.222
-50.462
-48.688
-46.917
-45.167
-43.453
-41.791
-40.196
-38.684
-37.271
-35.973
-34.807
-33.788
-32.929
-32.24
-31.734
-31.423
-31.316
-31.417
-31.726
-32.239
-32.961
-33.898
-35.057
-36.439
-38.041
-39.855
-41.87
-44.074
-46.445
-48.953
-51.556
-54.21
-56.87
-59.497
-62.062
-64.534
-66.874
-69.033
-70.942
-72.54
-73.79
-74.661
-75.147
-75.27
-75.02
-74.414
-73.588
-72.679
-71.851
-71.291
-71.021
-71.023
-71.462
-72.532
-74.264
-76.687
-79.624
-82.721
-85.975
-89.408
-92.773
-95.735
-97.964
-99.178
-99.49
-99.332
-98.869
-98.281
-97.835
-97.896
-98.996
-101.283
-104.459
-108.018
-110.998
-112.037
-109.916
-101.876
-84.968
-58.482
-20.77
27.476
84.377
152.148
229.809
316.382
411.342
508.401
604.554
696.784
778.522
843.727
880.576
875.519
820.482
713.63
561.628
378.434
180.495
-15.973
-194.481
-341.044
-447.812
-513.775
-544.643
-551.828
-544.791
-527.367
-503.566
-473.748
-438.84
-404.526
-370.989
-338.974
-310.206
-282.935
-259.805
-242.86
-231.345
-225.416
-223.075
-221.991
-221.036
-218.71
-213.781
-205.852
-194.938
-181.397
-165.926
-149.269
-132.204
-115.738
-100.996
-88.644
-78.89
-71.696
-66.745
-63.699
-62.259
-61.973
-62.324
-62.976
-63.722
-64.454
-65.168
-65.827
-66.364
-66.743
-66.935
-66.881
-66.513
-65.78
-64.652
-63.138
-61.282
-59.13
-56.723
-54.104
-51.325
-48.435
-45.48
-42.499
-39.518
-36.578
-33.73
-31.037
-28.563
-26.346
-24.398
-22.715
-21.283
-20.08
-19.083
-18.259
-17.566
-16.966
-16.426
-15.917
-15.416
-14.89
-14.296
-13.592
-12.728
-11.667
-10.383
-8.853
-7.061
-4.994
-2.644
-0.009
2.908
6.103
9.578
13.334
17.373
21.691
26.284
31.142
36.256
41.615
47.21
53.027
59.055
65.279
71.687
78.264
84.998
91.874
98.875
105.98
113.172
120.429
127.731
135.057
142.383
149.688
156.949
164.143
171.25
178.245
185.107
191.812
198.338
204.663
210.765
216.622
222.212
227.516
232.513
237.184
241.511
245.478
249.068
252.268
255.063
257.442
259.396
260.914
261.991
262.619
262.796
262.519
261.787
260.601
258.963
256.878
254.352
251.393
248.01
244.215
240.019
235.439
230.489
225.188
219.555
213.609
207.374
200.871
194.124
187.16
180.003
172.68
165.217
157.641
149.98
142.26
134.508
126.751
119.014
111.322
103.701
96.173
88.762
81.49
74.377
67.442
60.706
54.184
47.893
41.846
36.057
30.538
25.297
20.343
15.683
11.321
7.261
3.505
0.052
-3.098
-5.949
-8.504
-10.77
-12.751
-14.457
-15.896
-17.077
-18.01
-18.707
-19.179
-19.437
-19.494
-19.363
-19.056
-18.585
-17.964
-17.206
-16.323
-15.329
-14.235
-13.055
-11.8
-10.483
-9.115
-7.707
-6.27
-4.814
-3.347
-1.88
-0.421
1.023
2.446
3.839
5.198
6.516
7.79
9.015
10.187
11.304
12.361
13.358
14.292
15.161
15.964
16.699
17.366
17.964
18.492
18.95
19.338
19.657
19.905
20.085
20.197
20.242
20.222
20.137
19.99
19.781
19.512
19.185
18.802
18.364
17.872
17.329
16.737
16.097
15.412
14.684
13.913
13.103
12.255
11.371
10.453
9.503
8.522
7.514
6.48
5.424
4.348
3.255
2.147
1.028
-0.101
-1.236
-2.376
-3.518
-4.66
-5.8
-6.937
-8.067
-9.188
-10.3
-11.398
-12.482
-13.55
-14.6
-15.631
-16.643
-17.634
-18.603
-19.548
-20.47
-21.367
-22.238
-23.082
-23.898
-24.686
-25.446
-26.179
-26.885
-27.566
-28.224
-28.859
-29.475
-30.074
-30.658
-31.226
-31.781
-32.323
-32.853
-33.374
-33.884
-34.387
-34.884
-35.38
-35.881
-36.391
-36.913
-37.45
-38.005
-38.579
-39.176
-39.797
-40.442
-41.11
-41.804
-42.531
-43.303
-44.125
-44.996
-45.907
-46.846
-47.804
-48.773
-49.742
-50.692
-51.613
-52.502
-53.368
-54.237
-55.122
-56.026
-56.943
-57.854
-58.751
-59.647
-60.551
-61.48
-62.451
-63.474
-64.576
-65.804
-67.178
-68.692
-70.312
-71.968
-73.61
-75.212
-76.753
-78.231
-79.627
-80.905
-82.038
-83.002
-83.767
-84.304
-84.558
-84.447
-83.927
-82.993
-81.677
-80.056
-78.184
-76.09
-73.801
-71.341
-68.734
-66.019
-63.219
-60.34
-57.406
-54.445
-51.511
-48.684
-46.012
-43.511
-41.175
-38.965
-36.858
-34.851
-32.937
-31.108
-29.362
-27.695
-26.118
-24.657
-23.329
-22.14
-21.085
-20.145
-19.315
-18.604
-18.031
-17.621
-17.398
-17.372
-17.554
-17.956
-18.586
-19.451
-20.555
-21.889
-23.446
-25.219
-27.2
-29.38
-31.742
-34.259
-36.888
-39.587
-42.312
-45.022
-47.687
-50.268
-52.724
-55.004
-57.049
-58.805
-60.232
-61.301
-61.986
-62.288
-62.221
-61.829
-61.195
-60.402
-59.543
-58.718
-58.016
-57.54
-57.413
-57.757
-58.713
-60.442
-63.014
-66.422
-70.591
-75.289
-80.23
-85.099
-89.447
-92.785
-94.8
-95.294
-94.28
-92.126
-89.276
-86.237
-83.614
-81.823
-81.164
-81.94
-84.05
-86.848
-88.132
-84.19
-72.129
-50.522
-21.584
10.074
43.613
82.378
134.272
208.289
305.685
420.602
541.841
655.758
752.919
824.349
861.092
856.914
805.396
707.593
571.25
403.772
217.541
24.941
-161.129
-321.913
-444.003
-521.721
-557.351
-562.203
-545.854
-514.106
-471.229
-421.907
-375.548
-340.854
-321.427
-313.856
-308.418
-298.418
-282.175
-262.659
-246.268
-235.495
-229.872
-227.895
-226.33
-223.707
-219.799
-213.908
-206.208
-197.172
-186.812
-175.443
-163.615
-151.669
-140.212
-130.067
-121.559
-114.7
-109.428
-105.488
-102.645
-100.747
-99.5
-98.512
-97.534
-96.446
-95.223
-93.943
-92.655
-91.359
-90.074
-88.84
-87.693
-86.651
-85.709
-84.821
-83.928
-83.007
-82.051
-81.062
-80.061
-79.05
-78.011
-76.936
-75.818
-74.651
-73.439
-72.182
-70.863
-69.486
-68.067
-66.632
-65.23
-63.887
-62.609
-61.394
-60.23
-59.106
-58.013
-56.934
-55.84
-54.708
-53.512
-52.23
-50.85
-49.347
-47.69
-45.842
-43.764
-41.423
-38.798
-35.873
-32.634
-29.075
-25.188
-20.975
-16.445
-11.604
-6.457
-1.011
4.73
10.758
17.059
23.62
30.424
37.454
44.694
52.125
59.73
67.489
75.384
83.396
91.507
99.697
107.945
116.23
124.526
132.812
141.063
149.255
157.363
165.362
173.229
180.94
188.471
195.799
202.903
209.759
216.346
222.644
228.634
234.295
239.61
244.562
249.137
253.318
257.095
260.455
263.388
265.886
267.943
269.552
270.709
271.413
271.662
271.457
270.799
269.693
268.143
266.157
263.743
260.912
257.674
254.043
250.034
245.663
240.946
235.903
230.552
224.916
219.014
212.869
206.505
199.945
193.213
186.333
179.33
172.229
165.052
157.825
150.57
143.311
136.071
128.872
121.736
114.683
107.734
100.908
94.224
87.7
81.352
75.197
69.248
63.518
58.021
52.766
47.762
43.018
38.54
34.333
30.4
26.745
23.368
20.269
17.447
14.899
12.621
10.61
8.859
7.363
6.115
5.106
4.331
3.778
3.44
3.306
3.367
3.61
4.026
4.602
5.327
6.188
7.171
8.266
9.458
10.735
12.084
13.493
14.949
16.44
17.954
19.48
21.006
22.523
24.019
25.486
26.914
28.294
29.618
30.879
32.069
33.181
34.209
35.146
35.986
36.725
37.357
37.878
38.284
38.572
38.74
38.785
38.707
38.506
38.18
37.731
37.16
36.47
35.661
34.739
33.705
32.563
31.318
29.974
28.536
27.009
25.398
23.708
21.946
20.116
18.225
16.278
14.282
12.243
10.168
8.062
5.933
3.787
1.63
-0.53
-2.687
-4.836
-6.969
-9.082
-11.169
-13.226
-15.246
-17.228
-19.165
-21.056
-22.896
-24.684
-26.417
-28.093
-29.712
-31.271
-32.77
-34.209
-35.588
-36.908
-38.168
-39.368
-40.511
-41.597
-42.628
-43.604
-44.528
-45.402
-46.228
-47.008
-47.746
-48.443
-49.102
-49.726
-50.319
-50.881
-51.417
-51.929
-52.419
-52.891
-53.346
-53.787
-54.216
-54.635
-55.047
-55.452
-55.853
-56.25
-56.645
-57.039
-57.433
-57.827
-58.222
-58.619
-59.019
-59.422
-59.828
-60.237
-60.651
-61.068
-61.489
-61.914
-62.342
-62.773
-63.207
-63.642
-64.08
-64.519
-64.958
-65.397
-65.835
-66.271
-66.702
-67.129
-67.549
-67.96
-68.362
-68.751
-69.128
-69.49
-69.834
-70.16
-70.465
-70.746
-71.002
-71.229
-71.425
-71.587
-71.711
-71.795
-71.836
-71.83
-71.775
-71.668
-71.505
-71.284
-71
-70.652
-70.236
-69.75
-69.191
-68.556
-67.845
-67.055
-66.185
-65.236
-64.206
-63.095
-61.905
-60.636
-59.291
-57.871
-56.379
-54.818
-53.195
-51.514
-49.78
-48.002
-46.187
-44.346
-42.489
-40.628
-38.775
-36.942
-35.144
-33.394
-31.707
-30.095
-28.571
-27.149
-25.84
-24.66
-23.622
-22.739
-22.026
-21.493
-21.151
-21.009
-21.076
-21.354
-21.847
-22.555
-23.48
-24.632
-26.014
-27.629
-29.478
-31.555
-33.848
-36.341
-39.007
-41.811
-44.714
-47.675
-50.655
-53.618
-56.526
-59.34
-62.015
-64.495
-66.725
-68.658
-70.248
-71.458
-72.278
-72.718
-72.815
-72.637
-72.256
-71.743
-71.19
-70.702
-70.394
-70.389
-70.814
-71.78
-73.425
-75.919
-79.339
-83.645
-88.693
-94.17
-99.728
-105.079
-109.841
-113.542
-115.916
-116.851
-116.412
-115.076
-113.312
-111.356
-109.549
-108.116
-106.993
-106.143
-105.306
-103.768
-99.602
-89.76
-71.709
-43.415
-6.939
31.495
69.182
105.93
147.519
207.474
291.742
399.708
524.34
647.55
755.952
838.664
885.307
892.867
855.992
773.672
650.71
491.055
306.712
111.143
-81.568
-250.777
-382.488
-471.255
-518.688
-538.211
-543.845
-541.812
-534.005
-517.66
-489.216
-450.897
-407.66
-363.993
-324.328
-291.057
-264.63
-245.143
-231.881
-223.301
-217.881
-214.661
-212.631
-210.571
-207.37
-201.892
-193.698
-183.278
-171.346
-158.461
-145.22
-132.294
-120.463
-110.683
-103.454
-98.698
-96.132
-95.359
-95.996
-97.722
-100.135
-102.704
-105.034
-106.926
-108.283
-109.114
-109.417
-109.127
-108.196
-106.64
-104.503
-101.843
-98.736
-95.236
-91.402
-87.317
-83.064
-78.729
-74.402
-70.147
-66.008
-62.032
-58.262
-54.747
-51.554
-48.72
-46.249
-44.133
-42.349
-40.868
-39.669
-38.714
-37.958
-37.357
-36.87
-36.465
-36.118
-35.801
-35.478
-35.111
-34.651
-34.062
-33.32
-32.402
-31.29
-29.968
-28.422
-26.645
-24.637
-22.395
-19.913
-17.187
-14.209
-10.974
-7.483
-3.738
0.255
4.493
8.971
13.68
18.614
23.762
29.117
34.669
40.41
46.328
52.41
58.642
65.007
71.489
78.071
84.733
91.455
98.218
105
111.781
118.542
125.259
131.913
138.481
144.941
151.272
157.453
163.461
169.276
174.876
180.241
185.353
190.193
194.742
198.984
202.903
206.484
209.711
212.573
215.056
217.149
218.844
220.13
221.002
221.455
221.483
221.086
220.263
219.015
217.345
215.257
212.757
209.853
206.555
202.873
198.82
194.41
189.661
184.588
179.21
173.549
167.624
161.457
155.071
148.489
141.736
134.836
127.813
120.694
113.504
106.268
99.011
91.759
84.537
77.369
70.277
63.285
56.415
49.688
43.123
36.739
30.553
24.583
18.843
13.346
8.105
3.13
-1.571
-5.991
-10.124
-13.966
-17.516
-20.772
-23.734
-26.405
-28.788
-30.887
-32.708
-34.258
-35.543
-36.574
-37.359
-37.91
-38.236
-38.349
-38.261
-37.983
-37.529
-36.911
-36.142
-35.234
-34.2
-33.053
-31.807
-30.473
-29.064
-27.592
-26.069
-24.504
-22.909
-21.294
-19.666
-18.035
-16.408
-14.793
-13.195
-11.621
-10.076
-8.563
-7.088
-5.654
-4.263
-2.917
-1.619
-0.37
0.828
1.975
3.07
4.111
5.099
6.033
6.914
7.742
8.517
9.241
9.915
10.539
11.116
11.646
12.132
12.575
12.976
13.337
13.658
13.942
14.189
14.4
14.575
14.716
14.823
14.896
14.935
14.94
14.911
14.849
14.754
14.626
14.465
14.272
14.047
13.793
13.51
13.198
12.86
12.496
12.108
11.697
11.265
10.811
10.338
9.846
9.337
8.812
8.271
7.716
7.149
6.571
5.983
5.388
4.787
4.182
3.575
2.968
2.365
1.767
1.176
0.595
0.025
-0.53
-1.071
-1.594
-2.1
-2.588
-3.055
-3.503
-3.932
-4.34
-4.728
-5.097
-5.447
-5.779
-6.092
-6.388
-6.667
-6.931
-7.18
-7.416
-7.639
-7.852
-8.057
-8.255
-8.449
-8.641
-8.834
-9.031
-9.235
-9.449
-9.676
-9.918
-10.18
-10.463
-10.77
-11.103
-11.465
-11.857
-12.281
-12.739
-13.23
-13.755
-14.316
-14.911
-15.54
-16.203
-16.898
-17.626
-18.384
-19.17
-19.983
-20.82
-21.679
-22.555
-23.445
-24.345
-25.249
-26.152
-27.049
-27.934
-28.801
-29.643
-30.454
-31.228
-31.957
-32.635
-33.255
-33.81
-34.294
-34.7
-35.021
-35.252
-35.387
-35.42
-35.346
-35.162
-34.862
-34.444
-33.903
-33.236
-32.442
-31.518
-30.463
-29.276
-27.958
-26.511
-24.937
-23.239
-21.422
-19.49
-17.45
-15.308
-13.071
-10.748
-8.348
-5.881
-3.356
-0.785
1.82
4.445
7.079
9.706
12.311
14.878
17.393
19.837
22.196
24.452
26.591
28.598
30.458
32.158
33.685
35.028
36.173
37.107
37.821
38.304
38.549
38.551
38.306
37.814
37.079
36.105
34.898
33.463
31.798
29.907
27.796
25.475
22.959
20.271
17.439
14.502
11.506
8.498
5.525
2.628
-0.158
-2.797
-5.252
-7.477
-9.421
-11.033
-12.268
-13.095
-13.486
-13.437
-12.973
-12.143
-11.03
-9.715
-8.266
-6.754
-5.26
-3.878
-2.707
-1.859
-1.411
-1.462
-2.16
-3.557
-5.622
-8.193
-10.896
-13.361
-15.319
-16.443
-16.373
-14.934
-12.053
