Name,Criss Capps
Date of Birth,"Feb 5, 1952"
Recorded Date,2020-12-17 10:21:03 -0400
Classification,Sinus Rhythm
Symptoms,
Software Version,1.90
Device,"Watch5,4"
Sample Rate,512.844 hertz


Lead,Lead I
Unit,µV

-253.523
-287.789
-319.76
-347.254
-367.513
-379.862
-384.547
-382.516
-375.987
-366.391
-354.493
-341.949
-330.721
-321.749
-315.454
-311.422
-308.254
-305.315
-302.524
-299.545
-296.057
-291.871
-286.861
-281.362
-276.136
-271.594
-267.836
-264.87
-262.542
-260.778
-259.573
-258.808
-258.256
-257.714
-257.05
-256.199
-255.184
-254.023
-252.693
-251.165
-249.415
-247.449
-245.294
-242.991
-240.578
-238.076
-235.516
-232.937
-230.385
-227.92
-225.581
-223.386
-221.34
-219.442
-217.692
-216.096
-214.652
-213.346
-212.164
-211.09
-210.113
-209.226
-208.419
-207.677
-206.982
-206.319
-205.672
-205.035
-204.399
-203.756
-203.1
-202.424
-201.725
-201.003
-200.254
-199.477
-198.668
-197.823
-196.94
-196.019
-195.058
-194.056
-193.012
-191.929
-190.809
-189.655
-188.471
-187.26
-186.027
-184.778
-183.517
-182.251
-180.984
-179.72
-178.464
-177.22
-175.992
-174.783
-173.594
-172.425
-171.278
-170.156
-169.059
-167.989
-166.947
-165.935
-164.956
-164.014
-163.106
-162.232
-161.384
-160.56
-159.751
-158.951
-158.151
-157.339
-156.505
-155.64
-154.741
-153.802
-152.813
-151.76
-150.623
-149.39
-148.057
-146.622
-145.085
-143.45
-141.725
-139.935
-138.119
-136.314
-134.541
-132.806
-131.099
-129.412
-127.739
-126.077
-124.422
-122.753
-121.04
-119.264
-117.415
-115.48
-113.429
-111.2
-108.698
-105.844
-102.598
-98.959
-94.956
-90.621
-85.998
-81.152
-76.171
-71.182
-66.303
-61.62
-57.194
-53.084
-49.371
-46.182
-43.684
-42.012
-41.251
-41.438
-42.58
-44.676
-47.688
-51.526
-56.04
-61.023
-66.3
-71.745
-77.263
-82.77
-88.153
-93.262
-97.923
-101.996
-105.391
-108.033
-109.867
-110.849
-110.995
-110.407
-109.262
-107.788
-106.156
-104.468
-102.81
-101.281
-99.994
-99.103
-98.758
-99.018
-99.961
-101.725
-104.288
-107.517
-111.089
-114.34
-116.622
-117.42
-116.149
-112.398
-106.246
-98.018
-88.495
-79.021
-70.622
-64.15
-60.607
-60.226
-62.208
-65.143
-66.78
-64.249
-55.093
-36.844
-6.75
36.654
93.066
160.869
237.164
318.077
399.246
475.418
540.274
588.228
615.567
619.988
600.252
556.381
490.072
405.152
307.742
204.604
101.61
4.232
-81.984
-151.939
-202.102
-231.468
-241.647
-235.456
-215.762
-185.752
-149.386
-111.545
-76.689
-47.339
-24.211
-7.25
3.813
9.235
9.601
6.954
3.786
1.398
0.189
0.137
1.01
2.996
6.555
11.06
15.257
18.499
20.512
21.375
21.486
20.885
19.285
16.895
14.301
11.903
10.027
8.76
7.928
7.51
7.612
8.232
9.287
10.676
12.259
13.961
15.794
17.727
19.717
21.708
23.61
25.373
26.981
28.421
29.696
30.808
31.757
32.552
33.216
33.773
34.24
34.635
34.966
35.244
35.488
35.716
35.954
36.221
36.533
36.903
37.342
37.86
38.466
39.166
39.965
40.866
41.877
43.004
44.253
45.631
47.141
48.787
50.571
52.493
54.554
56.75
59.078
61.536
64.119
66.822
69.639
72.563
75.587
78.703
81.9
85.169
88.497
91.872
95.281
98.71
102.144
105.568
108.966
112.323
115.623
118.851
121.992
125.03
127.951
130.741
133.386
135.872
138.189
140.323
142.263
143.999
145.522
146.823
147.895
148.731
149.325
149.672
149.769
149.613
149.201
148.534
147.611
146.435
145.007
143.333
141.418
139.269
136.893
134.299
131.498
128.5
125.316
121.959
118.44
114.774
110.972
107.049
103.018
98.893
94.69
90.42
86.1
81.743
77.362
72.971
68.584
64.212
59.869
55.566
51.314
47.125
43.007
38.972
35.026
31.178
27.435
23.802
20.282
16.881
13.6
10.439
7.4
4.482
1.683
-0.999
-3.566
-6.024
-8.374
-10.624
-12.777
-14.84
-16.819
-18.72
-20.55
-22.315
-24.022
-25.676
-27.282
-28.847
-30.376
-31.873
-33.341
-34.786
-36.21
-37.615
-39.004
-40.378
-41.736
-43.078
-44.402
-45.705
-46.984
-48.233
-49.448
-50.621
-51.746
-52.814
-53.816
-54.743
-55.584
-56.327
-56.96
-57.471
-57.846
-58.072
-58.136
-58.026
-57.728
-57.232
-56.526
-55.599
-54.442
-53.045
-51.402
-49.504
-47.344
-44.918
-42.222
-39.255
-36.014
-32.501
-28.717
-24.665
-20.353
-15.785
-10.972
-5.923
-0.649
4.836
10.517
16.374
22.39
28.542
34.808
41.162
47.577
54.024
60.476
66.904
73.278
79.57
85.753
91.799
97.686
103.386
108.877
114.132
119.13
123.849
128.268
132.367
136.125
139.524
142.551
145.204
147.477
149.365
150.859
151.948
152.628
152.907
152.792
152.292
151.42
150.197
148.663
146.883
144.919
142.824
140.642
138.404
136.151
133.94
131.829
129.879
128.13
126.594
125.296
124.278
123.553
123.115
122.896
122.759
122.599
122.341
121.939
121.376
120.592
119.484
117.952
115.897
113.264
110.094
106.363
101.964
96.98
91.633
86.393
82.03
79.187
78.238
79.484
83.171
89.201
97.284
106.734
116.237
124.593
130.929
134.858
136.671
137.403
138.417
141.473
149.192
164.314
189.476
226.545
275.726
335.758
404.654
479.654
556.512
630.072
694.301
743.203
772.625
779.958
763.233
721.727
656.935
572.276
473.36
367.186
259.989
157.533
65.945
-9.532
-65.75
-101.61
-118.414
-119.309
-107.603
-86.985
-62.198
-37.846
-17.144
-1.946
7.358
11.501
11.351
8.016
3.34
-0.721
-3.028
-3.169
-1.323
1.88
5.916
10.339
14.452
17.513
19.146
19.261
18.017
15.776
12.809
9.314
5.557
1.811
-1.683
-4.703
-7.141
-8.975
-10.179
-10.737
-10.647
-9.904
-8.553
-6.671
-4.331
-1.605
1.439
4.742
8.231
11.824
15.436
18.978
22.389
25.628
28.662
31.468
34.028
36.328
38.372
40.177
41.754
43.11
44.251
45.179
45.901
46.431
46.781
46.965
46.994
46.876
46.621
46.239
45.741
45.134
44.426
43.622
42.731
41.765
40.736
39.656
38.539
37.395
36.237
35.079
33.931
32.803
31.704
30.641
29.622
28.654
27.744
26.896
26.115
25.405
24.768
24.208
23.724
23.319
22.99
22.738
22.56
22.454
22.417
22.444
22.531
22.672
22.861
23.093
23.36
23.656
23.972
24.302
24.639
24.974
25.301
25.614
25.905
26.169
26.402
26.599
26.756
26.871
26.941
26.965
26.942
26.871
26.754
26.589
26.38
26.127
25.832
25.499
25.131
24.73
24.3
23.845
23.369
22.878
22.375
21.867
21.358
20.855
20.364
19.891
19.441
19.02
18.636
18.292
17.996
17.751
17.562
17.434
17.369
17.371
17.441
17.582
17.793
18.076
18.428
18.85
19.339
19.892
20.507
21.18
21.908
22.687
23.514
24.384
25.294
26.239
27.215
28.217
29.239
30.277
31.324
32.375
33.422
34.46
35.483
36.484
37.457
38.397
39.297
40.154
40.961
41.714
42.408
43.04
43.609
44.113
44.551
44.924
45.234
45.486
45.683
45.831
45.935
45.997
46.024
46.02
45.988
45.93
45.847
45.746
45.629
45.507
45.386
45.278
45.192
45.141
45.136
45.189
45.309
45.504
45.777
46.136
46.59
47.152
47.838
48.659
49.618
50.719
51.959
53.327
54.804
56.358
57.951
59.56
61.17
62.775
64.388
66.016
67.668
69.358
71.084
72.847
74.653
76.496
78.379
80.323
82.357
84.541
86.942
89.592
92.498
95.649
98.99
102.46
105.984
109.455
112.794
115.933
118.803
121.361
123.56
125.324
126.572
127.194
127.053
126.065
124.173
121.343
117.608
113.015
107.635
101.591
94.974
87.86
80.324
72.407
64.15
55.628
46.923
38.154
29.484
21.038
12.918
5.212
-2.052
-8.855
-15.189
-21.09
-26.577
-31.66
-36.359
-40.653
-44.518
-47.971
-51.059
-53.894
-56.65
-59.466
-62.438
-65.644
-69.129
-72.97
-77.263
-82.086
-87.509
-93.534
-100.175
-107.537
-115.596
-124.167
-132.844
-140.91
-147.597
-152.373
-154.859
-154.753
-152.202
-147.608
-141.712
-135.879
-131.476
-129.596
-130.782
-134.791
-140.4
-145.842
-148.982
-146.843
-136.276
-114.159
-78.205
-27.93
35.407
109.44
190.959
275.245
356.497
428.001
483.132
517.202
527.348
511.724
469.887
403.748
317.303
216.69
109.403
2.09
-99.3
-188.651
-260.956
-313.485
-345.555
-358.823
-356.74
-342.79
-320.76
-295.44
-271.276
-251.229
-236.929
-228.512
-225.06
-225.638
-229.059
-233.423
-236.824
-238.149
-237.042
-233.832
-229.234
-223.829
-218.121
-212.806
-208.613
-205.951
-204.919
-205.364
-206.948
-209.396
-212.519
-216.099
-219.897
-223.711
-227.339
-230.624
-233.501
-235.915
-237.817
-239.187
-239.998
-240.246
-239.977
-239.25
-238.122
-236.653
-234.891
-232.872
-230.653
-228.295
-225.864
-223.427
-221.027
-218.689
-216.433
-214.272
-212.213
-210.258
-208.389
-206.582
-204.818
-203.085
-201.374
-199.679
-197.988
-196.288
-194.567
-192.815
-191.024
-189.191
-187.309
-185.376
-183.389
-181.35
-179.262
-177.132
-174.962
-172.754
-170.51
-168.233
-165.926
-163.59
-161.229
-158.845
-156.442
-154.025
-151.6
-149.174
-146.753
-144.343
-141.951
-139.586
-137.253
-134.961
-132.716
-130.526
-128.398
-126.34
-124.358
-122.461
-120.656
-118.948
-117.345
-115.854
-114.479
-113.226
-112.1
-111.103
-110.239
-109.511
-108.922
-108.472
-108.162
-107.994
-107.968
-108.084
-108.34
-108.734
-109.264
-109.927
-110.718
-111.632
-112.666
-113.813
-115.067
-116.423
-117.874
-119.413
-121.034
-122.729
-124.49
-126.31
-128.178
-130.088
-132.03
-133.995
-135.975
-137.961
-139.945
-141.919
-143.876
-145.807
-147.705
-149.562
-151.371
-153.126
-154.82
-156.445
-157.997
-159.471
-160.861
-162.164
-163.376
-164.495
-165.518
-166.443
-167.268
-167.993
-168.616
-169.138
-169.56
-169.883
-170.109
-170.241
-170.283
-170.239
-170.113
-169.911
-169.637
-169.297
-168.898
-168.444
-167.943
-167.401
-166.825
-166.221
-165.596
-164.958
-164.312
-163.665
-163.022
-162.389
-161.771
-161.172
-160.595
-160.043
-159.52
-159.026
-158.564
-158.134
-157.736
-157.369
-157.031
-156.719
-156.428
-156.155
-155.891
-155.631
-155.367
-155.09
-154.791
-154.459
-154.085
-153.657
-153.162
-152.589
-151.925
-151.157
-150.272
-149.256
-148.097
-146.781
-145.297
-143.633
-141.777
-139.721
-137.454
-134.967
-132.252
-129.304
-126.117
-122.685
-119.005
-115.077
-110.899
-106.475
-101.806
-96.899
-91.76
-86.397
-80.82
-75.043
-69.079
-62.943
-56.652
-50.226
-43.685
-37.05
-30.346
-23.596
-16.824
-10.058
-3.327
3.342
9.919
16.375
22.681
28.808
34.729
40.416
45.847
50.999
55.852
60.384
64.575
68.407
71.862
74.927
77.586
79.829
81.649
83.046
84.023
84.588
84.745
84.497
83.843
82.791
81.347
79.525
77.339
74.81
71.974
68.878
65.579
62.132
58.584
54.973
51.338
47.721
44.17
40.745
37.501
34.48
31.731
29.3
27.221
25.504
24.107
22.963
21.984
21.111
20.319
19.575
18.816
17.963
16.911
15.545
13.82
11.656
8.895
5.556
1.784
-2.096
-5.426
-7.608
-8.232
-6.788
-2.914
3.221
11.185
20.08
28.396
35.039
39.205
39.907
36.943
31.243
24.359
18.765
17.655
23.661
39.329
67.554
109.9
166.105
234.569
312.266
395.056
478.356
556.698
623.542
673.026
701.115
705.221
683.8
636.806
566.24
476.128
372.688
263.05
153.392
49.616
-41.68
-114.849
-166.562
-195.419
-202.576
-190.853
-162.646
-121.287
-72.276
-21.178
27.49
69.965
104.493
130.482
146.763
153.269
151.937
145.172
135.541
125.739
117.09
110.343
106.802
107.034
110.638
116.926
124.694
132.477
139.671
146.015
151.037
154.67
157.054
158.376
159.199
160.192
161.638
163.638
166.281
169.484
173.219
177.499
182.164
187.03
191.993
196.965
201.911
206.827
211.655
216.309
220.742
224.913
228.803
232.418
235.744
238.772
241.499
243.924
246.069
247.951
249.582
250.969
252.121
253.049
253.779
254.338
254.745
255.017
255.172
255.22
255.181
255.069
254.897
254.677
254.421
254.141
253.853
253.573
253.314
253.088
252.908
252.78
252.715
252.722
252.804
252.968
253.216
253.55
253.973
254.484
255.082
255.763
256.522
257.352
258.245
259.192
260.18
261.198
262.232
263.268
264.29
265.284
266.232
267.117
267.923
268.631
269.225
269.686
269.996
270.14
270.1
269.862
269.41
268.731
267.812
266.642
265.209
263.506
261.523
259.255
256.694
253.839
250.686
247.235
243.488
239.448
235.12
230.509
225.624
220.474
215.068
209.419
203.539
197.441
191.14
184.653
177.995
171.183
164.235
157.17
150.005
142.759
135.451
128.098
120.718
113.33
105.951
98.598
91.289
84.039
76.865
69.781
62.801
55.939
49.205
42.61
36.163
29.871
23.741
17.779
11.987
6.369
0.926
-4.34
-9.431
-14.348
-19.094
-23.673
-28.09
-32.351
-36.461
-40.427
-44.258
-47.961
-51.543
-55.013
-58.379
-61.651
-64.838
-67.948
-70.991
-73.977
-76.913
-79.809
-82.672
-85.51
-88.33
-91.137
-93.937
-96.733
-99.53
-102.331
-105.137
-107.949
-110.768
-113.594
-116.423
-119.254
-122.083
-124.905
-127.714
-130.505
-133.269
-136
-138.69
-141.33
-143.913
-146.428
-148.866
-151.218
-153.474
-155.624
-157.657
-159.564
-161.332
-162.954
-164.419
-165.719
-166.845
-167.79
-168.546
-169.107
-169.468
-169.624
-169.57
-169.305
-168.825
-168.13
-167.221
-166.101
-164.773
-163.241
-161.514
-159.597
-157.503
-155.239
-152.82
-150.255
-147.56
-144.748
-141.836
-138.84
-135.777
-132.666
-129.528
-126.385
-123.261
-120.177
-117.156
-114.222
-111.398
-108.705
-106.163
-103.788
-101.598
-99.608
-97.836
-96.3
-95.016
-93.996
-93.252
-92.791
-92.621
-92.745
-93.162
-93.864
-94.844
-96.099
-97.631
-99.451
-101.56
-103.955
-106.625
-109.557
-112.728
-116.115
-119.68
-123.367
-127.128
-130.914
-134.683
-138.407
-142.037
-145.517
-148.781
-151.755
-154.376
-156.6
-158.39
-159.732
-160.633
-161.117
-161.232
-161.048
-160.641
-160.111
-159.561
-159.092
-158.835
-158.897
-159.447
-160.729
-162.814
-165.616
-168.903
-172.208
-175.103
-177.357
-178.541
-178.043
-175.76
-171.964
-167.398
-163.455
-161.093
-160.585
-162.466
-167.376
-174.984
-184.219
-192.929
-197.712
-196.001
-186.186
-166.083
-133.429
-87.161
-27.245
44.376
123.794
207.706
292.91
374.541
446.937
504.808
543.361
559.852
553.305
522.384
466.93
389.568
294.847
188.416
76.552
-35.046
-140.752
-233.828
-308.605
-362.171
-393.908
-404.705
-396.347
-371.537
-334.444
-291.281
-248.477
-210.397
-179.472
-157.301
-145.186
-143.346
-150.55
-163.584
-178.141
-191.402
-202.041
-209.041
-211.438
-208.781
-201.259
-190.274
-178.275
-166.811
-156.494
-147.777
-140.911
-136.075
-133.395
-132.49
-132.475
-132.808
-133.311
-133.898
-134.667
-135.629
-136.672
-137.815
-139.149
-140.707
-142.469
-144.338
-146.172
-147.897
-149.503
-150.979
-152.325
-153.51
-154.472
-155.185
-155.631
-155.797
-155.679
-155.265
-154.561
-153.599
-152.437
-151.156
-149.821
-148.468
-147.116
-145.776
-144.455
-143.178
-141.968
-140.831
-139.768
-138.783
-137.879
-137.063
-136.335
-135.673
-135.038
-134.388
-133.689
-132.92
-132.068
-131.124
-130.077
-128.918
-127.645
-126.265
-124.782
-123.198
-121.513
-119.721
-117.826
-115.834
-113.755
-111.6
-109.378
-107.094
-104.755
-102.366
-99.934
-97.461
-94.947
-92.391
-89.793
-87.156
-84.481
-81.774
-79.037
-76.273
-73.486
-70.681
-67.862
-65.032
-62.196
-59.356
-56.514
-53.676
-50.844
-48.022
-45.215
-42.424
-39.654
-36.909
-34.192
-31.507
-28.856
-26.242
-23.669
-21.138
-18.652
-16.215
-13.829
-11.495
-9.219
-7.002
-4.847
-2.758
-0.735
1.217
3.098
4.905
6.639
8.297
9.881
11.389
12.822
14.18
15.464
16.676
17.816
18.889
19.895
20.839
21.724
22.553
23.33
24.06
24.745
25.391
26.001
26.578
27.126
27.65
28.151
28.634
29.102
29.558
30.005
30.444
30.878
31.308
31.736
32.162
32.585
33.006
33.423
33.835
34.24
34.635
35.018
35.385
35.732
36.056
36.351
36.614
36.837
37.018
37.151
37.23
37.253
37.213
37.108
36.933
36.686
36.362
35.961
35.48
34.918
34.274
33.549
32.744
31.861
30.902
29.871
28.774
27.617
26.405
25.146
23.849
22.523
21.179
19.828
18.481
17.151
15.851
14.593
13.393
12.264
11.218
10.27
9.432
8.716
8.136
7.702
7.425
7.315
7.382
7.633
8.077
8.72
9.566
10.619
11.881
13.352
15.032
16.918
19.006
21.29
23.76
26.409
29.224
32.191
35.295
38.518
41.841
45.244
48.704
52.197
55.697
59.178
62.612
65.973
69.233
72.365
75.342
78.138
80.731
83.096
85.212
87.055
88.604
89.837
90.737
91.283
91.461
91.253
90.651
89.654
88.26
86.468
84.278
81.681
78.679
75.28
71.494
67.331
62.81
57.955
52.81
47.436
41.888
36.222
30.48
24.689
18.895
13.144
7.492
2.007
-3.27
-8.314
-13.079
-17.518
-21.601
-25.329
-28.769
-32.024
-35.171
-38.251
-41.265
-44.224
-47.185
-50.216
-53.415
-56.864
-60.57
-64.588
-69.059
-73.996
-79.277
-84.543
-89.076
-92.203
-93.462
-92.35
-88.548
-82.147
-73.485
-63.596
-54.162
-46.572
-42.046
-41.653
-45.448
-52.556
-61.464
-69.22
-72.051
-66.596
-49.279
-16.929
31.571
95.805
174.015
261.98
354.034
444.212
525.36
590.223
633.696
652.049
642.861
606.762
546.63
466.647
373.23
274.024
175.543
84.068
5.765
-55.768
-99.086
-124.097
-133.004
-129.507
-116.938
-99.248
-81.154
-65.691
-54.566
-48.745
-47.641
-49.925
-54.577
-60.023
-64.164
-65.905
-64.772
-60.638
-54.208
-46.286
-37.428
-28.429
-20.151
-13.017
-7.263
-2.951
0.158
2.243
3.434
3.963
4.031
3.791
3.4
2.973
2.624
2.504
2.732
3.385
4.517
6.138
8.247
10.839
13.87
17.284
21.021
25.019
29.23
33.61
38.099
42.631
47.135
51.536
55.785
59.846
63.69
67.306
70.69
73.84
76.776
79.521
82.091
84.502
86.766
88.892
90.896
92.798
94.613
96.36
98.055
99.71
101.342
102.962
104.58
106.205
107.843
109.498
111.178
112.889
114.64
116.437
118.287
120.195
122.167
124.208
126.32
128.505
130.763
133.092
135.49
137.953
140.478
143.059
145.689
148.36
151.066
153.796
156.54
159.288
162.029
164.749
167.438
170.081
172.668
175.183
177.615
179.952
182.18
184.289
186.267
188.102
189.785
191.305
192.654
193.822
194.802
195.586
196.167
196.54
196.701
196.644
196.369
195.872
195.152
194.21
193.046
191.663
190.064
188.252
186.233
184.012
181.598
178.997
176.219
173.272
170.167
166.913
163.523
160.005
156.372
152.634
148.802
144.888
140.903
136.856
132.761
128.626
124.463
120.282
116.094
111.908
107.736
103.586
99.468
95.391
91.364
87.395
83.491
79.659
75.904
72.233
68.649
65.155
61.755
58.45
55.241
52.128
49.111
46.189
43.361
40.623
37.975
35.412
32.933
30.535
28.213
25.965
23.788
21.676
19.627
17.636
15.698
13.809
11.965
10.159
8.386
6.642
4.922
3.219
1.531
-0.149
-1.823
-3.495
-5.169
-6.846
-8.528
-10.216
-11.911
-13.612
-15.318
-17.027
-18.737
-20.445
-22.148
-23.842
-25.522
-27.185
-28.825
-30.438
-32.018
-33.56
-35.057
-36.503
-37.891
-39.212
-40.46
-41.625
-42.699
-43.672
-44.537
-45.283
-45.902
-46.386
-46.726
-46.914
-46.942
-46.805
-46.497
-46.011
-45.345
-44.494
-43.458
-42.236
-40.828
-39.236
-37.463
-35.512
-33.388
-31.099
-28.651
-26.051
-23.31
-20.439
-17.449
-14.354
-11.169
-7.91
-4.595
-1.244
2.122
5.479
8.806
12.078
15.272
18.364
21.329
24.148
26.799
29.261
31.513
33.533
35.303
36.804
38.016
38.923
39.51
39.763
39.675
39.247
38.476
37.359
35.892
34.06
31.86
29.297
26.375
23.102
19.495
15.576
11.393
7.007
2.478
-2.146
-6.824
-11.529
-16.219
-20.838
-25.328
-29.621
-33.668
-37.445
-40.907
-44.017
-46.765
-49.178
-51.348
-53.408
-55.463
-57.58
-59.795
-62.142
-64.701
-67.587
-70.911
-74.786
-79.241
-84.295
-90.054
-96.474
-103.348
-110.314
-116.718
-121.888
-125.397
-126.902
-126.076
-123.099
-118.371
-112.367
-106.112
-100.489
-96.053
-93.352
-92.452
-92.312
-91.443
-88.417
-81.127
-67.621
-46.102
-14.326
29.021
83.35
147.044
218.058
293.045
368.011
438.298
497.61
540.038
561.612
559.418
531.725
479.061
403.684
309.612
203.657
93.583
-13.583
-110.819
-192.119
-253.919
-294.527
-314.159
-315.586
-302.95
-280.673
-254.017
-227.977
-205.736
-189.19
-179.06
-174.709
-174.89
-178.139
-182.327
-185.276
-185.864
-183.706
-178.969
-172.361
-164.564
-156.177
-148.02
-140.921
-135.294
-131.266
-128.732
-127.366
-126.922
-127.215
-128.01
-129.088
-130.263
-131.358
-132.237
-132.812
-133.007
-132.769
-132.069
-130.884
-129.218
-127.105
-124.598
-121.767
-118.679
-115.389
-111.949
-108.405
-104.817
-101.25
-97.769
-94.431
-91.275
-88.325
-85.596
-83.098
-80.829
-78.774
-76.911
-75.209
-73.643
-72.195
-70.847
-69.581
-68.379
-67.217
-66.076
-64.937
-63.783
-62.601
-61.375
-60.094
-58.749
-57.332
-55.839
-54.264
-52.604
-50.851
-49.003
-47.052
-44.997
-42.835
-40.565
-38.187
-35.702
-33.116
-30.434
-27.662
-24.808
-21.881
-18.892
-15.851
-12.77
-9.662
-6.539
-3.415
-0.304
2.781
5.824
8.812
11.733
14.571
17.316
19.952
22.47
24.857
27.102
29.194
31.123
32.88
34.455
35.842
37.032
38.02
38.8
39.367
39.72
39.855
39.773
39.472
38.956
38.225
37.284
36.138
34.791
33.251
31.524
29.618
27.541
25.303
22.913
20.38
17.714
14.925
12.023
9.018
5.921
2.742
-0.507
-3.818
-7.177
-10.576
-14.003
-17.447
-20.897
-24.343
-27.775
-31.183
-34.556
-37.884
-41.159
-44.372
-47.515
-50.578
-53.557
-56.443
-59.232
-61.918
-64.496
-66.964
-69.317
-71.554
-73.672
-75.67
-77.547
-79.303
-80.939
-82.455
-83.853
-85.135
-86.303
-87.361
-88.312
-89.161
-89.912
-90.57
-91.142
-91.633
-92.05
-92.4
-92.69
-92.928
-93.122
-93.28
-93.409
-93.518
-93.616
-93.708
-93.804
-93.91
-94.033
-94.179
-94.353
-94.562
-94.809
-95.098
-95.432
-95.814
-96.246
-96.727
-97.26
-97.842
-98.472
-99.147
-99.865
-100.621
-101.411
-102.229
-103.068
-103.921
-104.781
-105.639
-106.485
-107.311
-108.104
-108.856
-109.555
-110.189
-110.746
-111.215
-111.583
-111.84
-111.974
-111.974
-111.831
-111.534
-111.075
-110.447
-109.643
-108.657
-107.485
-106.122
-104.568
-102.822
-100.884
-98.756
-96.443
-93.949
-91.28
-88.447
-85.458
-82.324
-79.059
-75.676
-72.19
-68.619
-64.982
-61.296
-57.583
-53.865
-50.165
-46.509
-42.922
-39.43
-36.057
-32.83
-29.775
-26.915
-24.27
-21.861
-19.708
-17.828
-16.242
-14.965
-14.012
-13.398
-13.136
-13.237
-13.711
-14.559
-15.776
-17.359
-19.304
-21.61
-24.278
-27.301
-30.665
-34.362
-38.375
-42.685
-47.263
-52.057
-57.007
-62.055
-67.151
-72.252
-77.321
-82.306
-87.15
-91.796
-96.19
-100.296
-104.085
-107.513
-110.545
-113.173
-115.422
-117.378
-119.14
-120.785
-122.366
-123.914
-125.482
-127.166
-129.073
-131.309
-133.959
-137.027
-140.555
-144.658
-149.29
-154.267
-159.217
-163.509
-166.571
-168.039
-167.6
-164.99
-160.301
-153.84
-146.235
-138.581
-131.884
-126.92
-124.08
-123.228
-123.489
-123.463
-121.444
-115.193
-102.257
-80.221
-47.391
-3.101
51.87
115.512
185.471
258.431
329.772
394.146
446.331
481.686
497.212
491.306
462.463
410.692
338.541
250.332
151.69
48.985
-52.169
-146.553
-228.199
-292.351
-336.852
-361.536
-368.166
-359.851
-339.739
-311.45
-279.831
-249.32
-222.685
-201.35
-185.429
-174.207
-166.972
-162.702
-159.593
-155.868
-150.574
-143.433
-134.755
-125.181
-115.203
-105.279
-96.119
-88.426
-82.582
-78.715
-76.678
-76.125
-76.768
-78.331
-80.47
-82.86
-85.227
-87.342
-89.092
-90.43
-91.309
-91.705
-91.592
-90.942
-89.747
-87.992
-85.674
-82.833
-79.531
-75.86
-71.953
-67.92
-63.86
-59.88
-56.04
-52.381
-48.932
-45.691
-42.646
-39.799
-37.146
-34.695
-32.455
-30.415
-28.556
-26.848
-25.242
-23.695
-22.172
-20.628
-19.033
-17.367
-15.611
-13.762
-11.825
-9.798
-7.676
-5.454
-3.12
-0.669
1.904
4.6
7.419
10.36
13.42
16.593
19.873
23.253
26.728
30.294
33.947
37.683
41.493
45.371
49.307
53.29
57.309
61.35
65.4
69.444
73.468
77.457
81.399
85.279
89.083
92.797
96.409
99.905
103.272
106.499
109.573
112.481
115.214
117.759
120.107
122.25
124.177
125.883
127.362
128.608
129.618
130.389
130.921
131.211
131.262
131.074
130.65
129.994
129.112
128.009
126.693
125.173
123.459
121.56
119.486
117.25
114.863
112.337
109.684
106.918
104.051
101.097
98.071
94.987
91.859
88.703
85.531
82.359
79.201
76.071
72.981
69.945
66.976
64.084
61.282
58.58
55.988
53.515
51.169
48.957
46.885
44.959
43.181
41.557
40.086
38.772
37.613
36.611
35.763
35.068
34.523
34.124
33.867
33.746
33.756
33.889
34.14
34.5
34.961
35.515
36.154
36.868
37.649
38.488
39.375
40.302
41.258
42.235
43.224
44.219
45.21
46.192
47.158
48.102
49.02
49.907
50.76
51.576
52.353
53.089
53.785
54.441
55.058
55.638
56.185
56.703
57.197
57.671
58.134
58.589
59.046
59.513
59.996
60.507
61.053
61.646
62.295
63.013
63.808
64.694
65.678
66.772
67.986
69.327
70.806
72.43
74.205
76.139
78.238
80.507
82.949
85.568
88.364
91.338
94.489
97.814
101.31
104.971
108.79
112.759
116.871
121.114
125.477
129.947
134.509
139.147
143.844
148.581
153.337
158.088
162.813
167.488
172.088
176.59
180.97
185.206
189.276
193.161
196.842
200.297
203.509
206.457
209.127
211.499
213.56
215.296
216.694
217.748
218.458
218.823
218.842
218.514
217.828
216.782
215.382
213.634
211.548
209.141
206.435
203.476
200.322
197.031
193.66
190.254
186.843
183.476
180.205
177.083
174.182
171.547
169.2
167.183
165.524
164.231
163.285
162.602
162.052
161.533
160.963
160.293
159.479
158.431
157.046
155.216
152.828
149.853
146.255
141.914
136.88
131.342
125.64
120.44
116.372
113.872
113.489
115.674
120.36
127.28
135.769
144.571
152.81
159.764
164.348
166.176
165.884
164.653
164.601
168.558
178.775
197.64
228.246
272.442
330.408
401.035
481.287
566.778
652.856
733.898
802.78
853.04
879.849
879.747
851.679
796.946
718.441
620.994
511.839
398.992
289.93
191.96
110.895
50.002
10.637
-7.778
-8.078
5.651
29.011
56.758
83.929
107.429
125.504
137.563
144.277
146.836
146.604
145.659
146.176
149.247
155.209
163.817
174.277
185.859
197.942
209.662
220.138
228.901
235.788
240.898
244.557
247.011
248.429
249.025
249.015
248.592
247.946
247.228
246.57
246.104
245.951
246.221
246.989
248.282
250.076
252.306
254.865
257.634
260.511
263.4
266.21
268.842
271.189
273.139
274.555
275.284
275.168
274.048
271.792
268.31
263.551
257.485
250.135
241.569
231.851
221.07
209.321
196.686
183.265
169.17
154.546
139.58
124.496
109.508
94.815
80.592
66.993
54.182
42.273
31.317
21.35
12.369
4.356
-2.694
-8.799
-14.022
-18.446
-22.194
-25.435
-28.305
-30.931
-33.441
-35.946
-38.583
-41.46
-44.636
-48.145
-52.004
-56.217
-60.799
-65.756
-71.053
-76.643
-82.462
-88.417
-94.451
-100.517
-106.564
-112.551
-118.427
-124.147
-129.698
-135.08
-140.294
-145.345
-150.232
-154.954
-159.534
-164.001
-168.386
-172.725
-177.041
-181.345
-185.651
-189.964
-194.29
-198.631
-202.98
-207.32
-211.641
-215.933
-220.188
-224.399
-228.552
-232.632
-236.624
-240.514
-244.291
-247.946
-251.471
-254.859
-258.109
-261.219
-264.188
-267.021
-269.718
-272.279
-274.706
-276.998
-279.156
-281.182
-283.078
-284.845
-286.485
-288.003
-289.401
-290.683
-291.855
-292.919
-293.882
-294.747
-295.521
-296.208
-296.814
-297.346
-297.81
-298.212
-298.557
-298.851
-299.1
-299.31
-299.485
-299.629
-299.748
-299.846
-299.926
-299.993
-300.05
-300.099
-300.144
-300.187
-300.23
-300.277
-300.329
-300.39
-300.461
-300.546
-300.649
-300.771
-300.916
-301.086
-301.281
-301.505
-301.757
-302.039
-302.352
-302.695
-303.068
-303.472
-303.907
-304.371
-304.862
-305.378
-305.915
-306.469
-307.034
-307.603
-308.167
-308.721
-309.257
-309.769
-310.25
-310.695
-311.097
-311.452
-311.755
-311.998
-312.171
-312.261
-312.254
-312.138
-311.899
-311.522
-310.991
-310.291
-309.41
-308.343
-307.082
-305.618
-303.935
-302.015
-299.847
-297.427
-294.758
-291.842
-288.686
-285.303
-281.721
-277.986
-274.138
-270.208
-266.208
-262.133
-257.985
-253.768
-249.485
-245.141
-240.721
-236.205
-231.584
-226.861
-222.036
-217.09
-211.979
-206.622
-200.96
-194.967
-188.653
-182.053
-175.205
-168.155
-160.972
-153.75
-146.62
-139.703
-133.089
-126.847
-121.046
-115.774
-111.156
-107.341
-104.449
-102.557
-101.705
-101.915
-103.195
-105.52
-108.826
-112.994
-117.852
-123.242
-129.028
-135.082
-141.283
-147.495
-153.557
-159.307
-164.599
-169.313
-173.345
-176.6
-179.004
-180.524
-181.159
-180.96
-180.057
-178.594
-176.725
-174.634
-172.456
-170.302
-168.32
-166.654
-165.469
-164.94
-165.219
-166.396
-168.545
-171.766
-176.01
-181.072
-186.551
-191.781
-196.087
-198.942
-199.944
-198.745
-195.429
-190.374
-184.046
-177.434
-171.451
-166.641
-163.425
-161.756
-160.45
-157.81
-152.282
-141.688
-123.931
-97.239
-59.644
-10.177
50.052
118.846
193.944
272.123
349.473
421.463
482.41
527.157
552.683
557.249
539.277
498.438
436.201
355.801
262.737
163.369
63.123
-32.995
-119.42
-191.305
-245.737
-281.67
-300.311
-304.348
-296.497
-279.845
-258.597
-237.019
-218.086
-203.515
-193.691
-188.043
-185.957
-186.593
-188.342
-189.341
-188.457
-185.302
-180.09
-173.448
-165.881
-157.784
-149.789
-142.649
-136.795
-132.351
-129.198
-126.995
-125.469
-124.452
-123.728
-123.057
-122.239
-121.076
-119.419
-117.223
-114.455
-111.084
-107.114
-102.537
-97.368
-91.678
-85.55
-79.065
-72.307
-65.343
-58.231
-51.043
-43.859
-36.757
-29.82
-23.101
-16.636
-10.457
-4.583
0.968
6.189
11.09
15.693
20.015
24.069
27.864
31.408
34.715
37.805
40.694
43.4
45.937
48.32
50.563
52.682
54.69
56.599
58.42
60.16
61.831
63.446
65.017
66.556
68.076
69.587
71.101
72.627
74.173
75.747
77.354
78.998
80.683
82.412
84.186
86.005
87.87
89.779
91.73
93.721
95.747
97.804
99.887
101.991
104.109
106.234
108.36
110.48
112.584
114.667
116.719
118.733
120.7
122.611
124.46
126.237
127.935
129.546
131.065
132.483
133.796
134.998
136.085
137.053
137.899
138.62
139.215
139.681
140.018
140.225
140.304
140.253
140.074
139.769
139.34
138.789
138.118
137.33
136.428
135.416
134.299
133.079
131.762
130.354
128.858
127.283
125.634
123.918
122.142
120.312
118.438
116.524
114.58
112.613
110.629
108.637
106.643
104.654
102.678
100.722
98.79
96.891
95.029
93.21
91.439
89.722
88.062
86.463
84.93
83.467
82.075
80.759
79.519
78.358
77.275
76.272
75.347
74.499
73.726
73.025
72.393
71.827
71.322
70.874
70.477
70.125
69.814
69.536
69.286
69.057
68.843
68.637
68.433
68.226
68.008
67.776
67.524
67.247
66.941
66.601
66.224
65.807
65.347
64.844
64.295
63.702
63.065
62.386
61.668
60.915
60.131
59.321
58.491
57.649
56.803
55.959
55.129
54.321
53.546
52.814
52.137
51.525
50.991
50.544
50.195
49.955
49.834
49.841
49.987
50.279
50.725
51.334
52.111
53.063
54.192
55.502
56.994
58.668
60.521
62.552
64.754
67.122
69.646
72.319
75.128
78.061
81.102
84.237
87.445
90.71
94.01
97.322
100.622
103.886
107.089
110.206
113.21
116.077
118.78
121.296
123.604
125.679
127.502
129.049
130.301
131.239
131.843
132.097
131.987
131.5
130.629
129.375
127.737
125.718
123.318
120.532
117.362
113.815
109.895
105.616
100.996
96.057
90.844
85.415
79.827
74.132
68.378
62.598
56.836
51.143
45.57
40.185
35.04
30.177
25.649
21.502
17.765
14.436
11.449
8.703
6.106
3.589
1.122
-1.333
-3.853
-6.523
-9.455
-12.757
-16.46
-20.66
-25.522
-31.047
-37.106
-43.328
-48.99
-53.448
-56.231
-56.772
-54.691
-50.044
-43.136
-34.985
-27.201
-21.004
-17.45
-17.487
-21.152
-27.663
-35.529
-41.843
-43.044
-35.966
-17.308
15.78
64.552
128.92
207.203
295.461
388.587
480.752
565.026
634.494
683.373
707.174
703.099
670.61
610.987
527.683
426.377
313.944
197.473
83.651
-21.049
-110.847
-181.293
-230.156
-257.606
-265.599
-256.812
-233.995
-201.151
-163.331
-125.574
-91.93
-64.615
-44.301
-31.464
-26.852
-29.902
-38.676
-50.434
-62.256
-72.524
-80.813
-86.56
-88.827
-87.296
-82.339
-75.147
-67.546
-60.562
-54.457
-49.512
-46.012
-44.128
-43.924
-44.979
-46.454
-47.843
-48.93
-49.627
-50.017
-50.115
-49.898
-49.493
-49.081
-48.774
-48.619
-48.551
-48.468
-48.337
-48.153
-47.945
-47.761
-47.62
-47.55
-47.584
-47.715
-47.927
-48.175
-48.371
-48.458
-48.412
-48.232
-47.97
-47.669
-47.342
-47.007
-46.674
-46.337
-45.998
-45.643
-45.236
-44.764
-44.223
-43.622
-42.997
-42.364
-41.719
-41.049
-40.325
-39.52
-38.62
-37.607
-36.458
-35.161
-33.707
-32.101
-30.359
-28.492
-26.507
-24.407
-22.19
-19.86
-17.428
-14.903
-12.297
-9.623
-6.893
-4.122
-1.329
1.47
4.261
7.033
9.774
12.476
15.124
17.706
20.21
22.624
24.935
27.131
29.197
31.121
32.892
34.5
35.936
37.191
38.259
39.132
39.807
40.278
40.542
40.599
40.445
40.081
39.507
38.723
37.733
36.539
35.144
33.553
31.772
29.806
27.664
25.352
22.879
20.255
17.49
14.595
11.58
8.459
5.244
1.949
-1.414
-4.828
-8.281
-11.758
-15.245
-18.728
-22.195
-25.631
-29.023
-32.361
-35.631
-38.821
-41.921
-44.918
-47.802
-50.564
-53.194
-55.683
-58.022
-60.204
-62.223
-64.073
-65.748
-67.245
-68.56
-69.693
-70.642
-71.409
-71.995
-72.404
-72.642
-72.713
-72.624
-72.383
-71.997
-71.475
-70.825
-70.057
-69.179
-68.201
-67.134
-65.986
-64.769
-63.494
-62.172
-60.814
-59.431
-58.033
-56.633
-55.24
-53.866
-52.521
-51.216
-49.959
-48.761
-47.629
-46.571
-45.594
-44.701
-43.895
-43.178
-42.546
-41.997
-41.528
-41.134
-40.809
-40.548
-40.345
-40.195
-40.093
-40.034
-40.011
-40.017
-40.04
-40.071
-40.096
-40.102
-40.074
-39.997
-39.853
-39.625
-39.302
-38.87
-38.315
-37.618
-36.758
-35.715
-34.48
-33.047
-31.413
-29.581
-27.556
-25.352
-23.003
-20.536
-17.981
-15.364
-12.69
-9.962
-7.185
-4.366
-1.511
1.383
4.345
7.41
10.603
13.956
17.498
21.267
25.341
29.78
34.631
39.922
45.642
51.758
58.238
65.04
72.098
79.326
86.593
93.745
100.66
107.217
113.301
118.789
123.512
127.319
130.098
131.764
132.285
131.653
129.859
126.912
122.861
117.788
111.827
105.146
97.874
90.139
82.074
73.824
65.583
57.533
49.81
42.522
35.743
29.539
23.991
19.169
15.101
11.793
9.203
7.264
5.927
5.113
4.722
4.625
4.649
4.664
4.556
4.202
3.504
2.316
0.48
-2.109
-5.584
-10.106
-15.641
-22.041
-29.019
-35.98
-42.404
-47.877
-51.767
-53.604
-53.426
-51.54
-48.777
-46.443
-45.357
-46.121
-49.592
-55.959
-64.468
-73.686
-81.033
-83.425
-78.547
-64.079
-37.412
3.006
57.474
124.859
202.114
285.348
370.605
452.816
525.99
584.446
623.09
638.417
628.744
593.473
533.594
452.407
354.994
247.678
137.59
31.256
-65.188
-146.104
-208.051
-249.864
-272.11
-277.2
-268.81
-250.835
-227.97
-205.107
-185.372
-170.464
-161.053
-156.558
-155.843
-157.651
-159.995
-160.69
-158.637
-153.493
-145.45
-135.284
-123.727
-111.424
-99.292
-88.273
-78.878
-71.323
-65.591
-61.468
-58.855
-57.693
-57.814
-59.01
-61.068
-63.79
-66.997
-70.522
-74.169
-77.724
-81.022
-83.955
-86.464
-88.526
-90.122
-91.221
-91.771
-91.752
-91.163
-90.018
-88.358
-86.23
-83.706
-80.89
-77.904
-74.876
-71.902
-69.038
-66.311
-63.733
-61.314
-59.062
-56.992
-55.102
-53.386
-51.839
-50.452
-49.216
-48.112
-47.101
-46.128
-45.135
-44.076
-42.922
-41.654
-40.256
-38.717
-37.025
-35.176
-33.175
-31.021
-28.711
-26.24
-23.601
-20.795
-17.824
-14.699
-11.431
-8.031
-4.51
-0.876
2.857
6.679
10.577
14.543
18.568
22.639
26.742
30.862
34.98
39.078
43.139
47.143
51.071
54.904
58.624
62.214
65.658
68.94
72.045
74.957
77.664
80.153
82.411
84.427
86.191
87.694
88.928
89.887
90.567
90.964
91.076
90.903
90.445
89.704
88.684
87.389
85.825
83.998
81.917
79.593
77.036
74.259
71.275
68.099
64.745
61.229
57.566
53.773
49.865
45.859
41.772
37.62
33.42
29.19
24.945
20.703
16.48
12.291
8.152
4.078
0.083
-3.82
-7.617
-11.297
-14.847
-18.257
-21.517
-24.619
-27.554
-30.316
-32.9
-35.301
-37.518
-39.548
-41.391
-43.048
-44.519
-45.807
-46.915
-47.848
-48.61
-49.206
-49.645
-49.932
-50.077
-50.088
-49.975
-49.747
-49.414
-48.988
-48.479
-47.898
-47.256
-46.564
-45.834
-45.076
-44.303
-43.526
-42.754
-41.998
-41.267
-40.57
-39.913
-39.305
-38.75
-38.253
-37.818
-37.447
-37.143
-36.906
-36.736
-36.632
-36.592
-36.612
-36.688
-36.814
-36.985
-37.192
-37.427
-37.682
-37.947
-38.211
-38.462
-38.691
-38.883
-39.029
-39.113
-39.124
-39.048
-38.873
-38.585
-38.173
-37.626
-36.931
-36.081
-35.065
-33.877
-32.511
-30.961
-29.225
-27.299
-25.183
-22.878
-20.386
-17.712
-14.861
-11.841
-8.66
-5.331
-1.867
1.719
5.409
9.184
13.023
16.906
20.81
24.711
28.584
32.403
36.144
39.783
43.296
46.659
49.845
52.829
55.588
58.101
60.346
62.302
63.945
65.254
66.216
66.824
67.068
66.94
66.425
65.506
64.177
62.441
60.306
57.778
54.867
51.591
47.987
44.115
40.038
35.812
31.482
27.08
22.651
18.255
13.963
9.85
5.962
2.316
-1.06
-4.135
-6.895
-9.35
-11.563
-13.666
-15.788
-18.026
-20.461
-23.132
-26.073
-29.381
-33.17
-37.559
-42.636
-48.382
-54.718
-61.629
-69.137
-77.113
-85.257
-92.935
-99.252
-103.654
-105.944
-106.011
-103.736
-98.968
-91.639
-82.43
-72.916
-64.22
-56.646
-49.807
-42.786
-35.008
-26.039
-14.285
3.229
29.325
65.787
112.656
168.391
231.685
300.935
372.677
441.687
501.805
547.144
573.93
580.211
563.934
524.093
462.145
381.653
288.385
189.188
89.794
-4.728
-88.676
-157.245
-207.772
-239.495
-253.933
-254.104
-242.945
-223.72
-200.755
-178.191
-158.83
-144.222
-134.568
-129.172
-127.323
-128.069
-129.746
-130.587
-129.58
-126.416
-121.387
-115.141
-108.185
-100.947
-94.07
-88.261
-83.908
-81.109
-79.722
-79.419
-79.95
-81.142
-82.787
-84.648
-86.515
-88.194
-89.537
-90.487
-91.001
-91.036
-90.58
-89.617
-88.16
-86.26
-83.985
-81.4
-78.565
-75.535
-72.354
-69.08
-65.781
-62.524
-59.376
-56.384
-53.573
-50.963
-48.566
-46.386
-44.42
-42.648
-41.043
-39.58
-38.241
-37.01
-35.876
-34.819
-33.818
-32.854
-31.907
-30.96
-30
-29.011
-27.98
-26.898
-25.755
-24.546
-23.268
-21.915
-20.48
-18.956
-17.338
-15.619
-13.795
-11.862
-9.814
-7.65
-5.37
-2.975
-0.468
2.149
4.869
7.688
10.597
13.588
16.651
19.775
22.949
26.158
29.39
32.629
35.859
39.067
42.234
45.347
48.388
51.342
54.193
56.928
59.531
61.988
64.285
66.41
68.349
70.09
71.622
72.933
74.014
74.855
75.448
75.788
75.868
75.684
75.234
74.516
73.53
72.28
70.767
68.997
66.976
64.713
62.216
59.498
56.569
53.443
50.134
46.656
43.025
39.256
35.365
31.369
27.284
23.127
18.915
14.665
10.394
6.12
1.86
-2.37
-6.552
-10.671
-14.709
-18.653
-22.486
-26.195
-29.768
-33.191
-36.455
-39.55
-42.468
-45.203
-47.75
-50.106
-52.269
-54.238
-56.015
-57.602
-59.003
-60.223
-61.266
-62.139
-62.851
-63.407
-63.819
-64.093
-64.241
-64.272
-64.198
-64.028
-63.774
-63.448
-63.06
-62.623
-62.148
-61.647
-61.131
-60.611
-60.096
-59.598
-59.123
-58.681
-58.277
-57.917
-57.604
-57.342
-57.131
-56.971
-56.861
-56.798
-56.779
-56.798
-56.851
-56.929
-57.026
-57.132
-57.238
-57.335
-57.413
-57.459
-57.462
-57.412
-57.295
-57.101
-56.817
-56.431
-55.932
-55.307
-54.544
-53.635
-52.568
-51.334
-49.926
-48.335
-46.557
-44.589
-42.428
-40.074
-37.526
-34.789
-31.866
-28.764
-25.491
-22.056
-18.471
-14.749
-10.905
-6.956
-2.919
1.186
5.338
9.514
13.69
17.842
21.944
25.97
29.893
33.686
37.324
40.782
44.037
47.064
49.841
52.344
54.551
56.445
58.005
59.214
60.054
60.509
60.57
60.236
59.504
58.373
56.84
54.894
52.537
49.78
46.632
43.108
39.225
35.006
30.495
25.759
20.859
15.855
10.796
5.715
0.659
-4.314
-9.144
-13.762
-18.121
-22.202
-25.968
-29.382
-32.434
-35.129
-37.533
-39.781
-41.98
-44.216
-46.555
-49.012
-51.646
-54.544
-57.793
-61.494
-65.708
-70.409
-75.624
-81.433
-87.74
-94.32
-100.711
-106.153
-109.975
-111.701
-110.945
-107.437
-101.261
-92.74
-82.577
-72.04
-62.392
-54.675
-49.437
-46.553
-45.088
-43.636
-40.378
-32.645
-17.504
7.96
45.899
96.836
159.707
232.526
312.357
394.607
473.618
542.768
595.49
627.128
634.683
616.022
570.658
500.637
410.101
305.502
194.62
84.318
-19.054
-108.984
-180.319
-230.315
-258.448
-266.701
-258.816
-238.576
-210.166
-178.743
-148.974
-123.933
-105.237
-92.975
-86.194
-83.884
-84.769
-86.828
-88.103
-87.531
-84.782
-80.172
-74.394
-67.989
-61.428
-55.423
-50.669
-47.504
-45.976
-45.865
-46.784
-48.451
-50.651
-53.14
-55.674
-58.022
-59.986
-61.474
-62.467
-62.953
-62.925
-62.375
-61.296
-59.73
-57.748
-55.419
-52.815
-49.994
-47.007
-43.916
-40.788
-37.696
-34.711
-31.88
-29.227
-26.772
-24.522
-22.486
-20.665
-19.044
-17.597
-16.304
-15.147
-14.111
-13.187
-12.356
-11.597
-10.892
-10.22
-9.565
-8.916
-8.257
-7.577
-6.864
-6.111
-5.311
-4.462
-3.556
-2.588
-1.55
-0.435
0.76
2.041
3.412
4.875
6.432
8.082
9.826
11.66
13.581
15.586
17.673
19.834
22.066
24.36
26.711
29.111
31.549
34.015
36.499
38.99
41.475
43.942
46.379
48.774
51.113
53.385
55.578
57.679
59.678
61.564
63.325
64.953
66.439
67.775
68.955
69.971
70.82
71.496
71.998
72.321
72.464
72.426
72.206
71.804
71.221
70.459
69.521
68.409
67.129
65.686
64.087
62.337
60.445
58.42
56.269
54.004
51.633
49.167
46.619
43.997
41.315
38.584
35.815
33.02
30.208
27.39
24.577
21.777
19
16.255
13.548
10.89
8.288
5.749
3.279
0.887
-1.424
-3.647
-5.779
-7.815
-9.754
-11.593
-13.331
-14.965
-16.497
-17.926
-19.253
-20.48
-21.609
-22.644
-23.59
-24.451
-25.233
-25.942
-26.586
-27.17
-27.7
-28.184
-28.628
-29.039
-29.421
-29.782
-30.128
-30.465
-30.798
-31.134
-31.477
-31.832
-32.201
-32.588
-32.993
-33.416
-33.856
-34.314
-34.787
-35.276
-35.779
-36.296
-36.826
-37.369
-37.924
-38.488
-39.057
-39.623
-40.176
-40.707
-41.205
-41.658
-42.052
-42.373
-42.609
-42.754
-42.796
-42.728
-42.533
-42.192
-41.692
-41.027
-40.195
-39.196
-38.036
-36.719
-35.264
-33.705
-32.07
-30.389
-28.675
-26.92
-25.122
-23.279
-21.39
-19.463
-17.483
-15.413
-13.229
-10.913
-8.444
-5.807
-2.957
0.182
3.669
7.542
11.81
16.434
21.381
26.621
32.098
37.75
43.474
49.126
54.591
59.784
64.613
68.993
72.805
75.881
78.094
79.361
79.624
78.874
77.1
74.277
70.433
65.638
60.001
53.678
46.801
39.464
31.781
23.88
15.91
8.059
0.473
-6.753
-13.522
-19.749
-25.346
-30.209
-34.297
-37.63
-40.246
-42.223
-43.662
-44.641
-45.281
-45.74
-46.133
-46.606
-47.316
-48.368
-49.928
-52.172
-55.217
-59.254
-64.453
-70.751
-77.976
-85.787
-93.598
-100.964
-107.541
-112.746
-116.115
-117.622
-117.544
-116.686
-116.072
-116.134
-117.015
-119.064
-122.46
-126.748
-130.623
-131.75
-127.761
-117.124
-98.545
-70.515
-31.464
19.49
81.48
151.972
228.262
307.697
386.819
461.207
525.33
573.648
602.588
610.199
594.623
554.985
492.439
410.193
314.006
210.78
106.373
6.196
-83.732
-157.993
-212.95
-247.296
-262.606
-261.821
-247.737
-223.547
-193.306
-161.798
-133.383
-110.529
-93.74
-82.79
-77.333
-76.965
-81.069
-87.613
-94.045
-99.129
-102.555
-104.396
-104.969
-104.13
-101.414
-97.476
-93.608
-90.476
-88.407
-87.344
-86.894
-87.072
-88.187
-90.067
-92.185
-94.105
-95.463
-96.157
-96.326
-95.987
-95.045
-93.478
-91.339
-88.738
-85.812
-82.639
-79.227
-75.586
-71.749
-67.771
-63.735
-59.717
-55.761
-51.893
-48.128
-44.478
-40.952
-37.562
-34.302
-31.151
-28.09
-25.106
-22.192
-19.346
-16.562
-13.825
-11.113
-8.409
-5.698
-2.969
-0.215
2.573
5.405
8.287
11.221
14.208
17.249
20.348
23.51
26.737
30.032
33.395
36.826
40.324
43.886
47.51
51.188
54.917
58.688
62.496
66.331
70.188
74.055
77.924
81.784
85.625
89.435
93.202
96.912
100.554
104.113
107.578
110.934
114.17
117.273
120.231
123.034
125.67
128.131
130.406
132.488
134.369
136.043
137.505
138.75
139.774
140.575
141.152
141.505
141.635
141.542
141.228
140.697
139.952
138.996
137.835
136.475
134.922
133.182
131.265
129.178
126.931
124.533
121.995
119.326
116.538
113.641
110.646
107.563
104.405
101.18
97.901
94.578
91.22
87.839
84.442
81.04
77.642
74.254
70.885
67.542
64.233
60.963
57.739
54.568
51.454
48.402
45.417
42.503
39.662
36.896
34.208
31.598
29.066
26.613
24.236
21.935
19.707
17.55
15.461
13.436
11.471
9.562
7.702
5.889
4.115
2.377
0.668
-1.015
-2.678
-4.325
-5.961
-7.589
-9.213
-10.837
-12.465
-14.098
-15.74
-17.391
-19.052
-20.724
-22.406
-24.095
-25.789
-27.485
-29.179
-30.866
-32.54
-34.196
-35.825
-37.42
-38.972
-40.471
-41.907
-43.267
-44.541
-45.715
-46.778
-47.717
-48.521
-49.176
-49.672
-49.996
-50.138
-50.089
-49.837
-49.375
-48.694
-47.787
-46.648
-45.276
-43.666
-41.819
-39.735
-37.417
-34.868
-32.096
-29.108
-25.911
-22.518
-18.941
-15.194
-11.295
-7.261
-3.113
1.126
5.431
9.775
14.13
18.468
22.759
26.973
31.08
35.052
38.861
42.481
45.885
49.046
51.936
54.533
56.813
58.752
60.33
61.525
62.318
62.7
62.666
62.213
61.335
60.023
58.263
56.054
53.402
50.316
46.804
42.885
38.584
33.95
29.057
23.976
18.769
13.49
8.177
2.88
-2.331
-7.389
-12.218
-16.767
-21.013
-24.918
-28.439
-31.566
-34.31
-36.752
-39.047
-41.318
-43.661
-46.154
-48.816
-51.709
-54.954
-58.653
-62.925
-67.843
-73.337
-79.401
-86.109
-93.338
-100.858
-108.223
-114.566
-119.141
-121.638
-121.753
-119.314
-114.513
-107.369
-98.263
-88.493
-79.253
-71.158
-64.498
-58.696
-52.432
-44.993
-35.287
-20.863
0.769
31.87
74.134
127.202
189.27
259.071
334.372
410.849
483.504
546.297
593.006
619.898
624.686
604.764
559.519
491.069
403.042
301.629
194.58
88.169
-11.525
-97.722
-165.941
-214.075
-241.534
-250.5
-244.943
-228.455
-205.476
-181.428
-159.947
-143.226
-132.578
-127.561
-126.949
-129.701
-134.024
-137.566
-139.07
-138.017
-134.341
-128.784
-122.092
-114.788
-107.68
-101.669
-97.215
-94.507
-93.5
-93.853
-95.299
-97.653
-100.655
-104.055
-107.637
-111.191
-114.554
-117.611
-120.264
-122.435
-124.075
-125.154
-125.669
-125.647
-125.14
-124.214
-122.93
-121.346
-119.517
-117.491
-115.328
-113.099
-110.87
-108.709
-106.663
-104.76
-103.022
-101.461
-100.076
-98.858
-97.786
-96.829
-95.965
-95.178
-94.452
-93.776
-93.131
-92.5
-91.864
-91.207
-90.513
-89.77
-88.965
-88.087
-87.128
-86.082
-84.945
-83.715
-82.388
-80.96
-79.427
-77.783
-76.027
-74.156
-72.17
-70.066
-67.847
-65.517
-63.078
-60.538
-57.902
-55.178
-52.375
-49.501
-46.567
-43.581
-40.556
-37.501
-34.429
-31.351
-28.28
-25.227
-22.205
-19.227
-16.306
-13.454
-10.684
-8.008
-5.437
-2.983
-0.657
1.533
3.576
5.464
7.189
8.746
10.127
11.328
12.345
13.175
13.817
14.27
14.535
14.613
14.507
14.22
13.755
13.117
12.311
11.343
10.22
8.947
7.533
5.984
4.311
2.522
0.626
-1.367
-3.445
-5.599
-7.818
-10.091
-12.407
-14.756
-17.126
-19.509
-21.892
-24.267
-26.624
-28.954
-31.248
-33.498
-35.696
-37.835
-39.908
-41.911
-43.836
-45.68
-47.438
-49.106
-50.681
-52.16
-53.541
-54.822
-56.002
-57.079
-58.055
-58.93
-59.707
-60.387
-60.973
-61.471
-61.883
-62.215
-62.472
-62.659
-62.781
-62.844
-62.854
-62.818
-62.74
-62.626
-62.484
-62.316
-62.129
-61.928
-61.715
-61.495
-61.27
-61.043
-60.816
-60.589
-60.365
-60.143
-59.923
-59.705
-59.487
-59.266
-59.039
-58.802
-58.55
-58.276
-57.973
-57.633
-57.249
-56.811
-56.309
-55.735
-55.078
-54.329
-53.477
-52.512
-51.423
-50.201
-48.835
-47.318
-45.641
-43.797
-41.778
-39.581
-37.202
-34.637
-31.885
-28.945
-25.818
-22.506
-19.013
-15.343
-11.503
-7.503
-3.352
0.936
5.347
9.864
14.469
19.14
23.857
28.595
33.331
38.038
42.691
47.262
51.725
56.052
60.218
64.194
67.954
71.471
74.72
77.674
80.31
82.605
84.535
86.082
87.23
87.971
88.298
88.205
87.683
86.723
85.319
83.475
81.199
78.499
75.389
71.888
68.031
63.873
59.466
54.855
50.083
45.174
40.158
35.077
29.978
24.919
19.953
15.117
10.444
5.98
1.756
-2.206
-5.928
-9.502
-13.002
-16.484
-19.97
-23.424
-26.855
-30.31
-33.841
-37.53
-41.448
-45.598
-50.046
-54.941
-60.245
-65.786
-71.185
-75.713
-78.791
-80.053
-79.025
-75.396
-69.315
-61.214
-52.063
-43.402
-36.312
-31.581
-30.173
-32.305
-37.188
-43.32
-48.161
-48.606
-42.089
-26.115
2.143
44.429
100.774
169.716
248.187
332.13
417.064
497.73
567.804
621.099
653.134
661.024
643.187
599.905
533.347
447.279
347.633
241.847
136.563
38.076
-47.227
-115.138
-163.677
-192.294
-202.843
-199.007
-184.312
-163.101
-140.714
-120.751
-105.315
-95.715
-91.601
-91.788
-95.303
-100.383
-104.593
-106.576
-105.733
-101.913
-95.822
-88.241
-79.709
-71.067
-63.295
-56.914
-52.184
-49.139
-47.482
-46.981
-47.481
-48.732
-50.493
-52.586
-54.832
-57.081
-59.226
-61.128
-62.665
-63.769
-64.385
-64.49
-64.089
-63.205
-61.882
-60.183
-58.168
-55.888
-53.392
-50.721
-47.934
-45.092
-42.262
-39.508
-36.872
-34.383
-32.062
-29.915
-27.94
-26.125
-24.445
-22.872
-21.383
-19.96
-18.589
-17.256
-15.943
-14.631
-13.304
-11.945
-10.537
-9.07
-7.531
-5.909
-4.201
-2.4
-0.505
1.483
3.566
5.745
8.021
10.394
12.866
15.434
18.097
20.852
23.695
26.619
29.617
32.681
35.801
38.967
42.168
45.393
48.63
51.867
55.092
58.291
61.451
64.56
67.603
70.567
73.439
76.206
78.853
81.369
83.742
85.96
88.013
89.891
91.585
93.088
94.392
95.492
96.383
97.06
97.521
97.763
97.787
97.593
97.182
96.558
95.724
94.686
93.448
92.017
90.401
88.606
86.642
84.516
82.239
79.82
77.27
74.6
71.822
68.946
65.987
62.956
59.865
56.728
53.556
50.363
47.161
43.961
40.776
37.616
34.492
31.415
28.395
25.439
22.558
19.759
17.048
14.431
11.916
9.505
7.203
5.014
2.939
0.981
-0.859
-2.582
-4.187
-5.676
-7.048
-8.307
-9.453
-10.492
-11.426
-12.26
-13
-13.652
-14.223
-14.719
-15.149
-15.52
-15.84
-16.116
-16.356
-16.569
-16.761
-16.942
-17.117
-17.295
-17.481
-17.682
-17.904
-18.151
-18.425
-18.729
-19.064
-19.43
-19.826
-20.251
-20.702
-21.177
-21.673
-22.19
-22.725
-23.275
-23.836
-24.405
-24.977
-25.543
-26.094
-26.616
-27.097
-27.523
-27.882
-28.163
-28.355
-28.444
-28.421
-28.278
-28.008
-27.598
-27.035
-26.299
-25.372
-24.251
-22.94
-21.445
-19.786
-17.976
-16.034
-13.987
-11.854
-9.643
-7.353
-4.962
-2.449
0.192
2.955
5.818
8.756
11.768
14.855
18.018
21.279
24.652
28.157
31.841
35.728
39.802
44.027
48.317
52.568
56.707
60.675
64.43
67.941
71.151
74.003
76.452
78.433
79.886
80.745
80.901
80.271
78.828
76.57
73.563
69.916
65.699
60.972
55.802
50.24
44.372
38.304
32.107
25.858
19.636
13.521
7.642
2.131
-2.933
-7.482
-11.512
-15.075
-18.177
-20.82
-23.046
-24.909
-26.527
-28.059
-29.612
-31.246
-33.009
-34.949
-37.183
-39.86
-43.107
-47.04
-51.68
-57.016
-63.131
-69.968
-77.287
-84.7
-91.525
-97.035
-100.756
-102.329
-101.434
-98.259
-93.236
-86.884
-80.266
-74.383
-69.933
-67.487
-67.082
-67.579
-67.293
-64.671
-57.563
-43.809
-21.381
11.902
57.205
113.582
178.822
250.718
326.08
400.825
470.178
528.146
569.224
590.199
589.281
564.807
516.512
446.096
357.088
255.497
148.243
41.126
-60.503
-150.825
-224.935
-279.938
-314.951
-331.532
-332.731
-321.561
-301.374
-276.522
-251.266
-228.521
-209.9
-195.704
-185.315
-178.114
-173.304
-169.352
-164.577
-158.089
-149.68
-139.685
-128.802
-117.578
-106.477
-96.246
-87.725
-81.426
-77.52
-75.878
-76.143
-77.997
-81.174
-85.324
-90.029
-94.9
-99.609
-103.952
-107.854
-111.254
-114.075
-116.238
-117.652
-118.252
-118.043
-117.047
-115.296
-112.861
-109.826
-106.316
-102.508
-98.573
-94.65
-90.839
-87.191
-83.735
-80.501
-77.511
-74.78
-72.32
-70.125
-68.189
-66.513
-65.083
-63.873
-62.839
-61.914
-61.034
-60.151
-59.229
-58.244
-57.179
-56.019
-54.755
-53.389
-51.919
-50.342
-48.652
-46.835
-44.883
-42.794
-40.567
-38.205
-35.715
-33.1
-30.365
-27.516
-24.558
-21.498
-18.339
-15.085
-11.739
-8.312
-4.811
-1.25
2.358
6.001
9.663
13.327
16.978
20.6
24.177
27.694
31.136
34.488
37.734
40.861
43.855
46.701
49.386
51.896
54.22
56.346
58.263
59.962
61.433
62.67
63.665
64.413
64.912
65.158
65.15
64.888
64.372
63.605
62.591
61.335
59.844
58.124
56.184
54.035
51.687
49.15
46.438
43.561
40.532
37.365
34.074
30.671
27.172
23.591
19.943
16.242
12.505
8.745
4.977
1.216
-2.523
-6.226
-9.881
-13.472
-16.989
-20.418
-23.748
-26.97
-30.072
-33.047
-35.887
-38.585
-41.136
-43.534
-45.777
-47.861
-49.784
-51.545
-53.144
-54.581
-55.857
-56.975
-57.936
-58.745
-59.405
-59.922
-60.3
-60.545
-60.665
-60.665
-60.554
-60.338
-60.026
-59.626
-59.147
-58.596
-57.984
-57.317
-56.604
-55.853
-55.071
-54.264
-53.438
-52.599
-51.75
-50.895
-50.039
-49.181
-48.325
-47.471
-46.619
-45.769
-44.919
-44.067
-43.211
-42.348
-41.474
-40.584
-39.674
-38.738
-37.769
-36.761
-35.708
-34.603
-33.436
-32.201
-30.89
-29.493
-28.005
-26.417
-24.722
-22.912
-20.982
-18.927
-16.743
-14.427
-11.976
-9.39
-6.67
-3.818
-0.837
2.267
5.49
8.823
12.259
15.786
19.395
23.074
26.809
30.585
34.385
38.189
41.978
45.732
49.429
53.047
56.563
59.956
63.206
66.295
69.204
71.91
74.393
76.632
78.607
80.302
81.7
82.787
83.549
83.98
84.079
83.848
83.284
82.38
81.123
79.503
77.523
75.184
72.496
69.474
66.14
62.527
58.688
54.673
50.528
46.295
42
37.683
33.399
29.211
25.196
21.412
17.895
14.691
11.832
9.307
7.095
5.133
3.317
1.587
-0.122
-1.909
-3.849
-6.053
-8.665
-11.773
-15.532
-20.141
-25.61
-31.825
-38.534
-45.209
-51.379
-56.736
-60.738
-62.758
-62.675
-60.708
-57.588
-54.644
-52.755
-52.206
-53.562
-57.523
-63.912
-71.766
-79.012
-82.439
-79.548
-68.714
-47.871
-14.719
32.038
92.507
164.91
245.584
330.943
417.329
499.708
572.152
628.805
664.431
675.661
660.89
619.307
551.865
462.04
355.203
238.268
118.983
4.473
-98.399
-183.381
-246.687
-287.047
-305.173
-303.854
-287.244
-259.862
-227.201
-194.82
-166.293
-143.574
-127.406
-117.242
-111.97
-110.259
-109.91
-108.517
-104.858
-98.551
-89.845
-79.531
-68.302
-56.747
-45.761
-36.326
-29.001
-24.04
-21.386
-20.701
-21.714
-24.209
-27.909
-32.494
-37.65
-43.054
-48.414
-53.558
-58.362
-62.727
-66.581
-69.835
-72.406
-74.233
-75.304
-75.636
-75.256
-74.202
-72.504
-70.231
-67.495
-64.444
-61.248
-58.025
-54.846
-51.756
-48.787
-45.976
-43.359
-40.955
-38.754
-36.745
-34.921
-33.276
-31.814
-30.513
-29.333
-28.218
-27.104
-25.946
-24.716
-23.394
-21.962
-20.408
-18.72
-16.896
-14.946
-12.873
-10.678
-8.355
-5.898
-3.308
-0.591
2.245
5.189
8.232
11.365
14.58
17.867
21.216
24.619
28.069
31.56
35.084
38.629
42.184
45.733
49.263
52.76
56.208
59.59
62.893
66.101
69.2
72.178
75.021
77.717
80.255
82.623
84.81
86.806
88.602
90.189
91.559
92.705
93.621
94.301
94.741
94.94
94.896
94.608
94.077
93.307
92.299
91.058
89.59
87.901
86
83.894
81.594
79.11
76.453
73.635
70.669
67.566
64.339
61.002
57.567
54.048
50.457
46.808
43.114
39.389
35.647
31.9
28.163
24.448
20.768
17.137
13.565
10.065
6.646
3.319
0.091
-3.029
-6.035
-8.921
-11.683
-14.318
-16.823
-19.196
-21.438
-23.548
-25.528
-27.38
-29.105
-30.708
-32.191
-33.56
-34.819
-35.973
-37.028
-37.99
-38.866
-39.662
-40.386
-41.046
-41.651
-42.207
-42.725
-43.211
-43.676
-44.125
-44.568
-45.01
-45.458
-45.916
-46.39
-46.881
-47.392
-47.924
-48.476
-49.049
-49.639
-50.243
-50.858
-51.479
-52.1
-52.715
-53.318
-53.9
-54.455
-54.974
-55.447
-55.865
-56.22
-56.5
-56.694
-56.792
-56.782
-56.654
-56.397
-55.999
-55.449
-54.738
-53.856
-52.794
-51.545
-50.102
-48.459
-46.612
-44.561
-42.303
-39.842
-37.178
-34.317
-31.265
-28.031
-24.623
-21.053
-17.333
-13.476
-9.499
-5.419
-1.252
2.98
7.259
11.562
15.865
20.142
24.369
28.518
32.563
36.479
40.236
43.811
47.179
50.317
53.204
55.817
58.134
60.136
61.801
63.113
64.058
64.623
64.798
64.581
63.976
62.984
61.612
59.858
57.718
55.194
52.293
49.025
45.406
41.457
37.211
32.717
28.033
23.215
18.314
13.372
8.419
3.499
-1.339
-6.036
-10.525
-14.753
-18.679
-22.253
-25.432
-28.208
-30.613
-32.713
-34.611
-36.378
-38.043
-39.656
-41.272
-42.972
-44.87
-47.069
-49.633
-52.656
-56.282
-60.504
-65.207
-70.081
-74.524
-78.008
-80.121
-80.35
-78.325
-74.145
-68.171
-61.235
-54.699
-49.448
-46.124
-45.595
-48.016
-52.593
-57.931
-61.611
-60.701
-53.091
-36.622
-8.752
31.774
84.966
149.52
222.295
299.752
378.551
454.04
520.588
573.248
607.648
621.022
612.457
581.018
526.651
451.965
361.439
260.557
155.644
52.227
-44.765
-129.465
-196.961
-244.99
-273.298
-283.516
-278.729
-262.027
-236.922
-208.275
-180.63
-156.849
-138.429
-125.504
-117.295
-113.032
-111.641
-111.242
-109.978
-106.863
-101.648
-94.687
-86.646
-78.035
-69.313
-61.181
-54.363
-49.254
-45.964
-44.36
-44.172
-45.194
-47.27
-50.161
-53.568
-57.195
-60.749
-64.047
-67.01
-69.567
-71.67
-73.279
-74.362
-74.922
-74.988
-74.568
-73.644
-72.21
-70.265
-67.852
-65.055
-61.985
-58.782
-55.552
-52.372
-49.299
-46.363
-43.585
-40.975
-38.523
-36.203
-34.009
-31.953
-30.045
-28.298
-26.705
-25.239
-23.864
-22.53
-21.197
-19.826
-18.386
-16.857
-15.225
-13.485
-11.639
-9.698
-7.664
-5.536
-3.309
-0.976
1.464
4.01
6.659
9.404
12.236
15.146
18.122
21.153
24.232
27.35
30.501
33.679
36.877
40.088
43.302
46.508
49.694
52.846
55.95
58.992
61.958
64.833
67.605
70.259
72.784
75.168
77.4
79.469
81.365
83.077
84.598
85.918
87.03
87.926
88.602
89.05
89.268
89.253
89.002
88.514
87.788
86.826
85.628
84.196
82.534
80.644
78.532
76.204
73.667
70.928
67.997
64.885
61.602
58.161
54.574
50.853
47.012
43.065
39.026
34.91
30.732
26.507
22.25
17.977
13.702
9.441
5.209
1.02
-3.112
-7.174
-11.154
-15.038
-18.816
-22.477
-26.011
-29.409
-32.663
-35.766
-38.711
-41.493
-44.11
-46.557
-48.835
-50.941
-52.877
-54.645
-56.248
-57.69
-58.977
-60.115
-61.111
-61.974
-62.713
-63.337
-63.857
-64.284
-64.628
-64.901
-65.113
-65.276
-65.401
-65.497
-65.573
-65.641
-65.707
-65.78
-65.866
-65.971
-66.099
-66.255
-66.441
-66.658
-66.907
-67.187
-67.497
-67.833
-68.192
-68.568
-68.955
-69.344
-69.729
-70.097
-70.439
-70.743
-70.995
-71.184
-71.294
-71.312
-71.225
-71.019
-70.68
-70.195
-69.55
-68.736
-67.741
-66.554
-65.167
-63.574
-61.768
-59.747
-57.507
-55.048
-52.371
-49.479
-46.377
-43.07
-39.567
-35.877
-32.013
-27.987
-23.815
-19.514
-15.105
-10.606
-6.043
-1.439
3.178
7.78
12.339
16.824
21.207
25.457
29.546
33.447
37.134
40.582
43.766
46.661
49.245
51.496
53.393
54.917
56.052
56.782
57.1
57.004
56.493
55.566
54.218
52.439
50.231
47.601
44.555
41.105
37.271
33.082
28.589
23.859
18.955
13.938
8.858
3.75
-1.332
-6.327
-11.174
-15.797
-20.147
-24.194
-27.888
-31.19
-34.085
-36.588
-38.788
-40.814
-42.765
-44.713
-46.698
-48.754
-50.963
-53.438
-56.289
-59.628
-63.477
-67.856
-72.868
-78.485
-84.527
-90.627
-96.112
-100.271
-102.616
-102.785
-100.499
-95.883
-89.278
-81.311
-73.118
-65.814
-60.307
-57.041
-55.8
-55.527
-54.576
-51.035
-42.542
-26.522
-0.41
37.523
87.826
149.479
220.035
296.717
375.937
452.797
521.794
577.738
615.99
633.753
629.822
603.049
553.921
485.396
401.728
308.275
211.304
116.004
27.195
-49.489
-110.322
-153.936
-180.188
-190.755
-188.696
-176.76
-158.47
-138.594
-120.385
-105.673
-95.617
-89.975
-87.899
-88.771
-91.208
-93.098
-93.29
-91.332
-87.15
-81.417
-74.776
-67.616
-60.636
-54.685
-50.215
-47.421
-46.277
-46.45
-47.682
-49.804
-52.566
-55.719
-59.045
-62.331
-65.411
-68.172
-70.517
-72.366
-73.666
-74.384
-74.512
-74.074
-73.118
-71.709
-69.908
-67.775
-65.366
-62.727
-59.921
-57.014
-54.074
-51.164
-48.33
-45.601
-42.998
-40.536
-38.216
-36.035
-33.973
-32.008
-30.12
-28.299
-26.533
-24.816
-23.133
-21.473
-19.82
-18.165
-16.496
-14.806
-13.087
-11.333
-9.539
-7.704
-5.827
-3.912
-1.956
0.041
2.082
4.166
6.297
8.472
10.692
12.955
15.26
17.602
19.976
22.378
24.801
27.24
29.69
32.144
34.596
37.039
39.467
41.871
44.246
46.581
48.87
51.102
53.27
55.363
57.373
59.29
61.105
62.81
64.396
65.855
67.178
68.358
69.388
70.261
70.972
71.516
71.888
72.086
72.108
71.953
71.621
71.113
70.429
69.571
68.54
67.34
65.973
64.441
62.75
60.903
58.905
56.764
54.486
52.077
49.548
46.905
44.16
41.32
38.398
35.404
32.349
29.245
26.105
22.942
19.766
16.592
13.43
10.292
7.189
4.13
1.124
-1.82
-4.693
-7.489
-10.201
-12.821
-15.342
-17.76
-20.068
-22.261
-24.336
-26.288
-28.116
-29.818
-31.393
-32.841
-34.162
-35.358
-36.432
-37.386
-38.226
-38.956
-39.584
-40.116
-40.562
-40.93
-41.23
-41.472
-41.664
-41.817
-41.938
-42.038
-42.122
-42.199
-42.276
-42.359
-42.455
-42.569
-42.708
-42.876
-43.076
-43.313
-43.589
-43.905
-44.262
-44.661
-45.1
-45.579
-46.095
-46.645
-47.225
-47.83
-48.454
-49.09
-49.728
-50.359
-50.972
-51.555
-52.096
-52.583
-53.003
-53.342
-53.59
-53.732
-53.76
-53.66
-53.423
-53.038
-52.496
-51.788
-50.907
-49.846
-48.599
-47.162
-45.532
-43.708
-41.69
-39.479
-37.076
-34.485
-31.712
-28.761
-25.643
-22.365
-18.939
-15.378
-11.696
-7.912
-4.042
-0.108
3.871
7.873
11.871
15.841
19.757
23.592
27.321
30.917
34.353
37.606
40.651
43.469
46.039
48.341
50.354
52.061
53.444
54.487
55.179
55.506
55.459
55.033
54.231
53.056
51.508
49.588
47.285
44.6
41.539
38.111
34.329
30.214
25.798
21.126
16.259
11.256
6.172
1.053
-4.066
-9.138
-14.106
-18.906
-23.463
-27.722
-31.644
-35.184
-38.304
-41.001
-43.314
-45.314
-47.125
-48.838
-50.497
-52.177
-53.951
-55.91
-58.192
-60.929
-64.206
-68.135
-72.853
-78.344
-84.497
-91.01
-97.285
-102.784
-107.022
-109.399
-109.488
-107.284
-103.064
-97.569
-91.99
-87.148
-83.733
-82.708
-84.4
-88.178
-92.679
-95.59
-94.111
-85.91
-68.61
-39.32
3.868
61.138
131.135
210.931
296.707
384.192
468.092
541.737
598.675
634.333
645.81
631.586
591.45
526.696
440.76
339.729
230.977
120.928
15.458
-79.673
-159.53
-220.325
-260.415
-281.069
-285.29
-276.043
-256.727
-231.398
-204.108
-178.811
-158.09
-142.547
-131.819
-125.347
-122.237
-121.307
-121.133
-120.039
-117.123
-112.435
-106.353
-99.454
-92.287
-85.269
-78.955
-74.005
-70.72
-69.078
-68.885
-69.77
-71.429
-73.66
-76.203
-78.785
-81.178
-83.185
-84.706
-85.725
-86.227
-86.204
-85.658
-84.594
-83.055
-81.111
-78.831
-76.286
-73.544
-70.659
-67.7
-64.74
-61.851
-59.102
-56.537
-54.176
-52.034
-50.112
-48.409
-46.919
-45.622
-44.486
-43.488
-42.605
-41.818
-41.114
-40.469
-39.861
-39.268
-38.667
-38.04
-37.372
-36.648
-35.854
-34.979
-34.012
-32.947
-31.779
-30.5
-29.104
-27.583
-25.932
-24.143
-22.216
-20.146
-17.932
-15.575
-13.077
-10.443
-7.679
-4.793
-1.791
1.317
4.52
7.808
11.17
14.593
18.066
21.573
25.102
28.637
32.163
35.665
39.127
42.532
45.866
49.11
52.252
55.275
58.165
60.908
63.492
65.902
68.128
70.16
71.986
73.599
74.99
76.154
77.085
77.782
78.242
78.464
78.449
78.2
77.718
77.009
76.076
74.926
73.564
71.999
70.238
68.291
66.167
63.878
61.435
58.85
56.134
53.302
50.366
47.338
44.234
41.064
37.845
34.588
31.307
28.017
24.729
21.457
18.213
15.009
11.856
8.764
5.743
2.802
-0.051
-2.809
-5.465
-8.013
-10.449
-12.767
-14.965
-17.04
-18.989
-20.812
-22.509
-24.081
-25.529
-26.856
-28.064
-29.157
-30.139
-31.015
-31.789
-32.468
-33.057
-33.563
-33.993
-34.355
-34.655
-34.903
-35.104
-35.268
-35.402
-35.512
-35.606
-35.691
-35.771
-35.853
-35.942
-36.043
-36.158
-36.292
-36.447
-36.624
-36.823
-37.045
-37.288
-37.549
-37.827
-38.117
-38.415
-38.716
-39.015
-39.306
-39.582
-39.835
-40.058
-40.242
-40.378
-40.455
-40.465
-40.397
-40.241
-39.987
-39.626
-39.148
-38.543
-37.804
-36.923
-35.891
-34.702
-33.35
-31.83
-30.139
-28.276
-26.239
-24.029
-21.648
-19.101
-16.393
-13.531
-10.524
-7.38
-4.112
-0.731
2.747
6.309
9.937
13.615
17.321
21.034
24.73
28.384
31.973
35.472
38.854
42.096
45.173
48.066
50.755
53.22
55.439
57.39
59.054
60.412
61.45
62.151
62.504
62.499
62.135
61.413
60.337
58.906
57.115
54.955
52.419
49.512
46.24
42.617
38.667
34.421
29.923
25.23
20.397
15.472
10.496
5.507
0.547
-4.323
-9.037
-13.525
-17.726
-21.588
-25.067
-28.14
-30.829
-33.175
-35.254
-37.158
-38.938
-40.66
-42.416
-44.286
-46.394
-48.872
-51.806
-55.335
-59.647
-64.739
-70.49
-76.599
-82.464
-87.597
-91.641
-94.04
-94.371
-92.696
-89.333
-85.125
-81.411
-78.921
-78.107
-79.696
-83.784
-89.649
-95.987
-100.355
-99.877
-92.616
-76.571
-49.367
-9.661
43.01
107.79
181.881
262.123
345.45
427.281
501.954
564.037
608.143
630.472
629.075
601.942
548.3
470.372
372.511
260.57
141.709
22.449
-90.974
-191.108
-271.705
-329.264
-362.409
-372.03
-360.679
-331.327
-288.113
-237.238
-184.819
-135.752
-93.893
-61.441
-39.624
-29.089
-29.152
-37.435
-50.989
-66.945
-82.577
-96.101
-106.17
-111.78
-112.788
-109.836
-104.036
-96.775
-89.514
-83.153
-78.279
-75.266
-74.06
-74.436
-76.004
-78.148
-80.226
-81.862
-82.877
-83.212
-82.954
-82.153
-80.852
-79.172
-77.238
-75.14
-72.922
-70.597
-68.161
-65.645
-63.111
-60.624
-58.238
-55.976
-53.847
-51.85
-49.983
-48.246
-46.628
-45.107
-43.667
-42.297
-40.991
-39.746
-38.551
-37.387
-36.233
-35.067
-33.865
-32.614
-31.298
-29.907
-28.432
-26.867
-25.206
-23.448
-21.589
-19.622
-17.543
-15.347
-13.029
-10.588
-8.023
-5.334
-2.524
0.405
3.447
6.596
9.847
13.192
16.624
20.133
23.708
27.34
31.017
34.725
38.452
42.183
45.904
49.599
53.253
56.851
60.376
63.814
67.149
70.366
73.452
76.392
79.174
81.785
84.215
86.453
88.489
90.314
91.92
93.299
94.445
95.353
96.018
96.438
96.609
96.531
96.205
95.631
94.812
93.752
92.455
90.927
89.175
87.207
85.033
82.661
80.103
77.372
74.478
71.435
68.256
64.955
61.546
58.042
54.457
50.805
47.1
43.356
39.585
35.803
32.022
28.256
24.519
20.823
17.18
13.604
10.106
6.696
3.385
0.182
-2.904
-5.866
-8.698
-11.392
-13.946
-16.355
-18.617
-20.731
-22.696
-24.513
-26.184
-27.711
-29.097
-30.347
-31.465
-32.455
-33.324
-34.076
-34.719
-35.26
-35.705
-36.061
-36.337
-36.541
-36.681
-36.766
-36.804
-36.803
-36.771
-36.717
-36.647
-36.569
-36.49
-36.415
-36.348
-36.294
-36.256
-36.237
-36.237
-36.256
-36.295
-36.351
-36.422
-36.504
-36.593
-36.685
-36.773
-36.852
-36.916
-36.955
-36.964
-36.934
-36.855
-36.72
-36.519
-36.243
-35.884
-35.431
-34.875
-34.208
-33.421
-32.506
-31.455
-30.262
-28.92
-27.424
-25.771
-23.959
-21.986
-19.852
-17.559
-15.109
-12.509
-9.764
-6.882
-3.872
-0.744
2.487
5.809
9.206
12.662
16.16
19.679
23.198
26.696
30.15
33.538
36.836
40.019
43.066
45.953
48.662
51.169
53.455
55.499
57.279
58.779
59.979
60.862
61.415
61.622
61.477
60.979
60.128
58.924
57.367
55.446
53.163
50.528
47.548
44.235
40.607
36.684
32.51
28.141
23.629
19.021
14.354
9.651
4.948
0.293
-4.264
-8.657
-12.842
-16.796
-20.475
-23.841
-26.875
-29.582
-32.029
-34.325
-36.544
-38.733
-40.901
-43.055
-45.254
-47.573
-50.103
-52.948
-56.13
-59.706
-63.823
-68.458
-73.443
-78.444
-82.783
-85.839
-87.208
-86.36
-82.901
-76.995
-69.05
-59.945
-51.178
-43.811
-38.709
-37.048
-39.206
-44.42
-51.257
-57.204
-59.012
-54.071
-39.689
-12.56
29.252
85.866
155.928
236.031
321.43
407.189
487.476
555.054
603.456
627.978
625.433
595.102
538.564
458.888
360.985
252.09
140.128
32.396
-64.057
-143.672
-203.367
-241.901
-259.883
-260.117
-246.614
-223.641
-196.303
-169.513
-146.367
-128.629
-116.962
-110.826
-109.166
-110.774
-113.708
-115.783
-115.86
-113.581
-109.109
-103.11
-96.185
-88.798
-81.677
-75.669
-71.211
-68.428
-67.207
-67.184
-68.076
-69.705
-71.826
-74.181
-76.554
-78.729
-80.543
-81.939
-82.869
-83.29
-83.19
-82.543
-81.35
-79.661
-77.541
-75.058
-72.28
-69.26
-66.046
-62.699
-59.29
-55.89
-52.57
-49.374
-46.328
-43.452
-40.756
-38.249
-35.929
-33.778
-31.769
-29.88
-28.094
-26.397
-24.779
-23.222
-21.707
-20.214
-18.727
-17.231
-15.715
-14.164
-12.568
-10.917
-9.204
-7.424
-5.574
-3.651
-1.647
0.442
2.621
4.896
7.267
9.739
12.313
14.99
17.766
20.641
23.607
26.662
29.799
33.011
36.291
39.629
43.017
46.446
49.906
53.384
56.869
60.35
63.812
67.243
70.63
73.958
77.213
80.383
83.453
86.411
89.244
91.94
94.488
96.876
99.095
101.136
102.989
104.648
106.105
107.356
108.396
109.222
109.833
110.228
110.406
110.37
110.121
109.663
108.998
108.133
107.072
105.822
104.392
102.789
101.023
99.104
97.044
94.854
92.547
90.135
87.631
85.049
82.402
79.704
76.967
74.205
71.432
68.66
65.902
63.171
60.478
57.833
55.248
52.731
50.293
47.94
45.682
43.524
41.473
39.535
37.714
36.016
34.442
32.994
31.674
30.481
29.413
28.468
27.641
26.928
26.323
25.82
25.411
25.089
24.846
24.673
24.559
24.497
24.474
24.481
24.507
24.54
24.571
24.589
24.584
24.547
24.469
24.34
24.152
23.898
23.568
23.157
22.656
22.059
21.363
20.564
19.66
18.65
17.535
16.319
15.006
13.602
12.112
10.544
8.906
7.204
5.449
3.648
1.808
-0.059
-1.943
-3.827
-5.696
-7.533
-9.324
-11.049
-12.689
-14.226
-15.644
-16.929
-18.072
-19.06
-19.878
-20.51
-20.934
-21.136
-21.112
-20.858
-20.368
-19.651
-18.717
-17.592
-16.321
-14.93
-13.437
-11.85
-10.163
-8.377
-6.496
-4.52
-2.448
-0.28
1.991
4.361
6.814
9.354
12
14.79
17.802
21.076
24.612
28.399
32.395
36.549
40.808
45.088
49.278
53.282
57.009
60.387
63.381
65.929
67.945
69.324
69.922
69.632
68.403
66.206
63.035
58.914
53.891
48.066
41.61
34.685
27.425
19.948
12.328
4.651
-2.959
-10.369
-17.425
-23.988
-29.977
-35.327
-39.967
-43.864
-47.021
-49.516
-51.531
-53.262
-54.857
-56.431
-58.05
-59.789
-61.773
-64.119
-66.953
-70.384
-74.428
-79.153
-84.694
-91.022
-97.968
-105.13
-111.761
-117.172
-120.864
-122.247
-120.882
-116.742
-109.999
-101.501
-92.721
-84.846
-78.993
-76.209
-76.65
-79.685
-84.146
-87.515
-86.43
-77.842
-58.383
-25.001
23.451
86.765
163.536
249.977
340.672
429.694
509.805
573.469
615.21
630.849
617.336
574.826
506.088
415.427
309.674
197.253
85.517
-18.296
-106.864
-175.836
-223.412
-249.32
-255.998
-247.71
-228.44
-203.069
-177.399
-155.183
-138.571
-128.816
-125.353
-126.798
-131.999
-139.002
-145.246
-149.332
-150.622
-148.972
-145.121
-139.829
-133.623
-127.332
-121.881
-117.746
-115.144
-114.05
-114.128
-115.118
-116.836
-119.028
-121.455
-123.934
-126.296
-128.402
-130.155
-131.468
-132.272
-132.527
-132.215
-131.334
-129.903
-127.969
-125.599
-122.857
-119.807
-116.505
-112.998
-109.345
-105.612
-101.868
-98.186
-94.616
-91.192
-87.942
-84.884
-82.028
-79.376
-76.914
-74.62
-72.478
-70.475
-68.602
-66.851
-65.208
-63.657
-62.183
-60.768
-59.4
-58.067
-56.754
-55.448
-54.14
-52.821
-51.483
-50.122
-48.73
-47.297
-45.816
-44.277
-42.674
-40.999
-39.245
-37.406
-35.479
-33.46
-31.349
-29.146
-26.851
-24.466
-21.995
-19.441
-16.81
-14.108
-11.341
-8.518
-5.648
-2.74
0.196
3.148
6.105
9.055
11.986
14.884
17.737
20.531
23.255
25.894
28.437
30.87
33.183
35.362
37.399
39.281
41.001
42.548
43.915
45.095
46.082
46.872
47.461
47.846
48.025
47.999
47.768
47.333
46.698
45.865
44.84
43.628
42.235
40.67
38.94
37.055
35.023
32.857
30.566
28.162
25.657
23.063
20.395
17.663
14.881
12.063
9.221
6.368
3.518
0.682
-2.126
-4.896
-7.614
-10.271
-12.855
-15.357
-17.769
-20.08
-22.285
-24.375
-26.347
-28.194
-29.912
-31.499
-32.952
-34.27
-35.453
-36.5
-37.414
-38.197
-38.852
-39.384
-39.796
-40.095
-40.287
-40.379
-40.376
-40.288
-40.122
-39.886
-39.588
-39.237
-38.841
-38.408
-37.948
-37.467
-36.975
-36.477
-35.981
-35.494
-35.021
-34.568
-34.138
-33.735
-33.362
-33.021
-32.713
-32.439
-32.198
-31.987
-31.805
-31.648
-31.511
-31.389
-31.275
-31.164
-31.045
-30.912
-30.755
-30.565
-30.331
-30.043
-29.691
-29.264
-28.752
-28.144
-27.431
-26.603
-25.65
-24.565
-23.34
-21.967
-20.44
-18.755
-16.906
-14.894
-12.714
-10.367
-7.854
-5.178
-2.342
0.647
3.783
7.056
10.456
13.972
17.588
21.29
25.061
28.883
32.736
36.598
40.445
44.252
47.996
51.65
55.188
58.586
61.816
64.858
67.689
70.287
72.633
74.705
76.482
77.945
79.077
79.864
80.292
80.349
80.03
79.335
78.264
76.822
75.008
72.812
70.236
67.284
63.962
60.285
56.272
51.949
47.358
42.555
37.591
32.518
27.376
22.195
17.02
11.896
6.881
2.047
-2.554
-6.88
-10.88
-14.508
-17.752
-20.63
-23.203
-25.566
-27.779
-29.869
-31.869
-33.826
-35.815
-37.931
-40.279
-42.918
-45.935
-49.498
-53.641
-58.263
-63.085
-67.515
-70.962
-73.036
-73.256
-71.098
-66.577
-59.992
-52.083
-44.423
-38.21
-34.094
-33.018
-35.598
-41.308
-49.086
-56.802
-60.894
-58.526
-47.342
-24.42
12.421
63.959
129.908
208.011
293.947
383.311
471.032
550.849
616.663
662.895
685.037
680.379
648.304
589.896
508.279
408.543
296.941
180.596
66.787
-37.143
-124.717
-191.721
-236.216
-258.331
-259.696
-242.982
-212.185
-173.081
-132.079
-94.242
-62.848
-39.538
-25.184
-20.539
-25.085
-36.499
-51.268
-66.041
-78.803
-88.811
-95.564
-98.231
-96.548
-91.138
-83.511
-75.635
-68.657
-62.888
-58.491
-55.703
-54.676
-55.393
-57.433
-59.97
-62.459
-64.675
-66.482
-67.878
-68.821
-69.21
-69.049
-68.448
-67.496
-66.255
-64.765
-63.001
-60.968
-58.707
-56.256
-53.683
-51.054
-48.421
-45.838
-43.344
-40.963
-38.721
-36.636
-34.713
-32.947
-31.326
-29.83
-28.452
-27.185
-26.019
-24.94
-23.922
-22.945
-21.991
-21.042
-20.086
-19.108
-18.096
-17.038
-15.927
-14.758
-13.526
-12.229
-10.862
-9.42
-7.898
-6.293
-4.603
-2.826
-0.96
0.996
3.041
5.173
7.388
9.682
12.05
14.484
16.979
19.526
22.116
24.739
27.385
30.042
32.697
35.338
37.952
40.525
43.044
45.496
47.867
50.147
52.322
54.383
56.319
58.121
59.779
61.285
62.632
63.811
64.817
65.643
66.285
66.737
66.998
67.064
66.934
66.607
66.085
65.367
64.457
63.357
62.07
60.602
58.957
57.142
55.165
53.033
50.755
48.341
45.799
43.142
40.377
37.517
34.57
31.547
28.457
25.311
22.12
18.892
15.639
12.372
9.099
5.832
2.581
-0.644
-3.834
-6.979
-10.069
-13.097
-16.052
-18.926
-21.712
-24.401
-26.987
-29.463
-31.822
-34.061
-36.177
-38.165
-40.024
-41.754
-43.355
-44.826
-46.169
-47.387
-48.479
-49.45
-50.301
-51.036
-51.66
-52.178
-52.595
-52.918
-53.153
-53.309
-53.393
-53.412
-53.376
-53.292
-53.17
-53.017
-52.843
-52.658
-52.47
-52.289
-52.124
-51.983
-51.872
-51.799
-51.768
-51.782
-51.845
-51.956
-52.115
-52.321
-52.57
-52.861
-53.19
-53.556
-53.954
-54.38
-54.829
-55.295
-55.773
-56.251
-56.718
-57.16
-57.56
-57.905
-58.181
-58.374
-58.472
-58.459
-58.324
-58.059
-57.652
-57.091
-56.359
-55.434
-54.299
-52.951
-51.387
-49.617
-47.659
-45.525
-43.236
-40.819
-38.293
-35.669
-32.947
-30.11
-27.138
-24.03
-20.795
-17.46
-14.052
-10.579
-7.045
-3.453
0.212
3.962
7.81
11.802
15.955
20.253
24.657
29.078
33.412
37.581
41.528
45.205
48.579
51.597
54.2
56.345
57.972
59.026
59.437
59.098
57.924
55.882
52.977
49.278
44.89
39.888
34.339
28.32
21.901
15.181
8.256
1.198
-5.923
-13.031
-20.021
-26.749
-33.076
-38.905
-44.185
-48.915
-53.122
-56.811
-60.015
-62.816
-65.314
-67.649
-69.93
-72.202
-74.533
-77.009
-79.75
-82.927
-86.694
-91.136
-96.343
-102.423
-109.333
-116.929
-124.882
-132.582
-139.473
-145.105
-148.931
-150.532
-149.925
-147.356
-143.482
-139.445
-135.96
-133.546
-133.011
-134.544
-137.475
-140.616
-141.824
-138.487
-128.782
-110.736
-81.909
-41.032
12.118
76.545
149.41
227.475
307.548
384.902
453.91
509.564
547.014
563.018
556.125
524.776
469.008
391.912
297.951
192.608
82.727
-25.878
-127.361
-214.433
-282.35
-329.554
-355.603
-362.019
-351.959
-328.058
-294.871
-259.459
-226.492
-198.42
-177.159
-162.943
-155.501
-155.311
-160.619
-167.422
-173.397
-177.447
-178.863
-178.12
-175.298
-169.604
-161.672
-153.397
-145.876
-139.784
-135.38
-132.13
-129.912
-129.112
-129.541
-130.596
-131.819
-132.714
-133.029
-132.888
-132.279
-131.067
-129.234
-126.789
-123.778
-120.34
-116.564
-112.47
-108.099
-103.491
-98.691
-93.784
-88.845
-83.945
-79.154
-74.511
-70.045
-65.779
-61.728
-57.906
-54.315
-50.937
-47.749
-44.734
-41.879
-39.179
-36.625
-34.195
-31.866
-29.62
-27.438
-25.308
-23.218
-21.155
-19.105
-17.059
-15.007
-12.944
-10.865
-8.762
-6.626
-4.449
-2.222
0.06
2.402
4.809
7.283
9.829
12.445
15.13
17.882
20.696
23.57
26.497
29.471
32.484
35.53
38.598
41.68
44.765
47.843
50.902
53.931
56.918
59.851
62.718
65.505
68.2
70.791
73.266
75.613
77.819
79.875
81.769
83.492
85.036
86.391
87.553
88.513
89.269
89.817
90.155
90.281
90.196
89.9
89.396
88.687
87.777
86.67
85.371
83.886
82.223
80.388
78.391
76.238
73.941
71.508
68.95
66.278
63.502
60.635
57.688
54.672
51.6
48.484
45.336
42.168
38.991
35.816
32.654
29.516
26.411
23.347
20.333
17.377
14.488
11.67
8.932
6.278
3.715
1.247
-1.122
-3.388
-5.548
-7.6
-9.541
-11.37
-13.086
-14.689
-16.179
-17.556
-18.822
-19.976
-21.023
-21.963
-22.801
-23.54
-24.183
-24.736
-25.201
-25.584
-25.889
-26.119
-26.278
-26.37
-26.398
-26.365
-26.275
-26.131
-25.936
-25.692
-25.403
-25.071
-24.696
-24.281
-23.825
-23.329
-22.792
-22.214
-21.593
-20.926
-20.212
-19.45
-18.639
-17.778
-16.863
-15.893
-14.864
-13.774
-12.62
-11.395
-10.091
-8.699
-7.214
-5.631
-3.946
-2.153
-0.249
1.772
3.911
6.164
8.534
11.025
13.646
16.409
19.314
22.352
25.506
28.76
32.106
35.53
39.011
42.524
46.051
49.59
53.153
56.759
60.407
64.083
67.758
71.401
74.999
78.554
82.074
85.555
88.989
92.379
95.746
99.127
102.528
105.911
109.2
112.315
115.206
117.848
120.232
122.342
124.142
125.585
126.635
127.274
127.487
127.238
126.457
125.061
123.006
120.318
117.085
113.385
109.27
104.773
99.924
94.789
89.461
84.027
78.547
73.061
67.61
62.268
57.149
52.377
48.043
44.168
40.712
37.654
35
32.739
30.847
29.226
27.714
26.193
24.583
22.831
20.917
18.769
16.262
13.274
9.687
5.446
0.598
-4.866
-11.019
-17.763
-24.875
-31.891
-38.05
-42.684
-45.337
-45.636
-43.332
-38.525
-31.524
-23.026
-14.315
-6.675
-1.188
1.564
1.743
0.33
-1.229
-0.999
3.809
16.226
39.304
75.228
124.443
185.813
257.176
335.238
415.108
490.872
555.78
603.478
629.622
631.497
607.422
557.464
484.222
392.409
288.549
179.873
72.624
-27.549
-114.671
-183.762
-232.503
-261.004
-271.129
-265.892
-248.189
-220.968
-189.012
-157.672
-130.21
-108.068
-91.698
-80.718
-75.037
-74.892
-78.497
-82.729
-85.849
-87.152
-86.508
-84.436
-80.881
-75.115
-67.667
-60.12
-53.425
-48.145
-44.412
-41.76
-40.117
-39.857
-40.874
-42.619
-44.64
-46.483
-47.905
-49.018
-49.821
-50.187
-50.084
-49.526
-48.562
-47.317
-45.873
-44.236
-42.429
-40.477
-38.408
-36.294
-34.2
-32.184
-30.298
-28.574
-27.023
-25.656
-24.477
-23.487
-22.671
-22.003
-21.449
-20.986
-20.593
-20.257
-19.962
-19.68
-19.382
-19.045
-18.647
-18.17
-17.6
-16.921
-16.119
-15.183
-14.106
-12.883
-11.511
-9.985
-8.3
-6.45
-4.432
-2.246
0.11
2.634
5.325
8.179
11.19
14.351
17.651
21.082
24.631
28.286
32.033
35.857
39.742
43.673
47.632
51.601
55.564
59.501
63.395
67.226
70.977
74.628
78.162
81.561
84.809
87.887
90.782
93.477
95.96
98.216
100.234
102.003
103.512
104.752
105.717
106.401
106.798
106.907
106.727
106.258
105.503
104.465
103.149
101.562
99.71
97.602
95.247
92.657
89.841
86.813
83.585
80.173
76.589
72.85
68.972
64.97
60.861
56.661
52.387
48.057
43.686
39.293
34.892
30.502
26.139
21.818
17.554
13.362
9.256
5.248
1.349
-2.43
-6.08
-9.592
-12.96
-16.176
-19.235
-22.132
-24.864
-27.427
-29.82
-32.042
-34.092
-35.971
-37.681
-39.225
-40.604
-41.824
-42.889
-43.805
-44.576
-45.209
-45.712
-46.093
-46.36
-46.522
-46.587
-46.565
-46.465
-46.296
-46.066
-45.785
-45.458
-45.094
-44.699
-44.279
-43.84
-43.387
-42.923
-42.454
-41.982
-41.511
-41.043
-40.58
-40.122
-39.672
-39.228
-38.791
-38.36
-37.933
-37.508
-37.084
-36.656
-36.221
-35.775
-35.312
-34.827
-34.314
-33.767
-33.18
-32.546
-31.859
-31.114
-30.306
-29.431
-28.483
-27.46
-26.359
-25.179
-23.918
-22.577
-21.155
-19.655
-18.079
-16.429
-14.712
-12.931
-11.093
-9.204
-7.272
-5.306
-3.317
-1.313
0.692
2.688
4.657
6.585
8.453
10.244
11.941
13.522
14.971
16.269
17.399
18.347
19.099
19.641
19.957
20.034
19.858
19.419
18.705
17.71
16.425
14.85
12.989
10.848
8.43
5.735
2.756
-0.507
-4.05
-7.87
-11.956
-16.295
-20.862
-25.617
-30.51
-35.492
-40.517
-45.549
-50.562
-55.518
-60.372
-65.069
-69.547
-73.76
-77.67
-81.235
-84.413
-87.197
-89.62
-91.75
-93.691
-95.517
-97.257
-98.963
-100.695
-102.527
-104.584
-106.984
-109.799
-113.136
-117.144
-121.823
-127.067
-132.577
-137.739
-141.994
-144.875
-145.818
-144.438
-140.83
-135.402
-129.057
-123.229
-118.968
-117.12
-118.753
-124.169
-132.551
-142.305
-150.785
-154.73
-151.415
-138.12
-111.718
-70.341
-13.981
55.794
135.691
221.398
308.218
390.476
461.411
514.85
546.427
553.528
535.031
491.27
424.383
338.536
239.941
135.756
32.392
-64.433
-149.064
-216.916
-265.55
-294.531
-305.579
-301.965
-286.999
-264.275
-238.351
-213.503
-192.529
-176.915
-166.766
-161.232
-159.475
-160.416
-162.245
-163.087
-161.862
-158.242
-152.559
-145.514
-137.657
-129.45
-121.56
-114.718
-109.346
-105.554
-103.204
-101.967
-101.581
-101.879
-102.664
-103.713
-104.833
-105.829
-106.545
-106.919
-106.904
-106.456
-105.558
-104.186
-102.338
-100.061
-97.42
-94.475
-91.289
-87.909
-84.37
-80.726
-77.039
-73.373
-69.796
-66.351
-63.062
-59.947
-57.015
-54.275
-51.722
-49.338
-47.091
-44.958
-42.92
-40.962
-39.072
-37.234
-35.425
-33.628
-31.825
-30
-28.142
-26.236
-24.271
-22.236
-20.126
-17.935
-15.66
-13.299
-10.845
-8.294
-5.642
-2.885
-0.021
2.952
6.036
9.229
12.529
15.933
19.435
23.03
26.711
30.471
34.301
38.193
42.137
46.122
50.138
54.174
58.218
62.257
66.278
70.269
74.216
78.106
81.925
85.66
89.296
92.821
96.221
99.484
102.598
105.551
108.331
110.929
113.336
115.542
117.539
119.322
120.886
122.225
123.337
124.22
124.874
125.298
125.493
125.461
125.206
124.73
124.038
123.135
122.029
120.725
119.231
117.556
115.709
113.699
111.538
109.235
106.804
104.256
101.603
98.859
96.037
93.15
90.213
87.237
84.236
81.224
78.212
75.212
72.236
69.295
66.398
63.555
60.776
58.069
55.441
52.898
50.448
48.095
45.842
43.694
41.653
39.719
37.895
36.181
34.576
33.08
31.69
30.405
29.221
28.134
27.139
26.23
25.399
24.641
23.947
23.31
22.723
22.179
21.668
21.183
20.718
20.264
19.814
19.362
18.899
18.419
17.919
17.392
16.836
16.248
15.626
14.97
14.283
13.565
12.819
12.045
11.247
10.426
9.585
8.726
7.851
6.962
6.066
5.171
4.289
3.429
2.602
1.821
1.101
0.453
-0.109
-0.576
-0.943
-1.202
-1.341
-1.347
-1.201
-0.891
-0.415
0.231
1.046
2.025
3.154
4.406
5.739
7.125
8.548
10.003
11.498
13.041
14.631
16.275
17.976
19.74
21.58
23.498
25.483
27.548
29.717
32.038
34.592
37.425
40.545
43.945
47.586
51.416
55.383
59.403
63.37
67.193
70.78
74.062
76.997
79.516
81.536
82.951
83.615
83.426
82.321
80.262
77.248
73.307
68.481
62.865
56.607
49.844
42.716
35.345
27.814
20.223
12.68
5.306
-1.746
-8.342
-14.38
-19.774
-24.48
-28.48
-31.757
-34.356
-36.387
-37.988
-39.346
-40.626
-41.942
-43.393
-45.053
-47.009
-49.391
-52.324
-55.926
-60.287
-65.403
-71.289
-78.025
-85.515
-93.499
-101.489
-108.695
-114.369
-118.005
-119.207
-117.67
-113.476
-106.925
-98.706
-90.131
-82.499
-76.875
-73.801
-73.053
-73.564
-73.83
-71.913
-65.008
-50.105
-24.172
15
67.815
133.086
208.656
291.333
376.311
457.793
529.036
583.331
616.021
624.088
605.442
560.066
490.5
401.085
298.38
190.383
83.98
-14.339
-97.953
-162.652
-206.73
-230.112
-235.253
-226.352
-207.301
-182.745
-158.176
-137.2
-121.839
-113.175
-110.55
-112.55
-117.991
-124.956
-131.004
-134.805
-135.78
-133.867
-129.844
-124.487
-118.338
-112.203
-106.94
-102.992
-100.556
-99.589
-99.758
-100.808
-102.553
-104.762
-107.228
-109.783
-112.27
-114.548
-116.513
-118.072
-119.158
-119.728
-119.762
-119.255
-118.22
-116.707
-114.779
-112.496
-109.92
-107.097
-104.065
-100.877
-97.594
-94.282
-91.01
-87.827
-84.764
-81.848
-79.096
-76.514
-74.104
-71.849
-69.724
-67.711
-65.797
-63.971
-62.224
-60.544
-58.912
-57.314
-55.734
-54.157
-52.573
-50.967
-49.329
-47.648
-45.919
-44.135
-42.294
-40.392
-38.423
-36.381
-34.263
-32.064
-29.781
-27.411
-24.953
-22.407
-19.774
-17.056
-14.258
-11.384
-8.441
-5.434
-2.373
0.735
3.879
7.051
10.239
13.431
16.614
19.777
22.905
25.984
29.001
31.94
34.788
37.531
40.154
42.645
44.989
47.177
49.195
51.033
52.682
54.134
55.379
56.413
57.228
57.821
58.188
58.328
58.24
57.924
57.382
56.617
55.632
54.433
53.025
51.415
49.611
47.621
45.456
43.126
40.643
38.02
35.27
32.407
29.445
26.398
23.282
20.11
16.899
13.661
10.412
7.166
3.935
0.734
-2.425
-5.531
-8.571
-11.536
-14.416
-17.202
-19.885
-22.459
-24.917
-27.252
-29.461
-31.537
-33.478
-35.282
-36.947
-38.474
-39.862
-41.115
-42.236
-43.228
-44.098
-44.851
-45.493
-46.03
-46.471
-46.822
-47.091
-47.287
-47.418
-47.491
-47.516
-47.5
-47.453
-47.381
-47.291
-47.19
-47.084
-46.979
-46.88
-46.792
-46.72
-46.667
-46.639
-46.639
-46.668
-46.729
-46.821
-46.944
-47.096
-47.272
-47.467
-47.675
-47.888
-48.099
-48.302
-48.488
-48.649
-48.78
-48.872
-48.921
-48.918
-48.855
-48.721
-48.505
-48.197
-47.784
-47.255
-46.599
-45.808
-44.872
-43.788
-42.554
-41.167
-39.619
-37.905
-36.011
-33.932
-31.669
-29.224
-26.607
-23.835
-20.931
-17.935
-14.89
-11.826
-8.764
-5.719
-2.687
0.331
3.333
6.322
9.286
12.213
15.102
17.935
20.708
23.431
26.13
28.859
31.685
34.64
37.731
40.949
44.239
47.55
50.808
53.912
56.787
59.369
61.595
63.437
64.863
65.811
66.21
65.954
64.916
63.026
60.244
56.546
51.975
46.593
40.508
33.894
26.903
19.658
12.268
4.795
-2.694
-10.096
-17.303
-24.18
-30.576
-36.394
-41.549
-45.958
-49.597
-52.496
-54.759
-56.576
-58.12
-59.5
-60.776
-62.001
-63.248
-64.621
-66.245
-68.239
-70.682
-73.678
-77.381
-81.804
-86.813
-92.078
-96.955
-100.84
-103.283
-103.745
-101.832
-97.6
-91.382
-83.972
-76.65
-70.303
-65.609
-63.49
-64.232
-67.172
-70.958
-73.273
-71.342
-62.941
-45.813
-17.246
24.541
79.759
147.112
223.725
305.906
389.582
469.722
540.124
594.663
628.737
639.454
625.272
585.974
523.12
440.205
342.907
238.317
132.966
32.71
-56.607
-130.17
-185.2
-220.816
-238.394
-241.097
-232.208
-215.249
-194.636
-174.5
-157.621
-145.563
-138.479
-135.465
-135.603
-137.808
-140.371
-141.562
-140.385
-136.525
-130.324
-122.581
-113.966
-105.047
-96.548
-89.188
-83.383
-79.285
-76.795
-75.615
-75.489
-76.218
-77.569
-79.325
-81.287
-83.258
-85.073
-86.601
-87.738
-88.41
-88.575
-88.198
-87.27
-85.814
-83.876
-81.524
-78.827
-75.845
-72.632
-69.237
-65.723
-62.162
-58.627
-55.187
-51.89
-48.765
-45.831
-43.101
-40.578
-38.253
-36.105
-34.105
-32.229
-30.462
-28.79
-27.197
-25.667
-24.178
-22.712
-21.25
-19.778
-18.28
-16.746
-15.162
-13.521
-11.818
-10.048
-8.209
-6.298
-4.31
-2.24
-0.085
2.159
4.494
6.92
9.44
12.05
14.749
17.532
20.393
23.328
26.329
29.389
32.499
35.65
38.833
42.036
45.249
48.458
51.65
54.814
57.933
60.996
63.988
66.894
69.702
72.398
74.968
77.401
79.683
81.804
83.753
85.519
87.094
88.47
89.64
90.598
91.339
91.859
92.156
92.229
92.078
91.702
91.103
90.285
89.251
88.005
86.554
84.904
83.062
81.038
78.842
76.482
73.971
71.321
68.543
65.65
62.656
59.573
56.416
53.199
49.934
46.636
43.317
39.992
36.672
33.37
30.097
26.864
23.682
20.56
17.507
14.532
11.642
8.845
6.147
3.553
1.068
-1.304
-3.56
-5.698
-7.717
-9.616
-11.395
-13.056
-14.6
-16.031
-17.351
-18.563
-19.674
-20.687
-21.607
-22.441
-23.195
-23.875
-24.487
-25.038
-25.533
-25.98
-26.383
-26.749
-27.083
-27.39
-27.676
-27.945
-28.201
-28.447
-28.687
-28.925
-29.161
-29.397
-29.634
-29.871
-30.11
-30.348
-30.584
-30.816
-31.04
-31.254
-31.454
-31.636
-31.795
-31.925
-32.021
-32.077
-32.087
-32.044
-31.941
-31.772
-31.53
-31.208
-30.8
-30.299
-29.7
-28.997
-28.183
-27.255
-26.207
-25.036
-23.737
-22.308
-20.747
-19.054
-17.23
-15.274
-13.189
-10.978
-8.644
-6.194
-3.632
-0.966
1.797
4.647
7.575
10.568
13.614
16.699
19.809
22.927
26.036
29.117
32.153
35.124
38.011
40.795
43.455
45.975
48.336
50.521
52.512
54.293
55.845
57.154
58.206
58.984
59.475
59.666
59.548
59.12
58.382
57.329
55.96
54.268
52.248
49.908
47.256
44.297
41.043
37.512
33.736
29.77
25.669
21.479
17.242
12.989
8.752
4.582
0.525
-3.369
-7.052
-10.508
-13.712
-16.624
-19.229
-21.53
-23.577
-25.492
-27.384
-29.334
-31.404
-33.619
-36.032
-38.741
-41.827
-45.384
-49.484
-54.103
-59.292
-65.189
-71.733
-78.722
-85.706
-91.879
-96.57
-99.352
-99.704
-97.24
-91.993
-84.207
-74.855
-65.605
-57.765
-52.424
-50.512
-52.022
-56.176
-61.709
-65.956
-65.314
-56.538
-36.241
-1.592
48.208
112.626
190.05
276.579
366.674
454.223
531.919
592.584
631.195
644.031
628.401
584.222
513.91
421.808
314.703
200.505
86.178
-21.603
-115.995
-191.774
-246.139
-278.497
-290.799
-286.647
-269.668
-243.939
-214.615
-186.488
-162.76
-145.148
-133.788
-127.758
-126.12
-127.696
-130.51
-132.507
-132.494
-130.05
-125.469
-119.486
-112.673
-105.516
-98.732
-93.08
-88.975
-86.522
-85.555
-85.707
-86.69
-88.296
-90.284
-92.401
-94.432
-96.187
-97.534
-98.429
-98.837
-98.73
-98.1
-96.941
-95.275
-93.157
-90.658
-87.844
-84.784
-81.536
-78.152
-74.693
-71.227
-67.818
-64.529
-61.402
-58.461
-55.722
-53.193
-50.88
-48.775
-46.861
-45.108
-43.495
-42
-40.607
-39.302
-38.062
-36.868
-35.697
-34.529
-33.348
-32.138
-30.884
-29.57
-28.184
-26.715
-25.155
-23.496
-21.733
-19.857
-17.86
-15.738
-13.487
-11.104
-8.588
-5.939
-3.157
-0.244
2.799
5.966
9.256
12.664
16.183
19.806
23.522
27.316
31.173
35.074
39
42.931
46.848
50.732
54.564
58.327
62.006
65.584
69.04
72.351
75.489
78.428
81.153
83.652
85.919
87.96
89.785
91.41
92.853
94.124
95.225
96.143
96.853
97.326
97.533
97.462
97.113
96.489
95.587
94.397
92.906
91.082
88.883
86.258
83.143
79.498
75.311
70.607
65.445
59.908
54.093
48.08
41.925
35.682
29.4
23.132
16.933
10.875
5.043
-0.457
-5.5
-9.985
-13.848
-17.071
-19.684
-21.752
-23.369
-24.614
-25.548
-26.222
-26.672
-26.932
-27.034
-27.015
-26.921
-26.821
-26.808
-26.96
-27.331
-27.944
-28.78
-29.795
-30.919
-32.092
-33.262
-34.391
-35.458
-36.45
-37.366
-38.205
-38.971
-39.654
-40.227
-40.668
-40.96
-41.102
-41.11
-41.012
-40.849
-40.66
-40.479
-40.335
-40.247
-40.224
-40.269
-40.378
-40.542
-40.753
-41.01
-41.313
-41.665
-42.064
-42.507
-42.987
-43.498
-44.032
-44.581
-45.137
-45.689
-46.229
-46.748
-47.239
-47.695
-48.11
-48.472
-48.769
-48.989
-49.126
-49.17
-49.109
-48.928
-48.603
-48.121
-47.476
-46.666
-45.696
-44.57
-43.297
-41.9
-40.416
-38.88
-37.324
-35.763
-34.191
-32.608
-31.015
-29.414
-27.812
-26.197
-24.532
-22.794
-20.967
-19.031
-16.968
-14.728
-12.226
-9.402
-6.209
-2.639
1.275
5.504
10.017
14.758
19.66
24.62
29.494
34.171
38.569
42.599
46.179
49.191
51.475
52.91
53.415
52.933
51.46
48.987
45.505
41.064
35.746
29.678
23.041
15.984
8.624
1.101
-6.456
-13.894
-21.029
-27.715
-33.841
-39.305
-44.033
-47.951
-50.988
-53.125
-54.384
-54.841
-54.638
-53.905
-52.772
-51.383
-49.851
-48.318
-46.959
-45.934
-45.401
-45.516
-46.376
-48.077
-50.76
-54.398
-58.826
-63.732
-68.544
-72.693
-75.733
-77.26
-76.924
-74.819
-71.318
-66.888
-62.454
-58.883
-56.768
-56.615
-58.482
-61.298
-63.369
-63.115
-58.379
-46.956
-26.863
4.062
47.106
101.461
165.056
235.768
310.432
384.997
454.781
513.902
556.89
580.471
582.743
561.975
517.892
452.187
368.344
272.183
170.405
68.686
-27.726
-113.103
-182.675
-233.74
-265.556
-279.689
-279.133
-266.863
-246.206
-221.549
-197.145
-175.861
-159.276
-147.631
-140.251
-136.46
-135.361
-135.302
-134.5
-131.951
-127.334
-120.927
-113.386
-105.202
-96.787
-88.785
-81.907
-76.544
-72.794
-70.509
-69.348
-69.051
-69.435
-70.279
-71.335
-72.38
-73.223
-73.725
-73.842
-73.541
-72.791
-71.582
-69.908
-67.792
-65.291
-62.475
-59.41
-56.16
-52.778
-49.313
-45.822
-42.369
-39.015
-35.817
-32.81
-30.012
-27.432
-25.074
-22.934
-20.999
-19.244
-17.635
-16.144
-14.747
-13.424
-12.157
-10.922
-9.696
-8.457
-7.184
-5.86
-4.469
-2.997
-1.431
0.239
2.021
3.919
5.937
8.077
10.343
12.738
15.264
17.921
20.708
23.623
26.662
29.821
33.091
36.464
39.929
43.475
47.09
50.76
54.472
58.211
61.961
65.708
69.434
73.124
76.761
80.327
83.807
87.184
90.442
93.564
96.536
99.343
101.972
104.41
106.644
108.665
110.463
112.029
113.355
114.437
115.268
115.845
116.166
116.23
116.037
115.59
114.892
113.946
112.759
111.336
109.686
107.817
105.738
103.46
100.993
98.349
95.541
92.582
89.485
86.265
82.936
79.512
76.007
72.438
68.817
65.16
61.48
57.792
54.108
50.443
46.808
43.216
39.677
36.203
32.804
29.489
26.268
23.147
20.135
17.239
14.464
11.816
9.299
6.918
4.674
2.571
0.609
-1.211
-2.89
-4.428
-5.829
-7.095
-8.228
-9.234
-10.117
-10.883
-11.537
-12.085
-12.535
-12.892
-13.163
-13.357
-13.478
-13.535
-13.533
-13.48
-13.38
-13.241
-13.068
-12.867
-12.642
-12.4
-12.143
-11.878
-11.607
-11.333
-11.059
-10.787
-10.518
-10.252
-9.989
-9.727
-9.466
-9.202
-8.932
-8.654
-8.361
-8.049
-7.711
-7.342
-6.933
-6.479
-5.97
-5.4
-4.76
-4.044
-3.245
-2.355
-1.368
-0.277
0.922
2.237
3.671
5.229
6.915
8.732
10.683
12.768
14.987
17.34
19.825
22.439
25.177
28.034
31.002
34.075
37.242
40.495
43.82
47.205
50.634
54.094
57.568
61.036
64.48
67.879
71.211
74.456
77.593
80.601
83.458
86.146
88.649
90.949
93.031
94.881
96.48
97.816
98.874
99.642
100.109
100.266
100.107
99.631
98.844
97.75
96.353
94.655
92.649
90.337
87.726
84.822
81.636
78.187
74.505
70.632
66.626
62.539
58.421
54.313
50.247
46.265
42.414
38.746
35.321
32.18
29.359
26.901
24.842
23.183
21.885
20.879
20.052
19.324
18.649
17.953
17.157
16.169
14.861
13.121
10.886
8.061
4.513
0.256
-4.598
-9.752
-14.613
-18.655
-21.439
-22.413
-21.178
-17.777
-12.53
-6.209
-0.12
4.785
7.734
7.705
4.371
-1.534
-8.606
-14.513
-16.234
-11.206
3.124
29.758
70.47
125.197
192.491
269.354
351.595
434.535
512.538
578.833
627.326
653.777
655.465
631.065
580.963
507.476
415.028
310.169
200.235
91.759
-9.248
-96.846
-166.433
-215.691
-244.467
-254.856
-250.382
-234.582
-211.351
-185.505
-161.355
-141.629
-127.687
-119.447
-115.94
-116.235
-119.129
-122.719
-125.199
-125.599
-123.651
-119.76
-114.653
-108.866
-102.893
-97.407
-93.066
-90.221
-88.933
-89.006
-90.098
-91.949
-94.364
-97.135
-100.037
-102.862
-105.434
-107.621
-109.368
-110.639
-111.402
-111.644
-111.359
-110.566
-109.319
-107.687
-105.732
-103.516
-101.089
-98.495
-95.789
-93.033
-90.291
-87.622
-85.068
-82.649
-80.384
-78.28
-76.34
-74.556
-72.909
-71.372
-69.92
-68.537
-67.208
-65.92
-64.656
-63.398
-62.129
-60.832
-59.494
-58.103
-56.649
-55.121
-53.511
-51.814
-50.027
-48.149
-46.177
-44.107
-41.937
-39.664
-37.286
-34.802
-32.213
-29.517
-26.718
-23.818
-20.823
-17.739
-14.572
-11.33
-8.022
-4.658
-1.249
2.196
5.662
9.139
12.614
16.072
19.501
22.887
26.215
29.472
32.643
35.715
38.673
41.504
44.196
46.735
49.11
51.31
53.323
55.139
56.75
58.146
59.321
60.266
60.977
61.448
61.677
61.661
61.399
60.891
60.138
59.143
57.91
56.443
54.748
52.831
50.699
48.362
45.828
43.107
40.209
37.145
33.927
30.566
27.076
23.469
19.757
15.954
12.074
8.13
4.135
0.104
-3.95
-8.015
-12.077
-16.124
-20.142
-24.12
-28.047
-31.91
-35.7
-39.406
-43.02
-46.534
-49.941
-53.234
-56.409
-59.46
-62.386
-65.184
-67.852
-70.388
-72.793
-75.066
-77.208
-79.219
-81.101
-82.856
-84.488
-85.999
-87.394
-88.677
-89.853
-90.926
-91.902
-92.785
-93.581
-94.295
-94.932
-95.499
-96.001
-96.444
-96.834
-97.177
-97.478
-97.74
-97.967
-98.162
-98.325
-98.456
-98.555
-98.619
-98.644
-98.63
-98.574
-98.473
-98.325
-98.129
-97.884
-97.589
-97.242
-96.837
-96.369
-95.831
-95.213
-94.509
-93.707
-92.799
-91.777
-90.634
-89.366
-87.97
-86.443
-84.777
-82.964
-80.988
-78.842
-76.525
-74.036
-71.38
-68.571
-65.63
-62.591
-59.495
-56.367
-53.227
-50.082
-46.924
-43.749
-40.554
-37.328
-34.077
-30.805
-27.508
-24.2
-20.885
-17.55
-14.17
-10.693
-7.053
-3.223
0.805
5.02
9.372
13.808
18.257
22.613
26.797
30.737
34.364
37.635
40.509
42.912
44.767
45.976
46.42
46.029
44.758
42.572
39.483
35.531
30.787
25.379
19.42
13.002
6.228
-0.821
-8.052
-15.351
-22.609
-29.716
-36.546
-42.992
-48.959
-54.347
-59.087
-63.154
-66.549
-69.315
-71.489
-73.122
-74.299
-75.119
-75.708
-76.17
-76.554
-76.934
-77.408
-78.082
-79.095
-80.581
-82.596
-85.222
-88.599
-92.671
-97.267
-102.022
-106.238
-109.32
-110.84
-110.27
-107.23
-101.855
-94.568
-86.293
-78.563
-72.44
-68.646
-68.106
-71.002
-76.415
-82.769
-87.505
-87.37
-79.732
-62.132
-31.74
13.064
72.08
143.745
224.963
311.481
398.639
480.985
551.942
605.288
636.621
643.028
622.853
576.433
506.093
415.912
312.251
202.844
94.543
-6.108
-92.473
-160.21
-207.344
-233.5
-240.854
-233.435
-215.083
-190.478
-165.267
-143.237
-126.585
-116.612
-112.849
-113.981
-118.888
-125.63
-131.627
-135.456
-136.467
-134.513
-130.335
-124.686
-118.089
-111.38
-105.501
-100.944
-97.94
-96.468
-96.189
-96.848
-98.266
-100.199
-102.425
-104.762
-107.04
-109.115
-110.881
-112.248
-113.143
-113.522
-113.361
-112.654
-111.414
-109.693
-107.557
-105.071
-102.296
-99.285
-96.077
-92.728
-89.304
-85.873
-82.506
-79.255
-76.15
-73.219
-70.479
-67.937
-65.593
-63.428
-61.414
-59.532
-57.765
-56.1
-54.528
-53.034
-51.598
-50.204
-48.835
-47.477
-46.116
-44.74
-43.336
-41.895
-40.41
-38.876
-37.29
-35.648
-33.944
-32.171
-30.324
-28.398
-26.389
-24.294
-22.108
-19.833
-17.467
-15.014
-12.477
-9.861
-7.171
-4.415
-1.599
1.268
4.176
7.116
10.077
13.048
16.018
18.973
21.903
24.794
27.635
30.412
33.114
35.728
38.242
40.646
42.928
45.078
47.084
48.938
50.63
52.152
53.496
54.656
55.626
56.401
56.977
57.353
57.526
57.498
57.27
56.842
56.22
55.406
54.406
53.226
51.873
50.353
48.676
46.85
44.885
42.79
40.576
38.254
35.835
33.331
30.753
28.113
25.423
22.695
19.941
17.173
14.404
11.644
8.905
6.199
3.535
0.925
-1.623
-4.1
-6.497
-8.808
-11.024
-13.141
-15.153
-17.055
-18.844
-20.516
-22.07
-23.503
-24.815
-26.005
-27.074
-28.024
-28.857
-29.576
-30.185
-30.688
-31.091
-31.399
-31.617
-31.751
-31.808
-31.795
-31.718
-31.585
-31.401
-31.175
-30.913
-30.622
-30.31
-29.983
-29.647
-29.307
-28.97
-28.642
-28.325
-28.026
-27.748
-27.495
-27.27
-27.076
-26.914
-26.787
-26.694
-26.635
-26.606
-26.606
-26.627
-26.665
-26.714
-26.768
-26.82
-26.864
-26.895
-26.907
-26.896
-26.857
-26.785
-26.672
-26.508
-26.285
-25.99
-25.615
-25.148
-24.578
-23.891
-23.077
-22.131
-21.046
-19.815
-18.426
-16.861
-15.111
-13.174
-11.052
-8.752
-6.287
-3.672
-0.932
1.89
4.756
7.632
10.489
13.321
16.126
18.895
21.62
24.291
26.909
29.498
32.088
34.701
37.365
40.11
42.982
46.065
49.431
53.126
57.185
61.591
66.312
71.316
76.555
81.959
87.44
92.867
98.095
103.014
107.51
111.474
114.793
117.296
118.836
119.303
118.604
116.705
113.605
109.31
103.856
97.341
89.893
81.693
72.965
63.88
54.598
45.279
36.066
27.153
18.73
10.946
3.937
-2.195
-7.391
-11.591
-14.775
-17.018
-18.43
-19.179
-19.49
-19.503
-19.362
-19.231
-19.249
-19.601
-20.482
-22
-24.306
-27.595
-31.858
-36.973
-42.659
-48.295
-53.345
-57.396
-59.801
-60.071
-58.235
-54.577
-49.91
-45.571
-42.363
-40.841
-41.822
-45.436
-50.876
-56.73
-60.457
-59.012
-50.231
-31.905
-1.533
42.131
99.183
168.338
246.397
329.702
414.709
496.48
569.21
627.758
667.333
684.899
679.313
649.456
595.62
520.907
430.029
328.77
224.042
121.673
27.015
-53.662
-116.216
-159.239
-182.806
-189.051
-181.633
-163.88
-139.916
-115.139
-93.185
-76.031
-64.838
-59.185
-57.981
-60.358
-64.647
-68.471
-70.532
-70.329
-67.788
-63.595
-58.415
-52.661
-47.059
-42.49
-39.401
-37.952
-38.07
-39.385
-41.605
-44.554
-47.98
-51.618
-55.252
-58.667
-61.7
-64.29
-66.382
-67.923
-68.891
-69.267
-69.054
-68.303
-67.079
-65.449
-63.476
-61.217
-58.72
-56.045
-53.261
-50.438
-47.649
-44.944
-42.355
-39.907
-37.615
-35.49
-33.534
-31.732
-30.06
-28.497
-27.028
-25.641
-24.329
-23.078
-21.87
-20.689
-19.52
-18.35
-17.167
-15.961
-14.72
-13.437
-12.104
-10.72
-9.281
-7.786
-6.228
-4.604
-2.909
-1.139
0.709
2.638
4.65
6.746
8.926
11.187
13.525
15.937
18.418
20.961
23.561
26.209
28.898
31.62
34.365
37.123
39.885
42.638
45.372
48.076
50.736
53.34
55.877
58.334
60.7
62.962
65.111
67.135
69.023
70.767
72.357
73.784
75.039
76.115
77.004
77.701
78.201
78.499
78.594
78.482
78.164
77.638
76.908
75.973
74.837
73.504
71.977
70.262
68.365
66.293
64.053
61.655
59.107
56.42
53.603
50.668
47.625
44.486
41.262
37.965
34.607
31.201
27.759
24.294
20.818
17.345
13.886
10.455
7.063
3.722
0.443
-2.764
-5.889
-8.922
-11.855
-14.68
-17.39
-19.977
-22.436
-24.762
-26.951
-29
-30.906
-32.668
-34.285
-35.759
-37.089
-38.278
-39.328
-40.243
-41.026
-41.682
-42.217
-42.635
-42.945
-43.152
-43.266
-43.293
-43.243
-43.123
-42.944
-42.712
-42.438
-42.128
-41.792
-41.436
-41.068
-40.695
-40.323
-39.959
-39.607
-39.273
-38.959
-38.67
-38.408
-38.172
-37.965
-37.787
-37.634
-37.507
-37.402
-37.315
-37.243
-37.18
-37.121
-37.059
-36.987
-36.896
-36.779
-36.625
-36.425
-36.169
-35.847
-35.449
-34.965
-34.386
-33.703
-32.906
-31.987
-30.938
-29.752
-28.424
-26.947
-25.316
-23.527
-21.579
-19.47
-17.201
-14.772
-12.186
-9.446
-6.559
-3.532
-0.371
2.913
6.31
9.807
13.391
17.046
20.755
24.501
28.263
32.02
35.749
39.427
43.03
46.533
49.912
53.142
56.202
59.071
61.728
64.153
66.327
68.23
69.844
71.15
72.132
72.774
73.063
72.985
72.536
71.717
70.528
68.97
67.038
64.723
62.025
58.95
55.508
51.71
47.575
43.133
38.43
33.534
28.504
23.394
18.249
13.098
7.986
2.969
-1.892
-6.525
-10.88
-14.932
-18.638
-21.966
-24.906
-27.485
-29.79
-31.954
-34.082
-36.241
-38.468
-40.795
-43.302
-46.103
-49.312
-53.054
-57.371
-62.285
-67.897
-74.16
-80.858
-87.638
-93.869
-98.882
-102.232
-103.563
-102.542
-99.334
-94.349
-88.057
-81.407
-75.244
-70.138
-66.605
-64.747
-63.577
-61.554
-57.25
-48.707
-33.981
-11.238
21.615
65.917
121.082
185.259
256.543
332.047
407.908
479.544
541.079
586.77
612.959
617.396
597.926
553.881
486.763
399.931
299.278
191.917
83.944
-18.953
-110.484
-185.408
-240.701
-275.394
-291.037
-290.841
-277.989
-256.032
-229.641
-203.295
-179.985
-161.36
-147.64
-138.069
-131.915
-128.25
-125.377
-121.494
-115.643
-107.578
-97.683
-86.721
-75.262
-63.812
-53.136
-44.092
-37.232
-32.765
-30.582
-30.352
-31.792
-34.665
-38.672
-43.435
-48.554
-53.694
-58.607
-63.17
-67.306
-70.918
-73.912
-76.189
-77.665
-78.315
-78.162
-77.235
-75.573
-73.246
-70.336
-66.983
-63.373
-59.661
-55.968
-52.376
-48.922
-45.645
-42.585
-39.773
-37.226
-34.947
-32.922
-31.146
-29.618
-28.322
-27.231
-26.294
-25.438
-24.607
-23.761
-22.87
-21.916
-20.883
-19.753
-18.52
-17.186
-15.751
-14.211
-12.562
-10.792
-8.893
-6.865
-4.711
-2.437
-0.049
2.45
5.054
7.759
10.56
13.449
16.424
19.482
22.618
25.823
29.088
32.399
35.743
39.107
42.475
45.831
49.159
52.444
55.67
58.822
61.887
64.848
67.692
70.405
72.971
75.379
77.616
79.667
81.523
83.173
84.607
85.816
86.793
87.531
88.025
88.271
88.268
88.012
87.504
86.744
85.736
84.482
82.989
81.262
79.31
77.141
74.767
72.199
69.448
66.527
63.45
60.229
56.878
53.413
49.847
46.195
42.473
38.695
34.876
31.032
27.177
23.325
19.491
15.688
11.93
8.228
4.596
1.044
-2.416
-5.775
-9.022
-12.149
-15.15
-18.017
-20.745
-23.331
-25.77
-28.062
-30.204
-32.197
-34.041
-35.738
-37.289
-38.699
-39.971
-41.11
-42.12
-43.009
-43.783
-44.448
-45.012
-45.482
-45.867
-46.174
-46.411
-46.586
-46.708
-46.784
-46.822
-46.832
-46.819
-46.793
-46.76
-46.727
-46.699
-46.684
-46.685
-46.706
-46.752
-46.825
-46.928
-47.061
-47.227
-47.424
-47.653
-47.911
-48.197
-48.506
-48.836
-49.18
-49.533
-49.89
-50.243
-50.586
-50.91
-51.208
-51.47
-51.69
-51.857
-51.963
-51.998
-51.953
-51.82
-51.59
-51.254
-50.804
-50.232
-49.532
-48.697
-47.722
-46.6
-45.328
-43.902
-42.32
-40.579
-38.679
-36.62
-34.404
-32.032
-29.511
-26.845
-24.042
-21.111
-18.061
-14.904
-11.655
-8.327
-4.938
-1.506
1.952
5.418
8.869
12.285
15.645
18.928
22.114
25.182
28.111
30.88
33.467
35.851
38.014
39.936
41.6
42.987
44.079
44.86
45.318
45.445
45.233
44.673
43.752
42.464
40.811
38.799
36.442
33.755
30.754
27.464
23.926
20.182
16.282
12.269
8.172
4.022
-0.15
-4.299
-8.372
-12.322
-16.119
-19.745
-23.195
-26.461
-29.533
-32.431
-35.215
-37.961
-40.762
-43.679
-46.738
-49.949
-53.316
-56.871
-60.675
-64.789
-69.264
-74.134
-79.37
-84.971
-90.995
-97.315
-103.637
-109.487
-114.169
-117.067
-117.796
-116.074
-111.67
-104.755
-95.781
-85.523
-75.331
-66.517
-60.111
-56.655
-56.016
-57.164
-58.543
-58.275
-53.631
-41.64
-19.361
15.451
63.401
123.373
193.223
270.121
349.785
426.891
495.204
548.347
581.714
592.539
578.977
540.395
478.351
396.32
299.893
196.196
91.64
-8.052
-96.943
-169.995
-224.273
-258.777
-274.782
-275.406
-263.883
-243.731
-219.498
-195.612
-175.117
-159.742
-149.781
-144.434
-142.844
-143.975
-146.049
-147.13
-146.061
-142.436
-136.516
-129.05
-120.663
-111.848
-103.322
-95.859
-89.906
-85.625
-82.921
-81.471
-81.019
-81.39
-82.364
-83.728
-85.29
-86.858
-88.28
-89.458
-90.306
-90.764
-90.795
-90.367
-89.475
-88.152
-86.446
-84.424
-82.15
-79.678
-77.054
-74.323
-71.537
-68.758
-66.048
-63.461
-61.035
-58.79
-56.738
-54.887
-53.233
-51.759
-50.44
-49.243
-48.142
-47.116
-46.146
-45.215
-44.302
-43.385
-42.444
-41.461
-40.419
-39.303
-38.1
-36.799
-35.391
-33.869
-32.23
-30.47
-28.588
-26.579
-24.44
-22.17
-19.767
-17.231
-14.564
-11.768
-8.849
-5.81
-2.661
0.59
3.934
7.361
10.858
14.414
18.017
21.653
25.307
28.966
32.614
36.237
39.819
43.344
46.799
50.167
53.433
56.582
59.6
62.473
65.186
67.727
70.084
72.244
74.197
75.934
77.447
78.726
79.768
80.565
81.114
81.412
81.458
81.252
80.795
80.087
79.134
77.938
76.506
74.842
72.955
70.851
68.54
66.03
63.333
60.458
57.417
54.223
50.889
47.427
43.851
40.177
36.419
32.591
28.709
24.787
20.842
16.887
12.938
9.009
5.115
1.268
-2.517
-6.228
-9.853
-13.38
-16.8
-20.101
-23.274
-26.311
-29.205
-31.948
-34.534
-36.958
-39.215
-41.303
-43.217
-44.958
-46.524
-47.916
-49.135
-50.183
-51.065
-51.784
-52.346
-52.757
-53.022
-53.151
-53.151
-53.031
-52.799
-52.466
-52.04
-51.533
-50.954
-50.312
-49.619
-48.883
-48.115
-47.324
-46.518
-45.708
-44.9
-44.103
-43.324
-42.57
-41.847
-41.159
-40.511
-39.906
-39.346
-38.832
-38.366
-37.945
-37.568
-37.234
-36.936
-36.673
-36.437
-36.223
-36.023
-35.83
-35.635
-35.428
-35.2
-34.941
-34.641
-34.288
-33.872
-33.383
-32.811
-32.144
-31.374
-30.49
-29.482
-28.344
-27.065
-25.64
-24.062
-22.327
-20.429
-18.369
-16.145
-13.756
-11.205
-8.496
-5.632
-2.621
0.529
3.811
7.213
10.723
14.327
18.009
21.752
25.54
29.352
33.167
36.961
40.714
44.399
47.993
51.472
54.81
57.983
60.97
63.749
66.298
68.597
70.626
72.365
73.798
74.903
75.667
76.076
76.117
75.784
75.077
73.994
72.537
70.707
68.494
65.898
62.927
59.584
55.88
51.834
47.468
42.83
37.981
32.978
27.877
22.728
17.568
12.444
7.406
2.504
-2.193
-6.637
-10.791
-14.606
-18.047
-21.097
-23.767
-26.136
-28.32
-30.423
-32.532
-34.694
-36.961
-39.423
-42.169
-45.306
-48.935
-53.074
-57.79
-63.218
-69.336
-75.987
-82.797
-89.041
-94.064
-97.399
-98.503
-96.998
-92.9
-86.436
-78.51
-70.625
-63.945
-59.44
-57.895
-59.224
-62.643
-66.785
-69.003
-66.062
-54.995
-32.762
2.907
52.767
116.328
191.668
275.162
362.205
447.229
523.817
586.114
629.168
649.462
645.128
615.446
561.499
486.838
396.642
296.83
194.019
94.027
2.209
-75.727
-136.147
-177.996
-201.673
-209.204
-203.916
-188.907
-167.99
-146.157
-126.764
-111.55
-101.496
-96.198
-94.666
-96.168
-99.221
-101.603
-102.111
-100.302
-96.134
-90.337
-83.598
-76.327
-69.24
-63.187
-58.608
-55.692
-54.397
-54.375
-55.358
-57.171
-59.565
-62.302
-65.181
-68.001
-70.614
-72.917
-74.82
-76.256
-77.18
-77.567
-77.414
-76.75
-75.622
-74.097
-72.241
-70.112
-67.769
-65.258
-62.639
-59.978
-57.339
-54.787
-52.364
-50.098
-48.008
-46.107
-44.394
-42.862
-41.491
-40.253
-39.127
-38.094
-37.141
-36.252
-35.41
-34.595
-33.788
-32.969
-32.124
-31.238
-30.296
-29.287
-28.2
-27.027
-25.765
-24.408
-22.953
-21.394
-19.726
-17.943
-16.042
-14.021
-11.877
-9.61
-7.22
-4.709
-2.083
0.655
3.497
6.437
9.466
12.575
15.753
18.988
22.27
25.583
28.915
32.25
35.573
38.867
42.118
45.307
48.42
51.439
54.349
57.136
59.783
62.279
64.608
66.759
68.721
70.482
72.034
73.367
74.475
75.349
75.986
76.381
76.532
76.438
76.097
75.511
74.683
73.616
72.315
70.785
69.034
67.07
64.902
62.542
60
57.29
54.424
51.416
48.281
45.035
41.691
38.266
34.774
31.233
27.655
24.058
20.454
16.86
13.288
9.752
6.267
2.843
-0.506
-3.768
-6.933
-9.99
-12.93
-15.745
-18.425
-20.966
-23.359
-25.601
-27.687
-29.614
-31.38
-32.984
-34.426
-35.706
-36.828
-37.794
-38.61
-39.28
-39.81
-40.208
-40.481
-40.636
-40.683
-40.629
-40.483
-40.253
-39.948
-39.578
-39.152
-38.679
-38.17
-37.633
-37.079
-36.518
-35.958
-35.41
-34.88
-34.377
-33.91
-33.485
-33.11
-32.791
-32.534
-32.344
-32.226
-32.183
-32.217
-32.328
-32.515
-32.777
-33.11
-33.508
-33.965
-34.475
-35.031
-35.625
-36.253
-36.906
-37.578
-38.262
-38.951
-39.637
-40.309
-40.955
-41.561
-42.112
-42.593
-42.988
-43.284
-43.468
-43.527
-43.45
-43.231
-42.858
-42.321
-41.605
-40.693
-39.571
-38.231
-36.674
-34.904
-32.936
-30.793
-28.501
-26.089
-23.579
-20.986
-18.314
-15.553
-12.691
-9.715
-6.625
-3.437
-0.164
3.182
6.596
10.075
13.633
17.296
21.099
25.084
29.275
33.671
38.241
42.924
47.638
52.283
56.78
61.068
65.092
68.803
72.15
75.082
77.531
79.42
80.659
81.149
80.812
79.597
77.496
74.536
70.782
66.34
61.299
55.733
49.714
43.306
36.588
29.655
22.605
15.535
8.558
1.794
-4.644
-10.642
-16.122
-21.026
-25.335
-29.08
-32.279
-34.943
-37.095
-38.777
-40.083
-41.142
-42.077
-42.973
-43.899
-44.942
-46.212
-47.857
-50.02
-52.83
-56.344
-60.576
-65.604
-71.362
-77.643
-84.1
-90.116
-95.019
-98.304
-99.572
-98.467
-95.137
-89.993
-83.498
-76.612
-70.258
-65.104
-61.759
-60.349
-59.81
-58.477
-54.809
-46.643
-31.77
-8.103
26.699
74.021
133.116
201.947
278.382
359.144
439.931
515.673
580.031
627.125
653.392
656.685
635.043
588.205
518.155
428.836
326.708
219.124
112.235
11.785
-75.985
-146.126
-195.995
-225.098
-235.524
-230.823
-214.427
-190.198
-163.008
-137.345
-116.167
-101.008
-91.88
-87.868
-88.045
-91.219
-95.517
-99.061
-100.807
-100.433
-98.22
-94.812
-90.687
-86.232
-82.033
-78.656
-76.358
-75.143
-74.797
-74.962
-75.402
-75.962
-76.464
-76.754
-76.686
-76.137
-75.069
-73.496
-71.459
-69.033
-66.324
-63.476
-60.636
-57.934
-55.477
-53.339
-51.558
-50.142
-49.062
-48.247
-47.659
-47.284
-47.108
-47.129
-47.315
-47.601
-47.912
-48.147
-48.214
-48.041
-47.569
-46.755
-45.59
-44.092
-42.315
-40.351
-38.266
-36.098
-33.874
-31.597
-29.281
-26.949
-24.62
-22.315
-20.054
-17.852
-15.723
-13.682
-11.725
-9.836
-7.981
-6.105
-4.17
-2.152
-0.034
2.188
4.516
6.953
9.494
12.124
14.834
17.615
20.461
23.37
26.334
29.34
32.371
35.407
38.427
41.417
44.359
47.237
50.038
52.747
55.356
57.857
60.242
62.502
64.625
66.601
68.419
70.071
71.546
72.835
73.931
74.826
75.516
75.999
76.271
76.333
76.185
75.828
75.264
74.496
73.53
72.369
71.02
69.49
67.787
65.92
63.898
61.733
59.435
57.016
54.487
51.862
49.15
46.364
43.515
40.615
37.676
34.707
31.723
28.732
25.748
22.78
19.841
16.938
14.084
11.285
8.551
5.889
3.307
0.812
-1.592
-3.897
-6.099
-8.195
-10.179
-12.051
-13.808
-15.45
-16.976
-18.388
-19.686
-20.873
-21.952
-22.925
-23.795
-24.565
-25.24
-25.823
-26.319
-26.731
-27.064
-27.324
-27.515
-27.641
-27.71
-27.725
-27.692
-27.617
-27.507
-27.365
-27.2
-27.016
-26.821
-26.619
-26.418
-26.223
-26.039
-25.872
-25.725
-25.603
-25.509
-25.446
-25.416
-25.42
-25.459
-25.534
-25.644
-25.79
-25.97
-26.182
-26.425
-26.694
-26.986
-27.299
-27.626
-27.963
-28.304
-28.642
-28.973
-29.287
-29.577
-29.835
-30.051
-30.216
-30.32
-30.353
-30.302
-30.158
-29.908
-29.543
-29.052
-28.426
-27.655
-26.73
-25.643
-24.389
-22.959
-21.349
-19.555
-17.574
-15.403
-13.043
-10.496
-7.762
-4.848
-1.759
1.497
4.91
8.471
12.167
15.986
19.912
23.928
28.018
32.162
36.339
40.526
44.699
48.83
52.89
56.852
60.687
64.365
67.858
71.137
74.177
76.958
79.456
81.648
83.512
85.027
86.175
86.943
87.318
87.289
86.851
86
84.741
83.085
81.037
78.603
75.78
72.564
68.955
64.965
60.608
55.9
50.864
45.525
39.927
34.128
28.187
22.157
16.087
10.021
4.02
-1.844
-7.489
-12.829
-17.793
-22.324
-26.381
-29.926
-32.943
-35.419
-37.362
-38.839
-39.935
-40.757
-41.424
-42.039
-42.708
-43.607
-44.994
-47.005
-49.612
-52.593
-55.504
-57.938
-59.644
-60.29
-59.321
-56.443
-51.873
-46.334
-41.234
-37.954
-37.197
-39.587
-45.958
-56.447
-70.11
-84.912
-97.346
-103.648
-101.061
-86.756
-57.633
-11.754
51.298
129.968
220.293
317.451
416.831
512.634
597.962
666.382
712.366
732.617
726.196
693.008
633.882
551.784
451.9
340.804
225.547
111.916
4.828
-90.741
-170.504
-231.355
-272.391
-294.98
-301.302
-293.469
-273.97
-245.646
-211.823
-176.481
-142.382
-111.016
-83.941
-62.123
-46.154
-36.919
-34.208
-36.507
-42.741
-51.713
-61.604
-71.455
-80.39
-86.958
-90.674
-91.836
-90.611
-87.809
-84.657
-81.62
-79.083
-77.647
-77.348
-78.047
-79.637
-81.593
-83.283
-84.458
-84.962
-84.699
-83.78
-82.262
-80.184
-77.707
-74.996
-72.152
-69.254
-66.331
-63.384
-60.453
-57.602
-54.875
-52.311
-49.929
-47.724
-45.696
-43.837
-42.136
-40.572
-39.129
-37.791
-36.548
-35.394
-34.323
-33.324
-32.383
-31.485
-30.609
-29.736
-28.852
-27.943
-26.998
-26.008
-24.967
-23.866
-22.697
-21.452
-20.121
-18.696
-17.166
-15.525
-13.766
-11.886
-9.882
-7.755
-5.506
-3.138
-0.654
1.94
4.64
7.439
10.328
13.3
16.345
19.453
22.611
25.808
29.03
32.263
35.492
38.702
41.877
45.002
48.06
51.036
53.914
56.678
59.313
61.804
64.136
66.297
68.273
70.052
71.623
72.975
74.101
74.992
75.644
76.051
76.21
76.121
75.782
75.195
74.362
73.287
71.975
70.43
68.661
66.675
64.482
62.091
59.514
56.763
53.851
50.789
47.593
44.275
40.85
37.332
33.735
30.073
26.36
22.612
18.842
15.066
11.298
7.551
3.842
0.181
-3.416
-6.94
-10.38
-13.725
-16.967
-20.099
-23.112
-26.002
-28.763
-31.389
-33.877
-36.224
-38.428
-40.488
-42.405
-44.181
-45.817
-47.316
-48.682
-49.918
-51.028
-52.016
-52.885
-53.639
-54.283
-54.823
-55.264
-55.614
-55.88
-56.071
-56.196
-56.265
-56.289
-56.274
-56.23
-56.162
-56.078
-55.982
-55.879
-55.772
-55.667
-55.569
-55.485
-55.423
-55.389
-55.392
-55.434
-55.521
-55.651
-55.824
-56.037
-56.283
-56.56
-56.869
-57.211
-57.596
-58.029
-58.513
-59.043
-59.608
-60.187
-60.75
-61.264
-61.694
-62.01
-62.193
-62.234
-62.14
-61.921
-61.599
-61.178
-60.647
-59.995
-59.206
-58.281
-57.235
-56.1
-54.929
-53.787
-52.749
-51.887
-51.264
-50.904
-50.797
-50.894
-51.107
-51.371
-51.643
-51.884
-52.066
-52.139
-52.028
-51.65
-50.92
-49.728
-47.947
-45.447
-42.09
-37.801
-32.572
-26.46
-19.602
-12.122
-4.12
4.285
12.981
21.824
30.631
39.242
47.522
55.308
62.422
68.661
73.793
77.655
80.156
81.275
81.071
79.599
76.901
73.05
68.142
62.311
55.736
48.555
40.867
32.795
24.484
16.122
7.939
0.115
-7.23
-14.013
-20.196
-25.733
-30.565
-34.663
-38.039
-40.755
-42.909
-44.563
-45.758
-46.566
-47.092
-47.509
-48.023
-48.797
-49.967
-51.664
-53.993
-57.066
-60.988
-65.802
-71.541
-78.211
-85.728
-94.01
-102.934
-112.264
-121.811
-131.397
-140.581
-148.783
-155.424
-159.804
-161.529
-160.557
-156.477
-148.732
-137.374
-122.958
-106.488
-89.374
-72.084
-54.126
-35.679
-17.114
2.152
23.415
49.064
82.234
124.131
174.114
231.919
296.559
365.306
434.387
497.945
548.624
581.288
592.597
579.13
539.615
475.394
389.351
287.454
178.056
68.286
-35.045
-124.516
-195.303
-245.042
-272.82
-280.677
-272.793
-253.088
-226.397
-198.608
-173.608
-153.726
-140.431
-133.338
-131.185
-132.878
-136.473
-139.381
-140.203
-138.335
-133.647
-126.885
-118.811
-109.948
-101.145
-93.373
-87.133
-82.643
-79.876
-78.479
-78.18
-78.802
-80.086
-81.788
-83.703
-85.63
-87.411
-88.941
-90.124
-90.887
-91.183
-90.981
-90.278
-89.099
-87.496
-85.535
-83.279
-80.781
-78.095
-75.259
-72.33
-69.372
-66.449
-63.626
-60.95
-58.446
-56.133
-54.022
-52.111
-50.388
-48.827
-47.396
-46.066
-44.818
-43.634
-42.498
-41.392
-40.293
-39.182
-38.04
-36.85
-35.597
-34.267
-32.848
-31.33
-29.706
-27.972
-26.126
-24.164
-22.082
-19.875
-17.542
-15.078
-12.483
-9.757
-6.899
-3.914
-0.804
2.425
5.763
9.204
12.738
16.353
20.04
23.785
27.575
31.399
35.242
39.091
42.932
46.75
50.532
54.264
57.931
61.52
65.018
68.41
71.684
74.827
77.828
80.674
83.354
85.857
88.175
90.298
92.216
93.924
95.413
96.679
97.716
98.523
99.096
99.434
99.539
99.411
99.052
98.467
97.659
96.633
95.396
93.952
92.309
90.474
88.456
86.263
83.902
81.385
78.719
75.916
72.986
69.94
66.789
63.545
60.219
56.824
53.372
49.877
46.35
42.805
39.254
35.711
32.189
28.698
25.253
21.862
18.538
15.291
12.129
9.061
6.095
3.238
0.497
-2.123
-4.617
-6.98
-9.209
-11.3
-13.253
-15.064
-16.734
-18.262
-19.65
-20.899
-22.012
-22.992
-23.843
-24.57
-25.178
-25.675
-26.067
-26.363
-26.569
-26.697
-26.754
-26.751
-26.697
-26.603
-26.477
-26.33
-26.17
-26.006
-25.846
-25.697
-25.566
-25.46
-25.385
-25.346
-25.346
-25.391
-25.481
-25.62
-25.807
-26.044
-26.329
-26.66
-27.036
-27.451
-27.903
-28.386
-28.894
-29.42
-29.956
-30.494
-31.024
-31.536
-32.02
-32.465
-32.858
-33.188
-33.443
-33.611
-33.682
-33.644
-33.487
-33.201
-32.777
-32.206
-31.481
-30.595
-29.543
-28.319
-26.922
-25.348
-23.599
-21.675
-19.578
-17.312
-14.881
-12.293
-9.555
-6.677
-3.67
-0.544
2.685
6.003
9.393
12.837
16.316
19.811
23.298
26.753
30.154
33.475
36.691
39.779
42.712
45.467
48.023
50.358
52.455
54.294
55.857
57.126
58.088
58.726
59.029
58.985
58.583
57.821
56.702
55.228
53.403
51.23
48.704
45.829
42.615
39.069
35.205
31.043
26.605
21.94
17.108
12.164
7.168
2.164
-2.81
-7.704
-12.465
-17.038
-21.352
-25.364
-29.042
-32.336
-35.207
-37.644
-39.657
-41.33
-42.779
-44.096
-45.356
-46.601
-47.877
-49.289
-50.935
-52.932
-55.394
-58.34
-61.844
-66.065
-70.982
-76.423
-82.001
-86.973
-90.69
-92.73
-92.56
-89.8
-84.493
-76.876
-67.889
-59.051
-51.475
-46.099
-43.729
-44.337
-47.177
-50.919
-52.962
-50.147
-39.606
-18.318
16.123
64.712
127.184
201.781
285.137
372.949
459.886
539.539
605.674
652.839
677.047
676.025
648.546
594.795
517.45
421.453
313.153
199.598
87.103
-18.614
-111.49
-186.199
-239.651
-271.344
-283.122
-278.097
-259.371
-230.355
-195.456
-159.733
-127.531
-101.192
-81.193
-67.269
-59.045
-56.127
-57.755
-61.85
-65.942
-68.83
-70.291
-70.47
-69.681
-67.801
-64.398
-60.096
-56.144
-53.177
-51.447
-50.856
-50.988
-51.805
-53.602
-56.197
-59.025
-61.655
-63.73
-65.139
-66.036
-66.447
-66.269
-65.494
-64.197
-62.488
-60.519
-58.377
-56.067
-53.613
-51.055
-48.45
-45.884
-43.428
-41.118
-38.973
-37.001
-35.203
-33.584
-32.141
-30.859
-29.709
-28.666
-27.713
-26.835
-26.025
-25.271
-24.55
-23.841
-23.122
-22.375
-21.59
-20.756
-19.863
-18.901
-17.865
-16.749
-15.551
-14.268
-12.895
-11.426
-9.855
-8.179
-6.395
-4.503
-2.503
-0.396
1.815
4.125
6.528
9.018
11.589
14.231
16.936
19.696
22.499
25.336
28.194
31.063
33.929
36.781
39.606
42.391
45.124
47.792
50.383
52.885
55.287
57.578
59.745
61.779
63.67
65.407
66.981
68.384
69.607
70.644
71.489
72.135
72.58
72.821
72.854
72.68
72.297
71.708
70.912
69.914
68.716
67.322
65.737
63.967
62.018
59.896
57.609
55.164
52.57
49.833
46.964
43.971
40.863
37.65
34.341
30.948
27.48
23.949
20.365
16.739
13.083
9.408
5.724
2.044
-1.623
-5.265
-8.872
-12.435
-15.944
-19.39
-22.764
-26.059
-29.265
-32.377
-35.387
-38.29
-41.079
-43.748
-46.294
-48.712
-50.997
-53.147
-55.159
-57.032
-58.764
-60.354
-61.804
-63.113
-64.284
-65.319
-66.219
-66.988
-67.63
-68.149
-68.549
-68.837
-69.016
-69.095
-69.079
-68.974
-68.789
-68.528
-68.2
-67.812
-67.37
-66.883
-66.356
-65.797
-65.214
-64.613
-64.002
-63.386
-62.772
-62.164
-61.566
-60.982
-60.411
-59.855
-59.314
-58.787
-58.275
-57.776
-57.289
-56.815
-56.354
-55.905
-55.465
-55.031
-54.598
-54.158
-53.703
-53.224
-52.71
-52.15
-51.532
-50.843
-50.077
-49.223
-48.272
-47.211
-46.021
-44.686
-43.202
-41.565
-39.773
-37.836
-35.759
-33.56
-31.27
-28.918
-26.532
-24.138
-21.739
-19.334
-16.928
-14.525
-12.132
-9.744
-7.334
-4.865
-2.312
0.357
3.169
6.163
9.416
12.992
16.935
21.274
25.996
31.069
36.466
42.146
48.047
54.083
60.125
66.019
71.649
76.895
81.643
85.77
89.11
91.516
92.888
93.145
92.253
90.201
86.971
82.573
77.071
70.557
63.171
55.097
46.485
37.488
28.276
19.01
9.883
1.069
-7.312
-15.144
-22.333
-28.797
-34.446
-39.223
-43.129
-46.177
-48.413
-49.953
-50.918
-51.449
-51.733
-51.903
-52.07
-52.362
-52.887
-53.774
-55.177
-57.228
-60.006
-63.578
-68.03
-73.31
-79.239
-85.451
-91.331
-96.253
-99.723
-101.363
-100.855
-98.327
-94.202
-88.984
-83.645
-79.069
-75.806
-74.304
-74.566
-75.462
-75.27
-72.399
-64.734
-50.221
-27.103
6.6
52.08
108.503
173.818
245.931
321.786
397.535
468.842
530.148
575.931
602.781
608.586
591.324
550.741
488.54
407.791
313.985
214.044
113.814
18.974
-64.211
-131.5
-180.727
-211.021
-224.041
-223.195
-211.665
-193.507
-173.808
-156.043
-142.341
-134.102
-131.076
-132.202
-136.578
-142.512
-147.687
-150.808
-151.271
-148.903
-144.336
-138.286
-131.264
-124.078
-117.668
-112.525
-108.887
-106.774
-105.896
-106.027
-107.015
-108.619
-110.601
-112.792
-115.027
-117.168
-119.126
-120.772
-122
-122.751
-122.98
-122.676
-121.852
-120.539
-118.791
-116.674
-114.254
-111.586
-108.723
-105.709
-102.602
-99.467
-96.368
-93.369
-90.516
-87.84
-85.362
-83.095
-81.038
-79.181
-77.505
-75.982
-74.592
-73.318
-72.146
-71.061
-70.045
-69.079
-68.144
-67.222
-66.295
-65.347
-64.363
-63.329
-62.234
-61.067
-59.822
-58.492
-57.068
-55.544
-53.912
-52.164
-50.294
-48.296
-46.168
-43.906
-41.509
-38.978
-36.316
-33.528
-30.618
-27.594
-24.463
-21.235
-17.921
-14.532
-11.079
-7.577
-4.04
-0.482
3.081
6.635
10.163
13.649
17.078
20.432
23.696
26.854
29.89
32.791
35.54
38.126
40.534
42.753
44.772
46.582
48.173
49.538
50.672
51.57
52.229
52.648
52.826
52.765
52.468
51.939
51.184
50.208
49.019
47.625
46.037
44.265
42.318
40.21
37.951
35.555
33.035
30.405
27.679
24.87
21.993
19.063
16.093
13.099
10.093
7.089
4.101
1.142
-1.777
-4.644
-7.447
-10.177
-12.824
-15.379
-17.836
-20.188
-22.429
-24.554
-26.561
-28.446
-30.207
-31.844
-33.354
-34.74
-36
-37.137
-38.154
-39.052
-39.837
-40.512
-41.082
-41.553
-41.931
-42.223
-42.435
-42.575
-42.648
-42.663
-42.627
-42.546
-42.43
-42.285
-42.12
-41.942
-41.758
-41.577
-41.405
-41.247
-41.11
-40.999
-40.919
-40.873
-40.866
-40.902
-40.983
-41.113
-41.293
-41.526
-41.811
-42.148
-42.535
-42.97
-43.449
-43.966
-44.515
-45.091
-45.686
-46.293
-46.907
-47.521
-48.129
-48.724
-49.299
-49.846
-50.355
-50.814
-51.211
-51.53
-51.756
-51.876
-51.875
-51.743
-51.468
-51.04
-50.453
-49.698
-48.766
-47.644
-46.315
-44.767
-42.994
-40.995
-38.778
-36.356
-33.753
-30.994
-28.109
-25.121
-22.044
-18.881
-15.624
-12.26
-8.779
-5.182
-1.485
2.298
6.156
10.083
14.076
18.148
22.321
26.629
31.115
35.8
40.68
45.72
50.856
56.008
61.079
65.991
70.684
75.103
79.199
82.922
86.221
89.029
91.271
92.855
93.677
93.665
92.778
91.014
88.409
85.027
80.969
76.323
71.166
65.569
59.591
53.302
46.783
40.134
33.457
26.868
20.495
14.446
8.818
3.681
-0.916
-4.954
-8.456
-11.435
-13.904
-15.873
-17.364
-18.442
-19.193
-19.724
-20.117
-20.429
-20.747
-21.173
-21.809
-22.774
-24.175
-26.043
-28.435
-31.46
-35.061
-39.074
-43.17
-46.737
-49.24
-50.271
-49.294
-45.903
-40.139
-32.292
-23.127
-13.89
-5.437
1.522
6.029
7.745
7.23
5.69
5.257
8.596
17.948
35.642
64.438
106.135
160.975
227.778
303.939
385.876
469.372
549.184
618.815
671.959
703.958
711.742
693.458
648.749
579.28
488.888
383.821
271.666
159.322
53.114
-40.619
-116.639
-171.933
-205.732
-219.731
-217.474
-202.634
-179.14
-151.865
-125.358
-102.625
-85.281
-73.464
-66.197
-62.463
-61.037
-59.918
-57.181
-51.821
-43.554
-32.842
-20.475
-7.037
6.66
19.518
30.399
38.401
43.29
45.324
44.538
40.834
34.578
26.076
16.106
5.892
-4.633
-16.032
-28.371
-41.944
