Name,Criss Capps
Date of Birth,"Feb 5, 1952"
Recorded Date,2025-03-05 10:47:58 -0400
Classification,Sinus Rhythm
Symptoms,
Software Version,1.90
Device,"Watch5,4"
Sample Rate,512.844 hertz


Lead,Lead I
Unit,µV

17.723
16.36
15.195
14.238
13.496
12.973
12.672
12.596
12.746
13.125
13.731
14.56
15.604
16.851
18.287
19.897
21.665
23.569
25.588
27.698
29.875
32.092
34.325
36.545
38.726
40.839
42.859
44.759
46.516
48.106
49.506
50.694
51.647
52.347
52.775
52.915
52.753
52.275
51.474
50.349
48.898
47.122
45.022
42.592
39.833
36.756
33.366
29.677
25.71
21.485
17.044
12.439
7.719
2.934
-1.87
-6.66
-11.391
-16.011
-20.476
-24.723
-28.707
-32.4
-35.763
-38.764
-41.398
-43.679
-45.67
-47.472
-49.168
-50.831
-52.523
-54.296
-56.246
-58.472
-61.061
-64.117
-67.659
-71.718
-76.423
-81.759
-87.57
-93.589
-99.262
-104.046
-107.719
-109.901
-110.058
-108.085
-103.992
-98.135
-91.668
-85.414
-79.49
-74.32
-70.694
-68.595
-67.66
-67.105
-63.16
-52.804
-36.362
-12.22
18.267
52.88
95.886
146.853
206.348
276.683
352.528
433.407
514.339
584.295
634.39
647.978
615.576
537.017
415.256
265.018
101.23
-61.814
-205.323
-316.68
-389.268
-424.57
-435.659
-435.04
-429.525
-419.664
-399.626
-366.928
-324.361
-276.943
-231.184
-190.66
-156.412
-129.621
-110.292
-97.569
-90.559
-87.85
-88.13
-90.76
-94.619
-97.823
-99.278
-98.671
-96.066
-92.094
-87.26
-81.692
-75.994
-71.268
-68.149
-66.867
-67.337
-69.028
-71.531
-74.656
-78.037
-81.167
-83.678
-85.323
-86.019
-85.887
-85.029
-83.489
-81.344
-78.682
-75.611
-72.262
-68.762
-65.231
-61.766
-58.446
-55.334
-52.493
-49.976
-47.825
-46.054
-44.648
-43.588
-42.857
-42.442
-42.333
-42.498
-42.887
-43.445
-44.107
-44.826
-45.565
-46.286
-46.955
-47.54
-48.017
-48.371
-48.597
-48.687
-48.625
-48.395
-47.979
-47.367
-46.551
-45.523
-44.278
-42.808
-41.106
-39.167
-36.989
-34.565
-31.891
-28.963
-25.776
-22.328
-18.622
-14.659
-10.447
-5.991
-1.3
3.616
8.745
14.074
19.589
25.276
31.12
37.104
43.21
49.42
55.716
62.077
68.484
74.914
81.346
87.758
94.129
100.434
106.652
112.76
118.735
124.555
130.197
135.642
140.866
145.851
150.576
155.024
159.176
163.016
166.529
169.701
172.518
174.971
177.049
178.743
180.047
180.954
181.461
181.565
181.264
180.56
179.452
177.946
176.047
173.761
171.098
168.067
164.68
160.952
156.897
152.532
147.873
142.941
137.755
132.336
126.705
120.885
114.899
108.77
102.521
96.175
89.757
83.289
76.793
70.294
63.811
57.368
50.984
44.68
38.475
32.387
26.435
20.635
15.001
9.548
4.288
-0.767
-5.609
-10.228
-14.618
-18.775
-22.694
-26.373
-29.812
-33.01
-35.971
-38.697
-41.193
-43.464
-45.515
-47.355
-48.989
-50.427
-51.677
-52.747
-53.646
-54.383
-54.968
-55.41
-55.719
-55.905
-55.977
-55.944
-55.817
-55.605
-55.315
-54.957
-54.54
-54.069
-53.553
-52.998
-52.409
-51.792
-51.152
-50.492
-49.816
-49.126
-48.423
-47.71
-46.986
-46.253
-45.511
-44.76
-43.999
-43.229
-42.45
-41.663
-40.866
-40.061
-39.248
-38.427
-37.599
-36.766
-35.927
-35.084
-34.238
-33.391
-32.543
-31.697
-30.854
-30.017
-29.187
-28.368
-27.561
-26.77
-25.998
-25.249
-24.526
-23.834
-23.176
-22.558
-21.984
-21.457
-20.983
-20.565
-20.208
-19.914
-19.687
-19.531
-19.446
-19.436
-19.5
-19.641
-19.858
-20.152
-20.521
-20.964
-21.48
-22.066
-22.721
-23.443
-24.226
-25.069
-25.968
-26.918
-27.914
-28.952
-30.026
-31.132
-32.263
-33.414
-34.58
-35.755
-36.934
-38.11
-39.28
-40.438
-41.578
-42.696
-43.787
-44.847
-45.871
-46.856
-47.799
-48.698
-49.552
-50.359
-51.118
-51.829
-52.492
-53.108
-53.677
-54.2
-54.68
-55.117
-55.514
-55.874
-56.2
-56.495
-56.762
-57.006
-57.228
-57.432
-57.618
-57.791
-57.949
-58.094
-58.223
-58.334
-58.427
-58.505
-58.57
-58.622
-58.663
-58.691
-58.709
-58.716
-58.71
-58.684
-58.628
-58.53
-58.383
-58.183
-57.928
-57.614
-57.235
-56.777
-56.235
-55.599
-54.859
-54.005
-53.017
-51.873
-50.573
-49.123
-47.537
-45.845
-44.061
-42.197
-40.27
-38.281
-36.244
-34.182
-32.101
-30.015
-27.923
-25.799
-23.654
-21.513
-19.379
-17.288
-15.207
-12.991
-10.664
-8.379
-6.243
-4.447
-2.98
-1.518
-0.002
1.369
2.734
4.396
6.737
10.407
15.365
20.77
26.173
31.416
36.078
39.744
41.759
41.043
37.514
32.128
25.514
18.113
10.387
2.537
-4.947
-11.141
-15.879
-19.745
-23.113
-26.28
-29.416
-32.36
-35.141
-38.074
-41.139
-44.025
-46.537
-48.49
-49.816
-50.661
-51.096
-51.097
-50.735
-50.13
-49.394
-48.693
-48.157
-47.868
-47.952
-48.513
-49.695
-51.71
-54.659
-58.508
-63.07
-67.935
-72.65
-76.859
-80.102
-81.788
-81.552
-79.298
-75.418
-70.924
-66.901
-64.22
-63.706
-66.168
-72.003
-80.983
-91.843
-102.14
-108.949
-109.341
-100.402
-79.222
-43.341
8.669
76.51
157.997
249.381
345.92
442.133
531.19
605.479
658.266
684.096
680.59
649.314
590.509
504.422
391.961
252.167
93.738
-67.008
-213.669
-327.187
-401.589
-444.515
-463.616
-469.589
-465.964
-447.117
-412.479
-363.514
-304.271
-243.686
-187.313
-138.125
-99.534
-72.736
-57.434
-53.187
-58.189
-69.518
-84.911
-101.811
-116.846
-127.96
-134.299
-135.494
-132.255
-125.804
-117.001
-107.133
-97.987
-90.507
-85.101
-81.913
-80.452
-80.195
-80.835
-81.846
-82.592
-82.752
-82.133
-80.651
-78.461
-75.663
-72.307
-68.532
-64.476
-60.262
-56.012
-51.809
-47.705
-43.767
-40.052
-36.59
-33.412
-30.523
-27.93
-25.653
-23.699
-22.067
-20.748
-19.724
-18.97
-18.451
-18.126
-17.95
-17.879
-17.874
-17.905
-17.945
-17.969
-17.963
-17.91
-17.791
-17.588
-17.281
-16.851
-16.28
-15.551
-14.649
-13.562
-12.278
-10.786
-9.075
-7.135
-4.957
-2.532
0.152
3.101
6.323
9.823
13.601
17.658
21.992
26.599
31.472
36.604
41.985
47.605
53.451
59.51
65.767
72.205
78.808
85.556
92.43
99.408
106.47
113.592
120.75
127.922
135.081
142.203
149.263
156.234
163.092
169.811
176.364
182.729
188.879
194.791
200.441
205.805
210.862
215.591
219.973
223.989
227.623
230.861
233.688
236.093
238.068
239.602
240.69
241.326
241.508
241.234
240.505
239.323
237.693
235.619
233.112
230.18
226.834
223.089
218.959
214.461
209.612
204.432
198.942
193.164
187.12
180.835
174.335
167.646
160.793
153.805
146.707
139.527
132.292
125.026
117.757
110.509
103.306
96.171
89.129
82.199
75.404
68.764
62.295
56.017
49.945
44.093
38.474
33.1
27.98
23.125
18.539
14.231
10.202
6.457
2.995
-0.183
-3.081
-5.702
-8.051
-10.135
-11.962
-13.541
-14.88
-15.99
-16.883
-17.569
-18.059
-18.366
-18.503
-18.481
-18.313
-18.012
-17.59
-17.062
-16.438
-15.732
-14.956
-14.121
-13.239
-12.322
-11.38
-10.424
-9.464
-8.508
-7.568
-6.65
-5.761
-4.909
-4.1
-3.337
-2.626
-1.969
-1.369
-0.829
-0.349
0.069
0.424
0.715
0.943
1.107
1.207
1.244
1.219
1.132
0.985
0.779
0.515
0.196
-0.177
-0.603
-1.078
-1.6
-2.167
-2.776
-3.424
-4.108
-4.824
-5.57
-6.344
-7.142
-7.963
-8.804
-9.664
-10.541
-11.433
-12.339
-13.258
-14.187
-15.125
-16.071
-17.023
-17.978
-18.935
-19.892
-20.846
-21.796
-22.738
-23.671
-24.591
-25.498
-26.389
-27.261
-28.114
-28.946
-29.755
-30.541
-31.303
-32.04
-32.752
-33.439
-34.1
-34.735
-35.344
-35.927
-36.484
-37.014
-37.517
-37.994
-38.445
-38.87
-39.271
-39.648
-40.002
-40.336
-40.65
-40.948
-41.231
-41.503
-41.765
-42.02
-42.272
-42.522
-42.774
-43.029
-43.29
-43.559
-43.836
-44.123
-44.42
-44.727
-45.045
-45.372
-45.709
-46.053
-46.403
-46.757
-47.114
-47.472
-47.826
-48.175
-48.515
-48.841
-49.15
-49.437
-49.697
-49.924
-50.112
-50.254
-50.345
-50.378
-50.345
-50.24
-50.056
-49.787
-49.427
-48.969
-48.408
-47.74
-46.96
-46.066
-45.054
-43.925
-42.675
-41.307
-39.819
-38.216
-36.499
-34.674
-32.744
-30.715
-28.595
-26.391
-24.113
-21.77
-19.375
-16.94
-14.479
-12.007
-9.541
-7.097
-4.693
-2.346
-0.075
2.102
4.17
6.11
7.909
9.55
11.016
12.292
13.365
14.222
14.85
15.237
15.372
15.248
14.865
14.221
13.315
12.146
10.706
8.996
7.023
4.795
2.323
-0.378
-3.289
-6.378
-9.596
-12.894
-16.227
-19.557
-22.856
-26.087
-29.208
-32.173
-34.933
-37.454
-39.719
-41.707
-43.395
-44.787
-45.9
-46.795
-47.586
-48.369
-49.227
-50.234
-51.431
-52.883
-54.686
-56.917
-59.65
-62.941
-66.774
-71.179
-76.247
-81.896
-87.926
-94
-99.523
-104.001
-107.137
-108.486
-107.554
-104.219
-98.507
-90.793
-82.129
-73.282
-64.668
-57.052
-51.086
-46.779
-43.94
-41.597
-37.487
-29.808
-17.209
2.527
31.493
70.961
121.876
182.102
246.092
309.476
369.074
424.727
478.622
527.826
564.175
574.437
544.659
470.127
353.65
204.858
39.902
-127.331
-280.808
-401.918
-481.785
-517.612
-516.322
-496.281
-468.874
-439.237
-408.284
-369.702
-322.212
-270.156
-217.939
-171.678
-135.631
-110.135
-94.364
-87.122
-86.696
-91.251
-99.256
-108.578
-116.448
-121.352
-122.808
-120.663
-115.556
-108.352
-99.575
-90.265
-81.946
-75.417
-70.978
-68.645
-67.877
-68.183
-69.317
-70.825
-72.131
-72.898
-72.879
-71.978
-70.336
-68.043
-65.143
-61.728
-57.879
-53.683
-49.264
-44.739
-40.216
-35.799
-31.556
-27.54
-23.8
-20.376
-17.31
-14.623
-12.306
-10.345
-8.73
-7.453
-6.512
-5.887
-5.528
-5.379
-5.377
-5.468
-5.618
-5.79
-5.948
-6.065
-6.112
-6.074
-5.944
-5.714
-5.364
-4.878
-4.234
-3.416
-2.418
-1.23
0.156
1.747
3.552
5.577
7.827
10.307
13.024
15.985
19.195
22.659
26.376
30.344
34.558
39.012
43.7
48.61
53.73
59.048
64.55
70.22
76.042
82
88.074
94.245
100.494
106.798
113.137
119.487
125.825
132.129
138.373
144.535
150.591
156.516
162.287
167.88
173.273
178.444
183.369
188.028
192.4
196.467
200.21
203.613
206.66
209.34
211.639
213.548
215.06
216.168
216.869
217.158
217.037
216.504
215.564
214.221
212.481
210.351
207.843
204.966
201.734
198.161
194.264
190.059
185.565
180.803
175.792
170.555
165.115
159.495
153.719
147.812
141.799
135.705
129.554
123.371
117.181
111.005
104.868
98.791
92.793
86.896
81.116
75.472
69.979
64.651
59.503
54.545
49.789
45.244
40.917
36.816
32.945
29.309
25.909
22.747
19.822
17.133
14.678
12.452
10.45
8.666
7.093
5.723
4.546
3.553
2.735
2.08
1.579
1.219
0.991
0.884
0.888
0.991
1.186
1.46
1.807
2.216
2.679
3.189
3.736
4.314
4.916
5.535
6.163
6.796
7.428
8.054
8.669
9.269
9.85
10.41
10.946
11.455
11.938
12.392
12.817
13.214
13.583
13.923
14.236
14.523
14.784
15.019
15.229
15.415
15.576
15.712
15.824
15.911
15.973
16.01
16.022
16.008
15.968
15.903
15.813
15.698
15.559
15.397
15.211
15.004
14.776
14.526
14.256
13.967
13.657
13.327
12.976
12.605
12.214
11.8
11.365
10.908
10.429
9.929
9.407
8.865
8.304
7.725
7.129
6.519
5.897
5.263
4.621
3.971
3.315
2.655
1.992
1.326
0.658
-0.012
-0.685
-1.36
-2.038
-2.719
-3.405
-4.096
-4.792
-5.494
-6.202
-6.916
-7.638
-8.366
-9.103
-9.847
-10.6
-11.362
-12.135
-12.921
-13.72
-14.535
-15.367
-16.22
-17.094
-17.992
-18.917
-19.869
-20.85
-21.862
-22.904
-23.977
-25.08
-26.211
-27.37
-28.552
-29.755
-30.977
-32.212
-33.457
-34.707
-35.958
-37.205
-38.444
-39.668
-40.874
-42.056
-43.207
-44.323
-45.396
-46.422
-47.392
-48.299
-49.136
-49.896
-50.572
-51.156
-51.641
-52.021
-52.288
-52.438
-52.465
-52.364
-52.133
-51.767
-51.266
-50.629
-49.858
-48.954
-47.92
-46.759
-45.477
-44.08
-42.573
-40.965
-39.263
-37.476
-35.613
-33.685
-31.703
-29.679
-27.624
-25.554
-23.484
-21.433
-19.417
-17.454
-15.562
-13.76
-12.065
-10.495
-9.062
-7.778
-6.657
-5.71
-4.95
-4.39
-4.04
-3.906
-3.996
-4.318
-4.871
-5.655
-6.661
-7.879
-9.305
-10.939
-12.785
-14.847
-17.123
-19.61
-22.299
-25.172
-28.205
-31.363
-34.592
-37.843
-41.072
-44.241
-47.32
-50.28
-53.08
-55.673
-58.011
-60.049
-61.748
-63.077
-64.022
-64.607
-64.883
-64.936
-64.872
-64.777
-64.74
-64.871
-65.272
-66.052
-67.338
-69.213
-71.784
-75.233
-79.597
-84.783
-90.548
-96.347
-101.621
-105.955
-108.784
-109.51
-108.036
-104.542
-99.668
-94.85
-91.252
-89.637
-91.011
-96.003
-104.181
-114.575
-125.174
-132.582
-133.882
-126.402
-107.174
-74.289
-26.919
34.997
109.405
192.398
278.714
360.719
432.225
489.006
528.791
553.068
559.469
542.763
497.562
416.829
299.621
150.797
-19.242
-192.985
-349.301
-466.287
-532.462
-549.055
-528.869
-493.747
-457.407
-424.95
-396.208
-365.001
-330.505
-296.139
-264.761
-240.577
-225.373
-217.652
-215.416
-215.981
-216.414
-215.345
-212.451
-207.337
-199.705
-189.763
-178.045
-165.707
-154.496
-145.402
-138.664
-134.441
-132.713
-133.359
-136.238
-140.824
-146.227
-151.802
-157.177
-162.116
-166.557
-170.39
-173.424
-175.574
-176.859
-177.319
-177.007
-175.954
-174.156
-171.652
-168.542
-164.96
-161.07
-157.037
-152.996
-149.048
-145.267
-141.719
-138.465
-135.554
-133.008
-130.825
-128.987
-127.481
-126.299
-125.422
-124.82
-124.442
-124.228
-124.119
-124.058
-124.003
-123.918
-123.774
-123.543
-123.208
-122.754
-122.176
-121.473
-120.639
-119.666
-118.547
-117.277
-115.853
-114.278
-112.552
-110.678
-108.654
-106.478
-104.143
-101.646
-98.982
-96.151
-93.151
-89.982
-86.649
-83.162
-79.535
-75.782
-71.914
-67.937
-63.854
-59.676
-55.419
-51.108
-46.779
-42.462
-38.177
-33.947
-29.785
-25.696
-21.673
-17.682
-13.67
-9.587
-5.402
-1.109
3.289
7.79
12.419
17.223
22.254
27.543
33.093
38.884
44.886
51.074
57.376
63.617
69.655
75.422
81.002
86.675
92.74
99.361
106.569
114.317
122.24
129.702
135.821
139.311
138.957
133.964
124.124
109.87
92.466
73.834
56.301
42.763
36.044
38.342
50.8
73.387
105.011
143.626
186.473
229.938
269.985
302.98
326.47
339.28
340.944
331.679
312.587
285.952
255.326
224.632
196.856
173.805
157.019
147.977
147.528
155.468
169.832
187.397
205.397
222.195
236.398
246.458
250.992
249.009
240.992
229.022
215.229
200.877
186.808
173.756
162.542
154.209
149.06
146.245
144.619
143.41
142.247
141.062
139.731
137.811
135.017
131.509
127.672
123.861
120.235
116.744
113.307
109.963
106.787
103.806
100.979
98.228
95.507
92.823
90.214
87.721
85.36
83.129
81.02
79.028
77.156
75.408
73.78
72.263
70.839
69.49
68.2
66.962
65.766
64.605
63.469
62.349
61.235
60.124
59.017
57.911
56.805
55.692
54.566
53.425
52.267
51.092
49.9
48.69
47.461
46.214
44.951
43.673
42.382
41.078
39.762
38.435
37.099
35.756
34.41
33.063
31.719
30.381
29.053
27.738
26.44
25.161
23.905
22.673
21.467
20.289
19.142
18.027
16.946
15.9
14.892
13.923
12.994
12.107
11.262
10.46
9.704
8.992
8.326
7.708
7.137
6.614
6.14
5.713
5.334
5
4.711
4.465
4.259
4.091
3.957
3.855
3.783
3.736
3.713
3.71
3.724
3.752
3.791
3.837
3.887
3.936
3.982
4.02
4.048
4.062
4.058
4.031
3.979
3.898
3.784
3.634
3.442
3.205
2.922
2.59
2.208
1.776
1.294
0.764
0.19
-0.424
-1.075
-1.76
-2.474
-3.213
-3.972
-4.75
-5.543
-6.348
-7.158
-7.967
-8.766
-9.545
-10.296
-11.008
-11.67
-12.27
-12.799
-13.249
-13.615
-13.891
-14.067
-14.131
-14.065
-13.86
-13.512
-13.018
-12.376
-11.592
-10.675
-9.648
-8.548
-7.399
-6.214
-5
-3.748
-2.455
-1.121
0.259
1.689
3.175
4.729
6.351
8.033
9.786
11.63
13.608
15.791
18.216
20.89
23.807
26.937
30.237
33.664
37.144
40.585
43.904
47.025
49.89
52.466
54.693
56.494
57.782
58.437
58.376
57.557
55.942
53.521
50.316
46.362
41.741
36.586
31.006
25.104
18.979
12.7
6.358
0.056
-6.107
-12.015
-17.566
-22.681
-27.271
-31.256
-34.604
-37.299
-39.363
-40.882
-41.948
-42.65
-43.118
-43.447
-43.712
-44.014
-44.443
-45.095
-46.093
-47.537
-49.51
-52.135
-55.553
-59.8
-64.784
-70.208
-75.566
-80.387
-84.302
-86.908
-87.718
-86.424
-83.09
-78.248
-72.979
-68.298
-64.682
-62.491
-62.264
-64.244
-68.033
-72.368
-74.772
-72.656
-64.415
-48.371
-22.397
15.376
66.587
129.789
199.705
271.852
342.535
412.73
488.322
567.749
643.507
700.69
716.711
681.019
594.313
465.285
313.488
154.639
1.348
-131.339
-233.693
-300.223
-332.481
-343.083
-344.141
-342.528
-339.583
-329.748
-310.582
-284.946
-256.375
-229.15
-205.299
-184.116
-165.679
-150.964
-139.643
-130.934
-125.016
-122.172
-123.221
-129.504
-138.812
-147.524
-155.532
-161.789
-168.165
-177.529
-184.083
-183.812
-173.033
-147.624
-114.752
-81.054
-51.051
-30.679
-17.81
-9.818
-5.975
-3.706
-3.309
-5.154
-8.317
-12.689
-17.633
-22.541
-27.457
-32.397
-37.474
-42.911
-48.656
-54.543
-60.41
-66.042
-71.319
-76.14
-80.347
-83.767
-86.23
-87.62
-87.916
-87.142
-85.33
-82.547
-78.901
-74.559
-69.754
-64.721
-59.631
-54.61
-49.73
-45.052
-40.649
-36.593
-32.952
-29.776
-27.087
-24.896
-23.206
-22
-21.226
-20.793
-20.561
-20.386
-20.157
-19.796
-19.249
-18.476
-17.433
-16.079
-14.384
-12.331
-9.906
-7.092
-3.875
-0.24
3.807
8.241
13.017
18.084
23.405
28.95
34.698
40.628
46.723
52.962
59.333
65.828
72.433
79.127
85.883
92.674
99.473
106.26
113.012
119.71
126.33
132.846
139.233
145.464
151.511
157.347
162.94
168.259
173.275
177.962
182.297
186.258
189.825
192.98
195.706
197.989
199.818
201.182
202.072
202.48
202.402
201.836
200.782
199.242
197.221
194.727
191.77
188.361
184.514
180.248
175.578
170.527
165.115
159.367
153.306
146.96
140.357
133.524
126.492
119.292
111.953
104.506
96.982
89.412
81.824
74.248
66.712
59.244
51.869
44.615
37.505
30.562
23.81
17.267
10.953
4.885
-0.922
-6.454
-11.7
-16.651
-21.297
-25.634
-29.657
-33.363
-36.752
-39.823
-42.581
-45.028
-47.172
-49.019
-50.578
-51.859
-52.872
-53.63
-54.145
-54.431
-54.502
-54.372
-54.056
-53.571
-52.93
-52.151
-51.25
-50.241
-49.142
-47.967
-46.731
-45.448
-44.134
-42.802
-41.463
-40.131
-38.817
-37.532
-36.286
-35.089
-33.949
-32.873
-31.87
-30.945
-30.104
-29.35
-28.688
-28.121
-27.65
-27.279
-27.006
-26.833
-26.759
-26.783
-26.903
-27.118
-27.423
-27.815
-28.291
-28.847
-29.477
-30.178
-30.943
-31.769
-32.65
-33.581
-34.556
-35.57
-36.618
-37.694
-38.793
-39.91
-41.039
-42.176
-43.315
-44.452
-45.582
-46.699
-47.801
-48.883
-49.939
-50.967
-51.964
-52.924
-53.847
-54.728
-55.566
-56.359
-57.106
-57.806
-58.457
-59.059
-59.611
-60.115
-60.569
-60.974
-61.331
-61.64
-61.903
-62.119
-62.292
-62.421
-62.51
-62.559
-62.57
-62.547
-62.49
-62.404
-62.29
-62.153
-61.994
-61.819
-61.629
-61.43
-61.224
-61.016
-60.808
-60.603
-60.405
-60.216
-60.039
-59.876
-59.729
-59.601
-59.492
-59.404
-59.339
-59.296
-59.279
-59.285
-59.316
-59.371
-59.451
-59.553
-59.678
-59.824
-59.989
-60.171
-60.367
-60.574
-60.789
-61.007
-61.223
-61.432
-61.629
-61.809
-61.965
-62.091
-62.182
-62.231
-62.233
-62.182
-62.072
-61.896
-61.65
-61.328
-60.924
-60.435
-59.855
-59.182
-58.41
-57.538
-56.561
-55.479
-54.289
-52.99
-51.58
-50.06
-48.43
-46.692
-44.848
-42.9
-40.854
-38.713
-36.485
-34.176
-31.794
-29.346
-26.843
-24.294
-21.709
-19.102
-16.484
-13.868
-11.268
-8.7
-6.178
-3.717
-1.332
0.963
3.152
5.223
7.164
8.96
10.601
12.075
13.367
14.465
15.36
16.041
16.499
16.725
16.71
16.446
15.935
15.174
14.164
12.904
11.385
9.607
7.58
5.315
2.828
0.139
-2.732
-5.753
-8.878
-12.058
-15.242
-18.386
-21.461
-24.435
-27.264
-29.905
-32.306
-34.428
-36.263
-37.806
-39.054
-40.019
-40.724
-41.226
-41.631
-42.05
-42.594
-43.362
-44.432
-45.878
-47.768
-50.179
-53.191
-56.851
-61.184
-66.187
-71.809
-78.026
-84.808
-91.954
-99.136
-105.885
-111.566
-115.636
-117.673
-117.145
-113.628
-107.044
-97.506
-85.678
-72.726
-59.605
-47.293
-36.832
-28.682
-22.748
-18.422
-13.992
-7.214
4.182
23.084
52.214
93.469
146.224
206.909
271.647
335.992
399.561
465.357
529.775
585.939
620.886
615.537
562.736
463.908
325.766
165.546
-2.415
-164.906
-302.977
-403.403
-459.862
-474.958
-464.392
-444.138
-422.985
-402.383
-377.111
-344.313
-306.414
-268.004
-234.453
-207.974
-188.178
-174.648
-165.907
-160.218
-155.871
-150.904
-144.35
-136.233
-126.57
-115.19
-102.328
-88.572
-74.978
-62.924
-53.109
-45.622
-40.48
-37.696
-37.213
-38.854
-42.129
-46.281
-50.77
-55.308
-59.682
-63.721
-67.219
-69.965
-71.867
-72.959
-73.293
-72.889
-71.76
-69.912
-67.393
-64.311
-60.783
-56.922
-52.842
-48.642
-44.43
-40.336
-36.473
-32.918
-29.725
-26.916
-24.495
-22.467
-20.827
-19.547
-18.592
-17.919
-17.481
-17.241
-17.157
-17.182
-17.265
-17.348
-17.381
-17.33
-17.164
-16.864
-16.409
-15.781
-14.97
-13.972
-12.783
-11.397
-9.808
-8.004
-5.978
-3.726
-1.246
1.464
4.407
7.585
11
14.653
18.542
22.668
27.03
31.627
36.454
41.507
46.776
52.25
57.917
63.766
69.78
75.943
82.237
88.644
95.146
101.722
108.354
115.018
121.695
128.362
134.996
141.575
148.075
154.472
160.744
166.868
172.819
178.575
184.114
189.413
194.452
199.21
203.667
207.804
211.605
215.051
218.129
220.823
223.122
225.014
226.491
227.545
228.17
228.363
228.122
227.447
226.34
224.804
222.845
220.47
217.687
214.506
210.941
207.004
202.712
198.08
193.128
187.875
182.342
176.551
170.524
164.284
157.857
151.265
144.536
137.693
130.764
123.772
116.745
109.708
102.686
95.702
88.782
81.948
75.221
68.624
62.174
55.892
49.793
43.894
38.209
32.752
27.532
22.561
17.846
13.395
9.211
5.3
1.662
-1.701
-4.791
-7.609
-10.159
-12.446
-14.475
-16.252
-17.786
-19.086
-20.16
-21.02
-21.676
-22.141
-22.425
-22.543
-22.507
-22.329
-22.022
-21.6
-21.074
-20.458
-19.764
-19.004
-18.189
-17.332
-16.443
-15.531
-14.608
-13.681
-12.758
-11.848
-10.957
-10.091
-9.255
-8.455
-7.694
-6.976
-6.305
-5.683
-5.111
-4.591
-4.122
-3.707
-3.342
-3.029
-2.765
-2.55
-2.382
-2.258
-2.178
-2.139
-2.139
-2.176
-2.246
-2.348
-2.478
-2.634
-2.814
-3.014
-3.233
-3.468
-3.718
-3.98
-4.254
-4.537
-4.828
-5.125
-5.428
-5.735
-6.046
-6.36
-6.676
-6.994
-7.315
-7.637
-7.963
-8.29
-8.621
-8.953
-9.288
-9.625
-9.962
-10.301
-10.639
-10.977
-11.314
-11.65
-11.985
-12.316
-12.645
-12.97
-13.291
-13.607
-13.916
-14.218
-14.513
-14.8
-15.079
-15.35
-15.612
-15.866
-16.111
-16.347
-16.574
-16.792
-17
-17.198
-17.387
-17.566
-17.737
-17.9
-18.056
-18.208
-18.356
-18.503
-18.649
-18.798
-18.951
-19.111
-19.279
-19.458
-19.65
-19.858
-20.084
-20.331
-20.599
-20.891
-21.206
-21.546
-21.911
-22.299
-22.71
-23.143
-23.596
-24.066
-24.553
-25.054
-25.566
-26.085
-26.609
-27.133
-27.652
-28.162
-28.657
-29.131
-29.579
-29.995
-30.371
-30.704
-30.984
-31.207
-31.364
-31.45
-31.458
-31.381
-31.214
-30.949
-30.583
-30.111
-29.532
-28.841
-28.039
-27.125
-26.101
-24.969
-23.732
-22.393
-20.959
-19.434
-17.826
-16.144
-14.398
-12.596
-10.75
-8.872
-6.977
-5.081
-3.198
-1.344
0.464
2.21
3.877
5.447
6.907
8.242
9.438
10.479
11.351
12.038
12.527
12.805
12.863
12.69
12.279
11.628
10.741
9.619
8.268
6.689
4.876
2.83
0.554
-1.946
-4.662
-7.577
-10.671
-13.909
-17.246
-20.64
-24.047
-27.434
-30.775
-34.037
-37.185
-40.178
-42.964
-45.505
-47.768
-49.712
-51.305
-52.547
-53.464
-54.116
-54.599
-54.983
-55.319
-55.679
-56.139
-56.793
-57.745
-59.092
-60.896
-63.25
-66.305
-70.087
-74.505
-79.302
-83.978
-88.066
-91.238
-93.058
-93.039
-91.109
-87.441
-82.591
-77.759
-73.788
-71.093
-70.358
-72.019
-75.671
-80.532
-84.997
-86.342
-82.5
-71.788
-51.945
-21.492
19.995
72.749
135.366
204.635
277.822
349.798
414.215
467.952
506.55
528.103
533.076
515.236
472.069
403.435
307.024
190.971
62.287
-75.57
-209.589
-329.111
-424.417
-482.187
-502.795
-495.082
-466.9
-430.763
-392.853
-351.407
-307.962
-263.528
-219.977
-183.048
-155.83
-138.242
-129.437
-127.081
-128.439
-132.019
-136.441
-139.663
-140.206
-137.515
-131.517
-122.86
-112.696
-101.788
-90.931
-81.343
-73.848
-68.833
-66.448
-66.383
-68.126
-71.285
-75.366
-79.731
-83.932
-87.661
-90.692
-92.994
-94.566
-95.378
-95.467
-94.897
-93.704
-91.936
-89.652
-86.891
-83.725
-80.259
-76.599
-72.865
-69.182
-65.646
-62.337
-59.32
-56.629
-54.285
-52.296
-50.659
-49.359
-48.377
-47.684
-47.247
-47.035
-47.009
-47.121
-47.322
-47.55
-47.76
-47.916
-47.987
-47.949
-47.785
-47.476
-47.01
-46.382
-45.586
-44.613
-43.454
-42.096
-40.531
-38.751
-36.754
-34.535
-32.091
-29.417
-26.51
-23.365
-19.982
-16.359
-12.494
-8.385
-4.034
0.555
5.376
10.419
15.674
21.131
26.776
32.593
38.568
44.682
50.919
57.261
63.688
70.182
76.722
83.286
89.854
96.404
102.912
109.357
115.715
121.963
128.078
134.039
139.822
145.405
150.767
155.886
160.742
165.315
169.588
173.541
177.159
180.426
183.329
185.856
187.997
189.742
191.086
192.023
192.552
192.669
192.377
191.676
190.571
189.068
187.174
184.898
182.251
179.244
175.891
172.209
168.212
163.919
159.35
154.523
149.46
144.183
138.715
133.078
127.297
121.397
115.402
109.338
103.229
97.1
90.976
84.88
78.836
72.867
66.993
61.235
55.612
50.141
44.839
39.72
34.799
30.087
25.593
21.328
17.298
13.508
9.964
6.668
3.621
0.823
-1.727
-4.031
-6.094
-7.919
-9.514
-10.885
-12.04
-12.989
-13.742
-14.31
-14.704
-14.937
-15.021
-14.969
-14.794
-14.51
-14.13
-13.667
-13.134
-12.542
-11.904
-11.231
-10.533
-9.821
-9.103
-8.389
-7.685
-7
-6.338
-5.706
-5.109
-4.551
-4.037
-3.568
-3.149
-2.78
-2.465
-2.202
-1.994
-1.84
-1.74
-1.692
-1.696
-1.748
-1.847
-1.991
-2.177
-2.401
-2.66
-2.952
-3.273
-3.62
-3.99
-4.38
-4.788
-5.21
-5.646
-6.093
-6.55
-7.015
-7.488
-7.967
-8.451
-8.941
-9.435
-9.932
-10.434
-10.938
-11.446
-11.955
-12.468
-12.982
-13.498
-14.015
-14.534
-15.054
-15.576
-16.098
-16.62
-17.144
-17.667
-18.191
-18.716
-19.24
-19.765
-20.289
-20.812
-21.333
-21.852
-22.367
-22.878
-23.382
-23.879
-24.367
-24.844
-25.31
-25.762
-26.2
-26.621
-27.024
-27.408
-27.772
-28.114
-28.434
-28.73
-29.003
-29.253
-29.479
-29.682
-29.863
-30.023
-30.163
-30.284
-30.386
-30.471
-30.539
-30.591
-30.63
-30.654
-30.668
-30.672
-30.668
-30.659
-30.648
-30.637
-30.628
-30.624
-30.628
-30.643
-30.673
-30.719
-30.785
-30.874
-30.99
-31.136
-31.315
-31.527
-31.775
-32.059
-32.379
-32.735
-33.124
-33.544
-33.993
-34.469
-34.97
-35.494
-36.04
-36.605
-37.19
-37.795
-38.417
-39.052
-39.696
-40.34
-40.978
-41.603
-42.203
-42.769
-43.294
-43.767
-44.183
-44.54
-44.828
-45.04
-45.164
-45.183
-45.088
-44.874
-44.537
-44.077
-43.504
-42.831
-42.083
-41.29
-40.47
-39.631
-38.776
-37.888
-36.959
-35.977
-34.929
-33.814
-32.633
-31.377
-30.052
-28.656
-27.168
-25.562
-23.789
-21.782
-19.513
-16.97
-14.162
-11.135
-7.939
-4.64
-1.328
1.927
5.064
8.021
10.759
13.239
15.402
17.18
18.48
19.185
19.213
18.511
17.047
14.843
11.938
8.404
4.36
-0.078
-4.8
-9.699
-14.696
-19.719
-24.69
-29.521
-34.107
-38.319
-42.039
-45.174
-47.66
-49.472
-50.609
-51.116
-51.099
-50.705
-50.106
-49.471
-48.927
-48.578
-48.525
-48.884
-49.784
-51.36
-53.748
-57.03
-61.282
-66.617
-73.003
-80.255
-88.038
-95.772
-102.861
-108.87
-113.27
-115.457
-115.24
-112.645
-107.999
-102.231
-95.989
-89.559
-83.532
-78.427
-74.088
-70.08
-65.295
-57.583
-45.282
-27.033
-1.037
34.024
79.075
134.833
200.381
273.365
349.824
423.639
490.639
547.689
593.008
628.415
648.688
645.097
611.826
538.998
427.906
290.358
133.938
-24.028
-166.624
-286.555
-371.607
-420.095
-441.149
-439.577
-424.108
-400.458
-367.059
-326.35
-281.936
-237.616
-199.131
-169.745
-150.617
-141.55
-140.431
-144.475
-150.564
-155.832
-158.718
-158.282
-153.639
-144.613
-131.671
-115.826
-98.927
-82.824
-68.495
-56.472
-47.156
-40.591
-36.708
-35.309
-35.728
-37.192
-39.236
-41.554
-43.98
-46.495
-49.006
-51.36
-53.478
-55.299
-56.736
-57.738
-58.244
-58.181
-57.541
-56.347
-54.657
-52.559
-50.139
-47.466
-44.592
-41.555
-38.392
-35.163
-31.948
-28.826
-25.884
-23.176
-20.738
-18.602
-16.774
-15.25
-14.01
-13.013
-12.216
-11.583
-11.087
-10.706
-10.423
-10.207
-10.024
-9.831
-9.582
-9.239
-8.769
-8.145
-7.342
-6.344
-5.136
-3.713
-2.076
-0.22
1.859
4.17
6.722
9.521
12.569
15.869
19.42
23.22
27.269
31.562
36.095
40.863
45.858
51.076
56.508
62.148
67.982
73.996
80.175
86.502
92.957
99.523
106.176
112.897
119.662
126.45
133.238
140.004
146.724
153.376
159.935
166.378
172.681
178.822
184.777
190.522
196.037
201.297
206.283
210.974
215.349
219.39
223.079
226.402
229.342
231.887
234.027
235.751
237.053
237.926
238.368
238.377
237.954
237.101
235.822
234.123
232.012
229.498
226.592
223.305
219.651
215.646
211.305
206.647
201.69
196.455
190.962
185.235
179.295
173.168
166.878
160.449
153.908
147.278
140.587
133.859
127.118
120.389
113.695
107.059
100.501
94.043
87.703
81.498
75.445
69.558
63.852
58.339
53.03
47.933
43.058
38.412
34
29.827
25.895
22.207
18.761
15.558
12.594
9.866
7.37
5.098
3.044
1.201
-0.441
-1.892
-3.16
-4.258
-5.196
-5.985
-6.636
-7.162
-7.573
-7.881
-8.097
-8.23
-8.291
-8.29
-8.237
-8.139
-8.007
-7.848
-7.671
-7.482
-7.289
-7.099
-6.917
-6.748
-6.598
-6.471
-6.37
-6.297
-6.255
-6.247
-6.273
-6.333
-6.429
-6.561
-6.727
-6.927
-7.16
-7.423
-7.716
-8.036
-8.382
-8.751
-9.142
-9.553
-9.982
-10.427
-10.886
-11.358
-11.84
-12.332
-12.83
-13.333
-13.839
-14.347
-14.855
-15.36
-15.863
-16.363
-16.857
-17.346
-17.83
-18.306
-18.776
-19.238
-19.693
-20.139
-20.578
-21.009
-21.432
-21.848
-22.256
-22.659
-23.055
-23.446
-23.832
-24.212
-24.587
-24.957
-25.322
-25.683
-26.039
-26.392
-26.742
-27.088
-27.432
-27.773
-28.113
-28.45
-28.785
-29.118
-29.449
-29.778
-30.104
-30.428
-30.75
-31.071
-31.391
-31.711
-32.03
-32.349
-32.669
-32.99
-33.312
-33.635
-33.96
-34.288
-34.618
-34.952
-35.29
-35.633
-35.98
-36.333
-36.691
-37.054
-37.422
-37.796
-38.174
-38.558
-38.947
-39.342
-39.741
-40.146
-40.555
-40.968
-41.384
-41.8
-42.216
-42.628
-43.035
-43.433
-43.819
-44.191
-44.543
-44.874
-45.178
-45.451
-45.689
-45.886
-46.038
-46.139
-46.184
-46.167
-46.084
-45.93
-45.699
-45.389
-44.993
-44.507
-43.928
-43.25
-42.471
-41.585
-40.59
-39.483
-38.262
-36.926
-35.474
-33.908
-32.228
-30.438
-28.54
-26.541
-24.445
-22.257
-19.987
-17.641
-15.231
-12.767
-10.26
-7.723
-5.171
-2.62
-0.086
2.414
4.862
7.242
9.535
11.723
13.791
15.722
17.503
19.119
20.555
21.793
22.819
23.618
24.177
24.484
24.53
24.305
23.806
23.035
21.995
20.69
19.117
17.269
15.143
12.742
10.073
7.149
3.988
0.615
-2.931
-6.6
-10.341
-14.107
-17.86
-21.577
-25.224
-28.767
-32.163
-35.355
-38.297
-40.958
-43.31
-45.332
-47.029
-48.436
-49.62
-50.691
-51.737
-52.827
-54.026
-55.402
-57.03
-58.998
-61.398
-64.295
-67.778
-71.971
-76.865
-82.324
-88.058
-93.579
-98.415
-102.212
-104.524
-104.815
-102.981
-99.25
-94.208
-88.943
-84.215
-80.305
-77.705
-76.974
-77.9
-79.72
-80.958
-79.284
-72.93
-60.706
-41.052
-12.514
25.644
73.632
130.51
194.215
261.328
326.926
386.103
434.876
473.429
504.263
525.973
533.602
516.921
464.538
374.474
250.078
98.933
-64.287
-226.634
-371.089
-475.747
-530.84
-536.198
-503.333
-456.706
-412.649
-377.967
-353.31
-331.058
-307.546
-284.209
-262.917
-246.702
-235.835
-227.92
-220.408
-211.019
-198.89
-184.244
-167.606
-149.78
-131.644
-114.111
-98.206
-84.768
-74.147
-66.352
-61.167
-58.26
-57.343
-58.138
-60.298
-63.443
-67.24
-71.42
-75.774
-80.136
-84.293
-87.98
-90.992
-93.194
-94.521
-94.983
-94.596
-93.374
-91.362
-88.637
-85.296
-81.461
-77.247
-72.752
-68.081
-63.34
-58.653
-54.168
-49.996
-46.206
-42.835
-39.893
-37.383
-35.308
-33.651
-32.368
-31.417
-30.752
-30.332
-30.13
-30.107
-30.214
-30.398
-30.599
-30.768
-30.872
-30.883
-30.78
-30.542
-30.15
-29.595
-28.877
-27.991
-26.93
-25.685
-24.242
-22.592
-20.732
-18.657
-16.363
-13.847
-11.104
-8.131
-4.928
-1.493
2.174
6.072
10.202
14.559
19.138
23.928
28.92
34.101
39.459
44.977
50.638
56.426
62.32
68.303
74.355
80.454
86.58
92.711
98.825
104.898
110.909
116.833
122.647
128.328
133.853
139.2
144.344
149.264
153.938
158.345
162.465
166.28
169.77
172.921
175.716
178.143
180.189
181.845
183.103
183.956
184.399
184.43
184.049
183.256
182.054
180.448
178.444
176.05
173.277
170.135
166.638
162.8
158.637
154.167
149.408
144.381
139.107
133.608
127.907
122.027
115.995
109.835
103.572
97.232
90.84
84.422
78.002
71.605
65.255
58.973
52.782
46.702
40.753
34.953
29.32
23.869
18.614
13.568
8.743
4.149
-0.207
-4.317
-8.176
-11.781
-15.129
-18.219
-21.051
-23.628
-25.953
-28.029
-29.864
-31.463
-32.835
-33.988
-34.932
-35.678
-36.237
-36.619
-36.837
-36.901
-36.825
-36.619
-36.295
-35.864
-35.339
-34.729
-34.045
-33.297
-32.495
-31.649
-30.766
-29.856
-28.924
-27.979
-27.026
-26.072
-25.121
-24.179
-23.248
-22.333
-21.437
-20.563
-19.711
-18.883
-18.081
-17.304
-16.552
-15.826
-15.124
-14.446
-13.791
-13.159
-12.549
-11.961
-11.393
-10.846
-10.32
-9.813
-9.327
-8.86
-8.414
-7.989
-7.584
-7.201
-6.839
-6.5
-6.184
-5.892
-5.624
-5.381
-5.165
-4.974
-4.81
-4.674
-4.565
-4.485
-4.434
-4.413
-4.421
-4.459
-4.528
-4.627
-4.756
-4.914
-5.101
-5.315
-5.555
-5.82
-6.107
-6.414
-6.739
-7.081
-7.436
-7.802
-8.178
-8.559
-8.944
-9.33
-9.716
-10.097
-10.473
-10.842
-11.203
-11.553
-11.891
-12.218
-12.532
-12.833
-13.121
-13.395
-13.656
-13.904
-14.139
-14.363
-14.577
-14.782
-14.981
-15.174
-15.366
-15.557
-15.751
-15.95
-16.158
-16.376
-16.608
-16.857
-17.125
-17.414
-17.729
-18.07
-18.441
-18.842
-19.276
-19.743
-20.244
-20.779
-21.347
-21.948
-22.581
-23.243
-23.932
-24.646
-25.383
-26.137
-26.907
-27.686
-28.471
-29.255
-30.034
-30.801
-31.551
-32.275
-32.968
-33.622
-34.23
-34.786
-35.283
-35.713
-36.07
-36.346
-36.536
-36.633
-36.631
-36.525
-36.309
-35.981
-35.537
-34.974
-34.291
-33.486
-32.56
-31.514
-30.35
-29.071
-27.68
-26.183
-24.585
-22.894
-21.118
-19.267
-17.351
-15.381
-13.372
-11.337
-9.291
-7.25
-5.23
-3.247
-1.317
0.542
2.317
3.991
5.549
6.977
8.257
9.374
10.313
11.06
11.601
11.922
12.012
11.861
11.466
10.826
9.936
8.791
7.383
5.707
3.768
1.571
-0.877
-3.56
-6.461
-9.549
-12.775
-16.09
-19.453
-22.824
-26.179
-29.486
-32.703
-35.785
-38.69
-41.376
-43.823
-46.017
-47.931
-49.564
-50.939
-52.114
-53.204
-54.316
-55.533
-56.923
-58.535
-60.429
-62.706
-65.455
-68.745
-72.641
-77.137
-82.254
-88.095
-94.595
-101.546
-108.607
-115.197
-120.819
-125.218
-127.987
-128.622
-126.976
-123.016
-117.067
-110.104
-102.73
-95.171
-87.987
-81.696
-76.294
-71.664
-66.92
-60.01
-49.507
-34.405
-12.931
16.693
55.674
104.95
162.574
223.439
283.937
341.722
397.723
455.213
511.55
557.369
576.646
553.023
480.952
367.742
231.714
92.597
-37.491
-154.256
-259.067
-352.051
-429.135
-485.398
-516.49
-521.264
-502.519
-464.586
-412.764
-353.124
-291.679
-233.505
-182.887
-142.964
-114.977
-98.919
-93.687
-96.715
-104.815
-115.067
-124.521
-130.805
-132.807
-130.079
-122.847
-112.266
-99.776
-86.827
-75.064
-65.641
-59.004
-55.334
-54.435
-55.759
-58.74
-62.684
-66.772
-70.502
-73.619
-75.939
-77.452
-78.165
-78.041
-77.145
-75.582
-73.403
-70.67
-67.436
-63.736
-59.667
-55.363
-50.955
-46.588
-42.363
-38.35
-34.619
-31.218
-28.183
-25.54
-23.287
-21.409
-19.898
-18.737
-17.9
-17.36
-17.071
-16.982
-17.037
-17.174
-17.343
-17.509
-17.637
-17.702
-17.683
-17.56
-17.322
-16.961
-16.468
-15.828
-15.031
-14.061
-12.909
-11.568
-10.029
-8.288
-6.34
-4.178
-1.796
0.811
3.649
6.722
10.035
13.592
17.396
21.444
25.734
30.26
35.015
39.991
45.178
50.565
56.137
61.882
67.785
73.83
80.002
86.282
92.652
99.093
105.583
112.103
118.631
125.145
131.622
138.039
144.373
150.602
156.702
162.652
168.428
174.008
179.371
184.497
189.363
193.952
198.245
202.224
205.873
209.178
212.125
214.703
216.9
218.709
220.122
221.133
221.739
221.936
221.724
221.105
220.08
218.655
216.837
214.632
212.051
209.106
205.81
202.177
198.223
193.966
189.424
184.617
179.565
174.291
168.816
163.164
157.358
151.421
145.379
139.253
133.07
126.851
120.622
114.403
108.22
102.092
96.04
90.086
84.249
78.545
72.993
67.608
62.403
57.393
52.587
47.997
43.631
39.495
35.595
31.935
28.518
25.344
22.414
19.725
17.275
15.059
13.073
11.311
9.766
8.431
7.296
6.353
5.593
5.004
4.578
4.303
4.167
4.16
4.269
4.484
4.793
5.184
5.647
6.17
6.744
7.357
8
8.665
9.341
10.022
10.699
11.367
12.019
12.649
13.254
13.828
14.368
14.87
15.333
15.753
16.129
16.459
16.742
16.977
17.163
17.299
17.387
17.425
17.415
17.356
17.25
17.097
16.899
16.657
16.373
16.048
15.684
15.283
14.847
14.377
13.877
13.348
12.791
12.208
11.601
10.971
10.32
9.649
8.959
8.252
7.528
6.791
6.04
5.278
4.506
3.725
2.939
2.148
1.354
0.56
-0.231
-1.019
-1.8
-2.571
-3.332
-4.079
-4.811
-5.525
-6.22
-6.895
-7.548
-8.179
-8.785
-9.367
-9.923
-10.453
-10.957
-11.433
-11.883
-12.304
-12.699
-13.067
-13.408
-13.723
-14.013
-14.279
-14.523
-14.746
-14.949
-15.134
-15.305
-15.464
-15.613
-15.756
-15.897
-16.039
-16.186
-16.341
-16.508
-16.69
-16.891
-17.113
-17.359
-17.631
-17.932
-18.263
-18.626
-19.022
-19.451
-19.914
-20.41
-20.939
-21.501
-22.094
-22.717
-23.367
-24.043
-24.741
-25.459
-26.193
-26.939
-27.693
-28.449
-29.202
-29.947
-30.675
-31.381
-32.056
-32.693
-33.283
-33.819
-34.291
-34.692
-35.014
-35.249
-35.389
-35.429
-35.361
-35.18
-34.881
-34.458
-33.91
-33.231
-32.421
-31.476
-30.397
-29.184
-27.837
-26.358
-24.748
-23.012
-21.154
-19.178
-17.092
-14.902
-12.617
-10.249
-7.807
-5.305
-2.757
-0.179
2.414
5.003
7.569
10.092
12.554
14.932
17.207
19.359
21.367
23.213
24.879
26.349
27.605
28.633
29.415
29.94
30.193
30.162
29.836
29.207
28.27
27.025
25.472
23.615
21.455
18.992
16.23
13.178
9.845
6.244
2.392
-1.69
-5.968
-10.399
-14.939
-19.546
-24.185
-28.827
-33.44
-37.989
-42.432
-46.727
-50.837
-54.728
-58.372
-61.734
-64.79
-67.541
-70.023
-72.306
-74.456
-76.526
-78.538
-80.519
-82.523
-84.613
-86.872
-89.373
-92.147
-95.26
-98.838
-102.944
-107.542
-112.403
-117.029
-120.878
-123.517
-124.489
-123.305
-119.649
-113.463
-105.228
-96.101
-87.395
-80.243
-75.659
-74.589
-77.605
-84.64
-94.509
-104.733
-112.255
-114.109
-107.242
-88.342
-54.475
-3.625
62.939
140.531
224.227
310.11
398.62
491.801
585.046
666.626
717.02
717.725
663.975
563.459
433.627
289.265
135.179
-26.36
-191.566
-345.375
-465.93
-539.679
-564.673
-554.558
-529.429
-499.301
-464.493
-417.861
-350.774
-268.364
-185.889
-119.648
-85.493
-84.1
-103.03
-130.775
-154.378
-168.734
-178.326
-184.39
-188.128
-189.859
-186.27
-176.837
-163.282
-147.365
-131.735
-118.417
-108.117
-101.164
-97.254
-97.172
-101.51
-107.978
-115.31
-119.581
-116.599
-110.36
-103.522
-100.3
-106.423
-116.719
-126.883
-133.944
-132.98
-127.498
-121.036
-114.421
-109.916
-106.351
-102.229
-97.964
-93.407
-88.83
-84.713
-80.808
-76.956
-73.178
-69.382
-65.719
-62.403
-59.368
-56.572
-54.25
-52.509
-51.584
-51.781
-52.697
-53.871
-55.251
-56.691
-57.893
-58.729
-58.721
-57.325
-54.977
-52.135
-48.88
-45.449
-41.972
-38.44
-35.255
-32.845
-30.869
-29.007
-27.141
-25.024
-22.653
-20.098
-17.142
-13.585
-9.559
-5.168
-0.479
4.377
9.448
14.792
20.353
26.095
32.024
38.127
44.41
50.886
57.516
64.261
71.098
77.993
84.933
91.901
98.875
105.831
112.746
119.592
126.345
132.983
139.479
145.812
151.955
157.884
163.578
169.015
174.173
179.033
183.574
187.774
191.614
195.075
198.144
200.807
203.053
204.873
206.259
207.205
207.709
207.768
207.382
206.553
205.285
203.581
201.45
198.9
195.941
192.587
188.851
184.748
180.295
175.512
170.417
165.031
159.378
153.479
147.359
141.043
134.555
127.923
121.171
114.327
107.417
100.466
93.501
86.546
79.626
72.764
65.983
59.303
52.745
46.327
40.069
33.985
28.092
22.403
16.93
11.686
6.68
1.92
-2.588
-6.837
-10.824
-14.546
-18.002
-21.192
-24.116
-26.777
-29.179
-31.327
-33.227
-34.885
-36.311
-37.512
-38.499
-39.281
-39.871
-40.279
-40.517
-40.595
-40.527
-40.323
-39.995
-39.555
-39.014
-38.385
-37.677
-36.902
-36.07
-35.192
-34.277
-33.334
-32.373
-31.401
-30.427
-29.458
-28.503
-27.566
-26.656
-25.776
-24.933
-24.131
-23.373
-22.662
-22.001
-21.39
-20.832
-20.326
-19.873
-19.472
-19.123
-18.826
-18.578
-18.378
-18.225
-18.117
-18.052
-18.026
-18.039
-18.087
-18.168
-18.28
-18.42
-18.585
-18.774
-18.984
-19.211
-19.454
-19.709
-19.974
-20.246
-20.522
-20.8
-21.079
-21.355
-21.629
-21.898
-22.161
-22.418
-22.668
-22.911
-23.146
-23.374
-23.593
-23.804
-24.008
-24.205
-24.395
-24.579
-24.757
-24.929
-25.096
-25.259
-25.417
-25.57
-25.72
-25.865
-26.007
-26.145
-26.281
-26.415
-26.548
-26.679
-26.811
-26.944
-27.078
-27.213
-27.352
-27.493
-27.638
-27.786
-27.94
-28.099
-28.264
-28.435
-28.613
-28.799
-28.993
-29.195
-29.406
-29.627
-29.858
-30.1
-30.352
-30.617
-30.895
-31.186
-31.492
-31.812
-32.147
-32.498
-32.863
-33.244
-33.639
-34.047
-34.468
-34.899
-35.339
-35.786
-36.236
-36.687
-37.135
-37.576
-38.006
-38.421
-38.815
-39.183
-39.519
-39.818
-40.074
-40.28
-40.43
-40.517
-40.535
-40.478
-40.339
-40.112
-39.791
-39.369
-38.842
-38.203
-37.449
-36.574
-35.574
-34.447
-33.188
-31.798
-30.276
-28.62
-26.833
-24.916
-22.874
-20.71
-18.431
-16.042
-13.553
-10.971
-8.308
-5.576
-2.788
0.043
2.902
5.771
8.635
11.474
14.272
17.01
19.669
22.231
24.678
26.993
29.159
31.161
32.982
34.606
36.02
37.209
38.162
38.865
39.308
39.479
39.373
38.991
38.332
37.395
36.182
34.689
32.919
30.884
28.595
26.064
23.308
20.346
17.212
13.957
10.629
7.272
3.923
0.61
-2.632
-5.758
-8.729
-11.5
-14.041
-16.344
-18.387
-20.144
-21.614
-22.808
-23.776
-24.63
-25.456
-26.326
-27.307
-28.423
-29.733
-31.325
-33.262
-35.607
-38.403
-41.617
-45.295
-49.561
-54.364
-59.532
-64.714
-69.275
-72.686
-74.589
-74.483
-71.875
-66.631
-58.873
-49.287
-39.225
-29.845
-22.087
-16.968
-15.126
-16.447
-20.175
-24.498
-26.671
-23.862
-13.025
8.918
44.319
92.677
150.756
214.888
281.754
352.341
429.598
510.24
583.747
631.5
633.989
583.577
486.962
363.133
232.87
109.137
-3.911
-108.883
-206.44
-292.877
-363.122
-411.885
-437.68
-442.52
-428.994
-400.819
-362.58
-318.637
-273.197
-229.668
-190.023
-155.937
-129.331
-110.944
-100.176
-95.807
-96.051
-99.357
-104.821
-111.023
-115.877
-118.118
-117.317
-113.586
-107.71
-100.349
-91.826
-82.914
-74.779
-68.136
-63.305
-60.253
-58.526
-57.757
-57.728
-58.086
-58.379
-58.301
-57.672
-56.421
-54.617
-52.316
-49.543
-46.353
-42.836
-39.076
-35.163
-31.208
-27.293
-23.494
-19.891
-16.53
-13.438
-10.64
-8.147
-5.962
-4.099
-2.556
-1.321
-0.393
0.239
0.602
0.728
0.672
0.495
0.243
-0.042
-0.326
-0.582
-0.781
-0.905
-0.942
-0.879
-0.7
-0.39
0.072
0.702
1.516
2.524
3.735
5.152
6.784
8.635
10.709
13.012
15.546
18.316
21.328
24.585
28.09
31.841
35.836
40.068
44.533
49.223
54.125
59.23
64.524
69.994
75.627
81.407
87.318
93.344
99.466
105.666
111.925
118.222
124.538
130.851
137.139
143.381
149.554
155.638
161.61
167.449
173.134
178.642
183.954
189.049
193.906
198.506
202.828
206.854
210.567
213.95
216.988
219.668
221.976
223.902
225.437
226.573
227.302
227.62
227.523
227.009
226.078
224.731
222.972
220.806
218.239
215.281
211.942
208.233
204.169
199.764
195.034
189.997
184.671
179.077
173.236
167.17
160.902
154.456
147.856
141.128
134.298
127.389
120.429
113.442
106.453
99.486
92.566
85.714
78.955
72.308
65.795
59.436
53.248
47.247
41.451
35.871
30.521
25.411
20.549
15.944
11.6
7.523
3.714
0.174
-3.095
-6.096
-8.832
-11.308
-13.528
-15.5
-17.231
-18.732
-20.011
-21.08
-21.95
-22.633
-23.142
-23.488
-23.685
-23.747
-23.686
-23.516
-23.251
-22.904
-22.488
-22.015
-21.499
-20.95
-20.379
-19.797
-19.212
-18.633
-18.068
-17.524
-17.007
-16.524
-16.079
-15.677
-15.322
-15.017
-14.764
-14.564
-14.418
-14.328
-14.292
-14.31
-14.38
-14.503
-14.674
-14.894
-15.158
-15.465
-15.81
-16.192
-16.605
-17.046
-17.512
-17.998
-18.5
-19.015
-19.541
-20.073
-20.609
-21.147
-21.685
-22.22
-22.75
-23.275
-23.791
-24.297
-24.793
-25.277
-25.747
-26.205
-26.648
-27.077
-27.491
-27.891
-28.275
-28.645
-29
-29.34
-29.666
-29.977
-30.276
-30.562
-30.837
-31.102
-31.358
-31.607
-31.848
-32.084
-32.315
-32.542
-32.764
-32.982
-33.197
-33.409
-33.618
-33.826
-34.032
-34.237
-34.443
-34.65
-34.859
-35.071
-35.286
-35.506
-35.731
-35.964
-36.205
-36.455
-36.717
-36.991
-37.279
-37.582
-37.9
-38.234
-38.585
-38.953
-39.339
-39.743
-40.165
-40.607
-41.068
-41.549
-42.051
-42.574
-43.118
-43.682
-44.266
-44.869
-45.489
-46.124
-46.772
-47.431
-48.097
-48.766
-49.436
-50.101
-50.757
-51.399
-52.021
-52.617
-53.182
-53.709
-54.193
-54.626
-55.004
-55.32
-55.568
-55.743
-55.838
-55.848
-55.767
-55.59
-55.311
-54.924
-54.424
-53.808
-53.071
-52.21
-51.221
-50.104
-48.857
-47.48
-45.975
-44.343
-42.586
-40.71
-38.718
-36.618
-34.416
-32.122
-29.743
-27.292
-24.779
-22.217
-19.617
-16.993
-14.359
-11.731
-9.124
-6.554
-4.038
-1.593
0.764
3.015
5.145
7.139
8.982
10.663
12.168
13.483
14.596
15.494
16.169
16.611
16.813
16.769
16.479
15.947
15.178
14.18
12.954
11.498
9.814
7.909
5.79
3.471
0.967
-1.7
-4.494
-7.37
-10.284
-13.193
-16.067
-18.881
-21.604
-24.205
-26.642
-28.862
-30.829
-32.512
-33.879
-34.907
-35.599
-35.984
-36.125
-36.123
-36.057
-35.985
-35.967
-36.063
-36.351
-36.915
-37.856
-39.237
-41.148
-43.745
-47.05
-50.97
-55.267
-59.439
-62.967
-65.462
-66.398
-65.186
-61.729
-56.206
-49.209
-42.094
-35.947
-31.473
-29.726
-31.514
-36.607
-44.233
-52.625
-58.566
-59.295
-52.357
-34.656
-3.771
41.265
100.375
171.658
250.986
333.858
414.963
487.567
545.167
582.248
594.386
579.042
536.005
466.66
374.666
266.061
147.915
27.575
-87.87
-191.903
-279.114
-345.614
-389.901
-412.689
-416.11
-403.183
-377.292
-342.512
-303.272
-263.602
-226.241
-192.87
-164.599
-142.003
-125.485
-114.676
-108.331
-104.925
-103.335
-102.631
-101.785
-100.049
-96.647
-91.177
-83.974
-75.666
-66.838
-58.174
-50.477
-44.242
-39.894
-37.689
-37.455
-38.885
-41.611
-45.102
-48.796
-52.333
-55.451
-57.967
-59.826
-60.972
-61.372
-61.082
-60.181
-58.729
-56.778
-54.363
-51.524
-48.353
-44.969
-41.504
-38.085
-34.8
-31.708
-28.868
-26.331
-24.132
-22.289
-20.796
-19.631
-18.78
-18.23
-17.963
-17.947
-18.141
-18.491
-18.944
-19.441
-19.937
-20.396
-20.785
-21.078
-21.253
-21.292
-21.185
-20.927
-20.508
-19.914
-19.134
-18.156
-16.971
-15.574
-13.958
-12.12
-10.057
-7.765
-5.241
-2.482
0.515
3.752
7.23
10.95
14.912
19.111
23.542
28.197
33.065
38.136
43.399
48.838
54.441
60.191
66.073
72.071
78.168
84.345
90.583
96.862
103.162
109.461
115.737
121.968
128.131
134.203
140.161
145.982
151.644
157.125
162.404
167.459
172.27
176.817
181.083
185.048
188.697
192.015
194.987
197.601
199.846
201.713
203.193
204.281
204.97
205.257
205.14
204.617
203.69
202.36
200.632
198.511
196.006
193.126
189.882
186.288
182.356
178.103
173.546
168.703
163.591
158.232
152.645
146.852
140.875
134.737
128.459
122.064
115.576
109.016
102.407
95.771
89.127
82.498
75.903
69.362
62.893
56.515
50.245
44.1
38.094
32.242
26.556
21.049
15.729
10.605
5.684
0.972
-3.526
-7.808
-11.871
-15.715
-19.34
-22.748
-25.94
-28.922
-31.697
-34.271
-36.652
-38.845
-40.858
-42.699
-44.376
-45.898
-47.272
-48.508
-49.614
-50.6
-51.476
-52.25
-52.934
-53.536
-54.066
-54.534
-54.948
-55.317
-55.649
-55.951
-56.23
-56.494
-56.747
-56.997
-57.249
-57.507
-57.778
-58.063
-58.367
-58.693
-59.042
-59.417
-59.817
-60.245
-60.701
-61.185
-61.698
-62.241
-62.814
-63.416
-64.047
-64.708
-65.396
-66.11
-66.848
-67.609
-68.39
-69.189
-70.004
-70.834
-71.676
-72.527
-73.387
-74.253
-75.123
-75.994
-76.863
-77.729
-78.59
-79.442
-80.285
-81.116
-81.935
-82.74
-83.53
-84.304
-85.061
-85.798
-86.515
-87.21
-87.88
-88.525
-89.144
-89.735
-90.298
-90.833
-91.339
-91.817
-92.266
-92.687
-93.081
-93.447
-93.785
-94.096
-94.382
-94.641
-94.876
-95.087
-95.275
-95.442
-95.588
-95.715
-95.822
-95.911
-95.983
-96.038
-96.079
-96.107
-96.125
-96.133
-96.136
-96.135
-96.134
-96.134
-96.136
-96.143
-96.157
-96.18
-96.213
-96.259
-96.318
-96.393
-96.483
-96.591
-96.718
-96.861
-97.023
-97.203
-97.403
-97.626
-97.873
-98.144
-98.438
-98.754
-99.089
-99.443
-99.814
-100.198
-100.593
-100.994
-101.403
-101.818
-102.241
-102.666
-103.087
-103.493
-103.879
-104.247
-104.602
-104.952
-105.302
-105.654
-106.008
-106.369
-106.732
-107.093
-107.437
-107.741
-107.99
-108.171
-108.287
-108.359
-108.384
-108.347
-108.204
-107.878
-107.327
-106.541
-105.526
-104.312
-102.916
-101.312
-99.546
-97.74
-95.913
-94.012
-91.82
-88.907
-85.104
-80.549
-75.426
-69.991
-64.572
-59.45
-55.294
-53.196
-53.622
-56.374
-60.884
-66.151
-71.32
-75.855
-78.765
-78.617
-74.738
-67.2
-56.716
-44.715
-32.273
-19.97
-8.718
0.328
6.481
9.485
9.688
8.082
5.32
1.655
-2.537
-6.855
-10.991
-14.693
-18.039
-21.442
-25.123
-29.115
-33.408
-37.899
-42.512
-47.221
-51.907
-56.369
-60.47
-64.116
-67.276
-69.991
-72.289
-74.196
-75.747
-76.957
-77.847
-78.453
-78.806
-78.949
-78.956
-78.894
-78.849
-78.948
-79.286
-79.961
-81.053
-82.584
-84.591
-87.103
-90.122
-93.669
-97.749
-102.289
-107.264
-112.65
-118.246
-123.802
-128.913
-132.913
-135.229
-135.36
-132.71
-126.922
-118.013
-106.168
-92.155
-77.248
-62.574
-49.392
-38.92
-31.51
-26.781
-23.898
-20.982
-15.422
-4.399
15.548
47.636
92.209
147.06
209.853
278.184
352.961
436.764
525.935
609.671
669.79
687.278
653.267
573.372
465.909
349.559
235.059
121.316
-1.009
-133.68
-267.059
-381.759
-456.291
-482.369
-466.682
-426.343
-380.094
-338.45
-302.943
-269.639
-235.291
-200.381
-168.407
-143.79
-127.913
-119.597
-116.803
-116.848
-118.2
-119.971
-120.48
-118.407
-113.32
-105.194
-94.714
-82.982
-70.651
-58.429
-47.432
-38.445
-31.879
-27.936
-26.367
-26.731
-28.691
-31.787
-35.449
-39.29
-43.022
-46.404
-49.3
-51.613
-53.258
-54.231
-54.581
-54.321
-53.452
-51.984
-49.943
-47.397
-44.445
-41.181
-37.673
-33.99
-30.213
-26.44
-22.797
-19.375
-16.222
-13.364
-10.814
-8.586
-6.692
-5.123
-3.841
-2.804
-1.972
-1.312
-0.799
-0.399
-0.07
0.237
0.576
0.99
1.506
2.151
2.948
3.917
5.077
6.436
7.995
9.756
11.725
13.909
16.319
18.958
21.829
24.932
28.266
31.831
35.628
39.655
43.907
48.382
53.075
57.983
63.102
68.425
73.943
79.646
85.52
91.553
97.729
104.033
110.445
116.947
123.521
130.146
136.803
143.47
150.127
156.751
163.321
169.815
176.209
182.482
188.61
194.572
200.345
205.909
211.241
216.322
221.131
225.648
229.857
233.739
237.277
240.456
243.262
245.681
247.702
249.314
250.509
251.279
251.62
251.527
250.999
250.037
248.641
246.817
244.569
241.904
238.832
235.364
231.51
227.287
222.708
217.792
212.556
207.02
201.206
195.134
188.828
182.312
175.609
168.744
161.744
154.633
147.437
140.184
132.899
125.608
118.337
111.11
103.953
96.888
89.937
83.123
76.465
69.983
63.693
57.612
51.754
46.133
40.759
35.643
30.794
26.217
21.918
17.9
14.166
10.716
7.55
4.665
2.059
-0.273
-2.337
-4.14
-5.69
-6.997
-8.069
-8.919
-9.557
-9.995
-10.247
-10.324
-10.24
-10.008
-9.642
-9.153
-8.555
-7.861
-7.083
-6.233
-5.321
-4.36
-3.36
-2.33
-1.281
-0.22
0.843
1.901
2.946
3.972
4.971
5.939
6.869
7.758
8.601
9.396
10.138
10.827
11.46
12.037
12.557
13.02
13.425
13.774
14.066
14.303
14.486
14.615
14.692
14.718
14.694
14.621
14.501
14.334
14.122
13.867
13.569
13.23
12.853
12.44
11.991
11.511
11.001
10.465
9.904
9.323
8.722
8.106
7.477
6.837
6.189
5.535
4.877
4.218
3.56
2.905
2.255
1.613
0.981
0.361
-0.244
-0.831
-1.398
-1.943
-2.462
-2.953
-3.413
-3.841
-4.234
-4.59
-4.91
-5.19
-5.433
-5.637
-5.803
-5.933
-6.028
-6.089
-6.12
-6.122
-6.097
-6.049
-5.98
-5.893
-5.791
-5.677
-5.555
-5.427
-5.298
-5.169
-5.046
-4.932
-4.83
-4.745
-4.68
-4.639
-4.627
-4.647
-4.702
-4.797
-4.933
-5.114
-5.341
-5.614
-5.935
-6.302
-6.715
-7.171
-7.669
-8.205
-8.775
-9.374
-9.998
-10.642
-11.3
-11.966
-12.633
-13.294
-13.944
-14.574
-15.178
-15.746
-16.273
-16.748
-17.165
-17.516
-17.792
-17.984
-18.086
-18.088
-17.984
-17.767
-17.429
-16.966
-16.372
-15.643
-14.777
-13.773
-12.628
-11.345
-9.923
-8.367
-6.68
-4.867
-2.935
-0.889
1.261
3.507
5.837
8.241
10.706
13.218
15.762
18.323
20.885
23.431
25.943
28.404
30.796
33.1
35.301
37.379
39.32
41.105
42.719
44.144
45.368
46.377
47.158
47.698
47.986
48.013
47.775
47.271
46.5
45.46
44.145
42.556
40.7
38.588
36.23
33.642
30.841
27.852
24.718
21.488
18.207
14.916
11.645
8.424
5.292
2.294
-0.528
-3.136
-5.513
-7.652
-9.534
-11.146
-12.499
-13.63
-14.622
-15.586
-16.606
-17.76
-19.11
-20.691
-22.569
-24.828
-27.522
-30.718
-34.452
-38.704
-43.53
-49.001
-55.017
-61.363
-67.622
-73.141
-77.407
-80.002
-80.385
-78.18
-73.332
-66.015
-57.011
-47.531
-38.506
-30.837
-25.428
-22.551
-21.952
-22.84
-23.244
-20.706
-13.023
2.291
27.545
64.039
112.302
171.688
239.577
312.352
385.932
455.149
514.305
557.868
580.557
578.178
549.987
498.069
424.972
333.697
224.401
95.947
-47.275
-194.165
-326.277
-424.703
-479.802
-494.001
-481.05
-455.526
-426.001
-395.055
-359.029
-315.852
-268.128
-219.761
-176.149
-141.405
-116.171
-99.582
-90.359
-86.917
-87.636
-91.268
-96.078
-99.692
-100.837
-99.157
-94.535
-87.509
-78.834
-68.944
-58.765
-49.728
-42.595
-37.684
-35.085
-34.39
-35.187
-37.226
-40.003
-42.84
-45.312
-47.121
-48.111
-48.366
-47.921
-46.769
-44.974
-42.617
-39.77
-36.522
-32.942
-29.065
-24.967
-20.742
-16.492
-12.343
-8.39
-4.705
-1.345
1.664
4.305
6.571
8.467
10.009
11.218
12.127
12.767
13.166
13.363
13.4
13.325
13.201
13.076
12.988
12.969
13.043
13.23
13.551
14.021
14.645
15.434
16.394
17.538
18.879
20.426
22.186
24.163
26.36
28.778
31.421
34.293
37.395
40.727
44.289
48.08
52.102
56.351
60.822
65.506
70.394
75.474
80.735
86.162
91.739
97.449
103.276
109.2
115.204
121.267
127.368
133.486
139.6
145.687
151.724
157.69
163.561
169.315
174.929
180.383
185.655
190.723
195.568
200.17
204.509
208.568
212.33
215.778
218.898
221.675
224.096
226.152
227.831
229.127
230.032
230.541
230.652
230.363
229.673
228.586
227.105
225.234
222.981
220.355
217.367
214.028
210.352
206.353
202.047
197.452
192.585
187.465
182.113
176.548
170.791
164.865
158.791
152.592
146.292
139.911
133.475
127.005
120.523
114.053
107.615
101.231
94.92
88.703
82.597
76.619
70.787
65.114
59.614
54.299
49.179
44.263
39.557
35.069
30.802
26.759
22.942
19.352
15.989
12.85
9.934
7.237
4.755
2.481
0.41
-1.466
-3.154
-4.662
-6.001
-7.178
-8.205
-9.091
-9.847
-10.483
-11.01
-11.44
-11.782
-12.047
-12.245
-12.385
-12.477
-12.529
-12.548
-12.542
-12.515
-12.475
-12.425
-12.37
-12.314
-12.26
-12.211
-12.17
-12.139
-12.12
-12.114
-12.123
-12.147
-12.187
-12.243
-12.316
-12.405
-12.511
-12.632
-12.769
-12.92
-13.086
-13.265
-13.457
-13.66
-13.874
-14.097
-14.331
-14.573
-14.826
-15.089
-15.363
-15.651
-15.954
-16.274
-16.613
-16.974
-17.359
-17.769
-18.209
-18.679
-19.182
-19.719
-20.294
-20.907
-21.56
-22.255
-22.991
-23.77
-24.592
-25.457
-26.364
-27.313
-28.302
-29.333
-30.403
-31.51
-32.655
-33.835
-35.048
-36.292
-37.564
-38.86
-40.177
-41.511
-42.857
-44.211
-45.567
-46.922
-48.271
-49.607
-50.928
-52.227
-53.501
-54.744
-55.953
-57.124
-58.254
-59.339
-60.378
-61.369
-62.309
-63.2
-64.04
-64.829
-65.569
-66.259
-66.9
-67.495
-68.044
-68.55
-69.016
-69.443
-69.836
-70.197
-70.531
-70.841
-71.132
-71.41
-71.677
-71.94
-72.204
-72.472
-72.751
-73.045
-73.359
-73.697
-74.063
-74.46
-74.893
-75.363
-75.872
-76.422
-77.013
-77.645
-78.316
-79.025
-79.77
-80.548
-81.355
-82.187
-83.038
-83.905
-84.78
-85.659
-86.533
-87.398
-88.245
-89.067
-89.856
-90.604
-91.304
-91.948
-92.526
-93.031
-93.454
-93.788
-94.026
-94.161
-94.185
-94.093
-93.879
-93.54
-93.069
-92.466
-91.729
-90.855
-89.848
-88.709
-87.441
-86.05
-84.543
-82.928
-81.216
-79.417
-77.544
-75.608
-73.623
-71.603
-69.563
-67.516
-65.478
-63.464
-61.49
-59.572
-57.729
-55.977
-54.335
-52.817
-51.441
-50.223
-49.18
-48.326
-47.675
-47.236
-47.022
-47.043
-47.315
-47.847
-48.64
-49.694
-51.002
-52.553
-54.332
-56.316
-58.471
-60.76
-63.147
-65.591
-68.067
-70.543
-72.992
-75.377
-77.658
-79.803
-81.792
-83.614
-85.261
-86.735
-88.046
-89.228
-90.354
-91.497
-92.739
-94.162
-95.826
-97.797
-100.121
-102.826
-105.951
-109.525
-113.57
-118.106
-123.139
-128.617
-134.493
-140.707
-147.043
-153.203
-158.756
-163.147
-165.893
-166.626
-165.072
-160.993
-154.437
-145.7
-135.331
-124.212
-113.148
-102.756
-93.372
-85.143
-77.795
-70.574
-62.396
-51.751
-37.127
-16.943
10.191
45.294
89.133
139.874
193.271
245.86
293.708
337.782
384.749
434.063
481.105
513.509
508.107
454.305
351.69
206.526
40.716
-127.505
-284.029
-409.85
-495.047
-536.801
-537.044
-509.803
-471.028
-429.633
-390.342
-352.297
-311.575
-268.947
-227.854
-192.082
-166.024
-150.881
-145.157
-146.442
-151.671
-158.317
-164.405
-168.422
-169.173
-165.983
-158.968
-148.938
-137.116
-124.854
-113.495
-103.897
-96.625
-92.013
-89.986
-90.27
-92.425
-95.799
-99.685
-103.616
-107.271
-110.452
-113.099
-115.107
-116.399
-116.992
-116.937
-116.278
-115.041
-113.23
-110.851
-107.959
-104.639
-100.997
-97.152
-93.201
-89.249
-85.382
-81.67
-78.184
-74.972
-72.058
-69.456
-67.168
-65.182
-63.489
-62.071
-60.893
-59.924
-59.119
-58.432
-57.817
-57.223
-56.606
-55.935
-55.18
-54.316
-53.328
-52.197
-50.912
-49.469
-47.859
-46.074
-44.106
-41.947
-39.589
-37.028
-34.262
-31.289
-28.107
-24.713
-21.104
-17.279
-13.236
-8.974
-4.495
0.203
5.118
10.244
15.573
21.097
26.806
32.689
38.734
44.926
51.249
57.689
64.229
70.851
77.539
84.272
91.032
97.798
104.55
111.266
117.926
124.508
130.992
137.354
143.574
149.632
155.506
161.176
166.622
171.826
176.77
181.436
185.808
189.872
193.613
197.018
200.077
202.779
205.115
207.077
208.66
209.859
210.672
211.097
211.135
210.787
210.058
208.952
207.476
205.638
203.448
200.917
198.056
194.881
191.405
187.646
183.619
179.344
174.839
170.123
165.217
160.14
154.912
149.555
144.089
138.535
132.913
127.245
121.551
115.852
110.165
104.512
98.91
93.377
87.928
82.58
77.346
72.24
67.274
62.459
57.804
53.318
49.008
44.88
40.939
37.187
33.628
30.261
27.086
24.103
21.308
18.701
16.276
14.029
11.957
10.053
8.311
6.725
5.287
3.988
2.822
1.778
0.848
0.024
-0.704
-1.343
-1.903
-2.392
-2.817
-3.187
-3.508
-3.788
-4.033
-4.25
-4.443
-4.617
-4.778
-4.928
-5.071
-5.209
-5.345
-5.48
-5.616
-5.756
-5.899
-6.048
-6.203
-6.364
-6.531
-6.705
-6.883
-7.066
-7.251
-7.437
-7.622
-7.805
-7.985
-8.159
-8.326
-8.485
-8.634
-8.773
-8.901
-9.015
-9.116
-9.204
-9.278
-9.339
-9.388
-9.425
-9.452
-9.47
-9.481
-9.486
-9.485
-9.481
-9.473
-9.464
-9.453
-9.443
-9.433
-9.426
-9.424
-9.427
-9.437
-9.457
-9.487
-9.53
-9.587
-9.66
-9.75
-9.858
-9.986
-10.135
-10.305
-10.498
-10.713
-10.95
-11.21
-11.491
-11.792
-12.112
-12.45
-12.802
-13.169
-13.549
-13.939
-14.34
-14.749
-15.167
-15.592
-16.025
-16.464
-16.909
-17.36
-17.816
-18.276
-18.741
-19.209
-19.679
-20.15
-20.621
-21.091
-21.559
-22.025
-22.487
-22.944
-23.397
-23.846
-24.29
-24.73
-25.167
-25.601
-26.033
-26.466
-26.9
-27.338
-27.78
-28.227
-28.681
-29.143
-29.612
-30.088
-30.569
-31.053
-31.539
-32.024
-32.505
-32.978
-33.442
-33.894
-34.334
-34.761
-35.173
-35.568
-35.946
-36.305
-36.642
-36.952
-37.227
-37.461
-37.65
-37.787
-37.869
-37.891
-37.844
-37.727
-37.537
-37.27
-36.921
-36.48
-35.929
-35.261
-34.477
-33.584
-32.596
-31.523
-30.373
-29.161
-27.909
-26.629
-25.326
-23.99
-22.595
-21.126
-19.585
-17.979
-16.337
-14.668
-12.965
-11.223
-9.428
-7.57
-5.644
-3.628
-1.474
0.827
3.263
5.787
8.306
10.757
13.101
15.307
17.362
19.237
20.881
22.256
23.329
24.061
24.418
24.338
23.724
22.527
20.739
18.393
15.579
12.363
8.779
4.871
0.675
-3.756
-8.34
-13.012
-17.727
-22.426
-27.049
-31.511
-35.69
-39.5
-42.89
-45.842
-48.387
-50.543
-52.305
-53.689
-54.729
-55.493
-56.099
-56.652
-57.241
-57.945
-58.832
-59.993
-61.553
-63.625
-66.3
-69.642
-73.659
-78.375
-83.886
-90.167
-97.055
-104.221
-111.072
-117.015
-121.605
-124.36
-124.718
-122.387
-117.366
-110.015
-101.392
-92.621
-84.463
-77.721
-73.118
-70.809
-70.425
-70.903
-69.888
-64.609
-52.757
-32.026
-0.198
44.296
102.216
173.219
253.483
336.429
416.444
488.823
552.867
610.833
659.94
691.506
691.05
644.181
547.501
410.719
254.158
98.941
-41.785
-163.065
-266.383
-352.85
-420.38
-466.573
-489.703
-490.686
-473.051
-441.288
-400.196
-354.354
-307.71
-262.863
-221.185
-183.785
-151.693
-125.543
-105.675
-91.618
-82.275
-77.136
-76.022
-78.252
-82.719
-88.014
-92.572
-95.676
-97.362
-97.509
-96.011
-93.067
-89.101
-84.971
-81.769
-79.97
-79.505
-80.203
-81.781
-83.989
-86.609
-89.19
-91.152
-92.167
-92.138
-91.103
-89.227
-86.615
-83.315
-79.441
-75.159
-70.633
-66.022
-61.463
-57.02
-52.751
-48.725
-45.006
-41.657
-38.714
-36.18
-34.031
-32.248
-30.817
-29.721
-28.938
-28.428
-28.137
-28.009
-27.984
-28.019
-28.074
-28.114
-28.104
-28.013
-27.816
-27.498
-27.053
-26.469
-25.729
-24.816
-23.712
-22.405
-20.885
-19.143
-17.171
-14.96
-12.503
-9.794
-6.829
-3.601
-0.107
3.658
7.699
12.017
16.609
21.472
26.599
31.981
37.609
43.471
49.552
55.838
62.312
68.958
75.757
82.691
89.738
96.876
104.084
111.335
118.606
125.87
133.101
140.274
147.36
154.335
161.172
167.845
174.329
180.601
186.635
192.409
197.901
203.088
207.951
212.47
216.628
220.407
223.792
226.771
229.33
231.46
233.152
234.398
235.193
235.533
235.415
234.838
233.805
232.319
230.385
228.011
225.206
221.982
218.352
214.329
209.931
205.175
200.078
194.661
188.945
182.951
176.702
170.221
163.531
156.658
149.627
142.461
135.186
127.827
120.408
112.955
105.493
98.044
90.633
83.284
76.018
68.858
61.825
54.938
48.215
41.675
35.332
29.202
23.296
17.628
12.206
7.039
2.135
-2.501
-6.865
-10.953
-14.763
-18.297
-21.553
-24.535
-27.246
-29.688
-31.869
-33.792
-35.465
-36.895
-38.091
-39.062
-39.817
-40.368
-40.725
-40.9
-40.905
-40.754
-40.458
-40.03
-39.484
-38.831
-38.085
-37.258
-36.36
-35.405
-34.403
-33.364
-32.3
-31.218
-30.127
-29.037
-27.953
-26.883
-25.833
-24.808
-23.813
-22.854
-21.934
-21.057
-20.226
-19.443
-18.71
-18.028
-17.397
-16.818
-16.289
-15.808
-15.374
-14.985
-14.637
-14.328
-14.053
-13.81
-13.595
-13.402
-13.229
-13.072
-12.926
-12.788
-12.655
-12.524
-12.393
-12.26
-12.122
-11.979
-11.829
-11.67
-11.503
-11.327
-11.14
-10.942
-10.733
-10.514
-10.285
-10.047
-9.801
-9.549
-9.292
-9.032
-8.772
-8.514
-8.262
-8.017
-7.783
-7.562
-7.359
-7.177
-7.018
-6.886
-6.783
-6.712
-6.674
-6.671
-6.703
-6.771
-6.875
-7.016
-7.193
-7.405
-7.653
-7.935
-8.251
-8.601
-8.982
-9.396
-9.839
-10.31
-10.809
-11.333
-11.88
-12.45
-13.039
-13.646
-14.269
-14.904
-15.55
-16.203
-16.861
-17.52
-18.176
-18.827
-19.471
-20.104
-20.724
-21.328
-21.916
-22.484
-23.032
-23.557
-24.057
-24.53
-24.974
-25.385
-25.762
-26.101
-26.399
-26.653
-26.859
-27.012
-27.11
-27.147
-27.118
-27.02
-26.846
-26.593
-26.257
-25.832
-25.315
-24.703
-23.992
-23.18
-22.264
-21.242
-20.113
-18.874
-17.523
-16.061
-14.486
-12.799
-10.999
-9.089
-7.069
-4.944
-2.718
-0.395
2.02
4.518
7.093
9.735
12.433
15.175
17.95
20.741
23.533
26.311
29.057
31.754
34.384
36.93
39.375
41.703
43.899
45.946
47.829
49.534
51.044
52.348
53.432
54.284
54.892
55.243
55.328
55.145
54.69
53.96
52.953
51.66
50.083
48.227
46.104
43.725
41.103
38.255
35.208
32.005
28.694
25.322
21.927
18.541
15.195
11.933
8.804
5.856
3.126
0.626
-1.634
-3.637
-5.372
-6.849
-8.104
-9.227
-10.332
-11.506
-12.825
-14.35
-16.118
-18.211
-20.74
-23.772
-27.346
-31.474
-36.111
-41.296
-47.158
-53.616
-60.41
-67.15
-73.254
-78.217
-81.709
-83.224
-82.148
-78.285
-71.822
-63.28
-53.589
-43.886
-35.316
-28.839
-25.504
-24.379
-22.148
-17.612
-10.401
-1.48
4.395
10.243
25.899
59.639
122.014
212.08
315.006
417.155
503.434
564.915
602.993
617.247
606.512
569.356
503.753
413.021
303.593
181.469
49.678
-91.187
-236.842
-376.408
-491.599
-565.043
-589.384
-569.183
-520.936
-462.221
-404.095
-350.799
-299.729
-248.719
-199.367
-155.531
-122.183
-101.322
-91.67
-90.792
-95.651
-104.025
-114.237
-123.848
-130.508
-133.026
-131.17
-125.523
-117.137
-106.828
-95.357
-84.016
-74.204
-66.729
-61.88
-59.474
-58.971
-59.932
-62.002
-64.626
-67.199
-69.317
-70.715
-71.326
-71.244
-70.518
-69.173
-67.269
-64.876
-62.064
-58.916
-55.491
-51.846
-48.071
-44.259
-40.521
-36.954
-33.627
-30.605
-27.928
-25.616
-23.679
-22.112
-20.903
-20.04
-19.503
-19.259
-19.276
-19.513
-19.923
-20.456
-21.054
-21.663
-22.242
-22.755
-23.175
-23.48
-23.651
-23.671
-23.533
-23.224
-22.732
-22.046
-21.152
-20.038
-18.697
-17.123
-15.31
-13.257
-10.959
-8.41
-5.608
-2.55
0.766
4.342
8.18
12.277
16.63
21.231
26.071
31.139
36.422
41.906
47.575
53.412
59.399
65.518
71.749
78.074
84.472
90.921
97.4
103.886
110.356
116.787
123.157
129.44
135.614
141.656
147.542
153.249
158.755
164.037
169.073
173.841
178.322
182.495
186.343
189.847
192.993
195.766
198.155
200.148
201.737
202.916
203.678
204.021
203.942
203.443
202.523
201.187
199.44
197.288
194.739
191.805
188.495
184.823
180.804
176.454
171.789
166.83
161.594
156.104
150.381
144.449
138.331
132.052
125.638
119.113
112.505
105.837
99.137
92.429
85.738
79.088
72.502
66.003
59.611
53.348
47.232
41.281
35.512
29.939
24.578
19.439
14.534
9.873
5.463
1.31
-2.579
-6.203
-9.557
-12.642
-15.458
-18.007
-20.292
-22.319
-24.094
-25.623
-26.915
-27.981
-28.829
-29.471
-29.92
-30.186
-30.284
-30.227
-30.027
-29.699
-29.256
-28.712
-28.08
-27.372
-26.601
-25.779
-24.917
-24.027
-23.118
-22.199
-21.281
-20.371
-19.478
-18.608
-17.767
-16.962
-16.198
-15.479
-14.808
-14.189
-13.623
-13.112
-12.657
-12.258
-11.915
-11.626
-11.39
-11.204
-11.067
-10.975
-10.924
-10.911
-10.932
-10.983
-11.06
-11.158
-11.275
-11.407
-11.55
-11.702
-11.859
-12.02
-12.182
-12.343
-12.501
-12.654
-12.802
-12.942
-13.075
-13.2
-13.316
-13.424
-13.523
-13.615
-13.699
-13.776
-13.847
-13.912
-13.974
-14.033
-14.091
-14.15
-14.213
-14.281
-14.357
-14.442
-14.54
-14.65
-14.776
-14.919
-15.078
-15.256
-15.453
-15.669
-15.904
-16.159
-16.433
-16.726
-17.036
-17.365
-17.709
-18.068
-18.44
-18.826
-19.222
-19.628
-20.044
-20.468
-20.899
-21.337
-21.78
-22.229
-22.682
-23.138
-23.596
-24.055
-24.515
-24.975
-25.434
-25.893
-26.351
-26.809
-27.266
-27.725
-28.185
-28.646
-29.11
-29.578
-30.049
-30.526
-31.009
-31.499
-31.997
-32.505
-33.023
-33.553
-34.093
-34.644
-35.205
-35.774
-36.351
-36.934
-37.519
-38.105
-38.689
-39.268
-39.838
-40.396
-40.939
-41.461
-41.958
-42.424
-42.856
-43.246
-43.59
-43.88
-44.113
-44.281
-44.381
-44.406
-44.352
-44.213
-43.984
-43.662
-43.241
-42.717
-42.088
-41.351
-40.504
-39.547
-38.479
-37.302
-36.018
-34.63
-33.143
-31.56
-29.887
-28.132
-26.301
-24.402
-22.446
-20.443
-18.403
-16.338
-14.261
-12.185
-10.127
-8.101
-6.124
-4.211
-2.378
-0.642
0.983
2.482
3.843
5.055
6.107
6.988
7.688
8.196
8.504
8.602
8.485
8.146
7.582
6.797
5.795
4.585
3.173
1.558
-0.26
-2.279
-4.498
-6.908
-9.502
-12.263
-15.163
-18.163
-21.213
-24.264
-27.273
-30.206
-33.031
-35.716
-38.228
-40.525
-42.567
-44.322
-45.752
-46.831
-47.543
-47.903
-47.965
-47.817
-47.569
-47.32
-47.148
-47.132
-47.363
-47.932
-48.942
-50.493
-52.629
-55.434
-59.037
-63.431
-68.5
-73.95
-79.219
-83.784
-87.231
-89.051
-88.852
-86.594
-82.437
-77.071
-71.68
-67.158
-64.238
-63.665
-65.545
-69.377
-74.239
-78.109
-78.359
-72.713
-58.92
-34.943
0.492
47.757
106.049
173.148
244.229
313.969
378.801
433.651
476.673
506.843
516.117
499.934
453.47
372.236
265.566
143.208
14.769
-106.888
-218.032
-315.574
-394.116
-451.967
-486.134
-494.733
-480.185
-446.372
-398.266
-342.134
-284.127
-229.097
-181.257
-143.874
-118.218
-104.155
-100.601
-105.005
-114.186
-125.398
-135.768
-142.958
-145.899
-144.121
-137.811
-128.074
-116.295
-103.883
-92.473
-83.204
-76.52
-72.645
-71.438
-72.437
-75.147
-78.9
-82.901
-86.662
-89.95
-92.614
-94.635
-95.984
-96.599
-96.513
-95.816
-94.557
-92.776
-90.494
-87.728
-84.561
-81.116
-77.531
-73.942
-70.439
-67.08
-63.921
-61.013
-58.401
-56.115
-54.156
-52.514
-51.181
-50.15
-49.408
-48.93
-48.673
-48.583
-48.604
-48.676
-48.753
-48.802
-48.791
-48.696
-48.498
-48.179
-47.734
-47.156
-46.439
-45.569
-44.537
-43.331
-41.943
-40.371
-38.609
-36.655
-34.507
-32.16
-29.611
-26.857
-23.894
-20.718
-17.327
-13.716
-9.886
-5.84
-1.583
2.88
7.537
12.381
17.399
22.578
27.905
33.367
38.948
44.633
50.408
56.256
62.16
68.103
74.066
80.031
85.979
91.891
97.748
103.528
109.214
114.784
120.219
125.5
130.606
135.519
140.218
144.686
148.905
152.857
156.526
159.898
162.96
165.698
168.102
170.164
171.876
173.231
174.224
174.853
175.113
175.006
174.532
173.692
172.489
170.93
169.02
166.767
164.18
161.27
158.047
154.525
150.718
146.64
142.31
137.742
132.957
127.974
122.813
117.496
112.042
106.475
100.816
95.087
89.31
83.507
77.699
71.907
66.15
60.45
54.824
49.291
43.868
38.571
33.416
28.416
23.585
18.936
14.477
10.22
6.173
2.343
-1.263
-4.64
-7.784
-10.692
-13.364
-15.798
-17.997
-19.961
-21.695
-23.202
-24.488
-25.56
-26.424
-27.088
-27.56
-27.851
-27.968
-27.923
-27.727
-27.389
-26.922
-26.337
-25.645
-24.858
-23.986
-23.041
-22.035
-20.977
-19.879
-18.751
-17.604
-16.447
-15.29
-14.141
-13.011
-11.906
-10.834
-9.803
-8.819
-7.887
-7.013
-6.202
-5.457
-4.784
-4.185
-3.662
-3.217
-2.852
-2.567
-2.362
-2.237
-2.19
-2.219
-2.322
-2.495
-2.737
-3.043
-3.41
-3.832
-4.305
-4.826
-5.387
-5.985
-6.614
-7.268
-7.943
-8.634
-9.334
-10.04
-10.747
-11.451
-12.146
-12.828
-13.493
-14.138
-14.757
-15.348
-15.905
-16.427
-16.91
-17.351
-17.75
-18.104
-18.413
-18.676
-18.895
-19.07
-19.201
-19.292
-19.344
-19.359
-19.341
-19.292
-19.216
-19.118
-19
-18.866
-18.719
-18.564
-18.403
-18.239
-18.075
-17.914
-17.759
-17.611
-17.475
-17.354
-17.251
-17.17
-17.113
-17.086
-17.091
-17.132
-17.211
-17.33
-17.491
-17.695
-17.943
-18.234
-18.569
-18.947
-19.367
-19.828
-20.329
-20.869
-21.443
-22.052
-22.69
-23.358
-24.052
-24.771
-25.512
-26.275
-27.058
-27.861
-28.683
-29.521
-30.373
-31.236
-32.107
-32.981
-33.852
-34.714
-35.559
-36.382
-37.178
-37.94
-38.664
-39.344
-39.978
-40.565
-41.1
-41.58
-41.999
-42.35
-42.628
-42.826
-42.937
-42.953
-42.868
-42.674
-42.367
-41.946
-41.409
-40.749
-39.957
-39.019
-37.929
-36.685
-35.288
-33.738
-32.045
-30.221
-28.292
-26.298
-24.265
-22.212
-20.146
-18.062
-15.959
-13.839
-11.699
-9.535
-7.342
-5.11
-2.837
-0.533
1.813
4.22
6.731
9.415
12.313
15.429
18.758
22.271
25.926
29.68
33.464
37.183
40.757
44.11
47.184
49.947
52.34
54.287
55.698
56.458
56.485
55.746
54.21
51.866
48.734
44.853
40.302
35.208
29.679
23.811
17.696
11.41
5.047
-1.282
-7.464
-13.387
-18.944
-24.056
-28.645
-32.627
-35.963
-38.638
-40.664
-42.098
-43.01
-43.477
-43.601
-43.505
-43.288
-43.032
-42.837
-42.803
-43.057
-43.728
-44.928
-46.732
-49.225
-52.548
-56.74
-61.681
-67.053
-72.28
-76.795
-80.181
-82.008
-81.737
-79.098
-74.162
-67.46
-60.271
-53.796
-48.739
-45.798
-45.633
-48.332
-53.35
-59.158
-62.903
-61.748
-53.214
-34.661
-3.604
42.127
102.152
172.889
250.067
328.861
408.848
494.033
581.937
665.278
728.779
750.033
719.84
639.843
520.998
382.507
233.86
80.284
-70.788
-209.644
-320.655
-392.123
-424.245
-428.061
-417.682
-402.385
-384.077
-358.643
-324.066
-283.035
-240.106
-200.975
-169.358
-146.233
-131.435
-123.863
-121.904
-123.659
-127.517
-132.08
-135.64
-136.912
-135.291
-130.561
-123.218
-114.293
-104.559
-94.851
-86.301
-79.637
-75.215
-73.209
-73.333
-75.088
-78.052
-81.654
-85.263
-88.501
-91.125
-92.983
-94.055
-94.32
-93.758
-92.431
-90.43
-87.82
-84.656
-80.978
-76.85
-72.383
-67.729
-63.056
-58.482
-54.085
-49.925
-46.052
-42.517
-39.365
-36.605
-34.22
-32.2
-30.535
-29.219
-28.244
-27.573
-27.154
-26.931
-26.838
-26.827
-26.86
-26.901
-26.921
-26.894
-26.795
-26.612
-26.337
-25.958
-25.458
-24.818
-24.017
-23.042
-21.883
-20.531
-18.976
-17.211
-15.225
-13.012
-10.565
-7.876
-4.939
-1.747
1.707
5.424
9.405
13.647
18.146
22.894
27.883
33.103
38.541
44.184
50.018
56.026
62.191
68.496
74.921
81.446
88.048
94.705
101.394
108.092
114.772
121.411
127.984
134.464
140.826
147.045
153.096
158.954
164.594
169.994
175.129
179.978
184.52
188.735
192.604
196.11
199.238
201.972
204.3
206.212
207.697
208.748
209.359
209.525
209.243
208.514
207.338
205.719
203.66
201.169
198.254
194.926
191.196
187.079
182.588
177.743
172.56
167.059
161.261
155.188
148.863
142.31
135.553
128.617
121.528
114.311
106.993
99.6
92.157
84.69
77.224
69.785
62.396
55.081
47.864
40.766
33.809
27.011
20.392
13.969
7.758
1.773
-3.973
-9.467
-14.7
-19.664
-24.352
-28.757
-32.876
-36.706
-40.247
-43.498
-46.461
-49.14
-51.538
-53.661
-55.516
-57.109
-58.45
-59.546
-60.409
-61.047
-61.472
-61.696
-61.73
-61.588
-61.281
-60.823
-60.227
-59.507
-58.674
-57.743
-56.724
-55.629
-54.472
-53.262
-52.012
-50.732
-49.432
-48.122
-46.812
-45.509
-44.222
-42.957
-41.721
-40.519
-39.355
-38.234
-37.16
-36.136
-35.166
-34.25
-33.393
-32.596
-31.859
-31.184
-30.571
-30.016
-29.521
-29.082
-28.698
-28.367
-28.088
-27.856
-27.671
-27.528
-27.426
-27.362
-27.333
-27.333
-27.358
-27.404
-27.466
-27.544
-27.631
-27.726
-27.824
-27.922
-28.02
-28.117
-28.214
-28.31
-28.398
-28.471
-28.525
-28.557
-28.563
-28.539
-28.48
-28.375
-28.227
-28.037
-27.809
-27.552
-27.263
-26.936
-26.563
-26.153
-25.739
-25.339
-24.974
-24.652
-24.343
-24.066
-23.874
-23.735
-23.618
-23.525
-23.352
-23.059
-22.813
-22.624
-22.471
-22.637
-23.18
-23.777
-24.546
-25.614
-26.305
-27.742
-30.78
-33.227
-34.898
-33.024
-23.844
-11.781
0.08
7.358
3.555
-6.998
-19.658
-30.874
-35.159
-35.339
-34.807
-34.429
-35.805
-37.145
-37.279
-37.044
-37.538
-39.36
-40.52
-40.588
-41.063
-45.298
-60.688
-86.634
-113.654
-131.887
-128.637
-102.554
-66.287
-30.141
-4.227
8.234
14.235
17.099
18.259
18.571
15.825
10.018
2.435
-6.488
-15.71
-24.017
-30.508
-34.643
-36.77
-37.949
-38.962
-40.07
-41.257
-42.523
-44.127
-46.258
-48.681
-50.846
-52.233
-52.525
-51.689
-49.858
-47.083
-43.411
-38.946
-33.836
-28.285
-22.493
-16.564
-10.55
-4.493
1.566
7.531
13.274
18.675
23.61
27.995
31.798
34.991
37.573
39.566
40.996
41.924
42.441
42.603
42.439
41.961
41.155
40.03
38.624
36.967
35.089
33.013
30.745
28.301
25.703
22.962
20.077
17.036
13.813
10.409
6.86
3.21
-0.489
-4.194
-7.878
-11.506
-15.026
-18.385
-21.535
-24.442
-27.103
-29.511
-31.645
-33.491
-35.056
-36.379
-37.56
-38.714
-39.931
-41.29
-42.854
-44.665
-46.805
-49.371
-52.429
-56.039
-60.222
-64.933
-70.211
-76.147
-82.643
-89.443
-96.082
-101.826
-106.079
-108.463
-108.456
-105.52
-99.504
-90.525
-79.348
-67.512
-56.307
-46.648
-39.519
-35.558
-34.657
-36.177
-38.252
-37.746
-31.572
-16.831
9.447
49.763
103.987
169.438
242.349
317.093
392.425
471.822
552.874
629.456
686.884
702.093
664.908
575.821
445.691
295.127
135.212
-26.844
-182.351
-321.616
-429.206
-494.452
-518.524
-512.688
-491.615
-465.14
-435.628
-399.586
-355.497
-306.39
-257.207
-214.217
-181.131
-158.137
-144.42
-138.256
-137.312
-139.395
-142.386
-144.006
-142.607
-137.592
-128.845
-116.804
-102.545
-87.226
-72.052
-58.443
-47.355
-39.144
-33.948
-31.58
-31.6
-33.576
-36.939
-40.98
-45.235
-49.432
-53.344
-56.839
-59.775
-61.999
-63.468
-64.221
-64.276
-63.647
-62.348
-60.396
-57.866
-54.866
-51.505
-47.879
-44.058
-40.111
-36.129
-32.225
-28.521
-25.102
-22.016
-19.289
-16.935
-14.964
-13.374
-12.136
-11.201
-10.521
-10.052
-9.758
-9.616
-9.589
-9.638
-9.717
-9.774
-9.767
-9.669
-9.452
-9.093
-8.573
-7.872
-6.984
-5.909
-4.642
-3.176
-1.501
0.394
2.52
4.88
7.48
10.325
13.417
16.759
20.351
24.194
28.286
32.625
37.21
42.039
47.106
52.404
57.926
63.658
69.589
75.705
81.989
88.424
94.992
101.672
108.446
115.292
122.188
129.111
136.037
142.941
149.799
156.583
163.269
169.829
176.237
182.467
188.493
194.29
199.833
205.099
210.066
214.712
219.016
222.96
226.525
229.695
232.456
234.794
236.698
238.159
239.168
239.722
239.815
239.449
238.622
237.337
235.6
233.417
230.796
227.748
224.286
220.424
216.18
211.571
206.619
201.344
195.77
189.921
183.822
177.498
170.975
164.281
157.443
150.487
143.442
136.335
129.193
122.043
114.912
107.825
100.806
93.88
87.068
80.393
73.873
67.529
61.376
55.432
49.71
44.225
38.986
34.004
29.285
24.837
20.662
16.764
13.143
9.799
6.728
3.929
1.396
-0.876
-2.895
-4.668
-6.203
-7.511
-8.603
-9.488
-10.18
-10.69
-11.031
-11.215
-11.254
-11.161
-10.948
-10.627
-10.21
-9.71
-9.138
-8.505
-7.822
-7.099
-6.347
-5.574
-4.789
-3.999
-3.212
-2.433
-1.668
-0.922
-0.2
0.495
1.159
1.789
2.384
2.94
3.458
3.937
4.375
4.774
5.134
5.455
5.738
5.984
6.193
6.367
6.505
6.61
6.681
6.721
6.731
6.711
6.664
6.589
6.489
6.364
6.215
6.042
5.846
5.628
5.387
5.125
4.84
4.535
4.209
3.862
3.495
3.108
2.701
2.275
1.828
1.361
0.875
0.37
-0.154
-0.695
-1.252
-1.823
-2.409
-3.006
-3.613
-4.229
-4.852
-5.48
-6.111
-6.744
-7.376
-8.005
-8.63
-9.248
-9.858
-10.456
-11.043
-11.615
-12.171
-12.71
-13.232
-13.734
-14.216
-14.677
-15.117
-15.534
-15.929
-16.301
-16.65
-16.978
-17.284
-17.57
-17.838
-18.089
-18.325
-18.548
-18.76
-18.965
-19.163
-19.358
-19.552
-19.747
-19.945
-20.15
-20.363
-20.586
-20.822
-21.072
-21.338
-21.621
-21.922
-22.242
-22.58
-22.937
-23.313
-23.706
-24.116
-24.541
-24.979
-25.428
-25.885
-26.348
-26.812
-27.273
-27.726
-28.167
-28.588
-28.986
-29.352
-29.682
-29.969
-30.206
-30.389
-30.511
-30.565
-30.547
-30.45
-30.27
-30.002
-29.64
-29.18
-28.619
-27.953
-27.182
-26.303
-25.315
-24.218
-23.012
-21.698
-20.279
-18.758
-17.139
-15.426
-13.627
-11.749
-9.802
-7.796
-5.742
-3.653
-1.544
0.571
2.677
4.758
6.8
8.786
10.701
12.53
14.259
15.871
17.352
18.685
19.856
20.851
21.655
22.256
22.641
22.798
22.716
22.392
21.821
21.001
19.925
18.587
16.984
15.124
13.015
10.669
8.101
5.327
2.374
-0.717
-3.904
-7.147
-10.416
-13.689
-16.943
-20.147
-23.262
-26.243
-29.066
-31.718
-34.194
-36.481
-38.564
-40.446
-42.161
-43.785
-45.401
-47.067
-48.821
-50.677
-52.655
-54.798
-57.175
-59.843
-62.832
-66.159
-69.804
-73.802
-78.246
-83.07
-88.06
-92.859
-96.942
-99.887
-101.467
-101.338
-99.068
-94.599
-88.076
-80.01
-71.501
-63.367
-56.098
-50.384
-46.745
-45.072
-44.961
-45.289
-43.909
-39.003
-28.819
-11.36
14.714
50.34
96.081
150.883
212.482
276.962
337.769
390.566
432.623
463.029
485.331
496.756
489.493
455.724
383.938
271.616
127.837
-34.706
-194.98
-331.221
-431.147
-488.658
-508.424
-504.839
-488.804
-466.71
-440.351
-405.371
-360.373
-308.99
-255.895
-207.501
-168.855
-141.22
-124.296
-117.004
-117.525
-123.712
-133.662
-144.995
-154.753
-161.197
-163.577
-161.582
-155.788
-147.188
-136.57
-125.183
-114.748
-106.237
-100.105
-96.553
-95.214
-95.633
-97.485
-100.198
-103.036
-105.572
-107.543
-108.784
-109.374
-109.345
-108.676
-107.437
-105.704
-103.521
-100.95
-98.036
-94.795
-91.298
-87.642
-83.916
-80.235
-76.684
-73.32
-70.202
-67.367
-64.834
-62.619
-60.722
-59.135
-57.85
-56.85
-56.107
-55.6
-55.293
-55.145
-55.111
-55.136
-55.174
-55.192
-55.161
-55.057
-54.863
-54.56
-54.135
-53.582
-52.891
-52.054
-51.061
-49.899
-48.56
-47.038
-45.328
-43.428
-41.334
-39.041
-36.545
-33.841
-30.927
-27.798
-24.453
-20.888
-17.103
-13.098
-8.879
-4.45
0.182
5.007
10.018
15.203
20.548
26.04
31.666
37.41
43.257
49.189
55.188
61.236
67.314
73.404
79.485
85.538
91.541
97.475
103.318
109.05
114.648
120.092
125.36
130.432
135.286
139.903
144.263
148.348
152.138
155.617
158.769
161.579
164.033
166.118
167.825
169.144
170.068
170.591
170.71
170.424
169.731
168.635
167.137
165.242
162.958
160.291
157.251
153.849
150.096
146.007
141.597
136.883
131.881
126.612
121.095
115.352
109.403
103.272
96.983
90.558
84.022
77.401
70.717
63.997
57.265
50.545
43.86
37.234
30.687
24.239
17.911
11.719
5.681
-0.188
-5.874
-11.364
-16.647
-21.711
-26.547
-31.147
-35.505
-39.614
-43.471
-47.072
-50.417
-53.505
-56.336
-58.912
-61.237
-63.315
-65.15
-66.75
-68.121
-69.273
-70.213
-70.954
-71.504
-71.875
-72.08
-72.128
-72.032
-71.803
-71.452
-70.99
-70.426
-69.771
-69.035
-68.227
-67.357
-66.433
-65.466
-64.462
-63.431
-62.38
-61.315
-60.245
-59.176
-58.113
-57.062
-56.029
-55.018
-54.033
-53.079
-52.158
-51.273
-50.425
-49.616
-48.845
-48.113
-47.418
-46.761
-46.138
-45.55
-44.994
-44.47
-43.975
-43.51
-43.071
-42.659
-42.272
-41.907
-41.564
-41.242
-40.937
-40.65
-40.377
-40.118
-39.871
-39.633
-39.405
-39.183
-38.967
-38.753
-38.541
-38.329
-38.116
-37.899
-37.679
-37.455
-37.227
-36.996
-36.761
-36.523
-36.285
-36.045
-35.807
-35.57
-35.335
-35.103
-34.874
-34.649
-34.428
-34.213
-34.004
-33.8
-33.604
-33.415
-33.234
-33.062
-32.897
-32.741
-32.595
-32.457
-32.33
-32.213
-32.107
-32.015
-31.936
-31.871
-31.823
-31.791
-31.776
-31.777
-31.796
-31.831
-31.881
-31.945
-32.023
-32.113
-32.215
-32.328
-32.452
-32.586
-32.728
-32.88
-33.04
-33.207
-33.38
-33.557
-33.74
-33.927
-34.117
-34.31
-34.505
-34.701
-34.897
-35.092
-35.282
-35.465
-35.637
-35.793
-35.929
-36.041
-36.122
-36.167
-36.173
-36.135
-36.05
-35.917
-35.732
-35.493
-35.198
-34.845
-34.429
-33.945
-33.386
-32.743
-32.01
-31.182
-30.253
-29.22
-28.077
-26.821
-25.453
-23.97
-22.369
-20.644
-18.785
-16.781
-14.639
-12.363
-9.969
-7.478
-4.908
-2.281
0.375
3.038
5.697
8.349
11.009
13.694
16.407
19.143
21.88
24.598
27.295
29.971
32.631
35.295
37.976
40.696
43.498
46.406
49.41
52.485
55.559
58.548
61.392
64.044
66.476
68.668
70.578
72.166
73.398
74.221
74.587
74.443
73.698
72.285
70.184
67.398
63.987
60.053
55.662
50.872
45.742
40.314
34.66
28.869
23.016
17.181
11.453
5.921
0.717
-4.033
-8.252
-11.875
-14.895
-17.363
-19.299
-20.72
-21.673
-22.207
-22.413
-22.446
-22.45
-22.553
-22.904
-23.621
-24.84
-26.73
-29.411
-32.971
-37.428
-42.729
-48.819
-55.688
-63.308
-71.494
-79.929
-88.159
-95.646
-101.875
-106.366
-108.62
-108.099
-104.623
-98.292
-89.213
-78.075
-66.034
-54.1
-43.22
-32.834
-20.276
-3.401
17.872
39.499
55.684
65.403
74.587
97.871
148.909
229.437
330.19
430.431
513.17
575.444
619.761
654.232
675.832
665.548
606.177
481.628
296.389
80.154
-131.837
-298.491
-396.577
-429.823
-415.949
-385.65
-360.151
-343.833
-332.307
-313.986
-284.164
-246.294
-205.632
-169.131
-140.296
-119.486
-106.761
-100.794
-99.801
-102.621
-108.486
-116.683
-126.201
-135.585
-143.329
-148.814
-152.545
-154.82
-155.175
-153.396
-149.642
-144.337
-138.272
-131.597
-123.528
-113.94
-103.582
-92.935
-82.393
-72.229
-62.311
-52.981
-45.163
-39.105
-34.396
-30.763
-27.914
-25.685
-24.222
-23.407
-22.826
-22.376
-22.22
-22.457
-23.164
-24.299
-25.628
-26.99
-28.346
-29.604
-30.636
-31.342
-31.617
-31.42
-30.791
-29.769
-28.375
-26.648
-24.618
-22.334
-19.886
-17.341
-14.753
-12.179
-9.655
-7.209
-4.87
-2.645
-0.527
1.497
3.445
5.345
7.219
9.096
11.008
12.991
15.092
17.348
19.785
22.428
25.294
28.395
31.742
35.339
39.18
43.261
47.581
52.136
56.925
61.943
67.182
72.633
78.286
84.127
90.148
96.336
102.68
109.166
115.781
122.511
129.343
136.262
143.248
150.283
157.344
164.408
171.454
178.457
185.392
192.233
198.955
205.535
211.948
218.167
224.169
229.929
235.422
240.624
245.511
250.062
254.254
258.066
261.48
264.476
267.039
269.155
270.809
271.991
272.693
272.908
272.632
271.863
270.601
268.849
266.613
263.9
260.721
257.086
253.012
248.514
243.61
238.322
232.671
226.681
220.377
213.785
206.934
199.851
192.566
185.109
177.511
169.803
162.017
154.183
146.334
138.499
130.71
122.994
115.382
107.899
100.571
93.423
86.476
79.753
73.271
67.048
61.098
55.436
50.072
45.016
40.275
35.854
31.756
27.983
24.534
21.407
18.598
16.101
13.91
12.016
10.41
9.08
8.015
7.202
6.627
6.274
6.129
6.176
6.398
6.778
7.3
7.948
8.706
9.556
10.484
11.475
12.515
13.588
14.682
15.786
16.885
17.971
19.033
20.062
21.049
21.988
22.872
23.694
24.451
25.138
25.75
26.287
26.744
27.121
27.415
27.628
27.758
27.807
27.775
27.664
27.477
27.215
26.882
26.48
26.012
25.482
24.892
24.246
23.548
22.8
22.007
21.171
20.296
19.386
18.442
17.468
16.467
15.441
14.392
13.324
12.238
11.137
10.023
8.899
7.766
6.628
5.487
4.345
3.204
2.067
0.936
-0.186
-1.299
-2.401
-3.488
-4.561
-5.618
-6.656
-7.676
-8.676
-9.656
-10.614
-11.55
-12.465
-13.357
-14.227
-15.075
-15.901
-16.706
-17.49
-18.254
-18.999
-19.726
-20.436
-21.132
-21.814
-22.486
-23.15
-23.809
-24.467
-25.126
-25.791
-26.465
-27.153
-27.856
-28.581
-29.33
-30.107
-30.915
-31.759
-32.64
-33.563
-34.529
-35.542
-36.603
-37.713
-38.873
-40.085
-41.349
-42.663
-44.029
-45.444
-46.908
-48.419
-49.974
-51.569
-53.202
-54.867
-56.559
-58.273
-60.001
-61.737
-63.472
-65.199
-66.908
-68.591
-70.239
-71.841
-73.389
-74.872
-76.28
-77.603
-78.831
-79.955
-80.965
-81.852
-82.607
-83.224
-83.693
-84.01
-84.167
-84.159
-83.983
-83.633
-83.107
-82.403
-81.52
-80.458
-79.22
-77.807
-76.224
-74.477
-72.573
-70.52
-68.33
-66.012
-63.578
-61.041
-58.416
-55.719
-52.966
-50.173
-47.359
-44.544
-41.747
-38.99
-36.294
-33.682
-31.173
-28.791
-26.554
-24.485
-22.598
-20.912
-19.44
-18.199
-17.202
-16.463
-15.994
-15.805
-15.905
-16.299
-16.992
-17.981
-19.259
-20.819
-22.649
-24.742
-27.097
-29.706
-32.56
-35.649
-38.958
-42.468
-46.151
-49.969
-53.869
-57.804
-61.725
-65.591
-69.371
-73.024
-76.515
-79.8
-82.829
-85.562
-87.962
-89.99
-91.617
-92.843
-93.697
-94.244
-94.586
-94.806
-94.969
-95.147
-95.419
-95.883
-96.639
-97.781
-99.372
-101.495
-104.31
-107.883
-112.137
-116.815
-121.397
-125.303
-128.07
-129.185
-128.009
-124.259
-118.054
-109.926
-101.217
-93.34
-87.298
-84.215
-85.168
-90.363
-99.12
-109.9
-119.709
-125.044
-122.715
-109.155
-80.587
-35.678
23.649
94.636
172.89
256.464
348.893
449.82
552.414
642.526
697.189
698.483
641.388
532.465
387.677
222.138
47.09
-128.163
-291.645
-425.809
-518.462
-565.279
-573.286
-561.012
-540.81
-517.921
-492.526
-458.369
-414.616
-365.994
-317.194
-274.076
-240.374
-216.166
-200.612
-192.498
-190.026
-191.257
-194.678
-198.433
-200.195
-198.78
-193.866
-185.467
-174.366
-161.596
-147.873
-134.259
-122.221
-112.542
-105.562
-101.4
-99.641
-99.814
-101.596
-104.449
-107.707
-110.953
-113.863
-116.164
-117.818
-118.777
-118.974
-118.454
-117.265
-115.423
-112.98
-109.985
-106.483
-102.562
-98.317
-93.822
-89.171
-84.452
-79.765
-75.242
-70.976
-67.025
-63.426
-60.192
-57.334
-54.863
-52.765
-51.003
-49.533
-48.315
-47.309
-46.492
-45.826
-45.266
-44.766
-44.27
-43.737
-43.138
-42.446
-41.64
-40.701
-39.61
-38.357
-36.942
-35.363
-33.613
-31.683
-29.56
-27.237
-24.711
-21.976
-19.03
-15.868
-12.486
-8.882
-5.055
-1.005
3.269
7.765
12.484
17.422
22.574
27.932
33.487
39.227
45.14
51.213
57.429
63.773
70.227
76.773
83.394
90.069
96.779
103.502
110.216
116.9
123.531
130.084
136.536
142.863
149.041
155.044
160.85
166.434
171.772
176.841
181.621
186.088
190.224
194.009
197.425
200.457
203.089
205.309
207.106
208.47
209.393
209.872
209.901
209.48
208.609
207.291
205.529
203.33
200.701
197.654
194.199
190.351
186.126
181.541
176.616
171.371
165.83
160.015
153.953
147.669
141.19
134.544
127.758
120.862
113.883
106.851
99.793
92.737
85.71
78.739
71.849
65.064
58.408
51.902
45.567
39.422
33.486
27.774
22.302
17.083
12.129
7.449
3.053
-1.055
-4.869
-8.386
-11.605
-14.527
-17.154
-19.49
-21.54
-23.31
-24.808
-26.044
-27.027
-27.768
-28.28
-28.573
-28.662
-28.559
-28.278
-27.832
-27.235
-26.501
-25.643
-24.674
-23.609
-22.46
-21.24
-19.961
-18.637
-17.279
-15.898
-14.504
-13.109
-11.722
-10.351
-9.005
-7.69
-6.414
-5.182
-4
-2.871
-1.799
-0.787
0.162
1.047
1.867
2.622
3.309
3.931
4.486
4.976
5.401
5.761
6.059
6.294
6.47
6.588
6.649
6.657
6.613
6.52
6.382
6.201
5.98
5.722
5.43
5.108
4.758
4.383
3.987
3.572
3.141
2.696
2.239
1.773
1.299
0.819
0.335
-0.152
-0.639
-1.125
-1.607
-2.084
-2.555
-3.016
-3.466
-3.904
-4.327
-4.735
-5.126
-5.498
-5.85
-6.182
-6.492
-6.78
-7.046
-7.289
-7.511
-7.71
-7.887
-8.045
-8.182
-8.3
-8.4
-8.483
-8.55
-8.602
-8.641
-8.666
-8.681
-8.687
-8.685
-8.677
-8.667
-8.656
-8.647
-8.642
-8.644
-8.655
-8.679
-8.717
-8.773
-8.848
-8.946
-9.068
-9.217
-9.394
-9.6
-9.838
-10.106
-10.405
-10.736
-11.096
-11.485
-11.901
-12.343
-12.807
-13.292
-13.794
-14.31
-14.836
-15.367
-15.899
-16.426
-16.943
-17.443
-17.92
-18.367
-18.779
-19.147
-19.464
-19.723
-19.918
-20.04
-20.083
-20.039
-19.901
-19.664
-19.321
-18.866
-18.296
-17.605
-16.791
-15.851
-14.785
-13.59
-12.268
-10.818
-9.244
-7.549
-5.737
-3.813
-1.784
0.342
2.557
4.851
7.211
9.628
12.088
14.577
17.08
19.58
22.061
24.503
26.89
29.203
31.424
33.533
35.516
37.356
39.04
40.552
41.877
43.001
43.91
44.592
45.037
45.236
45.18
44.867
44.298
43.475
42.404
41.085
39.512
37.686
35.61
33.292
30.742
27.975
25.012
21.883
18.631
15.295
11.914
8.522
5.138
1.793
-1.477
-4.634
-7.624
-10.405
-12.952
-15.233
-17.216
-18.908
-20.332
-21.54
-22.625
-23.65
-24.65
-25.683
-26.803
-28.092
-29.654
-31.578
-33.929
-36.803
-40.334
-44.567
-49.421
-54.622
-59.681
-64.121
-67.588
-69.73
-70.087
-68.443
-64.966
-60.216
-55.313
-51.344
-48.827
-48.19
-50.024
-54.437
-60.831
-67.898
-73.2
-73.997
-68.461
-55.015
-31.58
3.6
51.393
111.666
180.869
252.759
322.875
388.078
448.923
508.61
564.486
608.28
625.624
600.663
527.299
408.862
258.496
95.108
-64.794
-205.398
-315.52
-391.074
-433.777
-453.26
-459.411
-457.376
-447.397
-425.095
-389.063
-342.413
-290.316
-239.219
-193.009
-153.485
-122.612
-100.967
-87.951
-82.592
-83.066
-87.564
-94.862
-103.189
-110.099
-114.056
-114.508
-111.515
-105.913
-98.526
-89.844
-80.81
-72.783
-66.601
-62.621
-60.824
-60.667
-61.632
-63.418
-65.576
-67.568
-69.058
-69.807
-69.719
-68.912
-67.478
-65.465
-62.962
-60.039
-56.752
-53.196
-49.458
-45.627
-41.825
-38.142
-34.636
-31.371
-28.385
-25.722
-23.416
-21.468
-19.86
-18.579
-17.612
-16.954
-16.596
-16.504
-16.631
-16.923
-17.32
-17.776
-18.254
-18.714
-19.124
-19.457
-19.687
-19.803
-19.799
-19.66
-19.371
-18.915
-18.274
-17.435
-16.391
-15.133
-13.655
-11.95
-10.012
-7.836
-5.42
-2.759
0.153
3.319
6.743
10.428
14.37
18.567
23.014
27.701
32.622
37.763
43.114
48.659
54.383
60.272
66.308
72.474
78.751
85.119
91.559
98.048
104.567
111.092
117.601
124.072
130.481
136.806
143.024
149.112
155.048
160.811
166.379
171.732
176.849
181.711
186.298
190.593
194.58
198.243
201.566
204.538
207.147
209.384
211.239
212.707
213.782
214.46
214.738
214.617
214.095
213.176
211.863
210.161
208.077
205.62
202.799
199.626
196.114
192.276
188.128
183.686
178.967
173.99
168.773
163.336
157.7
151.887
145.919
139.816
133.603
127.302
120.934
114.522
108.087
101.652
95.236
88.859
82.542
76.303
70.16
64.13
58.231
52.477
46.882
41.46
36.222
31.18
26.342
21.717
17.312
13.131
9.18
5.462
1.979
-1.269
-4.282
-7.061
-9.61
-11.932
-14.032
-15.917
-17.592
-19.067
-20.347
-21.442
-22.36
-23.111
-23.704
-24.148
-24.454
-24.631
-24.691
-24.643
-24.498
-24.266
-23.957
-23.582
-23.15
-22.67
-22.151
-21.601
-21.03
-20.444
-19.853
-19.261
-18.677
-18.105
-17.552
-17.022
-16.518
-16.044
-15.603
-15.197
-14.828
-14.497
-14.207
-13.957
-13.749
-13.583
-13.46
-13.379
-13.34
-13.344
-13.389
-13.474
-13.598
-13.762
-13.962
-14.199
-14.47
-14.776
-15.113
-15.481
-15.877
-16.3
-16.749
-17.22
-17.714
-18.227
-18.759
-19.309
-19.875
-20.457
-21.055
-21.666
-22.291
-22.929
-23.578
-24.238
-24.908
-25.586
-26.271
-26.962
-27.658
-28.357
-29.058
-29.759
-30.458
-31.153
-31.843
-32.526
-33.2
-33.863
-34.514
-35.151
-35.774
-36.381
-36.971
-37.543
-38.095
-38.628
-39.14
-39.631
-40.098
-40.542
-40.962
-41.357
-41.728
-42.074
-42.396
-42.695
-42.97
-43.223
-43.454
-43.667
-43.861
-44.039
-44.204
-44.358
-44.503
-44.644
-44.782
-44.92
-45.062
-45.209
-45.364
-45.531
-45.709
-45.902
-46.112
-46.339
-46.585
-46.852
-47.14
-47.45
-47.781
-48.133
-48.505
-48.896
-49.304
-49.726
-50.16
-50.604
-51.052
-51.502
-51.949
-52.386
-52.81
-53.213
-53.588
-53.929
-54.227
-54.476
-54.668
-54.795
-54.851
-54.827
-54.718
-54.518
-54.218
-53.815
-53.303
-52.676
-51.931
-51.064
-50.072
-48.954
-47.709
-46.336
-44.837
-43.214
-41.469
-39.608
-37.634
-35.555
-33.376
-31.108
-28.759
-26.341
-23.867
-21.349
-18.803
-16.246
-13.695
-11.168
-8.686
-6.266
-3.927
-1.69
0.428
2.41
4.241
5.905
7.387
8.672
9.744
10.589
11.194
11.55
11.647
11.477
11.036
10.326
9.349
8.109
6.607
4.838
2.798
0.49
-2.081
-4.904
-7.959
-11.223
-14.663
-18.232
-21.883
-25.57
-29.25
-32.894
-36.47
-39.94
-43.264
-46.385
-49.245
-51.808
-54.042
-55.914
-57.429
-58.614
-59.519
-60.244
-60.88
-61.488
-62.148
-62.935
-63.932
-65.247
-66.974
-69.189
-72.013
-75.595
-79.985
-85.113
-90.717
-96.32
-101.447
-105.722
-108.725
-109.931
-109.019
-106.062
-101.552
-96.539
-92.088
-88.709
-86.791
-86.939
-89.401
-93.733
-98.753
-102.094
-100.975
-93.535
-78.216
-52.9
-15.62
34.86
98.712
172.684
250.865
328.685
402.712
472.825
540.811
603.51
652.887
675.099
655.504
587.365
471.953
320.787
151.084
-19.861
-173.175
-295.369
-380.07
-428.226
-451.143
-459.88
-460.627
-454.453
-436.292
-404.146
-361.048
-312.425
-265.324
-224.045
-190.358
-165.363
-148.748
-139.578
-136.566
-137.54
-140.646
-144.488
-147.245
-147.446
-144.46
-138.128
-129.013
-118.241
-106.658
-95.106
-84.776
-76.506
-70.712
-67.583
-66.832
-67.96
-70.583
-74.193
-78.178
-82.115
-85.677
-88.639
-90.937
-92.53
-93.381
-93.52
-92.997
-91.845
-90.106
-87.819
-85.034
-81.832
-78.305
-74.555
-70.677
-66.767
-62.934
-59.271
-55.854
-52.741
-49.957
-47.511
-45.415
-43.667
-42.251
-41.142
-40.3
-39.686
-39.268
-39.006
-38.858
-38.777
-38.708
-38.605
-38.438
-38.177
-37.8
-37.29
-36.626
-35.796
-34.796
-33.617
-32.254
-30.7
-28.942
-26.971
-24.785
-22.38
-19.754
-16.907
-13.834
-10.533
-7.004
-3.247
0.738
4.948
9.385
14.046
18.922
24.008
29.292
34.763
40.409
46.218
52.172
58.257
64.456
70.751
77.126
83.561
90.037
96.533
103.028
109.5
115.927
122.287
128.557
134.714
140.734
146.597
152.28
157.761
163.018
168.031
172.779
177.241
181.4
185.236
188.733
191.875
194.647
197.037
199.032
200.623
201.8
202.557
202.889
202.791
202.262
201.301
199.91
198.091
195.852
193.198
190.14
186.687
182.854
178.654
174.104
169.221
164.025
158.536
152.774
146.763
140.526
134.088
127.473
120.708
113.819
106.833
99.778
92.68
85.567
78.466
71.402
64.402
57.49
50.692
44.03
37.527
31.204
25.081
19.177
13.508
8.09
2.936
-1.942
-6.534
-10.833
-14.832
-18.527
-21.914
-24.991
-27.759
-30.219
-32.374
-34.228
-35.786
-37.057
-38.048
-38.768
-39.23
-39.445
-39.424
-39.183
-38.735
-38.094
-37.275
-36.295
-35.169
-33.912
-32.542
-31.074
-29.524
-27.907
-26.239
-24.534
-22.805
-21.064
-19.324
-17.596
-15.891
-14.218
-12.587
-11.005
-9.481
-8.025
-6.643
-5.336
-4.104
-2.949
-1.87
-0.877
0.028
0.853
1.591
2.219
2.725
3.091
3.303
3.405
3.433
3.369
3.27
3.224
3.263
3.453
3.847
4.319
4.757
5.208
5.484
5.162
4.275
2.988
1.135
-0.737
-3.029
-8.151
-15.663
-23.186
-27.254
-19.925
0.976
27.916
51.036
56.22
35.31
-2.32
-41.304
-65.949
-64.162
-41.423
-12.574
11.199
20.585
16.196
7.076
-1.847
-7.378
-8.64
-8.853
-9.243
-9.533
-9.936
-9.988
-9.498
-8.914
-8.407
-7.937
-7.585
-7.394
-7.322
-7.34
-7.42
-7.489
-7.525
-7.563
-7.608
-7.654
-7.71
-7.775
-7.853
-7.956
-8.087
-8.244
-8.425
-8.631
-8.863
-9.121
-9.407
-9.72
-10.06
-10.425
-10.816
-11.231
-11.669
-12.128
-12.606
-13.101
-13.609
-14.126
-14.648
-15.172
-15.691
-16.202
-16.698
-17.175
-17.625
-18.044
-18.426
-18.764
-19.052
-19.283
-19.452
-19.551
-19.574
-19.515
-19.368
-19.127
-18.786
-18.341
-17.786
-17.118
-16.333
-15.427
-14.397
-13.242
-11.959
-10.549
-9.01
-7.346
-5.557
-3.649
-1.626
0.506
2.74
5.068
7.479
9.964
12.511
15.108
17.742
20.4
23.066
25.725
28.361
30.956
33.495
35.956
38.323
40.576
42.696
44.664
46.463
48.072
49.476
50.66
51.608
52.307
52.746
52.911
52.792
52.381
51.67
50.652
49.326
47.688
45.743
43.5
40.968
38.159
35.084
31.749
28.163
24.345
20.309
16.074
11.665
7.107
2.444
-2.268
-6.979
-11.637
-16.2
-20.635
-24.899
-28.951
-32.749
-36.239
-39.384
-42.157
-44.522
-46.451
-47.937
-48.992
-49.681
-50.113
-50.379
-50.56
-50.713
-50.88
-51.154
-51.64
-52.418
-53.563
-55.085
-57.032
-59.558
-62.719
-66.393
-70.24
-73.691
-76.228
-77.524
-77.142
-74.524
-69.42
-61.912
-52.816
-43.503
-34.826
-27.6
-22.965
-21.627
-23.931
-28.41
-30.466
-27.157
-17.845
-3.332
12.318
31.8
64.109
115.172
190.224
284.699
382.803
475.192
556.869
623.289
676.806
710.388
705.349
651.609
541.892
379.908
191.132
0.704
-166.316
-288.984
-366.06
-405.525
-422.169
-431.664
-439.173
-442.492
-434.961
-412.619
-378.061
-337.075
-296.15
-258.944
-226.35
-199.01
-177.469
-161.678
-150.975
-144.044
-139.618
-136.984
-135.373
-133.469
-129.945
-124.201
-116.347
-107.028
-97.007
-86.76
-76.869
-68.334
-62.023
-58.396
-57.549
-59.137
-62.659
-67.733
-73.907
-80.58
-87.255
-93.523
-99.061
-103.764
-107.596
-110.511
-112.524
-113.669
-113.959
-113.443
-112.19
-110.265
-107.774
-104.827
-101.516
-97.954
-94.258
-90.558
-86.996
-83.669
-80.632
-77.919
-75.547
-73.531
-71.881
-70.58
-69.585
-68.854
-68.341
-68.009
-67.823
-67.738
-67.698
-67.649
-67.53
-67.301
-66.932
-66.401
-65.688
-64.778
-63.659
-62.328
-60.79
-59.042
-57.079
-54.892
-52.469
-49.804
-46.892
-43.731
-40.318
-36.653
-32.733
-28.564
-24.146
-19.479
-14.562
-9.387
-3.951
1.74
7.674
13.831
20.184
26.696
33.331
40.045
46.803
53.578
60.356
67.134
73.911
80.691
87.463
94.204
100.894
107.518
114.064
120.529
126.924
133.271
139.602
145.958
152.363
158.817
165.293
171.732
178.06
184.188
190.046
195.583
200.754
205.517
209.833
213.66
216.941
219.613
221.596
222.795
223.138
222.584
221.131
218.823
215.729
211.949
207.569
202.66
197.284
191.491
185.329
178.844
172.089
165.121
158.018
150.879
143.787
136.814
129.995
123.338
116.824
110.413
104.072
97.777
91.512
85.278
79.079
72.929
66.84
60.83
54.901
49.04
43.238
37.487
31.79
26.167
20.646
15.264
10.056
5.054
0.283
-4.241
-8.506
-12.51
-16.254
-19.747
-22.992
-25.989
-28.738
-31.237
-33.489
-35.501
-37.279
-38.835
-40.181
-41.331
-42.297
-43.091
-43.724
-44.205
-44.542
-44.739
-44.802
-44.74
-44.558
-44.265
-43.869
-43.38
-42.805
-42.155
-41.439
-40.663
-39.838
-38.968
-38.062
-37.126
-36.167
-35.189
-34.198
-33.199
-32.198
-31.198
-30.204
-29.219
-28.247
-27.29
-26.35
-25.43
-24.532
-23.655
-22.803
-21.976
-21.176
-20.405
-19.663
-18.954
-18.278
-17.636
-17.03
-16.461
-15.929
-15.432
-14.972
-14.548
-14.158
-13.803
-13.482
-13.193
-12.937
-12.711
-12.517
-12.351
-12.214
-12.104
-12.021
-11.962
-11.928
-11.918
-11.931
-11.967
-12.025
-12.104
-12.204
-12.324
-12.46
-12.613
-12.78
-12.958
-13.145
-13.339
-13.538
-13.74
-13.942
-14.143
-14.341
-14.534
-14.721
-14.901
-15.073
-15.235
-15.386
-15.526
-15.655
-15.772
-15.877
-15.97
-16.051
-16.12
-16.176
-16.22
-16.251
-16.269
-16.275
-16.269
-16.253
-16.227
-16.193
-16.153
-16.109
-16.063
-16.018
-15.977
-15.94
-15.912
-15.894
-15.889
-15.898
-15.924
-15.967
-16.031
-16.114
-16.217
-16.341
-16.485
-16.647
-16.827
-17.021
-17.229
-17.448
-17.675
-17.906
-18.138
-18.368
-18.589
-18.798
-18.987
-19.151
-19.284
-19.378
-19.427
-19.423
-19.359
-19.228
-19.021
-18.733
-18.355
-17.88
-17.301
-16.613
-15.809
-14.884
-13.835
-12.658
-11.352
-9.914
-8.346
-6.648
-4.822
-2.871
-0.799
1.388
3.682
6.077
8.56
11.123
13.751
16.43
19.144
21.875
24.607
27.32
29.995
32.613
35.155
37.602
39.935
42.137
44.189
46.07
47.762
49.248
50.508
51.527
52.29
52.785
53.002
52.936
52.585
51.946
51.015
49.786
48.253
46.42
44.293
41.88
39.198
36.266
33.116
29.796
26.349
22.816
19.233
15.624
12.018
8.45
4.958
1.586
-1.623
-4.644
-7.449
-10.013
-12.328
-14.409
-16.307
-18.11
-19.899
-21.732
-23.647
-25.677
-27.869
-30.292
-33.012
-36.089
-39.562
-43.481
-47.949
-52.987
-58.472
-64.125
-69.474
-74.023
-77.401
-79.214
-78.955
-76.375
-71.604
-65.137
-57.964
-51.073
-45.056
-40.535
-38.316
-38.705
-41.239
-44.709
-46.972
-45.673
-38.982
-24.916
-1.138
34.019
81.035
139.073
205.745
277.634
351.087
421.485
483.05
530.115
557.881
562.776
542.741
497.266
427.17
335.385
227.146
108.761
-13.186
-132.065
-241.427
-335.508
-409.629
-461.214
-490.045
-497.196
-484.623
-455.498
-414.047
-365.062
-313.545
-263.414
-217.348
-177.775
-146.529
-124.177
-110.293
-103.53
-101.697
-103.033
-106.074
-108.851
-109.791
-108.139
-103.59
-96.575
-88.121
-78.984
-69.967
-62.257
-56.629
-53.439
-52.829
-54.444
-57.709
-62.17
-67.249
-72.281
-76.838
-80.606
-83.387
-85.185
-86.017
-85.893
-84.896
-83.119
-80.645
-77.576
-73.997
-70.003
-65.721
-61.298
-56.886
-52.609
-48.557
-44.812
-41.431
-38.45
-35.896
-33.767
-32.044
-30.715
-29.759
-29.144
-28.835
-28.785
-28.935
-29.227
-29.596
-29.984
-30.351
-30.661
-30.887
-31.008
-31.008
-30.876
-30.608
-30.195
-29.626
-28.893
-27.982
-26.885
-25.598
-24.113
-22.429
-20.541
-18.444
-16.132
-13.601
-10.843
-7.855
-4.633
-1.171
2.532
6.473
10.648
15.048
19.667
24.493
29.515
34.72
40.094
45.622
51.288
57.079
62.976
68.962
75.019
81.128
87.27
93.425
99.573
105.692
111.763
117.763
123.671
129.466
135.126
140.628
145.95
151.07
155.966
160.617
165.001
169.101
172.896
176.37
179.507
182.294
184.719
186.771
188.44
189.719
190.602
191.085
191.164
190.838
190.107
188.974
187.44
185.512
183.195
180.497
177.427
173.996
170.215
166.098
161.659
156.915
151.884
146.584
141.037
135.264
129.289
123.135
116.827
110.388
103.845
97.221
90.541
83.83
77.11
70.404
63.735
57.124
50.593
44.159
37.841
31.658
25.623
19.752
14.057
8.552
3.246
-1.85
-6.728
-11.381
-15.802
-19.986
-23.931
-27.634
-31.094
-34.313
-37.292
-40.037
-42.551
-44.841
-46.915
-48.779
-50.444
-51.917
-53.209
-54.329
-55.289
-56.1
-56.771
-57.313
-57.738
-58.056
-58.277
-58.409
-58.463
-58.447
-58.369
-58.238
-58.059
-57.841
-57.59
-57.313
-57.015
-56.703
-56.382
-56.056
-55.729
-55.406
-55.087
-54.776
-54.475
-54.184
-53.906
-53.64
-53.387
-53.148
-52.921
-52.707
-52.505
-52.314
-52.132
-51.96
-51.795
-51.637
-51.485
-51.339
-51.198
-51.063
-50.933
-50.809
-50.69
-50.578
-50.473
-50.374
-50.282
-50.197
-50.121
-50.053
-49.994
-49.944
-49.906
-49.878
-49.863
-49.86
-49.869
-49.892
-49.928
-49.978
-50.04
-50.117
-50.207
-50.312
-50.43
-50.563
-50.71
-50.87
-51.043
-51.229
-51.427
-51.635
-51.852
-52.077
-52.308
-52.545
-52.786
-53.03
-53.276
-53.522
-53.766
-54.009
-54.247
-54.479
-54.705
-54.924
-55.133
-55.334
-55.526
-55.709
-55.883
-56.049
-56.208
-56.359
-56.505
-56.646
-56.783
-56.918
-57.052
-57.186
-57.324
-57.467
-57.616
-57.775
-57.945
-58.128
-58.327
-58.542
-58.775
-59.029
-59.304
-59.602
-59.923
-60.271
-60.644
-61.044
-61.472
-61.927
-62.409
-62.917
-63.449
-64.003
-64.576
-65.167
-65.77
-66.383
-67
-67.617
-68.228
-68.828
-69.409
-69.965
-70.489
-70.972
-71.409
-71.792
-72.112
-72.364
-72.54
-72.633
-72.637
-72.547
-72.355
-72.057
-71.646
-71.118
-70.47
-69.696
-68.794
-67.762
-66.598
-65.302
-63.874
-62.316
-60.63
-58.82
-56.891
-54.849
-52.703
-50.46
-48.133
-45.734
-43.277
-40.775
-38.246
-35.704
-33.167
-30.651
-28.173
-25.749
-23.395
-21.13
-18.968
-16.929
-15.03
-13.286
-11.714
-10.329
-9.144
-8.177
-7.44
-6.94
-6.686
-6.684
-6.943
-7.474
-8.285
-9.371
-10.727
-12.342
-14.201
-16.292
-18.589
-21.053
-23.645
-26.321
-29.044
-31.787
-34.521
-37.212
-39.817
-42.288
-44.59
-46.711
-48.639
-50.374
-51.914
-53.261
-54.458
-55.578
-56.699
-57.917
-59.309
-60.927
-62.837
-65.08
-67.706
-70.795
-74.391
-78.514
-83.152
-88.222
-93.687
-99.598
-105.84
-112.149
-118.111
-123.088
-126.612
-128.46
-128.209
-125.347
-119.672
-111.201
-100.645
-89.339
-78.071
-67.449
-58.553
-52.299
-49.185
-47.946
-44.63
-35.564
-19.338
1.251
21.126
40.036
62.091
96.251
153.056
233.06
331.438
440.458
544.411
631.489
690.035
701.979
660.908
566.094
420.863
245.117
57.499
-124.103
-276.213
-385.942
-448.622
-466.994
-457.36
-437.044
-415.096
-394.788
-372.451
-342.522
-305.746
-265.365
-225.277
-189.917
-160.931
-138.652
-122.892
-112.119
-104.863
-100.537
-98.646
-98.802
-100.242
-101.281
-100.903
-99.112
-96.175
-92.429
-88.072
-83.075
-77.84
-73.435
-70.502
-69.134
-69.162
-70.121
-71.673
-73.702
-75.928
-77.826
-78.999
-79.214
-78.391
-76.665
-74.158
-70.905
-66.982
-62.505
-57.612
-52.468
-47.242
-42.033
-36.921
-31.978
-27.259
-22.829
-18.756
-15.074
-11.789
-8.895
-6.375
-4.221
-2.428
-0.975
0.182
1.101
1.846
2.47
3.006
3.488
3.945
4.409
4.907
5.456
6.062
6.735
7.488
8.336
9.302
10.399
11.634
13.017
14.553
16.253
18.127
20.185
22.434
24.882
27.539
30.415
33.521
36.864
40.45
44.28
48.355
52.677
57.244
62.053
67.097
72.371
77.867
83.577
89.491
95.596
101.879
108.325
114.919
121.645
128.488
135.429
142.453
149.541
156.681
163.853
171.039
178.217
185.364
192.458
199.475
206.39
213.177
219.812
226.268
232.525
238.566
244.37
249.915
255.176
260.124
264.735
268.995
272.89
276.405
279.537
282.286
284.665
286.703
288.414
289.803
290.866
291.585
291.945
291.934
291.54
290.75
289.55
287.923
285.859
283.358
280.4
276.958
272.981
268.39
263.141
257.224
250.647
243.451
235.687
227.413
218.711
209.685
200.428
191.029
181.56
172.072
162.644
153.373
144.377
135.81
127.784
120.368
113.614
107.543
102.146
97.401
93.245
89.571
86.299
83.368
80.73
78.369
76.243
74.291
72.443
70.607
68.713
66.72
64.592
62.306
59.868
57.297
54.647
52.007
49.44
46.983
44.664
42.482
40.449
38.583
36.898
35.409
34.13
33.063
32.214
31.589
31.177
30.958
30.896
30.939
31.047
31.195
31.362
31.54
31.719
31.89
32.051
32.205
32.352
32.492
32.619
32.728
32.817
32.887
32.944
32.997
33.051
33.112
33.184
33.271
33.375
33.497
33.638
33.793
33.962
34.144
34.341
34.554
34.786
35.038
35.311
35.608
35.93
36.278
36.651
37.048
37.467
37.907
38.365
38.838
39.325
39.823
40.332
40.847
41.368
41.892
42.416
42.936
43.451
43.958
44.452
44.931
45.392
45.835
46.257
46.66
47.043
47.402
47.734
48.039
48.314
48.559
48.773
48.952
49.097
49.209
49.293
49.352
49.389
49.4
49.386
49.342
49.271
49.181
49.079
48.969
48.855
48.742
48.635
48.544
48.472
48.415
48.368
48.323
48.276
48.235
48.206
48.208
48.235
48.261
48.263
48.205
48.081
47.92
47.73
47.504
47.237
46.892
46.494
46.17
45.884
45.457
44.733
43.493
41.75
39.865
37.981
35.98
34.059
32.585
31.977
32.926
35.452
38.732
42.322
46.117
49.732
52.794
54.729
54.497
52.007
48.247
43.822
39.086
34.452
30.073
26.381
24.288
23.929
24.618
25.904
27.406
28.858
30.331
31.663
32.397
32.438
32.023
31.326
30.558
29.818
28.996
28.087
27.172
26.253
25.305
24.3
23.187
21.963
20.696
19.448
18.277
17.245
16.371
15.663
15.108
14.667
14.285
13.891
13.425
12.847
12.119
11.21
10.09
8.726
7.067
5.053
2.615
-0.327
-3.824
-7.905
-12.565
-17.767
-23.446
-29.501
-35.847
-42.41
-49.122
-55.927
-62.761
-69.549
-76.214
-82.679
-88.852
-94.641
-99.955
-104.711
-108.859
-112.357
-115.203
-117.438
-119.079
-120.145
-120.685
-120.737
-120.364
-119.666
-118.696
-117.512
-116.213
-114.893
-113.683
-112.72
-112.082
-111.895
-112.313
-113.388
-115.117
-117.338
-119.618
-121.532
-122.714
-122.68
-120.956
-117.226
-111.331
-103.7
-95.386
-87.507
-81.111
-77.139
-76.382
-79.475
-86.586
-96.622
-107.229
-115.534
-118.467
-112.973
-96.077
-64.702
-15.988
49.462
127.451
213.648
302.555
392.909
488.564
586.32
678.028
748.864
775.914
747.378
663.497
532.243
370.797
194.04
12.404
-160.179
-307.085
-415.83
-479.26
-501.976
-500.769
-488.052
-470.059
-447.268
-413.634
-368.863
-318.016
-266.689
-221.681
-186.484
-161.543
-146.821
-141.108
-142.331
-148.129
-155.938
-163.174
-167.854
-168.832
-165.552
-157.932
-146.985
-134.447
-121.896
-111.821
-105.429
-101.141
-99.535
-102.115
-111.121
-132.238
-163.679
-196.291
-220.718
-225.558
-209.957
-184.367
-157.932
-139.999
-132.708
-129.919
-128.529
-126.35
-122.89
-120.804
-120.4
-120.947
-122.312
-123.701
-124.604
-125.092
-125.07
-124.628
-124.3
-124.419
-125.035
-126.133
-127.592
-129.288
-131.184
-133.187
-135.067
-136.646
-137.846
-138.643
-139.117
-139.355
-139.377
-139.195
-138.824
-138.27
-137.545
-136.66
-135.596
-134.334
-132.875
-131.225
-129.414
-127.466
-125.379
-123.137
-120.711
-118.06
-115.159
-111.99
-108.531
-104.769
-100.697
-96.315
-91.635
-86.678
-81.45
-75.952
-70.182
-64.142
-57.85
-51.332
-44.615
-37.724
-30.683
-23.526
-16.292
-9.012
-1.703
5.637
13.012
20.416
27.829
35.218
42.549
49.803
56.976
64.068
71.068
77.963
84.749
91.441
98.064
104.619
111.068
117.338
123.358
129.081
134.48
139.546
144.26
148.59
152.495
155.942
158.913
161.386
163.325
164.663
165.33
165.292
164.574
163.242
161.361
158.971
156.095
152.751
148.969
144.791
140.255
135.382
130.186
124.694
118.953
113.039
107.031
100.976
94.881
88.721
82.479
76.156
69.763
63.309
56.795
50.218
43.595
36.956
30.333
23.749
17.21
10.708
4.235
-2.202
-8.578
-14.859
-21.015
-27.025
-32.871
-38.531
-43.981
-49.202
-54.185
-58.934
-63.452
-67.737
-71.784
-75.583
-79.129
-82.42
-85.458
-88.246
-90.786
-93.08
-95.134
-96.953
-98.546
-99.919
-101.076
-102.017
-102.745
-103.266
-103.584
-103.707
-103.639
-103.387
-102.958
-102.362
-101.607
-100.701
-99.652
-98.468
-97.157
-95.727
-94.187
-92.544
-90.807
-88.985
-87.085
-85.118
-83.091
-81.012
-78.891
-76.734
-74.551
-72.349
-70.137
-67.923
-65.714
-63.52
-61.348
-59.207
-57.103
-55.045
-53.038
-51.09
-49.206
-47.393
-45.654
-43.993
-42.416
-40.925
-39.523
-38.214
-36.998
-35.877
-34.851
-33.921
-33.086
-32.346
-31.698
-31.14
-30.671
-30.287
-29.986
-29.765
-29.62
-29.547
-29.541
-29.598
-29.714
-29.883
-30.1
-30.359
-30.657
-30.987
-31.345
-31.726
-32.127
-32.542
-32.968
-33.401
-33.837
-34.273
-34.705
-35.132
-35.551
-35.96
-36.359
-36.746
-37.122
-37.486
-37.84
-38.184
-38.519
-38.846
-39.167
-39.483
-39.796
-40.108
-40.42
-40.736
-41.057
-41.385
-41.722
-42.071
-42.433
-42.809
-43.202
-43.61
-44.036
-44.48
-44.942
-45.422
-45.919
-46.434
-46.966
-47.514
-48.075
-48.648
-49.231
-49.818
-50.408
-50.996
-51.577
-52.146
-52.699
-53.23
-53.734
-54.205
-54.638
-55.026
-55.363
-55.644
-55.863
-56.012
-56.085
-56.077
-55.981
-55.793
-55.506
-55.118
-54.623
-54.017
-53.297
-52.46
-51.503
-50.424
-49.221
-47.892
-46.438
-44.858
-43.155
-41.33
-39.388
-37.332
-35.168
-32.902
-30.54
-28.091
-25.561
-22.96
-20.298
-17.586
-14.834
-12.056
-9.264
-6.473
-3.699
-0.959
1.729
4.35
6.886
9.319
11.634
13.815
15.848
17.721
19.423
20.941
22.261
23.371
24.26
24.918
25.337
25.508
25.427
25.091
24.505
23.674
22.604
21.294
19.735
17.927
15.872
13.573
11.043
8.296
5.359
2.27
-0.916
-4.144
-7.36
-10.52
-13.592
-16.536
-19.316
-21.883
-24.179
-26.165
-27.81
-29.086
-29.979
-30.501
-30.698
-30.661
-30.522
-30.4
-30.395
-30.611
-31.151
-32.131
-33.661
-35.861
-38.803
-42.575
-47.319
-53.031
-59.574
-66.666
-73.759
-80.295
-85.844
-89.822
-91.554
-90.851
-87.777
-82.798
-77.145
-71.716
-67.025
-64.007
-63.434
-65.166
-68.643
-72.308
-73.189
-68.894
-57.334
-35.708
-1.739
45.744
107.104
180.807
263.01
349.651
435.954
515.472
581.582
627.851
647.931
638.99
602.655
540.64
456.138
349.308
215.195
55.795
-120.186
-294.073
-437.377
-530.562
-566.184
-550.749
-503.391
-442.614
-383.769
-335.372
-300.151
-276.771
-258.508
-240.993
-221.054
-198.88
-180.41
-168.245
-162.772
-162.27
-161.645
-158.19
-151.116
-140.085
-126.038
-109.933
-92.497
-75.098
-59.229
-45.735
-35.176
-27.784
-23.422
-21.909
-22.907
-25.78
-29.78
-34.368
-39.165
-43.928
-48.497
-52.628
-56.112
-58.846
-60.8
-61.984
-62.384
-61.967
-60.716
-58.67
-55.924
-52.601
-48.828
-44.712
-40.358
-35.877
-31.398
-27.076
-23.025
-19.317
-15.997
-13.081
-10.583
-8.518
-6.875
-5.614
-4.691
-4.054
-3.657
-3.467
-3.44
-3.524
-3.663
-3.794
-3.866
-3.846
-3.707
-3.426
-2.983
-2.36
-1.545
-0.542
0.655
2.051
3.655
5.479
7.532
9.816
12.336
15.093
18.091
21.334
24.823
28.559
32.541
36.77
41.245
45.963
50.922
56.113
61.526
67.15
72.97
78.973
85.143
91.46
97.908
104.466
111.116
117.838
124.612
131.415
138.225
145.021
151.777
158.472
165.08
171.577
177.939
184.141
190.159
195.968
201.546
206.868
211.913
216.659
221.086
225.174
228.905
232.263
235.233
237.802
239.96
241.695
243.001
243.872
244.304
244.294
243.842
242.949
241.619
239.854
237.663
235.054
232.035
228.619
224.818
220.648
216.125
211.267
206.093
200.623
194.88
188.886
182.666
176.243
169.644
162.894
156.02
149.048
142.003
134.914
127.804
120.698
113.623
106.601
99.655
92.808
86.081
79.494
73.065
66.814
60.756
54.906
49.277
43.883
38.733
33.838
29.204
24.838
20.746
16.93
13.391
10.132
7.15
4.444
2.009
-0.16
-2.069
-3.726
-5.138
-6.315
-7.267
-8.004
-8.538
-8.879
-9.041
-9.034
-8.874
-8.571
-8.139
-7.592
-6.942
-6.201
-5.383
-4.499
-3.562
-2.581
-1.569
-0.534
0.513
1.563
2.608
3.639
4.651
5.635
6.587
7.502
8.375
9.202
9.982
10.711
11.387
12.011
12.579
13.094
13.553
13.959
14.312
14.614
14.866
15.071
15.232
15.35
15.429
15.471
15.48
15.459
15.409
15.334
15.236
15.118
14.981
14.827
14.659
14.477
14.284
14.08
13.867
13.646
13.416
13.179
12.935
12.684
12.426
12.161
11.891
11.614
11.331
11.043
10.749
10.449
10.144
9.833
9.517
9.195
8.867
8.535
8.197
7.854
7.509
7.16
6.811
6.461
6.114
5.77
5.432
5.102
4.78
4.471
4.174
3.893
3.629
3.383
3.158
2.954
2.773
2.615
2.48
2.369
2.281
2.216
2.172
2.149
2.144
2.157
2.185
2.227
2.28
2.343
2.413
2.486
2.56
2.631
2.696
2.751
2.792
2.817
2.821
2.802
2.755
2.679
2.571
2.43
2.253
2.04
1.79
1.504
1.181
0.825
0.437
0.02
-0.421
-0.882
-1.359
-1.844
-2.332
-2.817
-3.291
-3.749
-4.182
-4.584
-4.947
-5.263
-5.525
-5.724
-5.853
-5.904
-5.869
-5.742
-5.516
-5.185
-4.745
-4.192
-3.521
-2.732
-1.823
-0.794
0.355
1.62
2.998
4.483
6.067
7.743
9.5
11.326
13.208
15.131
17.079
19.038
20.991
22.921
24.81
26.643
28.405
30.077
31.645
33.089
34.394
35.542
36.519
37.307
37.89
38.256
38.392
38.294
37.957
37.377
36.548
35.463
34.117
32.513
30.658
28.555
26.217
23.657
20.901
17.996
14.984
11.905
8.795
5.68
2.586
-0.448
-3.381
-6.177
-8.797
-11.224
-13.443
-15.425
-17.155
-18.644
-19.93
-21.108
-22.271
-23.489
-24.816
-26.288
-27.948
-29.886
-32.183
-34.903
-38.117
-41.825
-46.059
-50.955
-56.478
-62.442
-68.517
-74.094
-78.61
-81.753
-83.069
-82.027
-78.565
-72.817
-65.326
-57.403
-50.041
-43.84
-39.71
-38.294
-39.351
-42.317
-45.73
-46.818
-43.288
-33.031
-13.408
17.535
60.653
116.046
182.225
255.712
332.688
408.573
477.468
533.449
570.764
583.932
570.326
531.114
468.393
385.858
283.816
157.69
9.038
-155.007
-316.175
-444.653
-521.902
-542.327
-514.937
-465.373
-412.273
-364.088
-323.041
-282.515
-240
-199.029
-163.896
-139.656
-127.822
-126.387
-132.097
-141.147
-150.716
-158.426
-162.258
-161.302
-155.284
-144.57
-130.467
-114.504
-98.089
-82.826
-69.834
-59.57
-52.299
-47.929
-46.052
-46.251
-47.956
-50.423
-53.214
-56.151
-59.095
-62.045
-64.912
-67.448
-69.554
-71.229
-72.443
-73.223
-73.508
-73.105
-72.063
-70.634
-69.057
-67.655
-66.479
-65.198
-63.732
-62.268
-60.709
-58.823
-56.274
-52.416
-47.276
-41.689
-36.106
-30.652
-25.69
-21.547
-18.754
-18.304
-20.249
-23.595
-27.717
-32.223
-36.654
-40.806
-44.205
-45.925
-45.822
-44.553
-42.546
-40.155
-37.626
-34.876
-32.045
-29.556
-27.469
-25.52
-23.521
-21.259
-18.652
-15.823
-12.792
-9.487
-5.901
-2.058
2.011
6.246
10.633
15.211
20
25.007
30.228
35.634
41.205
46.926
52.779
58.749
64.816
70.959
77.156
83.385
89.624
95.85
102.041
108.171
114.214
120.142
125.934
131.57
137.033
142.304
147.365
152.194
156.772
161.084
165.112
168.842
172.258
175.347
178.096
180.495
182.534
184.206
185.505
186.423
186.957
187.104
186.863
186.235
185.223
183.83
182.061
179.922
177.422
174.57
171.375
167.851
164.008
159.861
155.426
150.717
145.751
140.547
135.122
129.494
123.684
117.71
111.592
105.35
99.006
92.579
86.09
79.561
73.011
66.461
59.933
53.445
47.017
40.667
34.415
28.277
22.271
16.411
10.712
5.189
-0.145
-5.28
-10.204
-14.908
-19.384
-23.624
-27.624
-31.377
-34.882
-38.135
-41.134
-43.88
-46.373
-48.614
-50.606
-52.351
-53.856
-55.123
-56.161
-56.976
-57.576
-57.969
-58.165
-58.174
-58.006
-57.672
-57.184
-56.552
-55.789
-54.907
-53.917
-52.832
-51.664
-50.425
-49.125
-47.775
-46.386
-44.968
-43.531
-42.083
-40.634
-39.191
-37.762
-36.355
-34.977
-33.633
-32.33
-31.074
-29.867
-28.716
-27.623
-26.591
-25.622
-24.719
-23.882
-23.113
-22.412
-21.779
-21.212
-20.712
-20.276
-19.902
-19.589
-19.333
-19.134
-18.989
-18.895
-18.85
-18.852
-18.9
-18.99
-19.122
-19.293
-19.5
-19.742
-20.017
-20.322
-20.654
-21.013
-21.395
-21.799
-22.222
-22.663
-23.118
-23.586
-24.064
-24.549
-25.041
-25.535
-26.031
-26.526
-27.019
-27.508
-27.992
-28.469
-28.938
-29.398
-29.845
-30.279
-30.699
-31.101
-31.485
-31.849
-32.192
-32.513
-32.81
-33.084
-33.333
-33.558
-33.758
-33.933
-34.085
-34.213
-34.321
-34.409
-34.48
-34.538
-34.584
-34.624
-34.659
-34.695
-34.734
-34.781
-34.837
-34.908
-34.995
-35.103
-35.235
-35.393
-35.581
-35.802
-36.057
-36.35
-36.681
-37.052
-37.463
-37.915
-38.408
-38.941
-39.512
-40.122
-40.766
-41.442
-42.148
-42.877
-43.624
-44.383
-45.147
-45.907
-46.655
-47.382
-48.078
-48.734
-49.34
-49.886
-50.364
-50.765
-51.077
-51.294
-51.407
-51.407
-51.288
-51.043
-50.666
-50.151
-49.495
-48.695
-47.749
-46.655
-45.413
-44.022
-42.484
-40.802
-38.98
-37.022
-34.935
-32.728
-30.41
-27.995
-25.495
-22.925
-20.301
-17.641
-14.966
-12.295
-9.649
-7.048
-4.514
-2.068
0.269
2.477
4.538
6.432
8.144
9.653
10.943
11.999
12.806
13.351
13.623
13.611
13.307
12.713
11.826
10.649
9.18
7.414
5.351
3.001
0.372
-2.521
-5.661
-9.025
-12.579
-16.273
-20.062
-23.906
-27.77
-31.632
-35.466
-39.234
-42.896
-46.403
-49.716
-52.81
-55.664
-58.251
-60.556
-62.591
-64.41
-66.099
-67.743
-69.395
-71.076
-72.812
-74.651
-76.659
-78.926
-81.53
-84.499
-87.869
-91.719
-96.066
-100.824
-105.728
-110.271
-113.893
-116.186
-116.806
-115.377
-111.679
-105.758
-98.115
-89.79
-82.032
-75.728
-71.345
-69.611
-71.229
-76.185
-83.644
-90.379
-91.145
-82.307
-62.468
-34.429
-3.51
28.248
62.587
109.026
178.502
275.568
399.857
536.823
663.919
760.684
805.715
788.127
711.12
582.782
417.467
233.125
42.984
-139.345
-295.977
-414.951
-490.36
-520.509
-517.518
-494.676
-457.612
-415.983
-372.264
-326.314
-285.058
-246.942
-211.038
-179.483
-150.164
-126.225
-110.101
-100.651
-97.876
-99.305
-102.584
-106.596
-109.234
-109.605
-107.796
-103.884
-98.599
-92.626
-86.268
-80.259
-75.748
-73.422
-73.519
-75.94
-80.124
-85.526
-91.78
-98.399
-104.77
-110.451
-115.157
-118.736
-121.249
-122.764
-123.302
-122.932
-121.751
-119.848
-117.336
-114.338
-110.965
-107.362
-103.688
-100.064
-96.596
-93.376
-90.465
-87.908
-85.735
-83.938
-82.503
-81.419
-80.672
-80.237
-80.086
-80.172
-80.439
-80.831
-81.284
-81.747
-82.176
-82.535
-82.793
-82.933
-82.938
-82.801
-82.518
-82.081
-81.478
-80.698
-79.73
-78.563
-77.19
-75.604
-73.8
-71.772
-69.514
-67.021
-64.285
-61.301
-58.062
-54.563
-50.798
-46.766
-42.466
-37.902
-33.08
-28.006
-22.69
-17.141
-11.372
-5.395
0.774
7.121
13.631
20.286
27.069
33.961
40.941
47.989
55.082
62.197
69.312
76.401
83.44
90.403
97.263
103.997
110.576
116.975
123.169
129.132
134.839
140.266
145.391
150.19
154.645
158.734
162.442
165.752
168.648
171.12
173.156
174.747
175.884
176.564
176.782
176.536
175.826
174.654
173.025
170.943
168.419
165.46
162.08
158.293
154.114
149.563
144.657
139.419
133.872
128.04
121.948
115.624
109.095
102.389
95.534
88.559
81.494
74.367
67.207
60.043
52.901
45.808
38.792
31.877
25.088
18.447
11.976
5.696
-0.374
-6.216
-11.815
-17.156
-22.224
-27.01
-31.502
-35.693
-39.575
-43.144
-46.398
-49.333
-51.95
-54.25
-56.238
-57.916
-59.29
-60.367
-61.154
-61.661
-61.897
-61.872
-61.597
-61.084
-60.346
-59.394
-58.241
-56.9
-55.384
-53.705
-51.877
-49.913
-47.824
-45.624
-43.324
-40.938
-38.478
-35.954
-33.38
-30.766
-28.123
-25.464
-22.797
-20.134
-17.484
-14.858
-12.264
-9.711
-7.207
-4.762
-2.381
-0.073
2.157
4.302
6.357
8.317
10.176
11.931
13.578
15.112
16.531
17.832
19.011
20.066
20.995
21.797
22.469
23.011
23.421
23.701
23.849
23.867
23.756
23.519
23.158
22.677
22.08
21.37
20.554
19.636
18.623
17.52
16.334
15.071
13.737
12.34
10.886
9.382
7.834
6.25
4.635
2.996
1.34
-0.327
-1.999
-3.669
-5.331
-6.977
-8.603
-10.2
-11.763
-13.286
-14.763
-16.189
-17.561
-18.873
-20.122
-21.308
-22.426
-23.477
-24.46
-25.375
-26.222
-27.004
-27.72
-28.374
-28.969
-29.506
-29.989
-30.421
-30.805
-31.145
-31.443
-31.703
-31.928
-32.12
-32.285
-32.424
-32.542
-32.644
-32.733
-32.814
-32.891
-32.969
-33.051
-33.142
-33.244
-33.36
-33.492
-33.643
-33.812
-34
-34.207
-34.431
-34.67
-34.921
-35.181
-35.445
-35.708
-35.966
-36.213
-36.442
-36.647
-36.823
-36.963
-37.061
-37.109
-37.102
-37.033
-36.893
-36.677
-36.377
-35.986
-35.498
-34.904
-34.199
-33.377
-32.432
-31.359
-30.154
-28.813
-27.334
-25.715
-23.957
-22.06
-20.026
-17.86
-15.567
-13.154
-10.629
-8
-5.278
-2.474
0.398
3.326
6.294
9.287
12.29
15.282
18.246
21.162
24.008
26.765
29.412
31.928
34.292
36.486
38.494
40.297
41.881
43.229
44.326
45.158
45.711
45.974
45.937
45.589
44.927
43.954
42.673
41.09
39.21
37.03
34.554
31.793
28.753
25.447
21.892
18.112
14.146
10.053
5.891
1.719
-2.404
-6.439
-10.338
-14.046
-17.521
-20.704
-23.547
-26.022
-28.089
-29.713
-30.887
-31.626
-31.995
-32.116
-32.11
-32.089
-32.155
-32.394
-32.914
-33.829
-35.238
-37.244
-39.899
-43.264
-47.473
-52.548
-58.368
-64.638
-70.758
-76.055
-79.993
-81.93
-81.17
-77.443
-70.723
-61.543
-51.292
-41.229
-32.344
-25.792
-22.42
-22.199
-24.561
-27.63
-27.915
-22.266
-7.885
18.409
59.278
116.219
189.637
276.101
368.209
459.188
543.653
620.531
691.875
756.262
806.125
824.831
794.258
703.139
552.897
364.271
166.002
-13.577
-153.691
-251.512
-314.538
-354.871
-383.496
-402.533
-408.559
-396.316
-363.932
-315.084
-256.373
-195.644
-138.21
-86.882
-44.247
-11.867
9.888
21.397
24.224
20.656
12.542
1.73
-9.223
-17.957
-23.152
-24.341
-21.889
-16.69
-9.441
-0.858
7.822
15.286
20.795
24.124
25.495
25.424
24.305
22.444
20.327
18.525
17.421
17.213
17.91
19.363
21.462
24.149
27.317
30.822
34.506
38.198
41.773
45.164
48.302
51.129
53.598
55.65
57.247
58.379
59.042
59.244
58.999
58.316
57.213
55.727
53.915
51.846
49.585
47.181
44.676
42.11
39.519
36.94
34.402
