Name,Criss Capps
Date of Birth,"Feb 5, 1952"
Recorded Date,2021-08-09 09:21:11 -0400
Classification,Sinus Rhythm
Symptoms,
Software Version,1.90
Device,"Watch5,4"
Sample Rate,512.844 hertz


Lead,Lead I
Unit,µV

-64.104
-60.168
-56.29
-52.485
-48.772
-45.164
-41.678
-38.328
-35.127
-32.088
-29.222
-26.539
-24.049
-21.757
-19.671
-17.793
-16.128
-14.674
-13.432
-12.401
-11.576
-10.953
-10.526
-10.288
-10.23
-10.343
-10.617
-11.039
-11.597
-12.279
-13.069
-13.953
-14.916
-15.942
-17.015
-18.119
-19.238
-20.356
-21.456
-22.523
-23.541
-24.496
-25.373
-26.16
-26.844
-27.415
-27.861
-28.176
-28.351
-28.38
-28.26
-27.986
-27.556
-26.97
-26.228
-25.332
-24.285
-23.091
-21.755
-20.284
-18.685
-16.967
-15.139
-13.213
-11.197
-9.106
-6.949
-4.741
-2.494
-0.222
2.062
4.344
6.61
8.848
11.044
13.185
15.26
17.257
19.166
20.977
22.68
24.27
25.737
27.077
28.285
29.355
30.286
31.074
31.72
32.222
32.582
32.803
32.885
32.835
32.655
32.352
31.932
31.402
30.768
30.04
29.225
28.334
27.375
26.358
25.294
24.194
23.067
21.925
20.778
19.636
18.509
17.406
16.336
15.309
14.331
13.412
12.558
11.776
11.072
10.45
9.917
9.475
9.127
8.876
8.723
8.669
8.714
8.858
9.098
9.432
9.857
10.369
10.962
11.63
12.366
13.163
14.011
14.903
15.825
16.766
17.714
18.656
19.578
20.468
21.312
22.097
22.811
23.443
23.984
24.422
24.746
24.944
25.005
24.919
24.677
24.273
23.698
22.949
22.028
20.936
19.675
18.244
16.637
14.848
12.88
10.736
8.423
5.953
3.343
0.621
-2.174
-5.005
-7.84
-10.651
-13.428
-16.147
-18.78
-21.296
-23.649
-25.804
-27.742
-29.436
-30.86
-32.021
-32.949
-33.706
-34.394
-35.078
-35.793
-36.587
-37.499
-38.604
-39.994
-41.749
-43.93
-46.617
-49.949
-53.988
-58.684
-63.786
-68.791
-73.164
-76.488
-78.363
-78.321
-76.157
-72.021
-66.465
-60.754
-56.158
-53.453
-53.359
-56.477
-62.754
-71.501
-81.218
-89.061
-92.012
-87.705
-73.691
-47.904
-9.195
42.74
106.74
179.67
257.465
335.903
410.049
474.568
524.137
554.04
560.843
543.762
504.66
444.425
364.352
265.866
148.956
20.405
-108.184
-225.34
-317.505
-380.278
-419.237
-439.83
-449.866
-452.421
-443.301
-421.815
-389.211
-348.295
-304.925
-262.751
-223.155
-187.844
-158.503
-135.809
-119.803
-109.833
-104.486
-102.681
-103.707
-106.156
-107.985
-107.926
-105.492
-100.688
-94.158
-86.44
-77.841
-69.159
-61.607
-55.957
-52.526
-51.306
-51.862
-53.786
-56.831
-60.539
-64.288
-67.635
-70.262
-72.008
-72.934
-73.08
-72.432
-71.036
-68.957
-66.256
-63.034
-59.367
-55.299
-50.912
-46.288
-41.524
-36.752
-32.078
-27.587
-23.344
-19.378
-15.709
-12.357
-9.33
-6.62
-4.211
-2.073
-0.177
1.497
2.976
4.293
5.486
6.609
7.702
8.79
9.893
11.019
12.178
13.378
14.621
15.899
17.209
18.544
19.903
21.29
22.704
24.14
25.595
27.062
28.537
30.019
31.509
33.003
34.502
36.006
37.514
39.03
40.554
42.085
43.618
45.15
46.678
48.197
49.703
51.19
52.653
54.09
55.495
56.867
58.201
59.494
60.742
61.943
63.092
64.188
65.227
66.206
67.122
67.975
68.76
69.477
70.123
70.697
71.194
71.615
71.956
72.217
72.395
72.49
72.502
72.43
72.276
72.041
71.727
71.334
70.867
70.327
69.717
69.041
68.302
67.504
66.651
65.746
64.796
63.804
62.775
61.715
60.628
59.521
58.398
57.265
56.128
54.991
53.86
52.741
51.641
50.564
49.516
48.503
47.529
46.599
45.716
44.885
44.108
43.387
42.724
42.121
41.578
41.095
40.672
40.307
40
39.748
39.547
39.395
39.287
39.219
39.185
39.181
39.2
39.236
39.284
39.337
39.389
39.432
39.459
39.463
39.438
39.376
39.27
39.113
38.9
38.623
38.279
37.863
37.369
36.796
36.139
35.397
34.569
33.653
32.65
31.56
30.385
29.127
27.789
26.375
24.891
23.342
21.734
20.075
18.372
16.635
14.871
13.089
11.3
9.514
7.741
5.992
4.278
2.609
0.999
-0.544
-2.007
-3.381
-4.656
-5.823
-6.873
-7.8
-8.595
-9.254
-9.771
-10.142
-10.363
-10.432
-10.348
-10.11
-9.722
-9.183
-8.499
-7.675
-6.72
-5.642
-4.452
-3.16
-1.78
-0.322
1.199
2.769
4.378
6.013
7.662
9.309
10.937
12.53
14.072
15.549
16.947
18.251
19.447
20.526
21.484
22.316
23.016
23.573
23.966
24.182
24.216
24.063
23.725
23.21
22.53
21.707
20.78
19.784
18.758
17.728
16.709
15.724
14.804
13.984
13.317
12.838
12.562
12.513
12.697
13.087
13.65
14.317
14.979
15.562
15.977
16.122
15.921
15.27
14.071
12.26
9.725
6.335
2.073
-2.994
-8.678
-14.593
-20.394
-25.81
-30.456
-33.892
-35.847
-36.292
-35.543
-34.281
-33.098
-32.22
-31.808
-32.161
-33.325
-34.886
-35.916
-34.816
-29.888
-19.986
-4.143
18.758
49.574
88.891
136.74
191.997
251.708
311.554
367.398
416.361
459.807
501.314
540.848
572.099
580.636
551.187
477.374
365.637
234.332
102.623
-17.051
-120.471
-210.378
-288.016
-351.17
-396.702
-420.97
-423.477
-407.006
-375.399
-333.722
-287.113
-240.21
-196.914
-159.865
-130.711
-110.039
-97.348
-91.157
-89.312
-89.205
-88.524
-85.793
-79.955
-70.561
-57.849
-42.535
-25.773
-9.085
6.118
19.009
29.055
36.045
40.089
41.398
40.39
37.738
34.14
30.054
25.792
21.557
17.493
13.853
10.842
8.544
6.985
6.16
6.086
6.804
8.335
10.623
13.569
17.054
20.958
25.212
29.739
34.442
39.203
43.865
48.31
52.47
56.298
59.767
62.849
65.517
67.774
69.656
71.203
72.453
73.44
74.178
74.691
75.017
75.198
75.286
75.319
75.316
75.296
75.272
75.257
75.26
75.283
75.314
75.345
75.375
75.407
75.444
75.491
75.544
75.602
75.666
75.736
75.815
75.904
76.004
76.116
76.245
76.394
76.567
76.768
76.996
77.252
77.535
77.841
78.169
78.515
78.875
79.245
79.622
80.002
80.381
80.755
81.121
81.473
81.808
82.119
82.401
82.649
82.856
83.017
83.125
83.175
83.16
83.073
82.909
82.661
82.324
81.893
81.362
80.726
79.982
79.127
78.158
77.073
75.871
74.552
73.117
71.567
69.904
68.131
66.25
64.265
62.181
60.001
57.731
55.376
52.943
50.439
47.869
45.243
42.568
39.853
37.106
34.336
31.554
28.767
25.986
23.221
20.48
17.773
15.109
12.498
9.947
7.464
5.057
2.731
0.493
-1.652
-3.701
-5.65
-7.495
-9.236
-10.869
-12.395
-13.813
-15.124
-16.327
-17.426
-18.422
-19.317
-20.115
-20.821
-21.437
-21.968
-22.42
-22.797
-23.106
-23.351
-23.538
-23.674
-23.765
-23.817
-23.837
-23.831
-23.804
-23.762
-23.711
-23.656
-23.599
-23.545
-23.497
-23.458
-23.43
-23.414
-23.412
-23.425
-23.452
-23.493
-23.548
-23.614
-23.691
-23.774
-23.862
-23.949
-24.034
-24.111
-24.174
-24.22
-24.243
-24.237
-24.197
-24.116
-23.989
-23.809
-23.57
-23.265
-22.89
-22.438
-21.903
-21.283
-20.572
-19.767
-18.867
-17.868
-16.769
-15.569
-14.269
-12.869
-11.371
-9.777
-8.091
-6.318
-4.464
-2.535
-0.54
1.512
3.612
5.747
7.904
10.07
12.229
14.367
16.469
18.518
20.498
22.395
24.194
25.882
27.443
28.863
30.125
31.218
32.126
32.839
33.344
33.632
33.694
33.531
33.141
32.522
31.672
30.58
29.24
27.656
25.829
23.767
21.485
18.998
16.338
13.549
10.673
7.749
4.81
1.876
-1.023
-3.852
-6.573
-9.134
-11.495
-13.638
-15.535
-17.16
-18.521
-19.647
-20.6
-21.49
-22.395
-23.364
-24.462
-25.737
-27.262
-29.135
-31.431
-34.214
-37.56
-41.564
-46.268
-51.609
-57.346
-63.052
-68.255
-72.522
-75.436
-76.503
-75.424
-72.29
-67.541
-62.066
-56.833
-52.447
-49.497
-48.744
-50.449
-54.069
-58.369
-61.205
-60.202
-53.595
-39.46
-15.532
19.746
66.804
124.713
190.964
262.219
335.087
405.296
467.508
516.364
547.174
556.703
543.238
506.279
446.354
365.559
268.048
159.411
45.732
-67.139
-173.459
-267.971
-346.133
-404.411
-441.313
-457.108
-453.038
-431.455
-395.974
-350.727
-300.342
-249.611
-202.235
-161.198
-128.932
-106.434
-93.418
-88.827
-90.572
-96.081
-103.136
-109.384
-112.795
-112.43
-108.011
-99.852
-88.993
-76.643
-63.975
-52.376
-42.88
-35.904
-31.603
-29.777
-29.938
-31.604
-34.2
-37.059
-39.715
-41.917
-43.497
-44.404
-44.63
-44.138
-42.955
-41.148
-38.752
-35.801
-32.33
-28.378
-24.011
-19.335
-14.462
-9.5
-4.565
0.257
4.894
9.273
13.349
17.091
20.476
23.497
26.159
28.465
30.429
32.076
33.429
34.523
35.397
36.093
36.66
37.137
37.55
37.923
38.272
38.609
38.944
39.283
39.624
39.969
40.32
40.679
41.052
41.441
41.846
42.266
42.7
43.145
43.604
44.078
44.57
45.081
45.614
46.173
46.763
47.388
48.048
48.743
49.472
50.232
51.021
51.837
52.674
53.528
54.396
55.272
56.153
57.036
57.916
58.788
59.648
60.492
61.315
62.113
62.882
63.616
64.313
64.968
65.576
66.134
66.637
67.081
67.462
67.773
68.011
68.171
68.249
68.239
68.138
67.944
67.652
67.261
66.769
66.175
65.479
64.68
63.78
62.778
61.677
60.479
59.185
57.798
56.322
54.76
53.114
51.39
49.591
47.722
45.787
43.792
41.742
39.643
37.502
35.325
33.12
30.894
28.655
26.411
24.17
21.94
19.729
17.546
15.397
13.29
11.232
9.229
7.287
5.41
3.604
1.871
0.214
-1.365
-2.865
-4.285
-5.624
-6.883
-8.061
-9.159
-10.179
-11.121
-11.988
-12.782
-13.508
-14.17
-14.771
-15.317
-15.813
-16.265
-16.68
-17.062
-17.42
-17.76
-18.088
-18.413
-18.741
-19.08
-19.437
-19.819
-20.229
-20.674
-21.157
-21.682
-22.248
-22.857
-23.508
-24.199
-24.931
-25.702
-26.511
-27.357
-28.239
-29.155
-30.105
-31.085
-32.088
-33.107
-34.133
-35.155
-36.162
-37.143
-38.087
-38.983
-39.823
-40.596
-41.299
-41.921
-42.453
-42.879
-43.182
-43.347
-43.366
-43.236
-42.959
-42.545
-42.012
-41.38
-40.673
-39.908
-39.091
-38.22
-37.278
-36.25
-35.116
-33.871
-32.523
-31.082
-29.553
-27.936
-26.228
-24.407
-22.442
-20.295
-17.916
-15.274
-12.362
-9.201
-5.847
-2.374
1.129
4.589
7.954
11.177
14.213
17.016
19.54
21.725
23.509
24.809
25.522
25.569
24.894
23.487
21.389
18.671
15.433
11.769
7.762
3.495
-0.945
-5.481
-10.047
-14.575
-19.005
-23.246
-27.184
-30.717
-33.761
-36.275
-38.261
-39.74
-40.76
-41.399
-41.747
-41.917
-42.03
-42.171
-42.39
-42.749
-43.307
-44.152
-45.397
-47.121
-49.374
-52.208
-55.698
-59.856
-64.566
-69.539
-74.316
-78.421
-81.492
-83.201
-83.125
-81.001
-76.897
-71.205
-64.777
-58.528
-53.002
-48.655
-46.075
-45.495
-46.576
-48.44
-49.343
-47.204
-40.381
-27.283
-6.229
24.11
64.522
114.965
174.134
238.493
303.215
363.805
416.242
459.893
496.169
522.859
534.886
523.396
478.124
396.6
281.847
141.279
-11.463
-164.134
-301.768
-407.59
-474.464
-500.177
-492.518
-466.943
-431.496
-394.183
-357.893
-320.559
-285.723
-252.248
-219.579
-189.867
-161.997
-138.743
-122.076
-111.255
-106.544
-105.87
-107.156
-109.291
-110.178
-108.806
-105.149
-99.138
-91.298
-82.259
-72.348
-62.332
-53.404
-46.275
-41.245
-38.335
-37.122
-37.184
-38.257
-39.899
-41.568
-42.912
-43.689
-43.76
-43.182
-41.991
-40.185
-37.823
-34.966
-31.663
-27.986
-23.999
-19.769
-15.393
-10.981
-6.64
-2.463
1.485
5.148
8.476
11.442
14.033
16.251
18.105
19.603
20.753
21.575
22.099
22.368
22.423
22.307
22.085
21.813
21.535
21.294
21.103
20.956
20.885
20.916
21.011
21.14
21.286
21.415
21.566
21.807
22.102
22.382
22.816
23.603
24.617
25.869
27.394
28.753
31.12
35.638
40.67
45.718
47.773
43.234
36.071
28.926
25.738
31.922
42.667
53.896
62.809
64.791
63.124
61.132
59.548
60.394
62.478
64.271
66.052
67.619
69.062
70.681
72.267
73.65
74.877
75.955
76.858
77.585
78.144
78.537
78.789
78.933
78.952
78.831
78.574
78.18
77.65
76.988
76.193
75.262
74.203
73.02
71.719
70.305
68.786
67.165
65.45
63.648
61.767
59.816
57.801
55.732
53.618
51.465
49.285
47.085
44.873
42.659
40.45
38.255
36.083
33.941
31.839
29.784
27.785
25.85
23.987
22.203
20.505
18.899
17.389
15.982
14.681
13.488
12.407
11.438
10.583
9.843
9.216
8.703
8.299
8.003
7.809
7.714
7.712
7.797
7.963
8.204
8.512
8.882
9.305
9.774
10.281
10.816
11.371
11.936
12.503
13.061
13.6
14.113
14.591
15.026
15.412
15.742
16.012
16.216
16.35
16.411
16.394
16.295
16.11
15.838
15.478
15.028
14.49
13.867
13.164
12.389
11.549
10.651
9.702
8.706
7.672
6.607
5.519
4.411
3.291
2.169
1.058
-0.017
-1.045
-2.021
-2.946
-3.829
-4.677
-5.491
-6.28
-7.061
-7.839
-8.616
-9.373
-10.076
-10.705
-11.253
-11.726
-12.151
-12.536
-12.869
-13.139
-13.33
-13.424
-13.413
-13.265
-12.921
-12.362
-11.594
-10.662
-9.66
-8.653
-7.676
-6.76
-5.91
-5.153
-4.538
-4.095
-3.847
-3.827
-4.066
-4.633
-5.645
-7.158
-9.18
-11.671
-14.53
-17.678
-21.07
-24.643
-28.331
-32.065
-35.761
-39.37
-42.873
-46.226
-49.375
-52.226
-54.637
-56.525
-57.864
-58.655
-58.958
-58.844
-58.364
-57.624
-56.76
-55.88
-55.104
-54.531
-54.218
-54.259
-54.758
-55.812
-57.579
-60.222
-63.788
-68.202
-73.239
-78.48
-83.513
-87.99
-91.462
-93.397
-93.433
-91.558
-88.173
-84.143
-80.379
-77.363
-75.466
-75.252
-76.992
-80.324
-84.233
-86.735
-85.38
-78.433
-64.486
-41.636
-8.229
36.647
93.17
158.747
228.361
297.973
364.485
427.497
488.667
545.371
589.371
607.172
585.112
518.856
416.19
292.543
163.125
35.899
-90.348
-215.572
-332.983
-432.476
-500.604
-533.036
-537.674
-523.239
-499.707
-472.168
-438.482
-398.983
-355.089
-308.848
-264.649
-225.224
-192.105
-166.416
-147.749
-135.102
-127.451
-123.868
-123.5
-125.233
-127.378
-128.211
-126.811
-123.04
-117.229
-109.784
-101.087
-91.69
-82.576
-74.901
-69.3
-65.874
-64.388
-64.414
-65.6
-67.613
-69.921
-71.899
-73.139
-73.443
-72.792
-71.299
-69.021
-65.971
-62.212
-57.843
-52.97
-47.698
-42.101
-36.242
-30.208
-24.112
-18.092
-12.275
-6.747
-1.562
3.253
7.689
11.731
15.375
18.638
21.543
24.119
26.395
28.391
30.134
31.662
33.019
34.262
35.436
36.57
37.688
38.804
39.927
41.068
42.231
43.411
44.604
45.81
47.03
48.271
49.536
50.824
52.132
53.456
54.794
56.146
57.51
58.884
60.267
61.656
63.052
64.454
65.862
67.27
68.674
70.068
71.446
72.8
74.124
75.409
76.648
77.833
78.958
80.014
80.997
81.898
82.711
83.43
84.048
84.56
84.959
85.239
85.395
85.422
85.316
85.071
84.685
84.154
83.476
82.647
81.668
80.537
79.254
77.819
76.234
74.5
72.622
70.601
68.441
66.148
63.726
61.182
58.522
55.752
52.881
49.916
46.864
43.736
40.539
37.284
33.979
30.635
27.261
23.869
20.469
17.071
13.686
10.326
7.001
3.722
0.499
-2.658
-5.739
-8.735
-11.636
-14.435
-17.122
-19.692
-22.136
-24.448
-26.623
-28.656
-30.541
-32.277
-33.86
-35.289
-36.564
-37.683
-38.65
-39.466
-40.134
-40.656
-41.038
-41.282
-41.394
-41.381
-41.248
-41.002
-40.651
-40.204
-39.668
-39.054
-38.37
-37.625
-36.829
-35.991
-35.12
-34.227
-33.321
-32.41
-31.505
-30.615
-29.75
-28.918
-28.127
-27.384
-26.695
-26.066
-25.501
-25.001
-24.569
-24.204
-23.908
-23.681
-23.523
-23.434
-23.412
-23.458
-23.572
-23.752
-23.994
-24.292
-24.639
-25.024
-25.439
-25.873
-26.313
-26.749
-27.168
-27.561
-27.925
-28.251
-28.526
-28.738
-28.868
-28.901
-28.833
-28.66
-28.377
-27.989
-27.508
-26.954
-26.366
-25.767
-25.17
-24.577
-23.976
-23.355
-22.711
-22.034
-21.317
-20.551
-19.721
-18.82
-17.851
-16.798
-15.632
-14.301
-12.715
-10.823
-8.609
-6.077
-3.259
-0.202
3.047
6.415
9.803
13.127
16.307
19.287
22.04
24.509
26.615
28.252
29.272
29.572
29.105
27.84
25.781
22.966
19.446
15.334
10.799
5.978
0.987
-4.085
-9.189
-14.244
-19.143
-23.761
-27.952
-31.604
-34.648
-37.021
-38.691
-39.686
-40.063
-39.95
-39.528
-38.926
-38.264
-37.655
-37.188
-36.979
-37.146
-37.779
-39.003
-40.978
-43.756
-47.277
-51.331
-55.494
-59.377
-62.678
-65.01
-65.904
-65.1
-62.667
-59.052
-55.134
-51.657
-48.885
-47.068
-46.604
-47.523
-49.287
-50.751
-49.995
-45.154
-35.127
-18.759
5.378
38.053
79.525
129.395
185.966
247.218
310.239
370.108
421.952
462.625
492.604
515.092
530.331
532.866
511.053
453.268
357.196
231.225
92.516
-41.223
-159.229
-257.659
-337.71
-400.344
-444.542
-468.398
-470.115
-450.892
-414.535
-366.062
-311.325
-255.686
-203.237
-157.462
-120.999
-94.837
-78.745
-71.474
-70.7
-73.793
-78.43
-82.253
-83.33
-80.817
-74.519
-64.821
-52.807
-39.705
-26.667
-15.039
-5.794
0.717
4.381
5.424
4.372
1.737
-1.892
-5.798
-9.482
-12.656
-15.09
-16.718
-17.533
-17.486
-16.612
-14.99
-12.657
-9.669
-6.092
-1.974
2.604
7.52
12.661
17.896
23.093
28.152
32.983
37.511
41.698
45.512
48.937
51.972
54.626
56.914
58.867
60.515
61.885
63.017
63.95
64.732
65.417
66.045
66.643
67.232
67.827
68.439
69.078
69.746
70.439
71.156
71.895
72.658
73.449
74.27
75.118
75.991
76.885
77.798
78.733
79.689
80.666
81.666
82.689
83.736
84.811
85.915
87.047
88.205
89.384
90.584
91.799
93.028
94.265
95.505
96.745
97.98
99.207
100.422
101.619
102.794
103.941
105.056
106.134
107.17
108.157
109.091
109.966
110.777
111.518
112.185
112.772
113.273
113.684
113.998
114.213
114.323
114.324
114.213
113.986
113.64
113.174
112.584
111.87
111.029
110.062
108.969
107.748
106.403
104.934
103.343
101.634
99.81
97.874
95.832
93.689
91.45
89.123
86.712
84.228
81.676
79.067
76.408
73.709
70.981
68.233
65.475
62.718
59.972
57.247
54.553
51.901
49.3
46.759
44.289
41.898
39.594
37.386
35.281
33.283
31.4
29.635
27.993
26.475
25.084
23.821
22.686
21.678
20.796
20.038
19.4
18.877
18.465
18.156
17.945
17.823
17.782
17.812
17.904
18.048
18.235
18.453
18.692
18.94
19.187
19.42
19.631
19.807
19.938
20.014
20.027
19.969
19.832
19.609
19.296
18.887
18.379
17.77
17.058
16.24
15.317
14.291
13.163
11.939
10.621
9.215
7.73
6.175
4.56
2.895
1.192
-0.539
-2.285
-4.034
-5.774
-7.489
-9.169
-10.804
-12.377
-13.873
-15.278
-16.574
-17.757
-18.823
-19.765
-20.577
-21.256
-21.796
-22.202
-22.48
-22.62
-22.615
-22.46
-22.146
-21.684
-21.088
-20.371
-19.548
-18.622
-17.59
-16.47
-15.278
-14.017
-12.696
-11.311
-9.853
-8.363
-6.881
-5.439
-4.081
-2.819
-1.663
-0.64
0.232
0.929
1.427
1.723
1.815
1.668
1.25
0.524
-0.551
-1.949
-3.642
-5.609
-7.814
-10.232
-12.829
-15.552
-18.35
-21.193
-24.056
-26.915
-29.746
-32.486
-35.069
-37.433
-39.53
-41.349
-42.887
-44.156
-45.197
-46.078
-46.902
-47.758
-48.711
-49.815
-51.122
-52.703
-54.643
-57.043
-59.979
-63.548
-67.879
-72.983
-78.758
-84.943
-91.077
-96.69
-101.412
-104.797
-106.321
-105.837
-103.536
-99.954
-96.121
-92.805
-90.307
-89.157
-90.001
-92.721
-96.574
-100.037
-100.669
-96.637
-86.847
-69.646
-43.147
-6.337
40.911
97.177
159.543
225.427
292.393
356.678
413.473
457.952
485.891
494.47
482.086
447.583
390.248
312.253
219.374
116.576
8.096
-103.297
-218.096
-330.387
-428.289
-501.33
-538.335
-538.089
-510.961
-466.657
-416.239
-366.062
-315.067
-264.462
-216.117
-172.858
-139.409
-117.518
-106.545
-105.08
-110.308
-119.415
-129.929
-138.882
-144.244
-145.242
-141.701
-134.216
-123.874
-111.78
-99.257
-87.914
-78.745
-72.116
-68.089
-66.268
-66.111
-67.123
-68.707
-70.226
-71.311
-71.795
-71.579
-70.684
-69.134
-66.924
-64.119
-60.806
-57.032
-52.83
-48.255
-43.38
-38.322
-33.242
-28.247
-23.402
-18.757
-14.34
-10.191
-6.357
-2.859
0.312
3.155
5.67
7.856
9.705
11.24
12.505
13.554
14.446
15.227
15.924
16.565
17.168
17.75
18.324
18.894
19.453
20.004
20.553
21.108
21.679
22.27
22.88
23.507
24.15
24.805
25.474
26.155
26.846
27.55
28.269
29.008
29.77
30.559
31.376
32.221
33.093
33.991
34.912
35.854
36.812
37.783
38.765
39.752
40.745
41.738
42.73
43.717
44.697
45.666
46.622
47.56
48.477
49.37
50.234
51.066
51.862
52.618
53.329
53.993
54.604
55.159
55.652
56.079
56.435
56.714
56.912
57.024
57.046
56.973
56.803
56.531
56.155
55.672
55.08
54.376
53.558
52.625
51.575
50.407
49.121
47.716
46.193
44.553
42.799
40.932
38.955
36.873
34.689
32.409
30.038
27.583
25.052
22.451
19.79
17.078
14.325
11.541
8.736
5.923
3.11
0.311
-2.464
-5.205
-7.9
-10.538
-13.11
-15.605
-18.013
-20.325
-22.531
-24.625
-26.598
-28.444
-30.155
-31.728
-33.157
-34.439
-35.571
-36.553
-37.382
-38.061
-38.59
-38.972
-39.212
-39.314
-39.284
-39.13
-38.859
-38.48
-38.004
-37.439
-36.797
-36.09
-35.328
-34.523
-33.688
-32.834
-31.974
-31.118
-30.278
-29.466
-28.691
-27.964
-27.295
-26.691
-26.161
-25.712
-25.35
-25.079
-24.905
-24.83
-24.855
-24.982
-25.208
-25.532
-25.949
-26.456
-27.045
-27.708
-28.437
-29.222
-30.052
-30.915
-31.801
-32.695
-33.585
-34.457
-35.298
-36.094
-36.832
-37.499
-38.081
-38.568
-38.947
-39.207
-39.34
-39.336
-39.186
-38.884
-38.425
-37.804
-37.021
-36.071
-34.958
-33.683
-32.25
-30.667
-28.94
-27.081
-25.1
-23.014
-20.84
-18.595
-16.299
-13.973
-11.638
-9.316
-7.027
-4.792
-2.629
-0.559
1.398
3.221
4.886
6.376
7.671
8.754
9.609
10.22
10.578
10.681
10.524
10.103
9.411
8.431
7.154
5.58
3.71
1.55
-0.88
-3.563
-6.464
-9.536
-12.737
-16.023
-19.36
-22.73
-26.102
-29.438
-32.697
-35.818
-38.756
-41.483
-43.962
-46.17
-48.124
-49.844
-51.39
-52.852
-54.279
-55.727
-57.268
-58.951
-60.858
-63.074
-65.647
-68.679
-72.307
-76.565
-81.399
-86.611
-91.775
-96.477
-100.406
-103.165
-104.326
-103.682
-101.334
-97.807
-94.093
-91.135
-89.432
-89.337
-91.269
-95.223
-100.522
-105.799
-108.837
-107.298
-99.63
-84.525
-60.412
-26.314
17.884
71.413
132.014
196.78
263.181
328.158
387.615
437.443
473.654
492.81
492.957
472.886
431.7
369.991
290.296
196.455
93.472
-13.24
-118.494
-216.84
-302.893
-372.349
-422.695
-453.158
-464.298
-457.519
-435.236
-401.082
-359.389
-314.712
-270.752
-230.165
-195.309
-168.045
-149.06
-137.963
-133.396
-133.128
-135.251
-138.21
-140.078
-139.259
-134.935
-126.809
-115.386
-101.856
-87.218
-72.449
-58.77
-47.022
-37.668
-30.983
-26.793
-24.658
-24.184
-24.856
-26.12
-27.647
-29.204
-30.595
-31.713
-32.441
-32.686
-32.449
-31.758
-30.61
-28.996
-26.897
-24.319
-21.325
-18
-14.425
-10.655
-6.732
-2.713
1.319
5.251
8.986
12.467
15.663
18.554
21.12
23.344
25.227
26.797
28.096
29.163
30.028
30.71
31.233
31.628
31.935
32.202
32.467
32.754
33.083
33.47
33.93
34.476
35.112
35.832
36.628
37.499
38.444
39.466
40.566
41.739
42.98
44.283
45.646
47.065
48.537
50.056
51.618
53.219
54.856
56.529
58.233
59.964
61.717
63.485
65.261
67.04
68.815
70.577
72.322
74.041
75.729
77.381
78.991
80.553
82.061
83.51
84.895
86.212
87.454
88.617
89.697
90.689
91.591
92.397
93.103
93.707
94.204
94.591
94.864
95.021
95.06
94.977
94.77
94.439
93.982
93.398
92.686
91.846
90.878
89.783
88.562
87.217
85.749
84.16
82.455
80.636
78.707
76.674
74.542
72.317
70.005
67.614
65.151
62.623
60.041
57.412
54.746
52.053
49.343
46.628
43.917
41.222
38.553
35.922
33.339
30.814
28.359
25.982
23.694
21.504
19.422
17.455
15.611
13.898
12.322
10.888
9.6
8.463
7.477
6.644
5.965
5.439
5.064
4.839
4.758
4.818
5.013
5.336
5.78
6.337
6.998
7.752
8.59
9.5
10.473
11.496
12.558
13.647
14.753
15.863
16.965
18.049
19.102
20.115
21.077
21.979
22.811
23.567
24.24
24.824
25.314
25.709
26.004
26.199
26.292
26.286
26.18
25.978
25.683
25.3
24.836
24.296
23.688
23.021
22.302
21.542
20.749
19.933
19.103
18.27
17.443
16.632
15.847
15.097
14.392
13.739
13.147
12.622
12.169
11.791
11.491
11.27
11.127
11.059
11.063
11.134
11.266
11.451
11.683
11.953
12.253
12.574
12.905
13.237
13.556
13.85
14.106
14.308
14.444
14.499
14.461
14.32
14.071
13.705
13.216
12.597
11.832
10.912
9.831
8.583
7.169
5.594
3.871
2.027
0.097
-1.882
-3.878
-5.864
-7.822
-9.734
-11.578
-13.326
-14.945
-16.403
-17.677
-18.743
-19.585
-20.199
-20.605
-20.869
-21.084
-21.343
-21.72
-22.256
-22.996
-24.001
-25.336
-27.081
-29.301
-32.03
-35.337
-39.343
-44.083
-49.456
-55.186
-60.769
-65.706
-69.649
-72.232
-73.007
-71.716
-68.444
-63.685
-58.432
-53.651
-49.797
-47.193
-46.298
-47.213
-49.435
-51.796
-52.208
-48.419
-38.975
-22.595
2.371
37.056
81.885
136.407
198.521
265.348
334.315
402.209
464.663
517.219
555.318
574.889
573.66
550.201
503.534
434.384
345.342
240.424
125.234
5.843
-112.239
-223.053
-320.853
-401.216
-460.857
-498.401
-514.409
-510.053
-487.401
-450.225
-402.784
-349.452
-294.932
-242.724
-195.544
-156.307
-126.559
-106.189
-94.533
-90.023
-90.328
-93.676
-98.083
-100.956
-100.872
-97.408
-90.495
-80.9
-69.7
-57.633
-45.794
-35.639
-27.926
-22.943
-20.684
-20.62
-22.213
-25.095
-28.718
-32.428
-35.765
-38.382
-40.1
-40.962
-40.996
-40.199
-38.609
-36.271
-33.245
-29.627
-25.508
-20.962
-16.069
-10.915
-5.591
-0.217
5.071
10.16
14.973
19.462
23.603
27.375
30.757
33.742
36.348
38.615
40.58
42.278
43.733
44.977
46.047
46.996
47.877
48.732
49.586
50.458
51.359
52.303
53.302
54.359
55.466
56.619
57.813
59.052
60.338
61.674
63.055
64.477
65.935
67.428
68.954
70.513
72.102
73.72
75.364
77.035
78.734
80.458
82.205
83.969
85.744
87.524
89.302
91.071
92.823
94.55
96.247
97.905
99.519
101.082
102.588
104.029
105.399
106.691
107.899
109.014
110.031
110.942
111.742
112.424
112.984
113.414
113.711
113.869
113.883
113.75
113.466
113.028
112.433
111.681
110.771
109.702
108.476
107.095
105.561
103.876
102.045
100.072
97.962
95.719
93.349
90.86
88.257
85.548
82.743
79.85
76.879
73.839
70.742
67.599
64.42
61.218
58.003
54.787
51.583
48.402
45.256
42.156
39.113
36.139
33.243
30.435
27.725
25.119
22.627
20.254
18.007
15.891
13.91
12.068
10.367
8.81
7.398
6.131
5.007
4.024
3.179
2.469
1.888
1.43
1.089
0.858
0.727
0.689
0.735
0.854
1.038
1.276
1.557
1.872
2.208
2.557
2.907
3.249
3.573
3.869
4.129
4.345
4.508
4.612
4.649
4.613
4.501
4.306
4.025
3.656
3.196
2.644
2.002
1.269
0.449
-0.456
-1.442
-2.502
-3.632
-4.824
-6.071
-7.366
-8.7
-10.064
-11.45
-12.847
-14.247
-15.639
-17.014
-18.362
-19.673
-20.938
-22.147
-23.294
-24.369
-25.364
-26.274
-27.092
-27.813
-28.432
-28.946
-29.352
-29.647
-29.832
-29.907
-29.876
-29.74
-29.506
-29.18
-28.771
-28.291
-27.75
-27.16
-26.535
-25.888
-25.234
-24.586
-23.955
-23.354
-22.796
-22.293
-21.861
-21.515
-21.269
-21.135
-21.124
-21.247
-21.517
-21.937
-22.51
-23.235
-24.115
-25.157
-26.376
-27.782
-29.376
-31.158
-33.121
-35.253
-37.539
-39.95
-42.443
-44.976
-47.508
-50.009
-52.46
-54.835
-57.103
-59.222
-61.137
-62.807
-64.212
-65.325
-66.14
-66.675
-66.96
-67.066
-67.099
-67.135
-67.262
-67.566
-68.115
-69.007
-70.333
-72.153
-74.567
-77.705
-81.613
-86.244
-91.412
-96.708
-101.725
-106.181
-109.693
-111.743
-111.962
-110.288
-107.064
-103.198
-99.66
-96.763
-94.748
-94.485
-96.455
-100.347
-105.436
-108.461
-105.993
-97.86
-82.569
-60.478
-32.796
4.508
51.571
109.008
179.585
259.86
348.326
439.488
519.588
575.73
595.012
570.718
508.016
418.598
315.404
208.361
101.516
-5.88
-113.437
-217.336
-311.775
-389.954
-447.845
-485.093
-503.264
-504.77
-491.658
-466.633
-433.29
-395.292
-356.026
-317.845
-282.009
-249.8
-222.871
-201.772
-186.063
-174.915
-167.06
-161.576
-157.992
-155.279
-151.843
-146.81
-140.012
-131.651
-122.406
-112.775
-102.976
-93.646
-85.793
-80.038
-76.6
-75.381
-75.905
-77.769
-80.73
-84.382
-88.17
-91.631
-94.406
-96.306
-97.344
-97.542
-96.884
-95.386
-93.087
-90.046
-86.36
-82.129
-77.426
-72.332
-66.928
-61.308
-55.595
-49.93
-44.434
-39.186
-34.236
-29.608
-25.323
-21.402
-17.854
-14.66
-11.788
-9.205
-6.882
-4.804
-2.948
-1.281
0.241
1.668
3.038
4.371
5.684
6.984
8.282
9.586
10.897
12.206
13.505
14.789
16.061
17.323
18.578
19.823
21.055
22.269
23.467
24.65
25.819
26.975
28.119
29.254
30.384
31.516
32.652
33.794
34.945
36.104
37.272
38.45
39.637
40.832
42.034
43.242
44.455
45.671
46.889
48.106
49.318
50.523
51.716
52.893
54.049
55.179
56.276
57.335
58.351
59.315
60.223
61.066
61.837
62.53
63.138
63.655
64.073
64.387
64.59
64.678
64.645
64.486
64.199
63.779
63.224
62.532
61.703
60.736
59.633
58.394
57.023
55.524
53.901
52.16
50.307
48.35
46.298
44.16
41.945
39.666
37.334
34.96
32.559
30.141
27.722
25.314
22.932
20.587
18.293
16.063
13.909
11.842
9.874
8.014
6.272
4.657
3.174
1.832
0.633
-0.416
-1.316
-2.063
-2.658
-3.104
-3.401
-3.554
-3.568
-3.45
-3.205
-2.843
-2.372
-1.802
-1.144
-0.41
0.388
1.238
2.126
3.039
3.965
4.889
5.8
6.684
7.53
8.327
9.064
9.731
10.32
10.822
11.231
11.542
11.751
11.854
11.85
11.739
11.523
11.203
10.783
10.268
9.664
8.979
8.219
7.393
6.512
5.584
4.622
3.638
2.643
1.65
0.672
-0.278
-1.187
-2.042
-2.832
-3.543
-4.166
-4.691
-5.106
-5.403
-5.576
-5.618
-5.524
-5.29
-4.915
-4.399
-3.742
-2.948
-2.023
-0.972
0.198
1.475
2.849
4.306
5.833
7.414
9.033
10.674
12.318
13.949
15.548
17.101
18.591
19.999
21.308
22.499
23.556
24.461
25.199
25.756
26.118
26.276
26.227
25.967
25.495
24.806
23.888
22.738
21.357
19.748
17.918
15.881
13.654
11.268
8.765
6.185
3.562
0.924
-1.716
-4.335
-6.903
-9.388
-11.744
-13.937
-15.947
-17.746
-19.304
-20.623
-21.725
-22.664
-23.537
-24.403
-25.292
-26.241
-27.275
-28.448
-29.832
-31.486
-33.461
-35.825
-38.685
-42.103
-46.025
-50.221
-54.261
-57.664
-60.026
-60.973
-60.05
-57.027
-52.094
-45.803
-39.226
-33.515
-29.355
-27.354
-28.247
-32.19
-38.505
-45.811
-51.734
-53.668
-49.79
-38.212
-16.693
16.147
60.439
115.353
178.621
246.891
317.382
385.594
444.446
489.224
516.93
526.78
523.426
507.366
473.258
415.787
325.654
200.778
52.476
-102.899
-241.79
-345.246
-408.333
-436.099
-443.802
-443.073
-436.118
-419.238
-382.199
-325.1
-259.511
-198.17
-157.375
-141.53
-141.473
-149.092
-154.639
-154.314
-152.927
-152.557
-153.825
-155.732
-154.418
-148.247
-137.621
-123.515
-107.707
-91.689
-76.594
-63.395
-52.636
-44.535
-38.99
-35.647
-34.109
-33.872
-34.317
-35.009
-35.675
-36.121
-36.303
-36.182
-35.666
-34.717
-33.341
-31.515
-29.227
-26.473
-23.227
-19.517
-15.416
-11.01
-6.413
-1.726
2.964
7.554
11.963
16.128
19.99
23.51
26.662
29.422
31.781
33.747
35.329
36.549
37.435
38.021
38.351
38.472
38.429
38.276
38.055
37.796
37.529
37.277
37.055
36.883
36.77
36.721
36.741
36.839
37.02
37.293
37.66
38.124
38.683
39.336
40.081
40.917
41.844
42.86
43.963
45.153
46.427
47.786
49.225
50.739
52.321
53.963
55.655
57.389
59.154
60.939
62.733
64.525
66.305
68.063
69.79
71.475
73.108
74.681
76.184
77.607
78.943
80.183
81.318
82.341
83.247
84.028
84.679
85.196
85.573
85.807
85.894
85.832
85.618
85.251
84.731
84.057
83.231
82.254
81.129
79.86
78.45
76.905
75.229
73.429
71.511
69.482
67.35
65.121
62.804
60.407
57.94
55.41
52.828
50.202
47.543
44.859
42.161
39.459
36.761
34.078
31.419
28.794
26.213
23.684
21.217
18.82
16.502
14.271
12.134
10.097
8.168
6.351
4.652
3.073
1.619
0.291
-0.909
-1.981
-2.924
-3.741
-4.432
-5.001
-5.451
-5.785
-6.009
-6.129
-6.148
-6.075
-5.916
-5.679
-5.371
-5
-4.577
-4.108
-3.606
-3.078
-2.535
-1.988
-1.446
-0.92
-0.419
0.046
0.466
0.832
1.136
1.37
1.527
1.6
1.585
1.477
1.273
0.971
0.569
0.067
-0.535
-1.234
-2.028
-2.913
-3.886
-4.942
-6.073
-7.274
-8.536
-9.851
-11.208
-12.598
-14.009
-15.429
-16.845
-18.245
-19.615
-20.942
-22.212
-23.41
-24.525
-25.541
-26.447
-27.229
-27.877
-28.379
-28.726
-28.91
-28.924
-28.762
-28.419
-27.892
-27.181
-26.286
-25.206
-23.946
-22.508
-20.899
-19.126
-17.196
-15.121
-12.91
-10.578
-8.143
-5.622
-3.035
-0.399
2.262
4.927
7.574
10.181
12.731
15.203
17.579
19.837
21.956
23.915
25.7
27.293
28.679
29.846
30.782
31.483
31.949
32.18
32.174
31.922
31.41
30.633
29.588
28.28
26.715
24.906
22.869
20.635
18.247
15.749
13.179
10.57
7.948
5.345
2.806
0.385
-1.859
-3.88
-5.637
-7.101
-8.264
-9.129
-9.723
-10.101
-10.322
-10.463
-10.613
-10.858
-11.292
-12.009
-13.091
-14.667
-16.915
-19.914
-23.632
-27.885
-32.292
-36.469
-40.131
-42.908
-44.308
-44.032
-42.141
-39.118
-35.962
-33.696
-32.891
-33.985
-37.561
-43.78
-52.037
-60.973
-68.231
-71.12
-67.656
-56.042
-34.193
-0.673
44.952
102.062
168.387
240.679
315.7
389.566
457.426
514.199
554.882
575.447
573.212
547.504
499.836
431.229
343.617
239.22
118.637
-11.175
-138.367
-251.24
-336.199
-389.046
-416.383
-425.238
-424.516
-418.347
-403.973
-381.153
-351.213
-317.051
-283.22
-251.52
-222.123
-195.066
-170.29
-148.481
-129.863
-113.76
-99.996
-88.852
-80.501
-75.181
-72.311
-70.358
-68.529
-66.726
-64.733
-62.49
-59.949
-56.909
-53.776
-51.536
-50.665
-51.228
-53.142
-56.029
-59.593
-63.65
-67.781
-71.416
-74.194
-75.921
-76.55
-76.197
-74.932
-72.787
-69.857
-66.269
-62.148
-57.618
-52.787
-47.737
-42.572
-37.435
-32.446
-27.706
-23.284
-19.214
-15.51
-12.186
-9.239
-6.652
-4.4
-2.455
-0.789
0.621
1.803
2.793
3.636
4.382
5.072
5.737
6.397
7.067
7.754
8.466
9.202
9.955
10.721
11.497
12.285
13.089
13.911
14.749
15.602
16.466
17.341
18.227
19.126
20.038
20.963
21.904
22.865
23.848
24.857
25.891
26.949
28.028
29.126
30.24
31.367
32.501
33.638
34.776
35.911
37.038
38.156
39.259
40.343
41.405
42.439
43.443
44.411
45.339
46.221
47.053
47.831
48.55
49.204
49.79
50.3
50.732
51.079
51.337
51.501
51.567
51.53
51.388
51.139
50.778
50.305
49.718
49.017
48.202
47.272
46.228
45.072
43.804
42.426
40.941
39.351
37.661
35.873
33.993
32.026
29.976
27.849
25.653
23.394
21.079
18.716
16.314
13.88
11.426
8.959
6.49
4.029
1.586
-0.83
-3.21
-5.543
-7.822
-10.038
-12.183
-14.251
-16.234
-18.126
-19.923
-21.618
-23.209
-24.692
-26.065
-27.325
-28.472
-29.506
-30.426
-31.233
-31.931
-32.519
-33.003
-33.385
-33.67
-33.862
-33.968
-33.995
-33.947
-33.835
-33.665
-33.446
-33.187
-32.896
-32.583
-32.255
-31.921
-31.589
-31.266
-30.96
-30.677
-30.423
-30.203
-30.021
-29.88
-29.785
-29.735
-29.734
-29.78
-29.874
-30.015
-30.2
-30.427
-30.693
-30.994
-31.325
-31.681
-32.055
-32.442
-32.833
-33.222
-33.599
-33.956
-34.284
-34.574
-34.816
-35
-35.118
-35.16
-35.117
-34.983
-34.749
-34.409
-33.958
-33.391
-32.706
-31.902
-30.976
-29.931
-28.766
-27.486
-26.093
-24.594
-22.995
-21.301
-19.522
-17.669
-15.753
-13.789
-11.79
-9.769
-7.744
-5.729
-3.742
-1.798
0.091
1.911
3.648
5.284
6.805
8.194
9.441
10.533
11.459
12.209
12.775
13.155
13.351
13.366
13.198
12.844
12.293
11.541
10.589
9.441
8.104
6.588
4.905
3.081
1.153
-0.845
-2.875
-4.912
-6.933
-8.908
-10.803
-12.572
-14.165
-15.546
-16.679
-17.541
-18.127
-18.439
-18.497
-18.35
-18.05
-17.667
-17.294
-17.012
-16.92
-17.132
-17.712
-18.769
-20.465
-22.854
-25.921
-29.54
-33.344
-36.958
-40.161
-42.647
-44.009
-44.027
-42.625
-40.112
-37.392
-35.448
-34.873
-35.976
-39.32
-45.364
-53.928
-64.282
-73.696
-77.627
-73.993
-62.307
-43.258
-20.544
7.497
46.75
101.494
176.908
269.374
366.382
456.159
525.801
568.191
583.909
573.803
540.864
487.177
411.708
313.201
191.143
49.973
-98.999
-237.923
-349.062
-423.283
-461.217
-473.255
-471.375
-461.373
-444.169
-417.365
-379.877
-334.634
-286.749
-241.343
-201.805
-170.151
-146.798
-130.75
-120.965
-116.072
-114.245
-114.283
-114.806
-113.801
-110.29
-104.142
-95.467
-85.014
-73.658
-61.871
-50.447
-40.606
-32.985
-27.816
-25.095
-24.346
-25.112
-27.106
-29.863
-32.78
-35.41
-37.417
-38.603
-38.987
-38.583
-37.369
-35.376
-32.65
-29.248
-25.255
-20.754
-15.813
-10.51
-4.947
0.772
6.521
12.159
17.567
22.662
27.383
31.7
35.592
39.04
42.037
44.6
46.755
48.535
49.969
51.078
51.892
52.449
52.797
52.989
53.069
53.064
52.997
52.884
52.74
52.579
52.41
52.231
52.043
51.849
51.658
51.48
51.324
51.195
51.097
51.033
51.01
51.034
51.112
51.25
51.454
51.728
52.08
52.518
53.046
53.667
54.381
55.188
56.087
57.077
58.154
59.315
60.553
61.864
63.242
64.683
66.18
67.724
69.309
70.927
72.568
74.225
75.887
77.544
79.187
80.805
82.387
83.924
85.405
86.818
88.155
89.404
90.557
91.605
92.54
93.352
94.036
94.585
94.993
95.255
95.367
95.324
95.125
94.769
94.254
93.58
92.75
91.764
90.625
89.337
87.904
86.33
84.621
82.783
80.824
78.751
76.572
74.298
71.938
69.502
67.001
64.446
61.848
59.22
56.57
53.912
51.256
48.613
45.994
43.41
40.872
38.389
35.971
33.628
31.368
29.198
27.125
25.154
23.29
21.537
19.899
18.378
16.976
15.693
14.531
13.49
12.569
11.766
11.078
10.501
10.029
9.658
9.384
9.202
9.105
9.087
9.135
9.247
9.422
9.641
9.886
10.143
10.39
10.63
10.874
11.097
11.275
11.441
11.617
11.823
12.089
12.384
12.646
12.907
13.225
13.444
13.379
13.14
12.715
12.07
11.602
10.246
6.965
3.251
-0.441
-1.377
3.717
11.241
18.8
22.82
18.392
9.878
0.978
-5.773
-6.189
-3.245
0.047
3.035
3.89
3.688
3.811
3.989
4.385
4.896
5.229
5.546
5.981
6.481
7.043
7.706
8.494
9.405
10.434
11.538
12.667
13.834
15.056
16.335
17.697
19.16
20.744
22.503
24.469
26.634
28.968
31.397
33.826
36.189
38.439
40.538
42.465
44.172
45.613
46.754
47.545
47.94
47.881
47.27
46.028
44.128
41.574
38.432
34.803
30.756
26.359
21.679
16.779
11.744
6.658
1.578
-3.436
-8.319
-12.989
-17.328
-21.222
-24.601
-27.425
-29.695
-31.451
-32.723
-33.57
-34.071
-34.32
-34.431
-34.492
-34.584
-34.794
-35.217
-35.97
-37.177
-38.93
-41.328
-44.516
-48.523
-53.252
-58.456
-63.643
-68.314
-72.086
-74.495
-75.009
-73.39
-69.7
-64.41
-58.683
-53.638
-50.005
-48.574
-49.983
-54.214
-60.707
-68.079
-73.61
-74.42
-68.096
-52.073
-24.232
16.521
70.454
136.419
211.074
290.13
369.06
442.202
503.525
547.513
569.011
565.538
538.46
489.57
419.798
327.599
209.928
69.404
-82.458
-225.436
-338.23
-409.148
-440.171
-445.481
-440.495
-433.44
-424.237
-407.013
-378.447
-340.481
-298.067
-257.302
-221.732
-192.324
-169.408
-152.477
-140.765
-133.259
-128.406
-124.758
-121.107
-116.574
-110.524
-102.657
-93.106
-82.415
-71.405
-60.953
-51.953
-44.955
-40.251
-37.969
-37.935
-39.788
-43.065
-47.171
-51.453
-55.482
-58.974
-61.709
-63.615
-64.639
-64.733
-63.951
-62.378
-60.073
-57.107
-53.547
-49.452
-44.938
-40.152
-35.241
-30.369
-25.651
-21.171
-17.01
-13.223
-9.846
-6.904
-4.389
-2.283
-0.572
0.765
1.755
2.426
2.823
3
3.01
2.916
2.765
2.592
2.426
2.289
2.194
2.154
2.171
2.241
2.366
2.548
2.789
3.095
3.466
3.899
4.392
4.941
5.542
6.193
6.893
7.641
8.436
9.278
10.166
11.103
12.089
13.12
14.194
15.307
16.453
17.628
18.828
20.045
21.276
22.515
23.756
24.995
26.229
27.452
28.66
29.848
31.013
32.15
33.256
34.326
35.358
36.347
37.291
38.187
39.03
39.82
40.553
41.226
41.836
42.382
42.861
43.269
43.606
43.868
44.054
44.161
44.189
44.135
43.999
43.78
43.477
43.092
42.622
42.07
41.435
40.719
39.922
39.047
38.094
37.066
35.967
34.799
33.565
32.271
30.919
29.516
28.065
26.574
25.047
23.491
21.913
20.32
18.719
17.117
15.523
13.944
12.39
10.867
9.383
7.946
6.563
5.241
3.986
2.804
1.699
0.677
-0.258
-1.104
-1.857
-2.514
-3.075
-3.539
-3.906
-4.176
-4.351
-4.433
-4.426
-4.334
-4.161
-3.912
-3.593
-3.211
-2.772
-2.284
-1.755
-1.194
-0.61
-0.012
0.589
1.184
1.765
2.32
2.843
3.325
3.757
4.133
4.446
4.691
4.862
4.955
4.965
4.889
4.726
4.474
4.133
3.704
3.188
2.588
1.908
1.153
0.329
-0.559
-1.505
-2.499
-3.533
-4.599
-5.687
-6.785
-7.883
-8.969
-10.031
-11.057
-12.036
-12.957
-13.81
-14.584
-15.27
-15.859
-16.345
-16.72
-16.979
-17.118
-17.13
-17.015
-16.77
-16.397
-15.895
-15.268
-14.52
-13.657
-12.689
-11.624
-10.474
-9.251
-7.966
-6.634
-5.271
-3.89
-2.504
-1.127
0.225
1.537
2.788
3.962
5.041
6.01
6.853
7.556
8.103
8.487
8.705
8.752
8.625
8.313
7.798
7.069
6.124
4.96
3.582
1.999
0.222
-1.721
-3.79
-5.948
-8.158
-10.393
-12.64
-14.874
-17.063
-19.17
-21.141
-22.935
-24.535
-25.911
-27.042
-27.946
-28.646
-29.201
-29.713
-30.243
-30.862
-31.657
-32.689
-34.047
-35.824
-38.083
-40.935
-44.52
-48.877
-53.958
-59.591
-65.396
-71.004
-76.112
-80.296
-83.061
-84.089
-83.367
-81.291
-78.698
-76.416
-74.902
-74.549
-75.95
-79.4
-84.497
-90.136
-94.341
-94.829
-89.935
-78.155
-57.515
-26.432
15.738
68.747
130.822
199.051
270.505
341.653
407.819
463.95
505.122
526.771
525.362
500.142
452.795
385.605
302.417
203.936
86.838
-46.827
-190.205
-328.047
-436.668
-502.216
-522.262
-506.195
-474.754
-441.54
-412.046
-386.199
-357.497
-324.057
-288.309
-253.169
-223.272
-200.891
-185.188
-174.989
-168.77
-164.908
-162.588
-160.958
-158.516
-154.092
-147.323
-138.285
-127.527
-115.915
-104.004
-92.382
-82.035
-73.699
-67.717
-64.196
-62.844
-63.187
-64.876
-67.537
-70.682
-73.956
-77.087
-79.815
-82.028
-83.676
-84.709
-85.131
-84.973
-84.224
-82.89
-81.012
-78.642
-75.868
-72.788
-69.464
-65.96
-62.35
-58.721
-55.192
-51.862
-48.789
-46.002
-43.518
-41.354
-39.526
-38.036
-36.852
-35.93
-35.229
-34.713
-34.359
-34.138
-34.013
-33.939
-33.865
-33.753
-33.581
-33.33
-32.985
-32.533
-31.961
-31.268
-30.461
-29.547
-28.532
-27.414
-26.193
-24.871
-23.452
-21.944
-20.352
-18.68
-16.933
-15.113
-13.228
-11.281
-9.277
-7.22
-5.112
-2.958
-0.764
1.464
3.718
5.99
8.273
10.558
12.837
15.102
17.346
19.563
21.745
23.888
25.984
28.028
30.014
31.936
33.789
35.568
37.266
38.878
40.399
41.824
43.147
44.362
45.463
46.446
47.304
48.034
48.629
49.086
49.401
49.57
49.591
49.462
49.18
48.744
48.153
47.407
46.505
45.449
44.239
42.879
41.37
39.716
37.922
35.992
33.932
31.75
29.452
27.047
24.543
21.951
19.281
16.546
13.757
10.93
8.079
5.22
2.368
-0.459
-3.244
-5.972
-8.625
-11.188
-13.645
-15.98
-18.178
-20.224
-22.104
-23.804
-25.311
-26.613
-27.699
-28.559
-29.186
-29.574
-29.717
-29.611
-29.258
-28.655
-27.804
-26.707
-25.365
-23.78
-21.96
-19.909
-17.636
-15.151
-12.466
-9.597
-6.564
-3.388
-0.088
3.314
6.801
10.353
13.952
17.578
21.221
24.865
28.49
32.077
35.597
39.024
42.345
45.55
48.633
51.598
54.446
57.182
59.823
62.379
64.847
67.219
69.47
71.571
73.515
75.296
76.925
78.414
79.758
80.95
81.991
82.855
83.516
83.941
84.07
83.86
83.306
82.411
81.209
79.757
78.087
76.23
74.224
72.094
69.882
67.637
65.391
63.216
61.207
59.457
58.093
57.219
56.883
57.133
57.994
59.438
61.457
64.023
67.072
70.56
74.433
78.608
83.018
87.549
92.038
96.337
100.29
103.746
106.611
108.78
110.144
110.663
110.3
109.04
106.918
103.946
100.136
95.55
90.259
84.371
78.054
71.45
64.689
57.922
51.263
44.84
38.803
33.239
28.214
23.789
19.992
16.87
14.489
12.844
11.892
11.575
11.779
12.421
13.449
14.745
16.179
17.618
18.895
19.899
20.572
20.81
20.469
19.462
17.752
15.488
13.033
10.74
8.909
7.873
8.002
9.582
12.716
17.071
21.831
26.089
29.041
29.965
28.192
23.356
15.637
6.036
-3.574
-10.847
-13.348
-8.701
5.501
31.239
69.566
120.316
181.928
251.522
325.286
398.749
466.513
522.899
562.719
581.588
576.366
545.653
489.715
410.356
311.559
198.823
78.272
-43.306
-158.967
-262.56
-348.929
-414.078
-456.304
-475.58
-472.741
-450.379
-412.604
-363.978
-309.469
-254.114
-201.647
-155.181
-117.808
-90.916
-74.253
-66.844
-66.696
-71.251
-78.524
-86.327
-91.976
-93.999
-91.991
-86.012
-76.989
-66.129
-54.265
-42.549
-32.456
-24.778
-19.844
-17.682
-17.772
-19.569
-22.725
-26.714
-30.935
-34.989
-38.519
-41.318
-43.407
-44.784
-45.439
-45.406
-44.694
-43.323
-41.358
-38.855
-35.873
-32.492
-28.761
-24.751
-20.55
-16.264
-12.026
-7.941
-4.064
-0.435
2.918
5.973
8.704
11.107
13.214
15.058
16.67
18.078
19.293
20.341
21.259
22.089
22.879
23.664
24.461
25.285
26.148
27.06
28.029
29.053
30.118
31.215
32.339
33.488
34.664
35.862
37.076
38.297
39.521
40.741
41.955
43.157
44.341
45.505
46.643
47.754
48.838
49.891
50.908
51.885
52.817
53.697
54.52
55.279
55.969
56.584
57.119
57.57
57.932
58.203
58.38
58.459
58.439
58.317
58.092
57.763
57.328
56.786
56.138
55.384
54.523
53.556
52.484
51.309
50.032
48.655
47.181
45.613
43.954
42.207
40.378
38.47
36.49
34.442
32.333
30.169
27.957
25.704
23.417
21.104
18.771
16.426
14.076
11.728
9.389
7.068
4.769
2.502
0.272
-1.913
-4.046
-6.122
-8.133
-10.074
-11.937
-13.719
-15.412
-17.013
-18.516
-19.918
-21.215
-22.403
-23.481
-24.447
-25.3
-26.041
-26.668
-27.186
-27.594
-27.897
-28.098
-28.201
-28.211
-28.134
-27.975
-27.741
-27.439
-27.075
-26.657
-26.192
-25.688
-25.153
-24.595
-24.021
-23.44
-22.86
-22.289
-21.736
-21.208
-20.712
-20.257
-19.85
-19.496
-19.203
-18.975
-18.817
-18.734
-18.728
-18.801
-18.955
-19.19
-19.506
-19.9
-20.369
-20.911
-21.519
-22.189
-22.914
-23.687
-24.5
-25.344
-26.211
-27.091
-27.976
-28.855
-29.718
-30.555
-31.354
-32.106
-32.799
-33.422
-33.965
-34.416
-34.766
-35.004
-35.122
-35.11
-34.96
-34.665
-34.219
-33.617
-32.856
-31.932
-30.845
-29.595
-28.185
-26.619
-24.902
-23.042
-21.048
-18.93
-16.701
-14.376
-11.968
-9.494
-6.969
-4.411
-1.837
0.736
3.293
5.816
8.288
10.69
13.003
15.207
17.284
19.216
20.987
22.58
23.981
25.183
26.179
26.962
27.522
27.847
27.924
27.75
27.325
26.648
25.729
24.582
23.23
21.71
20.059
18.305
16.477
14.592
12.669
10.738
8.833
6.989
5.247
3.628
2.153
0.853
-0.269
-1.239
-2.102
-2.942
-3.828
-4.79
-5.865
-7.106
-8.564
-10.328
-12.473
-15.036
-18.092
-21.743
-26.024
-30.91
-36.214
-41.517
-46.391
-50.46
-53.325
-54.62
-54.116
-51.765
-47.949
-43.491
-39.277
-36.064
-34.424
-34.799
-37.379
-41.925
-47.459
-52.257
-54.218
-51.179
-41.326
-23.049
5.215
44.617
95.124
155.706
223.353
292.926
361.098
425.097
482.897
535.124
576.739
598.364
591.761
547.599
465.986
357.708
233.557
106.163
-16.247
-132.414
-238.807
-331.33
-405.695
-456.829
-482.988
-485.183
-465.918
-429.331
-380.457
-324.682
-267.331
-212.452
-163.09
-121.742
-89.87
-68.105
-55.881
-51.206
-51.703
-55.819
-61.968
-68.327
-73.709
-75.647
-72.547
-66.32
-58.099
-51.094
-49.068
-49.119
-49.626
-47.99
-39.806
-29.184
-19.446
-12.712
-12.795
-16.565
-20.734
-24.17
-24.741
-23.396
-21.494
-18.913
-15.93
-12.474
-8.348
-3.861
0.695
5.201
9.548
13.669
17.532
21.118
24.399
27.352
29.97
32.235
34.143
35.711
36.951
37.862
38.465
38.791
38.895
38.848
38.706
38.504
38.272
38.032
37.809
37.627
37.5
37.431
37.423
37.484
37.621
37.85
38.179
38.608
39.136
39.757
40.471
41.276
42.17
43.149
44.209
45.346
46.559
47.846
49.206
50.63
52.112
53.642
55.21
56.808
58.422
60.042
61.655
63.25
64.817
66.344
67.822
69.24
70.587
71.856
73.035
74.117
75.093
75.955
76.694
77.305
77.78
78.114
78.301
78.337
78.218
77.942
77.505
76.908
76.148
75.226
74.143
72.9
71.5
69.946
68.242
66.391
64.399
62.272
60.016
57.637
55.142
52.538
49.831
47.03
44.142
41.175
38.135
35.029
31.869
28.664
25.424
22.161
18.882
15.594
12.312
9.052
5.813
2.597
-0.594
-3.761
-6.884
-9.934
-12.917
-15.843
-18.664
-21.342
-23.847
-26.135
-28.232
-30.191
-31.976
-33.52
-34.979
-36.538
-38.081
-39.619
-41.184
-42.373
-44.274
-47.945
-51.875
-55.61
-56.375
-50.851
-42.721
-34.442
-29.669
-33.424
-41.277
-49.476
-55.453
-54.958
-51.043
-46.801
-42.927
-41.31
-40.866
-40.199
-39.584
-38.851
-38.098
-37.618
-37.229
-36.789
-36.351
-35.93
-35.512
-35.104
-34.721
-34.368
-34.076
-33.876
-33.756
-33.702
-33.719
-33.803
-33.952
-34.167
-34.438
-34.757
-35.122
-35.528
-35.968
-36.436
-36.924
-37.423
-37.926
-38.424
-38.911
-39.377
-39.814
-40.215
-40.573
-40.882
-41.136
-41.331
-41.461
-41.524
-41.518
-41.441
-41.294
-41.076
-40.791
-40.442
-40.033
-39.572
-39.065
-38.518
-37.939
-37.337
-36.721
-36.097
-35.476
-34.865
-34.275
-33.717
-33.205
-32.751
-32.367
-32.066
-31.857
-31.753
-31.762
-31.887
-32.131
-32.497
-32.992
-33.626
-34.408
-35.34
-36.419
-37.643
-39.002
-40.48
-42.055
-43.69
-45.352
-47.013
-48.648
-50.244
-51.786
-53.247
-54.6
-55.811
-56.847
-57.693
-58.339
-58.761
-58.962
-58.976
-58.853
-58.683
-58.541
-58.465
-58.504
-58.718
-59.168
-59.947
-61.137
-62.773
-64.934
-67.718
-71.153
-75.214
-79.722
-84.284
-88.5
-92.029
-94.488
-95.501
-94.826
-92.372
-88.448
-83.813
-79.286
-75.541
-73.141
-72.587
-74.136
-77.662
-82.324
-86.466
-87.997
-84.879
-75.348
-57.517
-29.641
9.488
60.154
120.204
185.261
250.97
314.124
374.616
434.114
490.777
537.269
559.833
544.447
485.135
386.829
265.57
138.5
17.036
-94.07
-196.551
-290.594
-372.846
-439.116
-485.343
-510.578
-516.859
-506.902
-483.84
-451.393
-413.461
-373.892
-335.486
-299.973
-268.579
-242.087
-221.115
-205.543
-194.343
-186.074
-179.627
-174.079
-168.439
-162.027
-154.167
-144.549
-133.551
-121.841
-110.024
-98.776
-88.862
-80.75
-74.843
-71.334
-69.985
-70.424
-72.237
-74.916
-77.939
-80.917
-83.497
-85.398
-86.515
-86.782
-86.184
-84.767
-82.574
-79.643
-76.023
-71.785
-67.007
-61.793
-56.253
-50.484
-44.593
-38.694
-32.916
-27.373
-22.142
-17.269
-12.771
-8.662
-4.953
-1.644
1.288
3.878
6.168
8.196
9.992
11.59
13.036
14.378
15.673
16.963
18.276
19.631
21.042
22.522
24.082
25.726
27.446
29.238
31.099
33.028
35.029
37.101
39.238
41.434
43.681
45.973
48.307
50.676
53.074
55.494
57.929
60.374
62.826
65.276
67.717
70.137
72.527
74.874
77.169
79.398
81.549
83.611
85.572
87.423
89.155
90.759
92.226
93.549
94.72
95.733
96.582
97.262
97.766
98.092
98.237
98.197
97.972
97.562
96.965
96.184
95.221
94.077
92.757
91.265
89.605
87.784
85.808
83.685
81.424
79.034
76.525
73.907
71.192
68.39
65.514
62.573
59.581
56.547
53.483
50.401
47.311
44.225
41.153
38.107
35.096
32.131
29.221
26.376
23.603
20.911
18.308
15.799
13.393
11.094
8.908
6.84
4.893
3.07
1.374
-0.195
-1.635
-2.948
-4.135
-5.198
-6.14
-6.964
-7.674
-8.275
-8.771
-9.169
-9.474
-9.693
-9.833
-9.901
-9.904
-9.849
-9.745
-9.599
-9.418
-9.209
-8.981
-8.739
-8.491
-8.243
-8.002
-7.775
-7.567
-7.383
-7.229
-7.109
-7.027
-6.987
-6.99
-7.039
-7.136
-7.281
-7.475
-7.718
-8.01
-8.348
-8.73
-9.155
-9.619
-10.118
-10.647
-11.201
-11.775
-12.364
-12.961
-13.561
-14.158
-14.745
-15.316
-15.866
-16.387
-16.875
-17.322
-17.722
-18.071
-18.362
-18.592
-18.755
-18.847
-18.866
-18.807
-18.669
-18.45
-18.15
-17.766
-17.298
-16.749
-16.12
-15.413
-14.632
-13.781
-12.866
-11.897
-10.881
-9.83
-8.754
-7.663
-6.568
-5.483
-4.416
-3.377
-2.371
-1.408
-0.497
0.35
1.122
1.809
2.403
2.894
3.273
3.533
3.672
3.691
3.593
3.376
3.032
2.549
1.915
1.126
0.18
-0.92
-2.162
-3.528
-4.989
-6.5
-8.018
-9.509
-10.946
-12.311
-13.586
-14.737
-15.726
-16.513
-17.062
-17.347
-17.347
-17.058
-16.508
-15.753
-14.881
-13.998
-13.184
-12.517
-12.082
-11.959
-12.236
-13.017
-14.369
-16.386
-19.223
-22.906
-27.344
-32.307
-37.288
-41.777
-45.408
-47.683
-48.078
-46.524
-43.195
-38.677
-34.283
-30.998
-29.347
-30.098
-33.645
-39.444
-46.597
-53.291
-56.537
-54.08
-44.086
-24.204
6.888
49.192
102.456
165.004
233.369
304.822
375.051
436.813
486.059
520.605
539.636
548.499
547.883
531.146
492.531
421.134
311.631
174.79
24.698
-116.57
-225.256
-294.495
-325.114
-327.28
-319.613
-310.682
-302.782
-294.514
-279.201
-255.856
-228.047
-199.01
-172.842
-151.264
-133.472
-119.113
-107.962
-99.176
-91.815
-84.984
-77.697
-69.553
-60.745
-51.148
-40.399
-28.697
-16.544
-4.608
6.153
15.286
22.823
28.657
32.633
34.777
35.214
34.315
32.709
30.762
28.616
26.42
24.276
22.364
20.9
19.959
19.503
19.5
19.934
20.812
22.173
23.984
26.161
28.609
31.237
33.993
36.843
39.734
42.591
45.31
47.8
50.016
51.935
53.546
54.839
55.805
56.442
56.783
56.868
56.737
56.423
55.942
55.314
54.569
53.743
52.882
52.023
51.188
50.395
49.659
48.996
48.417
47.929
47.524
47.198
46.949
46.776
46.684
46.673
46.742
46.885
47.099
47.381
47.728
48.137
48.604
49.124
49.694
50.312
50.976
51.683
52.428
53.206
54.01
54.834
55.672
56.514
57.355
58.186
59.001
59.791
60.552
61.276
61.957
62.589
63.164
63.676
64.121
64.49
64.78
64.983
65.096
65.113
65.03
64.842
64.545
64.135
63.609
62.963
62.194
61.302
60.283
59.137
57.865
56.466
54.941
53.293
51.524
49.636
47.634
45.523
43.306
40.989
38.579
36.082
33.505
30.858
28.148
25.384
22.576
19.734
16.868
13.988
11.105
8.23
5.374
2.547
-0.238
-2.97
-5.64
-8.235
-10.746
-13.164
-15.478
-17.681
-19.764
-21.721
-23.546
-25.233
-26.778
-28.177
-29.427
-30.528
-31.479
-32.28
-32.933
-33.442
-33.809
-34.041
-34.144
-34.124
-33.988
-33.745
-33.404
-32.974
-32.465
-31.889
-31.255
-30.574
-29.859
-29.121
-28.371
-27.621
-26.88
-26.161
-25.471
-24.822
-24.222
-23.678
-23.197
-22.788
-22.454
-22.202
-22.035
-21.956
-21.965
-22.063
-22.249
-22.521
-22.875
-23.305
-23.807
-24.374
-24.999
-25.673
-26.388
-27.135
-27.903
-28.682
-29.462
-30.231
-30.978
-31.692
-32.361
-32.977
-33.527
-34.004
-34.397
-34.698
-34.9
-34.996
-34.98
-34.847
-34.592
-34.211
-33.704
-33.07
-32.31
-31.425
-30.42
-29.3
-28.075
-26.753
-25.347
-23.865
-22.322
-20.729
-19.102
-17.452
-15.791
-14.129
-12.48
-10.858
-9.276
-7.751
-6.296
-4.921
-3.641
-2.465
-1.404
-0.464
0.356
1.054
1.628
2.069
2.362
2.497
2.474
2.292
1.96
1.49
0.901
0.223
-0.501
-1.229
-1.927
-2.567
-3.133
-3.602
-3.944
-4.123
-4.092
-3.82
-3.286
-2.47
-1.376
-0.032
1.516
3.186
4.878
6.517
8.017
9.296
10.282
10.887
11.031
10.657
9.68
7.983
5.542
2.435
-1.119
-4.71
-7.941
-10.51
-12.058
-12.143
-10.522
-7.248
-2.703
2.264
6.862
10.758
13.659
15.155
15.191
14.187
13.1
13.764
18.149
27.457
42.731
65.409
96.607
136.943
186.587
242.893
301.095
358.023
410.092
457.056
503.337
547.935
587.55
613.343
607.269
559.144
465.153
330.03
174.571
19.171
-116.664
-217.43
-282.218
-316.47
-331.547
-339.523
-344.549
-345.886
-338.813
-319.987
-291.495
-258.221
-225.675
-197.169
-173.312
-153.582
-137.531
-125.239
-116.116
-108.793
-102.009
-94.619
-86.117
-76.718
-66.311
-54.518
-41.627
-28.316
-15.399
-3.942
5.556
13.148
18.733
22.159
23.487
22.866
20.704
17.685
14.207
10.435
6.556
2.71
-0.884
-3.94
-6.336
-8.078
-9.167
-9.616
-9.411
-8.508
-6.943
-4.805
-2.187
0.8
4.091
7.648
11.4
15.259
19.106
22.805
26.273
29.465
32.347
34.9
37.109
38.959
40.477
41.704
42.68
43.442
44.01
44.397
44.63
44.744
44.782
44.795
44.816
44.868
44.971
45.143
45.395
45.737
46.169
46.677
47.259
47.912
48.639
49.443
50.327
51.287
52.322
53.429
54.606
55.853
57.167
58.544
59.983
61.481
63.038
64.653
66.324
68.047
69.817
71.627
73.47
75.34
77.228
79.125
81.022
82.91
84.782
86.627
88.437
90.203
91.917
93.57
95.151
96.653
98.067
99.382
100.592
101.686
102.656
103.493
104.189
104.737
105.129
105.359
105.421
105.308
105.017
104.544
103.885
103.039
102.003
100.779
99.365
97.764
95.979
94.013
91.87
89.557
87.078
84.442
81.657
78.73
75.672
72.491
69.2
65.809
62.331
58.778
55.164
51.502
47.807
44.092
40.372
36.663
32.977
29.33
25.736
22.208
18.76
15.405
12.153
9.018
6.008
3.134
0.405
-2.172
-4.59
-6.844
-8.93
-10.844
-12.584
-14.151
-15.543
-16.764
-17.814
-18.699
-19.423
-19.992
-20.413
-20.693
-20.842
-20.868
-20.782
-20.596
-20.32
-19.967
-19.549
-19.078
-18.567
-18.029
-17.476
-16.92
-16.373
-15.848
-15.354
-14.902
-14.503
-14.165
-13.897
-13.706
-13.598
-13.58
-13.654
-13.825
-14.094
-14.463
-14.93
-15.495
-16.154
-16.905
-17.743
-18.663
-19.659
-20.723
-21.847
-23.022
-24.24
-25.491
-26.764
-28.049
-29.335
-30.611
-31.866
-33.092
-34.277
-35.411
-36.485
-37.491
-38.419
-39.264
-40.019
-40.677
-41.235
-41.689
-42.039
-42.284
-42.425
-42.464
-42.406
-42.257
-42.024
-41.718
-41.347
-40.923
-40.457
-39.962
-39.453
-38.94
-38.436
-37.953
-37.506
-37.111
-36.783
-36.538
-36.39
-36.353
-36.44
-36.666
-37.039
-37.563
-38.244
-39.085
-40.095
-41.288
-42.675
-44.256
-46.033
-48.003
-50.156
-52.476
-54.939
-57.505
-60.139
-62.81
-65.491
-68.173
-70.834
-73.444
-75.971
-78.37
-80.606
-82.664
-84.517
-86.143
-87.552
-88.776
-89.874
-90.948
-92.063
-93.255
-94.572
-96.052
-97.759
-99.78
-102.178
-105.004
-108.33
-112.261
-116.831
-121.966
-127.41
-132.715
-137.429
-141.192
-143.65
-144.37
-143.139
-140.109
-135.781
-131.13
-127.091
-124.154
-122.769
-123.506
-126.46
-131.042
-136.005
-139.25
-138.582
-132.426
-119.141
-96.845
-64.233
-20.913
32.358
93.469
159.557
227.562
293.662
353.207
401.123
432.581
444.075
433.101
399.356
345.086
271.907
182.151
78.151
-39.862
-165.034
-285.2
-388.353
-460.927
-500.17
-513.969
-509.984
-497.548
-480.28
-455.565
-424.151
-387.658
-348.568
-311.511
-278.902
-251.812
-231.331
-216.911
-207.262
-201.234
-197.688
-195.792
-194.808
-193.517
-190.624
-185.594
-178.574
-170.087
-160.782
-151.083
-141.471
-132.825
-125.937
-121.204
-118.697
-118.113
-118.997
-121.01
-123.762
-126.703
-129.42
-131.619
-133.077
-133.774
-133.732
-132.936
-131.423
-129.255
-126.46
-123.09
-119.211
-114.869
-110.155
-105.184
-100.059
-94.908
-89.83
-84.896
-80.18
-75.725
-71.548
-67.66
-64.055
-60.716
-57.632
-54.784
-52.137
-49.663
-47.322
-45.067
-42.852
-40.619
-38.324
-35.933
-33.422
-30.772
-27.973
-25.018
-21.906
-18.641
-15.227
-11.666
-7.961
-4.113
-0.126
3.992
8.233
12.586
17.038
21.581
26.206
30.902
35.659
40.467
45.316
50.197
55.099
60.009
64.912
69.793
74.636
79.425
84.146
88.782
93.317
97.739
102.033
106.189
110.193
114.036
117.707
121.196
124.494
127.593
130.485
133.164
135.623
137.857
139.862
141.635
143.173
144.473
145.536
146.359
146.945
147.294
147.41
147.294
146.95
146.385
145.603
144.611
143.417
142.028
140.452
138.697
136.774
134.691
132.457
130.082
127.575
124.948
122.209
119.371
116.443
113.437
110.364
107.235
104.062
100.857
97.63
94.393
91.157
87.935
84.735
81.57
78.449
75.384
72.382
69.454
66.607
63.85
61.189
58.631
56.182
53.846
51.629
49.533
47.562
45.718
44.002
42.414
40.955
39.624
38.417
37.333
36.366
35.513
34.767
34.123
33.572
33.108
32.722
32.406
32.149
31.943
31.777
31.642
31.527
31.422
31.318
31.204
31.071
30.91
30.712
30.47
30.176
29.822
29.402
28.912
28.345
27.699
26.968
26.151
25.246
24.252
23.17
22.002
20.75
19.418
18.011
16.534
14.995
13.402
11.762
10.085
8.381
6.659
4.931
3.206
1.497
-0.187
-1.833
-3.432
-4.972
-6.443
-7.836
-9.143
-10.355
-11.465
-12.466
-13.352
-14.12
-14.764
-15.283
-15.673
-15.935
-16.067
-16.074
-15.956
-15.719
-15.368
-14.912
-14.362
-13.73
-13.029
-12.272
-11.475
-10.652
-9.821
-8.996
-8.188
-7.41
-6.678
-6.005
-5.407
-4.901
-4.498
-4.21
-4.05
-4.028
-4.152
-4.426
-4.848
-5.417
-6.135
-7.011
-8.059
-9.289
-10.702
-12.299
-14.072
-16.011
-18.1
-20.309
-22.594
-24.912
-27.225
-29.505
-31.732
-33.878
-35.907
-37.769
-39.412
-40.799
-41.897
-42.682
-43.152
-43.32
-43.22
-42.922
-42.5
-42.041
-41.64
-41.382
-41.358
-41.665
-42.383
-43.636
-45.59
-48.321
-51.79
-55.82
-60.038
-64.043
-67.509
-70.025
-71.059
-70.282
-67.747
-63.938
-59.849
-56.547
-54.682
-54.795
-57.587
-63.275
-71.228
-80.01
-87.148
-89.819
-85.929
-73.533
-50.348
-14.889
33.167
92.963
161.851
236.252
312.819
387.46
454.945
510.294
548.992
567.436
563.836
537.336
487.642
416.314
327.004
224.503
114.579
3.109
-104.518
-202.713
-286.206
-351.283
-396.148
-420.72
-426.416
-415.324
-390.257
-355.225
-314.739
-273.006
-233.36
-198.061
-168.493
-145.62
-129.641
-119.668
-114.078
-110.916
-108.426
-105.233
-100.394
-93.195
-83.317
-71.032
-57.106
-42.585
-28.535
-15.931
-5.386
2.732
8.223
11.157
11.809
10.59
8.042
4.753
1.111
-2.627
-6.238
-9.554
-12.401
-14.635
-16.22
-17.186
-17.548
-17.304
-16.453
-15.001
-13.017
-10.604
-7.863
-4.881
-1.732
1.515
4.766
7.9
10.814
13.438
15.735
17.694
19.304
20.555
21.453
22.027
22.324
22.39
22.267
21.984
21.573
21.071
20.524
19.985
19.494
19.08
18.763
18.559
18.482
18.545
18.751
19.095
19.569
20.169
20.894
21.745
22.72
23.813
25.017
26.323
27.726
29.22
30.798
32.452
34.174
35.955
37.79
39.672
41.592
43.541
45.508
47.481
49.45
51.404
53.33
55.216
57.05
58.822
60.521
62.138
63.662
65.084
66.396
67.589
68.656
69.591
70.387
71.039
71.541
71.89
72.083
72.116
71.987
71.695
71.238
70.617
69.833
68.888
67.783
66.522
65.11
63.55
61.849
60.012
58.046
55.958
53.756
51.448
49.044
46.553
43.985
41.35
38.659
35.921
33.149
30.353
27.543
24.73
21.926
19.141
16.386
13.671
11.008
8.407
5.877
3.429
1.072
-1.187
-3.338
-5.375
-7.291
-9.079
-10.735
-12.254
-13.632
-14.867
-15.956
-16.899
-17.697
-18.35
-18.86
-19.231
-19.466
-19.571
-19.55
-19.411
-19.16
-18.804
-18.352
-17.812
-17.193
-16.506
-15.758
-14.962
-14.127
-13.263
-12.381
-11.492
-10.606
-9.733
-8.883
-8.067
-7.292
-6.568
-5.903
-5.305
-4.781
-4.337
-3.977
-3.706
-3.527
-3.443
-3.455
-3.562
-3.766
-4.063
-4.451
-4.927
-5.487
-6.125
-6.835
-7.61
-8.442
-9.324
-10.246
-11.2
-12.176
-13.165
-14.155
-15.138
-16.102
-17.038
-17.934
-18.779
-19.563
-20.277
-20.91
-21.455
-21.901
-22.242
-22.471
-22.582
-22.571
-22.434
-22.168
-21.77
-21.241
-20.582
-19.795
-18.883
-17.853
-16.71
-15.465
-14.126
-12.707
-11.218
-9.672
-8.083
-6.465
-4.831
-3.195
-1.568
0.033
1.596
3.103
4.538
5.886
7.13
8.256
9.248
10.091
10.777
11.3
11.654
11.831
11.825
11.622
11.213
10.6
9.781
8.761
7.55
6.161
4.625
2.985
1.278
-0.46
-2.203
-3.937
-5.634
-7.262
-8.793
-10.188
-11.424
-12.494
-13.38
-14.064
-14.558
-14.891
-15.136
-15.403
-15.773
-16.307
-17.051
-18.04
-19.346
-21.051
-23.219
-25.912
-29.138
-32.913
-37.336
-42.411
-47.992
-53.805
-59.347
-64.092
-67.727
-69.906
-70.16
-68.302
-64.357
-58.648
-52.154
-45.809
-40.138
-35.734
-33.136
-32.39
-33.209
-34.715
-34.858
-31.429
-22.679
-6.829
17.845
52.626
97.951
153.385
215.762
279.583
341.544
398.846
449.978
496.507
533.35
550.846
540.55
492.666
408.162
299.022
176.652
54.313
-60.629
-168.796
-267.916
-355.298
-427.822
-480.227
-510.684
-520.254
-510.328
-483.794
-444.853
-397.439
-345.533
-293.291
-243.563
-198.58
-160.856
-131.562
-110.322
-96.354
-88.195
-83.861
-81.971
-80.882
-78.346
-73.195
-65.189
-54.426
-41.702
-27.98
-13.882
-0.362
11.271
20.328
26.558
29.99
31.125
30.465
28.343
25.243
21.765
18.34
15.303
12.884
11.097
9.953
9.491
9.689
10.518
11.946
13.907
16.329
19.153
22.3
25.696
29.283
32.971
36.66
40.243
43.607
46.679
49.423
51.809
53.823
55.46
56.727
57.657
58.298
58.695
58.888
58.91
58.787
58.56
58.272
57.969
57.7
57.501
57.392
57.395
57.524
57.788
58.191
58.729
59.389
60.162
61.042
62.024
63.107
64.281
65.539
66.87
68.263
69.708
71.193
72.71
74.245
75.789
77.331
78.863
80.376
81.863
83.314
84.717
86.063
87.341
88.542
89.656
90.674
91.589
92.392
93.078
93.641
94.077
94.38
94.548
94.576
94.464
94.209
93.809
93.266
92.578
91.748
90.777
89.666
88.42
87.041
85.534
83.903
82.153
80.289
78.318
76.246
74.079
71.823
69.486
67.073
64.592
62.05
59.452
56.807
54.12
51.398
48.648
45.877
43.092
40.3
37.507
34.722
31.952
29.203
26.483
23.798
21.156
18.563
16.026
13.552
11.146
8.815
6.565
4.401
2.328
0.35
-1.528
-3.304
-4.974
-6.535
-7.986
-9.325
-10.551
-11.661
-12.657
-13.536
-14.299
-14.946
-15.479
-15.9
-16.212
-16.419
-16.525
-16.536
-16.459
-16.299
-16.064
-15.762
-15.4
-14.987
-14.532
-14.044
-13.534
-13.011
-12.486
-11.969
-11.469
-10.997
-10.559
-10.165
-9.822
-9.535
-9.309
-9.15
-9.063
-9.05
-9.119
-9.272
-9.516
-9.853
-10.289
-10.826
-11.465
-12.206
-13.044
-13.974
-14.986
-16.073
-17.224
-18.429
-19.68
-20.964
-22.273
-23.6
-24.933
-26.259
-27.563
-28.821
-30.016
-31.137
-32.174
-33.126
-33.997
-34.801
-35.55
-36.263
-36.95
-37.612
-38.24
-38.811
-39.299
-39.68
-39.939
-40.077
-40.092
-39.981
-39.737
-39.349
-38.793
-38.032
-37.022
-35.71
-34.066
-32.078
-29.77
-27.19
-24.407
-21.509
-18.568
-15.637
-12.765
-9.993
-7.366
-4.931
-2.75
-0.896
0.549
1.488
1.844
1.568
0.642
-0.915
-3.047
-5.664
-8.687
-12.049
-15.69
-19.558
-23.593
-27.72
-31.862
-35.94
-39.869
-43.547
-46.878
-49.774
-52.165
-54.016
-55.331
-56.146
-56.5
-56.444
-56.035
-55.334
-54.429
-53.409
-52.372
-51.423
-50.668
-50.237
-50.259
-50.844
-52.126
-54.273
-57.334
-61.236
-65.776
-70.557
-75.195
-79.417
-82.85
-85.006
-85.589
-84.615
-82.497
-80.101
-78.237
-77.258
-77.416
-79.133
-82.521
-87.069
-91.585
-93.996
-92.058
-84.33
-69.615
-46.322
-13.285
29.923
82.899
143.613
209.222
277.319
345.002
408.184
462.612
503.85
527.773
532.054
515.234
476.048
414.713
333.287
235.266
125.9
11.169
-103.526
-212.366
-309.467
-390.06
-450.445
-488.792
-505.358
-501.246
-478.427
-440.564
-391.973
-337.169
-281.06
-227.392
-179.048
-139.031
-108.988
-88.867
-78.005
-74.855
-77.056
-82.787
-90.018
-96.025
-99.247
-99.188
-95.701
-89.466
-81.481
-72.349
-63.055
-55.036
-49.01
-45.223
-43.651
-43.713
-44.874
-46.847
-49.164
-51.262
-52.796
-53.503
-53.269
-52.214
-50.418
-47.926
-44.832
-41.218
-37.183
-32.871
-28.415
-23.946
-19.578
-15.378
-11.404
-7.706
-4.324
-1.308
1.32
3.571
5.456
6.987
8.172
9.013
9.535
9.793
9.848
9.767
9.603
9.388
9.152
8.926
8.731
8.587
8.501
8.468
8.489
8.573
8.727
8.963
9.285
9.689
10.171
10.727
11.355
12.053
12.817
13.641
14.522
15.461
16.457
17.511
18.622
19.786
20.997
22.251
23.541
24.86
26.201
27.556
28.917
30.278
31.631
32.972
34.294
35.591
36.858
38.088
39.277
40.42
41.51
42.544
43.516
44.423
45.261
46.025
46.714
47.323
47.852
48.297
48.658
48.93
49.114
49.206
49.206
49.112
48.923
48.638
48.258
47.782
47.209
46.542
45.78
44.924
43.975
42.933
41.799
40.575
39.261
37.861
36.375
34.806
33.159
31.436
29.643
27.784
25.863
23.887
21.861
19.79
17.682
15.542
13.378
11.197
9.008
6.817
4.633
2.465
0.32
-1.792
-3.863
-5.886
-7.851
-9.752
-11.581
-13.33
-14.992
-16.559
-18.025
-19.384
-20.63
-21.758
-22.764
-23.646
-24.402
-25.03
-25.532
-25.908
-26.16
-26.291
-26.303
-26.199
-25.986
-25.666
-25.246
-24.733
-24.132
-23.452
-22.7
-21.887
-21.021
-20.112
-19.169
-18.201
-17.22
-16.235
-15.256
-14.294
-13.358
-12.461
-11.612
-10.822
-10.1
-9.454
-8.893
-8.421
-8.044
-7.764
-7.582
-7.498
-7.513
-7.625
-7.835
-8.14
-8.54
-9.032
-9.616
-10.292
-11.054
-11.897
-12.813
-13.79
-14.82
-15.891
-16.989
-18.102
-19.213
-20.309
-21.382
-22.42
-23.41
-24.334
-25.168
-25.896
-26.508
-26.997
-27.361
-27.6
-27.716
-27.726
-27.66
-27.545
-27.407
-27.257
-27.083
-26.88
-26.646
-26.375
-26.07
-25.715
-25.271
-24.713
-24.022
-23.174
-22.148
-20.894
-19.328
-17.385
-15.018
-12.207
-8.979
-5.361
-1.378
2.917
7.464
12.166
16.889
21.528
26.004
30.233
34.14
37.616
40.51
42.701
44.102
44.655
44.344
43.162
41.107
38.226
34.599
30.349
25.642
20.618
15.391
10.075
4.779
-0.361
-5.185
-9.559
-13.385
-16.58
-19.077
-20.813
-21.748
-21.901
-21.333
-20.146
-18.459
-16.37
-14.001
-11.49
-8.987
-6.652
-4.637
-3.05
-2.013
-1.693
-2.184
-3.479
-5.421
-7.663
-9.868
-11.795
-13.147
-13.497
-12.55
-10.3
-7.084
-3.693
-0.894
0.939
1.427
-0.014
-3.642
-9.082
-15.282
-20.289
-21.959
-18.706
-8.824
9.767
38.73
78.847
129.68
189.261
254.722
323.057
390.358
451.584
501.432
534.934
548.26
539.13
506.566
450.707
373.606
279.384
173.584
62.611
-47.146
-149.621
-239.18
-311.207
-362.931
-393.548
-403.938
-396.248
-373.509
-339.703
-299.551
-257.664
-217.773
-182.581
-153.782
-132.395
-118.648
-111.695
-109.731
-110.528
-112.054
-112.655
-111.203
-106.869
-99.235
-88.481
-75.37
-61.074
-46.81
-33.713
-22.518
-13.663
-7.406
-3.73
-2.404
-3.018
-5.015
-7.753
-10.801
-13.896
-16.806
-19.419
-21.614
-23.242
-24.268
-24.717
-24.582
-23.862
-22.556
-20.638
-18.153
-15.195
-11.853
-8.247
-4.477
-0.626
3.191
6.88
10.367
13.575
16.469
19.034
21.252
23.119
24.647
25.847
26.746
27.385
27.795
28.017
28.096
28.07
27.992
27.905
27.834
27.807
27.839
27.94
28.121
28.387
28.733
29.159
29.664
30.245
30.904
31.641
32.452
33.331
34.272
35.27
36.32
37.421
38.567
39.754
40.979
42.238
43.528
44.845
46.183
47.533
48.888
50.239
51.577
52.894
54.181
55.428
56.628
57.775
58.861
59.881
60.827
61.696
62.481
63.177
63.78
64.285
64.688
64.986
65.173
65.249
65.209
65.051
64.774
64.375
63.853
63.209
62.443
61.554
60.546
59.419
58.177
56.825
55.365
53.803
52.144
50.394
48.559
46.646
44.66
42.609
40.499
38.337
36.13
33.886
31.61
29.311
26.996
24.673
22.349
20.032
17.73
15.452
13.205
10.998
8.839
6.735
4.695
2.726
0.834
-0.974
-2.693
-4.316
-5.84
-7.26
-8.573
-9.776
-10.868
-11.848
-12.715
-13.468
-14.11
-14.641
-15.064
-15.38
-15.593
-15.706
-15.724
-15.649
-15.487
-15.244
-14.924
-14.535
-14.082
-13.574
-13.016
-12.418
-11.787
-11.131
-10.458
-9.776
-9.094
-8.419
-7.76
-7.122
-6.514
-5.942
-5.412
-4.93
-4.499
-4.124
-3.808
-3.553
-3.362
-3.236
-3.175
-3.179
-3.247
-3.38
-3.574
-3.828
-4.139
-4.504
-4.919
-5.378
-5.877
-6.409
-6.968
-7.547
-8.138
-8.735
-9.329
-9.913
-10.478
-11.016
-11.52
-11.981
-12.391
-12.743
-13.03
-13.245
-13.384
-13.442
-13.415
-13.3
-13.095
-12.8
-12.414
-11.937
-11.372
-10.719
-9.982
-9.165
-8.273
-7.312
-6.289
-5.214
-4.096
-2.948
-1.783
-0.613
0.547
1.685
2.785
3.835
4.822
5.735
6.562
7.289
7.903
8.389
8.736
8.933
8.97
8.84
8.534
8.051
7.393
6.562
5.56
4.385
3.023
1.471
-0.273
-2.203
-4.311
-6.581
-8.995
-11.525
-14.124
-16.751
-19.361
-21.92
-24.406
-26.789
-29.036
-31.101
-32.926
-34.471
-35.709
-36.613
-37.175
-37.413
-37.355
-37.076
-36.679
-36.242
-35.864
-35.639
-35.652
-36.021
-36.841
-38.169
-40.116
-42.815
-46.308
-50.559
-55.358
-60.266
-64.931
-69.121
-72.46
-74.463
-74.78
-73.313
-70.45
-67.178
-64.224
-61.629
-59.761
-59.434
-60.959
-64.378
-67.779
-66.681
-59.203
-45.719
-27.881
-9.907
10.48
40.63
86.463
154.727
242.538
337.882
429.476
504.11
554.69
582.065
587.058
572.448
538.007
479.847
396.303
286.341
156.589
20.355
-110.072
-220.669
-305.576
-368.502
-412.919
-444.849
-466.778
-474.756
-467.011
-443.947
-408.481
-366.741
-323.401
-280.936
-240.82
-204.154
-172.723
-147.59
-128.616
-115.056
-105.618
-99.305
-95.556
-93.189
-90.404
-86.149
-80.074
-72.251
-63.336
-53.844
-44.008
-34.479
-26.315
-20.151
-16.244
-14.612
-14.814
-16.358
-19.087
-22.896
-27.218
-31.434
-35.243
-38.078
-40.71
-45.322
-51.326
-56.82
-58.538
-50.437
-33.284
-13.253
3.439
8.003
0.183
-11.954
-22.252
-23.952
-16.267
-5.391
4.966
12.174
15.563
17.631
19.453
20.999
22.386
23.271
23.614
23.777
23.887
23.936
23.988
24.116
24.352
24.708
25.174
25.707
26.304
27.005
27.818
28.73
29.737
30.834
32.022
33.313
34.707
36.194
37.767
39.419
41.142
42.935
44.791
46.704
48.668
50.675
52.721
54.801
56.91
59.038
61.175
63.311
65.435
67.537
69.605
71.627
73.592
75.489
77.309
79.041
80.677
82.207
83.622
84.914
86.076
87.1
87.979
88.708
89.282
89.694
89.942
90.021
89.928
89.66
89.216
88.596
87.799
86.825
85.677
84.357
82.868
81.215
79.402
77.434
75.318
73.061
70.67
68.153
65.519
62.777
59.938
57.01
54.005
50.932
47.804
44.63
41.422
38.192
34.95
31.708
28.479
25.273
22.103
18.98
15.916
12.922
10.01
7.189
4.47
1.862
-0.626
-2.986
-5.211
-7.294
-9.229
-11.011
-12.636
-14.1
-15.402
-16.54
-17.513
-18.324
-18.973
-19.463
-19.798
-19.982
-20.021
-19.92
-19.685
-19.324
-18.844
-18.255
-17.565
-16.786
-15.926
-14.997
-14.011
-12.979
-11.912
-10.823
-9.722
-8.622
-7.534
-6.469
-5.438
-4.452
-3.52
-2.651
-1.855
-1.139
-0.509
0.028
0.469
0.808
1.044
1.175
1.199
1.116
0.928
0.636
0.243
-0.247
-0.83
-1.501
-2.252
-3.076
-3.965
-4.91
-5.901
-6.929
-7.983
-9.053
-10.126
-11.192
-12.241
-13.259
-14.236
-15.161
-16.022
-16.811
-17.517
-18.133
-18.65
-19.062
-19.363
-19.55
-19.619
-19.568
-19.396
-19.102
-18.689
-18.159
-17.516
-16.765
-15.912
-14.966
-13.937
-12.839
-11.683
-10.482
-9.251
-8.004
-6.758
-5.527
-4.325
-3.164
-2.058
-1.024
-0.077
0.769
1.498
2.098
2.555
2.858
2.996
2.963
2.758
2.38
1.829
1.1
0.183
-0.925
-2.221
-3.7
-5.356
-7.173
-9.131
-11.197
-13.323
-15.468
-17.592
-19.662
-21.653
-23.531
-25.262
-26.806
-28.121
-29.179
-29.958
-30.435
-30.602
-30.472
-30.093
-29.543
-28.92
-28.309
-27.774
-27.382
-27.212
-27.356
-27.906
-28.947
-30.517
-32.664
-35.5
-39.035
-43.167
-47.65
-52.013
-55.781
-58.617
-60.127
-59.817
-57.452
-53.021
-46.848
-39.899
-33.059
-26.861
-21.946
-18.913
-17.886
-18.607
-20.099
-20.127
-16.428
-7.276
9.424
35.714
72.987
122.087
181.392
246.102
311.543
374.515
434.876
494.405
551.003
596.566
616.528
596.763
532.13
428.462
302.468
172.028
48.416
-63.883
-166.263
-259.286
-340.013
-404.296
-448.177
-470.807
-473.985
-460.212
-433.047
-396.381
-353.979
-309.632
-266.254
-225.6
-189.276
-158.948
-135.187
-117.636
-105.423
-97.135
-91.631
-88.236
-85.796
-82.655
-77.918
-71.343
-63.078
-53.81
-44.06
-34.086
-24.571
-16.558
-10.683
-7.178
-5.961
-6.557
-8.566
-11.727
-15.612
-19.631
-23.294
-26.264
-28.376
-29.664
-30.177
-29.913
-28.896
-27.194
-24.885
-22.07
-18.845
-15.278
-11.43
-7.39
-3.249
0.87
4.826
8.517
11.882
14.884
17.512
19.759
21.614
23.088
24.22
25.049
25.616
25.956
26.092
26.057
25.897
25.662
25.412
25.189
25.02
24.927
24.926
25.03
25.252
25.594
26.048
26.608
27.272
28.041
28.918
29.902
30.987
32.166
33.431
34.777
36.199
37.69
39.245
40.856
42.518
44.227
45.979
47.77
49.591
51.436
53.293
55.155
57.011
58.851
60.663
62.437
64.163
65.829
67.428
68.949
70.382
71.719
72.951
74.07
75.068
75.938
76.673
77.267
77.715
78.012
78.155
78.141
77.965
77.627
77.125
76.456
75.621
74.62
73.451
72.117
70.618
68.959
67.141
65.169
63.049
60.785
58.386
55.859
53.212
50.455
47.595
44.645
41.615
38.516
35.36
32.159
28.925
25.672
22.412
19.158
15.923
12.719
9.559
6.454
3.416
0.458
-2.41
-5.177
-7.832
-10.366
-12.767
-15.029
-17.142
-19.1
-20.897
-22.527
-23.987
-25.275
-26.389
-27.328
-28.095
-28.692
-29.121
-29.387
-29.497
-29.456
-29.274
-28.959
-28.52
-27.969
-27.316
-26.574
-25.753
-24.866
-23.925
-22.943
-21.931
-20.903
-19.87
-18.845
-17.839
-16.865
-15.934
-15.056
-14.242
-13.501
-12.842
-12.272
-11.797
-11.423
-11.154
-10.993
-10.942
-11.002
-11.173
-11.452
-11.838
-12.326
-12.912
-13.587
-14.346
-15.18
-16.08
-17.035
-18.036
-19.071
-20.129
-21.2
-22.271
-23.332
-24.37
-25.374
-26.332
-27.233
-28.066
-28.819
-29.484
-30.049
-30.507
-30.85
-31.072
-31.167
-31.129
-30.956
-30.645
-30.196
-29.608
-28.882
-28.021
-27.03
-25.914
-24.683
-23.343
-21.906
-20.383
-18.789
-17.137
-15.445
-13.728
-12.002
-10.285
-8.594
-6.947
-5.358
-3.844
-2.419
-1.099
0.097
1.155
2.057
2.791
3.343
3.702
3.854
3.794
3.52
3.028
2.317
1.384
0.217
-1.189
-2.831
-4.705
-6.802
-9.103
-11.589
-14.229
-16.976
-19.79
-22.628
-25.457
-28.257
-30.997
-33.642
-36.154
-38.484
-40.591
-42.458
-44.058
-45.37
-46.408
-47.205
-47.822
-48.362
-48.899
-49.484
-50.188
-51.069
-52.202
-53.683
-55.572
-57.918
-60.795
-64.3
-68.453
-73.185
-78.255
-83.26
-87.825
-91.635
-94.349
-95.552
-94.958
-92.574
-88.727
-84.128
-79.42
-74.878
-70.783
-67.578
-65.425
-64.041
-62.64
-59.701
-53.682
-43.611
-28.277
-6.251
23.308
61.114
107.327
160.597
219.391
281.064
340.375
393.672
438.795
474.256
501.749
517.8
513.257
480.984
414.659
316.129
196.439
64.926
-70.235
-200.321
-318.525
-415.936
-482.927
-518.394
-525.942
-511.271
-481.422
-438.558
-385.872
-327.725
-269.993
-220.597
-180.879
-151.098
-129.844
-112.69
-100.869
-95.147
-94.138
-97.916
-103.448
-106.999
-107.544
-104.638
-98.511
-90.284
-80.779
-70.496
-60.459
-52.045
-45.934
-42.346
-41.269
-42.181
-44.575
-48.167
-52.425
-56.681
-60.533
-63.67
-65.921
-67.361
-68.013
-67.854
-66.938
-65.32
-63.052
-60.238
-56.956
-53.262
-49.256
-45.031
-40.695
-36.389
-32.219
-28.273
-24.62
-21.291
-18.305
-15.683
-13.429
-11.535
-9.986
-8.749
-7.788
-7.079
-6.583
-6.261
-6.069
-5.944
-5.841
-5.732
-5.591
-5.404
-5.162
-4.852
-4.468
-4.017
-3.498
-2.914
-2.266
-1.546
-0.755
0.106
1.033
2.019
3.062
4.161
5.316
6.524
7.786
9.1
10.466
11.887
13.362
14.888
16.462
18.077
19.729
21.413
23.123
24.852
26.594
28.343
30.094
31.843
33.584
35.313
37.024
38.714
40.377
42.01
43.608
45.166
46.682
48.15
49.566
50.928
52.231
53.47
54.643
55.744
56.77
57.717
58.581
59.359
60.048
60.645
61.147
61.553
61.861
62.07
62.178
62.185
62.091
61.896
61.601
61.206
60.711
60.119
59.43
58.646
57.77
56.805
55.753
54.617
53.403
52.114
50.756
49.335
47.856
46.327
44.755
43.149
41.517
39.867
38.209
36.553
34.907
33.282
31.687
30.131
28.624
27.174
25.79
24.479
23.25
22.109
21.063
20.117
19.277
18.546
17.93
17.43
17.05
16.791
16.655
16.641
16.749
16.978
17.324
17.785
18.357
19.034
19.81
20.678
21.63
22.657
23.75
24.898
26.092
27.32
28.571
29.834
31.097
32.349
33.579
34.776
35.93
37.031
38.07
39.039
39.929
40.733
41.445
42.06
42.573
42.98
43.279
43.466
43.542
43.504
43.356
43.098
42.734
42.268
41.705
41.052
40.318
39.511
38.64
37.716
36.75
35.754
34.74
33.721
32.71
31.718
30.759
29.846
28.99
28.204
27.497
26.88
26.362
25.951
25.655
25.479
25.429
25.507
25.717
26.06
26.537
27.146
27.884
28.747
29.729
30.825
32.024
33.313
34.68
36.109
37.586
39.093
40.612
42.123
43.61
45.055
46.442
47.755
48.974
50.08
51.055
51.882
52.547
53.033
53.326
53.414
53.289
52.948
52.39
51.613
50.606
49.358
47.86
46.113
44.119
41.885
39.424
36.753
33.901
30.913
27.83
24.69
21.522
18.351
15.209
12.133
9.174
6.383
3.799
1.451
-0.632
-2.44
-3.989
-5.311
-6.474
-7.561
-8.636
-9.768
-11.03
-12.492
-14.24
-16.352
-18.904
-21.984
-25.702
-30.097
-35.086
-40.445
-45.8
-50.764
-54.998
-58.155
-59.788
-59.591
-57.644
-54.391
-50.645
-47.239
-44.662
-43.231
-43.329
-45.339
-49.085
-53.37
-56.494
-55.71
-47.374
-30.08
-3.358
31.953
70.007
108.598
150.961
200.936
268.76
358.278
457.994
551.82
617.093
635.619
607.773
542.341
452.61
353.13
247.492
134.461
17.606
-99.523
-207.623
-294.5
-358.389
-399.692
-421.048
-428.496
-421.198
-399.109
-365.704
-323.66
-278.544
-235.254
-195.711
-161.99
-135.909
-117.906
-107.481
-103.368
-103.656
-106.756
-111.709
-117.095
-120.879
-121.829
-119.579
-114.314
-106.92
-98.198
-88.561
-78.806
-70.097
-63.113
-58.167
-55.231
-53.786
-53.389
-53.766
-54.509
-55.179
-55.511
-55.319
-54.532
-53.231
-51.432
-49.145
-46.424
-43.309
-39.857
-36.135
-32.216
-28.204
-24.211
-20.336
-16.65
-13.195
-9.988
-7.051
-4.399
-2.034
0.035
1.813
3.301
4.492
5.39
6.018
6.408
6.618
6.704
6.707
6.661
6.594
6.522
6.463
6.425
6.409
6.418
6.458
6.538
6.671
6.868
7.134
7.474
7.886
8.369
8.921
9.542
10.229
10.982
11.799
12.682
13.632
14.653
15.741
16.896
18.113
19.387
20.712
22.083
23.492
24.93
26.392
27.869
29.355
30.843
32.326
33.797
35.248
36.674
38.066
39.418
40.722
41.971
43.158
44.277
45.32
46.282
47.158
47.941
48.628
49.213
49.692
50.062
50.319
50.46
50.481
50.38
50.157
49.809
49.336
48.739
48.019
47.178
46.216
45.136
43.941
42.634
41.217
39.695
38.071
36.351
34.54
32.643
30.668
28.62
26.507
24.337
22.118
19.857
17.564
15.247
12.914
10.574
8.238
5.913
3.61
1.338
-0.895
-3.079
-5.205
-7.266
-9.253
-11.16
-12.978
-14.701
-16.324
-17.84
-19.244
-20.532
-21.7
-22.744
-23.663
-24.455
-25.118
-25.654
-26.062
-26.346
-26.506
-26.546
-26.47
-26.282
-25.986
-25.59
-25.098
-24.518
-23.856
-23.122
-22.322
-21.466
-20.563
-19.621
-18.649
-17.657
-16.653
-15.647
-14.647
-13.663
-12.702
-11.774
-10.886
-10.046
-9.26
-8.535
-7.875
-7.286
-6.771
-6.333
-5.973
-5.694
-5.495
-5.376
-5.337
-5.375
-5.489
-5.675
-5.928
-6.246
-6.621
-7.049
-7.521
-8.031
-8.571
-9.133
-9.709
-10.29
-10.869
-11.435
-11.98
-12.495
-12.972
-13.4
-13.772
-14.079
-14.315
-14.473
-14.547
-14.534
-14.429
-14.23
-13.935
-13.546
-13.062
-12.485
-11.817
-11.061
-10.223
-9.308
-8.323
-7.275
-6.173
-5.028
-3.852
-2.659
-1.461
-0.273
0.891
2.015
3.086
4.088
5.012
5.846
6.577
7.192
7.678
8.022
8.215
8.249
8.115
7.807
7.322
6.662
5.832
4.841
3.692
2.382
0.904
-0.745
-2.561
-4.537
-6.665
-8.928
-11.308
-13.776
-16.285
-18.794
-21.265
-23.669
-25.982
-28.181
-30.227
-32.074
-33.67
-34.972
-35.944
-36.568
-36.838
-36.762
-36.372
-35.726
-34.899
-33.982
-33.064
-32.237
-31.591
-31.213
-31.186
-31.634
-32.728
-34.564
-37.118
-40.215
-43.494
-46.574
-49.144
-50.808
-51.001
-49.332
-45.802
-40.864
-35.552
-30.977
-27.825
-26.763
-28.677
-34.04
-42.475
-52.663
-62.021
-67.609
-67.286
-58.615
-38.583
-5.06
43.11
104.516
174.39
249.146
326.381
404.055
481.702
552.391
604.463
627.625
610.906
553.566
464.99
354.901
235.95
116.173
-3.277
-118.92
-226.524
-321.035
-395.621
-447
-475.46
-482.551
-471.023
-444.425
-407.006
-363.484
-318.379
-275.071
-235.522
-201.365
-174.295
-154.869
-142.345
-135.276
-131.733
-130.212
-129.933
-129.722
-127.857
-123.355
-116.034
-106.295
-95.134
-83.338
-71.28
-59.645
-49.45
-41.34
-35.613
-32.241
-30.777
-30.82
-32.112
-34.292
-36.914
-39.639
-42.194
-44.356
-46.042
-47.194
-47.76
-47.742
-47.176
-46.077
-44.469
-42.406
-39.935
-37.125
-34.058
-30.776
-27.316
-23.731
-20.088
-16.482
-13.025
-9.781
-6.785
-4.064
-1.631
0.503
2.337
3.902
5.242
6.397
7.397
8.264
9.009
9.657
10.239
10.789
11.352
11.956
12.62
13.364
14.203
15.146
16.202
17.366
18.626
19.974
21.407
22.923
24.521
26.199
27.949
29.766
31.643
33.573
35.549
37.564
39.608
41.674
43.754
45.842
47.932
50.019
52.094
54.15
56.176
58.165
60.107
61.995
63.818
65.567
67.235
68.814
70.296
71.674
72.941
74.092
75.119
76.017
76.781
77.406
77.888
78.223
78.407
78.438
78.313
78.03
77.59
76.991
76.235
75.322
74.255
73.035
71.668
70.155
68.502
66.714
64.796
62.754
60.596
58.327
55.956
53.491
50.94
48.312
45.617
42.862
40.059
37.218
34.348
31.46
28.565
25.675
22.8
19.952
17.142
14.382
11.681
9.051
6.5
4.04
1.679
-0.576
-2.716
-4.734
-6.624
-8.381
-10
-11.478
-12.811
-13.998
-15.039
-15.932
-16.68
-17.283
-17.744
-18.065
-18.251
-18.305
-18.231
-18.035
-17.724
-17.304
-16.782
-16.169
-15.472
-14.702
-13.87
-12.985
-12.059
-11.102
-10.124
-9.137
-8.152
-7.179
-6.228
-5.31
-4.435
-3.61
-2.846
-2.149
-1.524
-0.977
-0.513
-0.133
0.16
0.365
0.483
0.511
0.451
0.3
0.058
-0.275
-0.698
-1.211
-1.81
-2.49
-3.245
-4.065
-4.936
-5.85
-6.794
-7.76
-8.736
-9.712
-10.677
-11.624
-12.544
-13.426
-14.254
-15.008
-15.669
-16.231
-16.693
-17.059
-17.341
-17.549
-17.694
-17.797
-17.869
-17.911
-17.917
-17.859
-17.708
-17.453
-17.088
-16.625
-16.078
-15.437
-14.693
-13.837
-12.84
-11.68
-10.33
-8.737
-6.873
-4.744
-2.376
0.16
2.776
5.412
8.022
10.57
13.033
15.368
17.529
19.482
21.171
22.542
23.535
24.055
24.03
23.442
22.294
20.636
18.559
16.126
13.386
10.395
7.19
3.823
0.361
-3.138
-6.61
-9.977
-13.164
-16.062
-18.57
-20.628
-22.19
-23.24
-23.815
-23.929
-23.599
-22.874
-21.796
-20.423
-18.851
-17.156
-15.424
-13.776
-12.325
-11.21
-10.581
-10.527
-11.182
-12.704
-15.112
-18.366
-22.292
-26.499
-30.65
-34.472
-37.537
-39.39
-39.745
-38.448
-35.87
-32.806
-29.838
-27.448
-26.092
-26.123
-27.884
-31.332
-35.355
-38.161
-38.054
-33.265
-22.212
-3.417
24.778
63.634
113.178
172.242
239.249
310.362
379.831
442.907
495.543
537.988
574.535
604.026
618.439
604.081
545.869
441.678
304.884
155.376
12.136
-116.024
-232.305
-338.733
-430.546
-499.841
-535.047
-533.211
-503.718
-456.87
-404.713
-354.164
-303.999
-254.807
-207.672
-164.698
-130.43
-106.563
-92.193
-85.976
-85.61
-88.774
-93.803
-98.55
-100.841
-99.73
-95.158
-87.505
-77.625
-66.446
-54.742
-43.68
-34.537
-27.902
-23.913
-22.385
-22.778
-24.6
-27.458
-30.777
-33.96
-36.635
-38.538
-39.574
-39.802
-39.241
-37.898
-35.829
-33.098
-29.782
-25.982
-21.777
-17.259
-12.543
-7.744
-2.992
1.599
5.953
9.991
13.666
16.955
19.84
22.32
24.405
26.104
27.438
28.444
29.155
29.615
29.875
29.985
30.004
29.983
29.956
29.953
29.994
30.091
30.254
30.49
30.797
31.177
31.633
32.166
32.78
33.477
34.255
35.109
36.035
37.026
38.079
39.192
40.36
41.583
42.856
44.177
45.545
46.958
48.408
49.889
51.393
52.909
54.43
55.947
57.448
58.926
60.372
61.778
63.137
64.441
65.685
66.86
67.959
68.976
69.904
70.737
71.469
72.094
72.608
73.007
73.286
73.444
73.477
73.382
73.158
72.802
72.313
71.692
70.936
70.048
69.027
67.877
66.6
65.199
63.678
62.04
60.291
58.434
56.475
54.418
52.267
50.03
47.711
45.318
42.857
40.337
37.765
35.15
32.499
29.822
27.128
24.425
21.722
19.028
16.352
13.704
11.094
8.53
6.023
3.581
1.213
-1.073
-3.27
-5.37
-7.366
-9.254
-11.028
-12.682
-14.211
-15.613
-16.884
-18.02
-19.021
-19.886
-20.614
-21.208
-21.669
-22.001
-22.207
-22.292
-22.261
-22.12
-21.875
-21.535
-21.105
-20.596
-20.015
-19.373
-18.68
-17.945
-17.18
-16.395
-15.6
-14.805
-14.02
-13.255
-12.518
-11.82
-11.169
-10.572
-10.039
-9.576
-9.189
-8.884
-8.666
-8.539
-8.504
-8.563
-8.716
-8.963
-9.303
-9.734
-10.251
-10.852
-11.531
-12.282
-13.098
-13.972
-14.894
-15.856
-16.847
-17.856
-18.873
-19.887
-20.888
-21.862
-22.801
-23.692
-24.526
-25.29
-25.976
-26.572
-27.07
-27.461
-27.738
-27.893
-27.922
-27.82
-27.584
-27.213
-26.706
-26.063
-25.287
-24.38
-23.346
-22.19
-20.92
-19.543
-18.069
-16.51
-14.881
-13.195
-11.47
-9.722
-7.968
-6.226
-4.515
-2.849
-1.244
0.285
1.724
3.055
4.262
5.329
6.242
6.988
7.557
7.937
8.12
8.103
7.887
7.472
6.858
6.038
4.995
3.723
2.224
0.5
-1.438
-3.575
-5.898
-8.373
-10.957
-13.604
-16.269
-18.92
-21.533
-24.072
-26.492
-28.737
-30.738
-32.449
-33.839
-34.883
-35.579
-35.938
-35.985
-35.782
-35.414
-34.977
-34.582
-34.329
-34.313
-34.644
-35.413
-36.765
-38.904
-41.91
-45.735
-50.197
-54.93
-59.613
-64.048
-67.915
-70.721
-72.137
-72.113
-71.056
-69.863
-69.201
-69.25
-70.058
-71.833
-74.767
-78.593
-82.172
-83.445
-80.448
-71.99
-57.288
-35.248
-4.427
36.178
86.485
144.831
208.839
276.445
345.389
412.242
472.339
520.486
551.918
563.525
553.289
519.56
461.869
381.696
282.777
170.898
52.706
-65.568
-177.693
-277.576
-360.066
-421.304
-459.607
-475.533
-470.902
-448.524
-412.444
-367.198
-317.539
-268.203
-222.754
-183.818
-153.367
-131.998
-119.054
-113.261
-112.569
-114.601
-117.413
-118.992
-117.612
-112.625
-104.043
-92.383
-78.766
-64.362
-50.221
-37.599
-27.441
-20.116
-15.763
-14.156
-14.783
-17.172
-20.784
-24.993
-29.372
-33.631
-37.495
-40.824
-43.527
-45.513
-46.783
-47.366
-47.248
-46.431
-44.933
-42.788
-40.087
-36.932
-33.418
-29.64
-25.692
-21.683
-17.752
-14.017
-10.559
-7.434
-4.664
-2.271
-0.279
1.309
2.513
3.37
3.922
4.206
4.251
4.09
3.767
3.331
2.839
2.333
1.842
1.386
0.982
0.644
0.385
0.209
0.111
0.087
0.136
0.261
0.467
0.757
1.129
1.581
2.109
2.715
3.399
4.162
5.003
5.922
6.919
7.995
9.153
10.391
11.708
13.1
14.561
16.088
17.674
19.315
21.003
22.732
24.497
26.292
28.112
29.952
31.806
33.669
35.536
37.4
39.256
41.098
42.921
44.717
46.482
48.209
49.892
51.525
53.101
54.616
56.062
57.435
58.73
59.941
61.064
62.096
63.031
63.869
64.605
65.237
65.765
66.185
66.499
66.704
66.802
66.791
66.673
66.447
66.116
65.68
65.142
64.504
63.768
62.939
62.02
61.017
59.934
58.776
57.549
56.261
54.918
53.526
52.095
50.631
49.142
47.637
46.124
44.611
43.106
41.617
40.15
38.713
37.313
35.956
34.649
33.397
32.206
31.08
30.024
29.042
28.136
27.309
26.563
25.899
25.318
24.82
24.404
24.069
23.812
23.633
23.528
23.494
23.526
23.619
23.767
23.965
24.205
24.48
24.782
25.103
25.435
25.77
26.1
26.417
26.713
26.979
27.209
27.393
27.525
27.598
27.605
27.541
27.401
27.181
26.879
26.492
26.018
25.457
24.81
24.077
23.26
22.358
21.373
20.306
19.161
17.942
16.651
15.295
13.881
12.42
10.926
9.41
7.885
6.361
4.85
3.363
1.914
0.513
-0.832
-2.112
-3.315
-4.424
-5.416
-6.275
-7
-7.591
-8.057
-8.406
-8.641
-8.771
-8.817
-8.787
-8.683
-8.491
-8.178
-7.726
-7.134
-6.408
-5.577
-4.65
-3.62
-2.481
-1.223
0.169
1.695
3.38
5.272
7.38
9.69
12.152
14.669
17.171
19.614
21.962
24.202
26.302
28.209
29.884
31.289
32.381
33.125
33.458
33.277
32.534
31.216
29.35
27.026
24.313
21.246
17.868
14.215
10.336
6.303
2.183
-1.98
-6.129
-10.205
-14.132
-17.789
-21.098
-24.006
-26.486
-28.568
-30.267
-31.576
-32.518
-33.138
-33.493
-33.675
-33.772
-33.824
-33.902
-34.091
-34.487
-35.223
-36.401
-38.083
-40.355
-43.326
-47.02
-51.35
-56.066
-60.707
-64.838
-68.135
-70.209
-70.569
-68.943
-65.415
-60.473
-55.133
-50.385
-46.72
-44.644
-44.881
-47.681
-52.583
-58.363
-62.704
-63.052
-57.691
-44.837
-22.025
12.486
59.279
118.014
185.236
256.462
329.494
400.169
465.366
522.427
562.612
579.572
567.456
520.779
444.509
345.083
230.093
110.032
-10.902
-128.339
-236
-329.703
-403.5
-453.335
-478.975
-481.109
-462.469
-427.513
-381.01
-328.159
-274.377
-223.732
-179.358
-144.199
-119.541
-105.086
-99.693
-101.205
-106.912
-114.759
-122.645
-127.991
-129.36
-126.287
-118.818
-107.927
-94.898
-80.659
-66.366
-53.478
-42.789
-34.658
-29.199
-26.01
-24.637
-24.765
-25.937
-27.629
-29.549
-31.512
-33.379
-35.13
-36.69
-37.927
-38.792
-39.272
-39.342
-38.997
-38.234
-37.047
-35.476
-33.59
-31.432
-29.041
-26.44
-23.647
-20.711
-17.706
-14.716
-11.833
-9.128
-6.651
-4.438
-2.512
-0.874
0.486
1.593
2.483
3.185
3.718
4.1
4.337
4.45
4.466
4.419
4.351
4.296
4.281
4.326
4.447
4.655
4.955
5.345
5.816
6.362
6.981
7.672
8.439
9.282
10.198
11.184
12.235
13.346
14.51
15.724
16.981
18.274
19.598
20.949
22.323
23.716
25.121
26.531
27.936
29.329
30.702
32.044
33.348
34.604
35.803
36.938
38.002
38.987
39.887
40.696
41.407
42.014
42.512
42.896
43.161
43.302
43.317
43.199
42.948
42.559
42.032
41.364
40.555
39.605
38.515
37.286
35.922
34.424
32.796
31.044
29.171
27.185
25.091
22.897
20.61
18.238
15.789
13.274
10.7
8.077
5.415
2.725
0.016
-2.701
-5.415
-8.115
-10.792
-13.432
-16.027
-18.564
-21.033
-23.423
-25.724
-27.927
-30.022
-32.001
-33.855
-35.577
-37.162
-38.603
-39.896
-41.037
-42.024
-42.854
-43.527
-44.042
-44.402
-44.606
-44.659
-44.564
-44.326
-43.949
-43.441
-42.808
-42.057
-41.197
-40.236
-39.185
-38.052
-36.849
-35.585
-34.272
-32.922
-31.545
-30.152
-28.757
-27.368
-25.997
-24.656
-23.352
-22.096
-20.896
-19.759
-18.693
-17.704
-16.795
-15.973
-15.239
-14.595
-14.043
-13.584
-13.215
-12.936
-12.744
-12.635
-12.605
-12.648
-12.76
-12.931
-13.156
-13.426
-13.732
-14.066
-14.418
-14.777
-15.136
-15.481
-15.805
-16.097
-16.347
-16.544
-16.68
-16.745
-16.731
-16.633
-16.443
-16.157
-15.769
-15.278
-14.682
-13.981
-13.176
-12.266
-11.256
-10.15
-8.954
-7.674
-6.318
-4.894
-3.413
-1.889
-0.335
1.236
2.809
4.369
5.901
7.389
8.817
10.174
11.444
12.614
13.671
14.599
15.382
16.007
16.461
16.733
16.813
16.692
16.366
15.839
15.113
14.191
13.074
11.754
10.233
8.516
6.606
4.516
2.259
-0.142
-2.653
-5.227
-7.823
-10.402
-12.93
-15.39
-17.752
-19.986
-22.064
-23.942
-25.592
-26.994
-28.117
-28.933
-29.452
-29.701
-29.739
-29.664
-29.544
-29.428
-29.385
-29.475
-29.783
-30.396
-31.379
-32.781
-34.665
-37.149
-40.276
-43.978
-48.015
-51.928
-55.249
-57.594
-58.56
-57.67
-54.691
-49.702
-43.164
-36.185
-29.866
-24.953
-22.213
-22.249
-25.079
-30.166
-36.189
-40.611
-40.745
-34.215
-18.584
7.879
46.282
97.117
159.207
229.84
304.579
377.157
442.455
496.665
537.674
566.361
579.983
573.104
539.258
470.034
365.713
233.597
86.565
-56.15
-181.116
-279.474
-348.802
-395.893
-426.442
-445.307
-454.459
-450.463
-432.16
-401.22
-361.54
-319.181
-277.705
-238.572
-202.636
-170.404
-143.121
-121.298
-104.08
-90.383
-79.559
-71.278
-65.39
-61.185
-57.077
-52.139
-46.363
-39.985
-33.31
-26.494
-19.504
-12.753
-7.286
-3.725
-2.153
-2.436
-4.149
-6.945
-10.664
-14.907
-19.006
-22.493
-25.094
-26.685
-27.377
-27.235
-26.242
-24.455
-21.979
-18.919
-15.407
-11.542
-7.371
-2.971
1.561
6.104
10.498
14.625
18.419
21.832
24.855
27.477
29.686
31.494
32.936
34.049
34.874
35.442
35.773
35.9
35.864
35.716
35.516
35.312
35.13
34.996
34.925
34.93
35.027
35.216
35.492
35.849
36.287
36.81
37.424
38.13
38.927
39.811
40.779
41.827
42.956
44.161
45.44
46.789
48.206
49.687
51.233
52.839
54.5
56.209
57.957
59.737
61.539
63.354
65.169
66.974
68.757
70.509
72.218
73.874
75.465
76.981
78.413
79.75
80.982
82.1
83.094
83.955
84.676
85.247
85.663
85.915
85.999
85.908
85.639
85.188
84.554
83.733
82.726
81.533
80.155
78.594
76.854
74.938
72.852
70.602
68.195
65.64
62.945
60.12
57.176
54.121
50.969
47.731
44.419
41.045
37.623
34.165
30.687
27.202
23.724
20.268
16.848
13.478
10.172
6.944
3.805
0.769
-2.154
-4.952
-7.616
-10.136
-12.504
-14.713
-16.757
-18.631
-20.33
-21.852
-23.195
-24.359
-25.344
-26.152
-26.784
-27.245
-27.538
-27.669
-27.643
-27.468
-27.151
-26.701
-26.128
-25.441
-24.652
-23.773
-22.814
-21.789
-20.71
-19.59
-18.44
-17.274
-16.103
-14.939
-13.793
-12.677
-11.601
-10.574
-9.606
-8.704
-7.877
-7.13
-6.469
-5.899
-5.424
-5.047
-4.77
-4.594
-4.521
-4.549
-4.678
-4.905
-5.228
-5.642
-6.141
-6.72
-7.373
-8.09
-8.863
-9.682
-10.539
-11.422
-12.322
-13.227
-14.127
-15.01
-15.866
-16.685
-17.457
-18.171
-18.817
-19.387
-19.873
-20.268
-20.563
-20.754
-20.834
-20.8
-20.647
-20.374
-19.979
-19.461
-18.82
-18.058
-17.178
-16.185
-15.082
-13.878
-12.581
-11.202
-9.753
-8.247
-6.698
-5.121
-3.531
-1.944
-0.376
1.16
2.65
4.081
5.439
6.707
7.87
8.915
9.83
10.603
11.224
11.682
11.97
12.09
12.039
11.818
11.42
10.834
10.052
9.074
7.901
6.541
5.006
3.31
1.478
-0.45
-2.439
-4.452
-6.458
-8.44
-10.371
-12.215
-13.933
-15.47
-16.784
-17.856
-18.656
-19.164
-19.4
-19.383
-19.169
-18.849
-18.475
-18.11
-17.838
-17.722
-17.862
-18.366
-19.299
-20.78
-22.956
-25.865
-29.484
-33.655
-37.988
-42.113
-45.722
-48.391
-49.709
-49.44
-47.519
-44.341
-40.726
-37.458
-35.167
-34.352
-35.429
-38.575
-43.511
-49.129
-53.576
-54.712
-50.413
-38.948
-18.733
11.803
53.721
106.779
169.623
238.893
309.176
377.1
439.987
496.003
546.284
586.196
606.699
599.998
556.727
477.103
372.362
253.409
133.061
19.107
-89.061
-189.7
-280.051
-356.897
-415.084
-452.56
-470.558
-470.915
-455.82
-428.38
-392.05
-350.371
-306.921
-264.305
-223.925
-187.289
-156.309
-131.663
-113.087
-99.894
-90.767
-84.709
-81.185
-79.006
-76.374
-72.291
-66.42
-58.819
-50.114
-40.76
-30.986
-21.504
-13.43
-7.467
-3.888
-2.641
-3.277
-5.41
-8.785
-12.962
-17.314
-21.319
-24.628
-27.069
-28.672
-29.487
-29.498
-28.727
-27.242
-25.12
-22.458
-19.352
-15.86
-12.044
-7.995
-3.811
0.382
4.431
8.232
11.721
14.856
17.625
20.017
22.019
23.642
24.924
25.902
26.62
27.111
27.4
27.522
27.525
27.463
27.398
27.373
27.416
27.548
27.785
28.139
28.622
29.235
29.968
30.815
31.773
32.843
34.027
35.326
36.731
38.236
39.834
41.519
43.287
45.13
47.041
49.013
51.038
53.112
55.228
57.378
59.552
61.738
63.926
66.101
68.253
70.367
72.43
74.429
76.352
78.188
79.925
81.553
83.062
84.443
85.687
86.787
87.734
88.523
89.146
89.598
89.874
89.971
89.885
89.614
89.155
88.508
87.673
86.652
85.447
84.062
82.5
80.767
78.869
76.814
74.608
72.262
69.784
67.186
64.478
61.672
58.78
55.816
52.79
49.716
46.607
43.475
40.332
37.191
34.064
30.964
27.901
24.89
21.94
19.065
16.275
13.58
10.992
8.52
6.172
3.957
1.883
-0.044
-1.819
-3.434
-4.888
-6.174
-7.292
-8.24
-9.018
-9.628
-10.07
-10.349
-10.47
-10.438
-10.259
-9.94
-9.489
-8.912
-8.217
-7.414
-6.51
-5.515
-4.438
-3.29
-2.081
-0.824
0.472
1.794
3.132
4.474
5.81
7.128
8.418
9.669
10.87
12.011
13.081
14.071
14.97
15.771
16.468
17.055
17.527
17.881
18.118
18.239
18.243
18.133
17.91
17.576
17.132
16.582
15.928
15.17
14.313
13.365
12.332
11.227
10.061
8.845
7.593
6.32
5.038
3.76
2.498
1.258
0.054
-1.101
-2.189
-3.187
-4.08
-4.857
-5.507
-6.026
-6.418
-6.689
-6.864
-6.97
-7.02
-7.021
-6.973
-6.855
-6.657
-6.366
-5.963
-5.446
-4.811
-4.047
-3.158
-2.145
-0.986
0.346
1.903
3.751
5.919
8.414
11.229
14.318
17.633
21.106
24.642
28.162
31.601
34.894
38
40.878
43.455
45.659
47.392
48.542
49.036
48.83
47.882
46.199
43.81
40.776
37.208
33.206
28.848
24.209
19.351
14.342
9.272
4.231
-0.695
-5.4
-9.796
-13.809
-17.354
-20.378
-22.864
-24.818
-26.299
-27.377
-28.108
-28.555
-28.793
-28.888
-28.93
-29.017
-29.23
-29.677
-30.466
-31.67
-33.419
-35.875
-39.091
-43.025
-47.476
-52.033
-56.299
-59.981
-62.686
-63.971
-63.6
-61.563
-58.315
-54.812
-51.98
-50.492
-50.921
-53.792
-59.242
-66.878
-75.486
-82.989
-87.11
-85.768
-77.019
-58.832
-29.789
10.568
61.938
122.916
191.023
263.463
335.687
400.813
454.392
493.643
517.622
529.237
526.734
504.864
458.446
380.779
270.719
132.944
-22.148
-177.789
-315.248
-416.006
-472.487
-489.626
-478.105
-453.74
-424.533
-388.45
-346.273
-299.954
-255.315
-223.971
-209.012
-205.75
-208.457
-208.189
-201.467
-191.518
-180.001
-168.882
-158.507
-146.014
-130.609
-113.075
-94.504
-76.973
-61.787
-49.105
-39.098
-31.944
-27.549
-25.767
-26.235
-28.239
-31.234
-34.921
-39.009
-43.294
-47.573
-51.549
-54.993
-57.798
-59.874
-61.167
-61.651
-61.269
-60.007
-57.916
-55.068
-51.576
-47.555
-43.102
-38.326
-33.341
-28.273
-23.275
-18.477
-13.968
-9.81
-6.037
-2.663
0.289
2.82
4.954
6.727
8.18
9.35
10.262
10.948
11.446
11.804
12.078
12.31
12.526
12.748
12.989
13.259
13.568
13.918
14.299
14.705
15.133
15.582
16.058
16.56
17.087
17.635
18.2
18.779
19.375
19.985
20.608
21.245
21.895
22.56
23.243
23.945
24.666
25.402
26.152
26.913
27.682
28.456
29.231
30.002
30.768
31.524
32.269
32.999
33.712
34.403
35.068
35.706
36.31
36.879
37.407
37.89
38.326
38.709
39.035
39.302
39.505
39.64
39.703
39.69
39.599
39.424
39.164
38.814
38.371
37.834
37.2
36.467
35.633
34.697
33.658
32.516
31.272
29.925
28.477
26.931
25.287
23.551
21.725
19.814
17.824
15.758
13.624
11.428
9.177
6.877
4.537
2.164
-0.233
-2.646
-5.065
-7.481
-9.884
-12.264
-14.612
-16.917
-19.17
-21.361
-23.481
-25.519
-27.468
-29.318
-31.061
-32.691
-34.201
-35.586
-36.842
-37.966
-38.957
-39.814
-40.537
-41.13
-41.593
-41.931
-42.147
-42.245
-42.232
-42.112
-41.893
-41.581
-41.184
-40.711
-40.171
-39.575
-38.934
-38.257
-37.556
-36.843
-36.129
-35.426
-34.747
-34.104
-33.509
-32.973
-32.508
-32.126
-31.836
-31.645
-31.561
-31.589
-31.732
-31.991
-32.366
-32.854
-33.454
-34.162
-34.974
-35.888
-36.898
-38
-39.19
-40.465
-41.815
-43.232
-44.704
-46.218
-47.759
-49.314
-50.865
-52.396
-53.887
-55.324
-56.695
-57.987
-59.183
-60.263
-61.202
-61.982
-62.592
-63.028
-63.282
-63.355
-63.25
-62.985
-62.592
-62.103
-61.535
-60.894
-60.172
-59.364
-58.47
-57.491
-56.429
-55.266
-53.98
-52.558
-50.995
-49.284
-47.408
-45.323
-42.956
-40.252
-37.192
-33.787
-30.077
-26.095
-21.882
-17.496
-13.018
-8.56
-4.231
-0.113
3.736
7.256
10.364
12.95
14.874
16.03
16.365
15.858
14.509
12.317
9.298
5.504
1.04
-3.955
-9.353
-15.059
-20.995
-27.072
-33.17
-39.142
-44.834
-50.128
-54.943
-59.212
-62.867
-65.84
-68.079
-69.572
-70.357
-70.515
-70.115
-69.218
-67.894
-66.216
-64.291
-62.255
-60.238
-58.361
-56.728
-55.434
-54.563
-54.234
-54.592
-55.691
-57.444
-59.612
-61.802
-63.645
-64.871
-65.165
-64.059
-61.25
-56.763
-50.976
-44.727
-38.829
-33.647
-29.5
-26.88
-25.896
-26.108
-26.517
-25.252
-20.309
-10.382
5.86
30.073
63.185
105.479
156.746
215.276
278.582
344.636
409.309
467.536
516.506
552.089
572.646
578.229
564.091
528.546
469.5
384.014
275.866
147.593
5.436
-136.915
-265.451
-365.291
-427.495
-454.704
-456.49
-443.301
-422.015
-394.143
-357.472
-311.822
-260.426
-207.826
-159.557
-119.779
-90.148
-70.719
-60.283
-57.063
-59.173
-64.946
-72.67
-80.129
-85.349
-87.332
-85.898
-81.545
-75.15
-67.399
-58.954
-50.88
-44.275
-39.762
-37.512
-37.273
-38.515
-40.785
-43.751
-46.967
-49.946
-52.355
-53.969
-54.716
-54.676
-53.917
-52.476
-50.426
-47.839
-44.784
-41.367
-37.692
-33.859
-29.997
-26.196
-22.518
-19.026
-15.768
-12.794
-10.144
-7.824
-5.819
-4.117
-2.709
-1.59
-0.747
-0.139
0.286
0.583
0.811
1.014
1.222
1.469
1.782
2.18
2.677
3.278
3.979
4.782
5.695
6.723
7.874
9.146
10.537
12.042
13.656
15.376
17.196
19.11
21.112
23.198
25.364
27.607
29.923
32.305
34.746
37.236
39.764
42.317
44.884
47.451
50.005
52.531
55.017
57.45
59.817
62.108
64.309
66.409
68.398
70.265
71.999
73.591
75.031
76.313
77.428
78.37
79.133
79.712
80.103
80.304
80.312
80.125
79.743
79.167
78.397
77.436
76.288
74.956
73.445
71.762
69.913
67.908
65.753
63.458
61.032
58.486
55.829
53.072
50.227
47.303
44.313
41.268
38.178
35.057
31.916
28.765
25.616
22.481
19.37
16.294
13.263
10.286
7.375
4.537
1.78
-0.886
-3.454
-5.918
-8.271
-10.508
-12.623
-14.614
-16.475
-18.205
-19.802
-21.264
-22.592
-23.784
-24.843
-25.77
-26.567
-27.238
-27.786
-28.214
-28.528
-28.733
-28.833
-28.835
-28.746
-28.57
-28.316
-27.989
-27.598
-27.148
-26.648
-26.105
-25.526
-24.918
-24.289
-23.646
-22.995
-22.343
-21.698
-21.066
-20.452
-19.862
-19.303
-18.779
-18.294
-17.851
-17.456
-17.109
-16.814
-16.572
-16.385
-16.252
-16.174
-16.151
-16.181
-16.263
-16.394
-16.572
-16.793
-17.054
-17.349
-17.674
-18.023
-18.391
-18.772
-19.158
-19.545
-19.924
-20.289
-20.633
-20.947
-21.225
-21.459
-21.641
-21.763
-21.819
-21.801
-21.704
-21.521
-21.246
-20.874
-20.401
-19.823
-19.135
-18.337
-17.425
-16.398
-15.258
-14.006
-12.643
-11.176
-9.608
-7.947
-6.2
-4.378
-2.489
-0.544
1.444
3.465
5.505
7.552
9.594
11.617
13.609
15.554
17.438
19.244
20.96
22.57
24.06
25.414
26.619
27.661
28.533
29.228
29.737
30.049
30.15
30.033
29.696
29.143
28.38
27.416
26.265
24.951
23.515
21.996
20.433
18.857
17.282
15.732
14.235
12.825
11.543
10.415
9.45
8.653
8.03
7.578
7.273
7.064
6.851
6.526
6.01
5.23
4.142
2.717
0.902
-1.369
-4.149
-7.485
-11.393
-15.822
-20.763
-26.255
-32.18
-38.306
-44.257
-49.439
-53.397
-55.93
-56.698
-55.26
-51.534
-45.582
-37.822
-29.398
-21.032
-12.824
-5.381
0.496
4.641
7.034
9.409
15.766
28.707
48.766
73.772
99.786
124.297
148.448
179.89
226.309
293.843
384.967
486.998
582.512
651.995
674.241
646.058
573.558
467.481
344.788
211.908
72.549
-65.929
-194.721
-299.168
-368.937
-404.526
-415.102
-413.379
-407.149
-396.699
-377.776
-348.009
-309.326
-266.318
-224.466
-186.804
-154.519
-128.772
-109.566
-96.286
-88.214
-84.095
-82.846
-83.797
-85.738
-86.839
-86.018
-82.977
-77.831
-71.218
-63.684
-55.48
-47.276
-40.164
-34.798
-31.403
-29.895
-29.757
-30.521
-31.942
-33.637
-35.12
-36.072
-36.247
-35.535
-34.029
-31.805
-28.897
-25.381
-21.324
-16.786
-11.88
-6.716
-1.401
3.919
9.148
14.216
19.052
23.608
27.832
31.686
35.166
38.288
41.065
43.508
45.621
47.412
48.919
50.19
51.277
52.243
53.129
53.968
54.795
55.637
56.513
57.443
58.429
59.47
60.57
61.736
62.977
64.303
65.716
67.215
68.799
70.466
72.213
74.04
75.941
77.913
79.954
82.062
84.235
86.473
88.771
91.123
93.522
95.958
98.422
100.903
103.39
105.871
108.333
110.766
113.156
115.495
117.769
119.969
122.083
124.1
126.011
127.805
129.474
131.007
132.398
133.639
134.722
135.643
136.395
136.975
137.379
137.604
137.647
137.507
137.184
136.677
135.986
135.115
134.065
132.84
131.444
129.883
128.162
126.287
124.267
122.108
119.817
117.404
114.877
112.245
109.518
106.704
103.816
100.861
97.851
94.796
91.707
88.592
85.462
82.327
79.196
76.08
72.988
69.929
66.913
63.948
61.043
58.206
55.446
52.768
50.181
47.691
45.303
43.023
40.855
38.804
36.873
35.065
33.383
31.827
30.398
29.096
27.919
26.868
25.938
25.128
24.434
23.852
23.379
23.01
22.739
22.562
22.471
22.461
22.526
22.657
22.849
23.092
23.381
23.707
24.061
24.438
24.828
25.223
25.616
25.999
26.365
26.705
27.013
27.283
27.509
27.685
27.807
27.872
27.876
27.816
27.691
27.498
27.238
26.911
26.516
26.055
25.53
24.944
24.301
23.604
22.859
22.069
21.24
20.378
19.488
18.578
17.654
16.721
15.789
14.864
13.953
13.066
12.208
11.388
10.611
9.884
9.214
8.604
8.059
7.583
7.178
6.846
6.589
6.408
6.3
6.265
6.299
6.4
6.561
6.773
7.029
7.318
7.631
7.957
8.284
8.6
8.895
9.158
9.381
9.553
9.663
9.697
9.642
9.487
9.22
8.833
8.315
7.658
6.855
5.91
4.82
3.587
2.207
0.665
-1.044
-2.92
-4.962
-7.162
-9.506
-11.98
-14.557
-17.194
-19.854
-22.499
-25.096
-27.63
-30.072
-32.387
-34.539
-36.476
-38.158
-39.568
-40.678
-41.472
-41.975
-42.211
-42.243
-42.171
-42.054
-41.963
-41.994
-42.216
-42.734
-43.657
-45.041
-47
-49.678
-53.106
-57.259
-61.975
-66.855
-71.53
-75.706
-78.953
-80.842
-81.109
-79.635
-76.763
-73.283
-69.92
-67.22
-65.661
-65.684
-67.521
-71.024
-75.232
-78.393
-78.557
-73.869
-62.65
-43.106
-13.652
26.748
78.109
139.055
207.316
280.002
353.528
423.31
484.267
531.171
559.273
565.168
546.446
501.89
432.135
340.025
230.029
108.027
-19.065
-144.439
-261.197
-362.474
-444.381
-505.17
-542.518
-556.813
-547.167
-513.364
-463.929
-406.738
-350.94
-305.972
-269.919
-241.124
-218.536
-198.017
-182.056
-172.235
-166.887
-166.123
-167.348
-167.313
-164.868
-159.201
-150.357
-139.283
-126.995
-114.26
-101.959
-91.231
-82.823
-77.071
-74.111
-73.617
-75.021
-77.869
-81.57
-85.416
-88.978
-91.952
-94.094
-95.365
-95.742
-95.181
-93.744
-91.51
-88.524
-84.86
-80.591
-75.776
-70.54
-65.03
-59.394
-53.802
-48.375
-43.202
-38.375
-33.956
-29.983
-26.484
-23.454
-20.874
-18.735
-17.015
-15.679
-14.698
-14.022
-13.592
-13.354
-13.237
-13.189
-13.173
-13.154
-13.106
-13.013
-12.858
-12.636
-12.348
-11.988
-11.552
-11.034
-10.427
-9.727
-8.933
-8.046
-7.067
-5.999
-4.842
-3.594
-2.257
-0.831
0.684
2.288
3.981
5.761
7.625
9.566
11.576
13.647
15.772
17.941
20.145
22.371
24.612
26.858
29.098
31.325
33.527
35.695
37.82
39.893
41.905
43.845
45.707
47.48
49.158
50.731
52.193
53.538
54.758
55.849
56.804
57.62
58.293
58.819
59.196
59.422
59.496
59.417
59.185
58.8
58.264
57.579
56.748
55.774
54.661
53.412
52.033
50.53
48.907
47.171
45.329
43.387
41.354
39.237
37.045
34.787
32.472
30.11
27.71
25.283
22.837
20.382
17.929
15.486
13.063
10.67
8.315
6.007
3.756
1.568
-0.547
-2.582
-4.531
-6.386
-8.143
-9.796
-11.341
-12.774
-14.092
-15.293
-16.376
-17.34
-18.184
-18.91
-19.52
-20.016
-20.401
-20.681
-20.859
-20.942
-20.936
-20.847
-20.682
-20.45
-20.156
-19.81
-19.419
-18.992
-18.536
-18.061
-17.575
-17.086
-16.603
-16.134
-15.687
-15.268
-14.886
-14.547
-14.256
-14.021
-13.844
-13.732
-13.688
-13.714
-13.814
-13.988
-14.238
-14.562
-14.96
-15.429
-15.966
-16.567
-17.227
-17.939
-18.698
-19.496
-20.327
-21.183
-22.055
-22.936
-23.816
-24.686
-25.538
-26.363
-27.15
-27.891
-28.577
-29.2
-29.751
-30.224
-30.61
-30.904
-31.098
-31.188
-31.17
-31.039
-30.793
-30.428
-29.945
-29.344
-28.626
-27.796
-26.857
-25.815
-24.681
-23.464
-22.175
-20.827
-19.432
-18.004
-16.558
-15.106
-13.662
-12.237
-10.843
-9.494
-8.208
-6.998
-5.88
-4.866
-3.97
-3.203
-2.58
-2.108
-1.789
-1.627
-1.626
-1.796
-2.156
-2.718
-3.488
-4.469
-5.657
-7.044
-8.619
-10.355
-12.208
-14.138
-16.101
-18.066
-20.014
-21.917
-23.738
-25.434
-26.949
-28.24
-29.291
-30.073
-30.573
-30.814
-30.826
-30.685
-30.505
-30.371
-30.372
-30.617
-31.186
-32.187
-33.733
-35.903
-38.819
-42.622
-47.342
-52.918
-59.155
-65.647
-71.991
-77.847
-82.747
-86.16
-87.744
-87.469
-85.712
-83.286
-80.995
-79.286
-78.544
-79.334
-81.89
-85.764
-89.818
-92.032
-90.086
-82.225
-66.905
-42.321
-7.038
39.661
97.62
165.116
238.319
312.353
382.265
443.62
495.611
539.537
575.117
598.657
599.206
563.716
483.369
358.318
203.428
40.382
-108.269
-225.309
-307.354
-359.58
-392.238
-415.054
-430.737
-437.287
-430.201
-407.699
-372.578
-329.876
-285.737
-244.114
-206.732
-175.122
-150.196
-131.952
-119.952
-113.074
-109.641
-108.498
-108.563
-108.179
-105.995
-101.433
-94.4
-85.368
-75.196
-64.457
-53.788
-44.257
-36.654
-31.354
-28.472
-27.705
-28.569
-30.699
-33.662
-36.872
-39.887
-42.405
-44.201
-45.241
-45.55
-45.111
-43.961
-42.162
-39.749
-36.772
-33.306
-29.405
-25.147
-20.643
-15.984
-11.281
-6.659
-2.214
1.972
5.837
9.356
12.514
15.298
17.705
19.746
21.435
22.805
23.887
24.706
25.296
25.694
25.947
26.107
26.218
26.308
26.398
26.504
26.637
26.807
27.019
27.27
27.558
27.88
28.238
28.634
29.07
29.543
30.048
30.58
31.134
31.711
32.307
32.922
33.554
34.202
34.866
35.547
36.246
36.96
37.685
38.416
39.15
39.881
40.604
41.311
41.999
42.659
43.288
43.88
44.431
44.936
45.389
45.787
46.126
46.401
46.61
46.748
46.811
46.798
46.705
46.529
46.268
45.919
45.477
44.941
44.306
43.569
42.727
41.776
40.713
39.536
38.242
36.83
35.297
33.644
31.869
29.972
27.955
25.818
23.564
21.193
18.709
16.116
13.416
10.615
7.717
4.728
1.655
-1.497
-4.719
-8.004
-11.344
-14.73
-18.151
-21.598
-25.06
-28.525
-31.98
-35.414
-38.812
-42.161
-45.449
-48.661
-51.783
-54.804
-57.709
-60.486
-63.124
-65.611
-67.935
-70.088
-72.059
-73.842
-75.429
-76.815
-77.994
-78.964
-79.722
-80.267
-80.6
-80.72
-80.63
-80.334
-79.835
-79.14
-78.255
-77.188
-75.948
-74.544
-72.989
-71.295
-69.473
-67.538
-65.503
-63.383
-61.192
-58.946
-56.66
-54.348
-52.027
-49.71
-47.413
-45.148
-42.93
-40.771
-38.681
-36.671
-34.751
-32.927
-31.207
-29.597
-28.101
-26.724
-25.467
-24.331
-23.317
-22.424
-21.649
-20.988
-20.436
-19.987
-19.633
-19.366
-19.178
-19.059
-18.998
-18.985
-19.008
-19.056
-19.117
-19.179
-19.23
-19.258
-19.25
-19.196
-19.084
-18.906
-18.653
-18.316
-17.889
-17.366
-16.744
-16.019
-15.189
-14.253
-13.211
-12.065
-10.819
-9.478
-8.048
-6.536
-4.952
-3.311
-1.624
0.093
1.824
3.555
5.268
6.946
8.572
10.131
11.609
12.99
14.257
15.392
16.38
17.203
17.847
18.299
18.545
18.574
18.377
17.954
17.303
16.422
15.307
13.945
12.33
10.465
8.352
5.998
3.418
0.631
-2.328
-5.411
-8.572
-11.765
-14.951
-18.104
-21.187
-24.158
-26.978
-29.592
-31.963
-34.069
-35.885
-37.386
-38.589
-39.529
-40.276
-40.948
-41.631
-42.396
-43.334
-44.52
-46.059
-48.07
-50.62
-53.764
-57.576
-62.133
-67.457
-73.468
-79.88
-86.25
-92.194
-97.353
-101.336
-103.667
-103.984
-102.245
-98.806
-94.426
-89.643
-84.641
-79.967
-76.286
-73.848
-72.67
-70.781
-65.465
-56.317
-42.371
-24.649
-4.417
23.343
61.758
114.003
183.279
261.875
341.294
413.999
471.402
515.214
549.558
573.78
583.867
567.478
512.022
414.978
284.153
137.126
-7.67
-138.613
-250.476
-343.6
-418.199
-472.375
-503.926
-510.84
-494.175
-457.508
-405.759
-345.081
-279.849
-213.619
-151.625
-97.355
-55.587
-30.644
-18.635
-15.715
-16.387
-13.699
-9.99
-6.927
-5.108
-7.058
-9.108
-8.439
-4.959
2.383
11.751
20.959
29.296
35.593
39.455
41.208
40.976
39.104
36.107
32.419
28.555
25.092
22.396
20.612
19.782
19.84
20.705
22.336
24.651
27.527
30.859
34.555
38.526
42.696
46.962
51.186
55.246
59.052
62.534
65.661
68.415
70.785
72.774
74.404
75.705
76.709
77.45
77.954
78.257
78.401
78.438
78.428
78.418
78.446
78.538
78.714
78.987
79.366
79.854
80.444
81.132
81.913
82.788
83.76
84.827
85.986
87.231
88.555
89.954
91.423
92.959
94.557
96.213
97.923
99.684
101.495
103.352
105.248
107.176
109.127
111.091
113.06
115.023
116.968
118.886
120.766
122.598
124.373
126.081
127.715
129.265
130.724
132.084
133.339
134.482
135.508
136.41
137.184
137.824
138.325
138.685
138.898
138.96
138.869
138.622
138.216
137.65
136.923
136.033
134.982
133.77
132.399
130.871
129.191
127.363
125.39
123.28
121.037
118.669
116.183
113.584
110.882
108.083
105.195
102.226
99.185
96.079
92.918
89.711
86.466
83.194
79.905
76.607
73.312
70.029
66.77
63.544
60.362
57.235
54.171
51.181
48.274
45.457
42.739
40.127
37.627
35.244
32.982
30.845
28.836
26.956
25.208
23.591
22.104
20.749
19.522
18.422
17.446
16.591
15.852
15.227
14.708
14.29
13.968
13.734
13.58
13.5
13.484
13.525
13.612
13.739
13.894
14.07
14.257
14.448
14.632
14.804
14.957
15.083
15.177
15.234
15.251
15.223
15.147
15.022
14.846
14.617
14.336
14.003
13.619
13.185
12.705
12.181
11.617
11.017
10.385
9.728
9.05
8.357
7.656
6.953
6.257
5.572
4.908
4.271
3.669
3.109
2.597
2.14
1.743
1.41
1.147
0.956
0.841
0.802
0.842
0.959
1.153
1.424
1.767
2.18
2.656
3.192
3.779
4.411
5.077
5.767
6.47
7.173
7.866
8.535
9.168
9.753
10.277
10.731
11.104
11.382
11.555
11.609
11.533
11.315
10.945
10.416
9.72
8.852
7.815
6.61
5.24
3.704
1.995
0.112
-1.943
-4.165
-6.544
-9.064
-11.706
-14.438
-17.217
-20.002
-22.756
-25.448
-28.058
-30.565
-32.939
-35.151
-37.16
-38.93
-40.439
-41.667
-42.594
-43.228
-43.601
-43.772
-43.84
-43.89
-43.976
-44.162
-44.509
-45.081
-45.969
-47.253
-48.981
-51.245
-54.157
-57.762
-62.024
-66.735
-71.476
-75.806
-79.326
-81.592
-82.139
-80.662
-77.113
-71.9
-65.908
-60.09
-55.233
-52.035
-51.17
-52.993
-57.305
-63.059
-68.332
-70.787
-68.078
-58.001
-38.3
-7.102
36.586
92.545
159.145
233.416
311.373
388.509
459.578
518.709
560.328
579.911
573.95
541.725
485.654
407.343
309.17
193.962
62.435
-78.007
-214.365
-334.457
-424.624
-480.631
-509.239
-517.371
-513.502
-501.527
-479.144
-446.799
-406.274
-361.012
-316.462
-275.719
-240.506
-212.044
-189.971
-173.633
-162.235
-154.207
-148.339
-143.648
-138.651
-132.264
-124.134
-114.192
-102.862
-90.99
-79.138
-67.946
-58.441
-51.29
-46.783
-44.999
-45.581
-48.019
-51.932
-56.824
-62.067
-67.179
-71.746
-75.474
-78.296
-80.178
-81.096
-81.082
-80.177
-78.432
-75.931
-72.766
-69.025
-64.819
-60.254
-55.446
-50.522
-45.619
-40.891
-36.455
-32.385
-28.728
-25.502
-22.719
-20.394
-18.516
-17.046
-15.943
-15.163
-14.664
-14.417
-14.38
-14.5
-14.722
-14.986
-15.246
-15.474
-15.648
-15.75
-15.767
-15.684
-15.499
-15.218
-14.845
-14.378
-13.815
-13.15
-12.382
-11.514
-10.549
-9.493
-8.346
-7.111
-5.79
-4.388
-2.909
-1.355
0.271
1.967
3.728
5.546
7.415
9.324
11.264
13.225
15.195
17.164
19.119
21.051
22.948
24.801
26.6
28.333
29.992
31.565
33.045
34.422
35.687
36.832
37.849
38.732
39.475
40.072
40.519
40.812
40.948
40.924
40.74
40.395
39.888
39.22
38.394
37.412
36.279
34.998
33.575
32.015
30.326
28.514
26.588
24.554
22.422
20.2
17.897
15.522
13.087
10.6
8.073
5.516
2.94
0.356
-2.226
-4.795
-7.34
-9.85
-12.317
-14.73
-17.08
-19.357
-21.553
-23.659
-25.669
-27.575
-29.371
-31.051
-32.612
-34.048
-35.357
-36.535
-37.58
-38.492
-39.27
-39.913
-40.422
-40.8
-41.047
-41.168
-41.166
-41.045
-40.812
-40.471
-40.028
-39.492
-38.87
-38.169
-37.397
-36.565
-35.68
-34.752
-33.791
-32.805
-31.806
-30.802
-29.802
-28.816
-27.853
-26.921
-26.028
-25.183
-24.393
-23.664
-23.002
-22.415
-21.906
-21.481
-21.142
-20.893
-20.736
-20.673
-20.703
-20.827
-21.044
-21.35
-21.743
-22.219
-22.773
-23.399
-24.09
-24.838
-25.637
-26.476
-27.347
-28.24
-29.145
-30.052
-30.95
-31.83
-32.68
-33.489
-34.247
-34.945
-35.571
-36.119
-36.578
-36.94
-37.199
-37.348
-37.383
-37.299
-37.093
-36.761
-36.303
-35.72
-35.012
-34.183
-33.235
-32.175
-31.009
-29.749
-28.405
-26.99
-25.515
-23.996
-22.446
-20.882
-19.316
-17.763
-16.234
-14.742
-13.302
-11.93
-10.642
-9.451
-8.371
-7.413
-6.592
-5.915
-5.39
-5.016
-4.794
-4.723
-4.811
-5.069
-5.504
-6.12
-6.913
-7.88
-9.007
-10.278
-11.665
-13.127
-14.624
-16.118
-17.581
-18.99
-20.322
-21.547
-22.629
-23.524
-24.197
-24.62
-24.769
-24.635
-24.241
-23.617
-22.83
-21.965
-21.084
-20.267
-19.595
-19.149
-19.018
-19.284
-20.008
-21.28
-23.246
-25.961
-29.364
-33.242
-37.157
-40.668
-43.433
-45.024
-44.911
-42.814
-38.772
-33.235
-27.327
-22.161
-18.454
-16.987
-18.473
-23.052
-30.25
-38.731
-45.855
-48.769
-45.036
-32.052
-7.564
29.817
80.54
143.512
215.743
293.221
371.344
444.533
507.065
553.506
579.117
580.675
556.559
506.755
433.053
339.258
230.604
113.275
-6.285
-121.806
-227.114
-316.934
-387.443
-436.773
-464.924
-473.047
-463.035
-437.89
-401.72
-358.935
-313.918
-270.031
-229.548
-194.63
-166.977
-147.086
-134.439
-127.711
-124.861
-124.275
-124.645
-124.13
-121.214
-115.156
-105.701
-93.349
-79.184
-64.058
-48.856
-34.818
-22.802
-13.259
-6.455
-2.188
-0.039
0.322
-0.626
-2.296
-4.321
-6.455
-8.488
-10.335
-11.884
-12.982
-13.582
-13.686
-13.281
-12.367
-10.94
-8.993
-6.579
-3.778
-0.669
2.681
6.227
9.933
13.737
17.553
21.287
24.839
28.148
31.174
33.883
36.259
38.297
40.012
41.434
42.607
43.567
44.345
44.962
45.435
45.789
46.058
46.277
46.492
46.734
47.027
47.392
47.845
48.394
49.046
49.797
50.636
51.559
52.561
53.642
54.803
56.043
57.358
58.745
60.197
61.709
63.275
64.891
66.549
68.245
69.972
71.727
73.507
75.308
77.125
78.95
80.776
82.596
84.403
86.187
87.939
89.653
91.318
92.929
94.479
95.96
97.366
98.692
99.93
101.075
102.122
103.065
103.9
104.62
105.223
105.702
106.056
106.28
106.372
106.329
106.148
105.829
105.369
104.769
104.027
103.143
102.118
100.954
99.653
98.217
96.652
94.961
93.149
91.224
89.19
87.056
84.827
82.512
80.12
77.657
75.135
72.562
69.949
67.305
64.642
61.97
59.301
56.645
54.013
51.416
48.865
46.372
43.946
41.6
39.343
37.186
35.14
33.212
31.411
29.745
28.219
26.839
25.608
24.53
23.606
22.838
22.224
21.765
21.459
21.302
21.292
21.423
21.688
22.082
22.595
23.22
23.947
24.766
25.666
26.638
27.67
28.75
29.868
31.01
32.164
33.317
34.456
35.567
36.639
37.659
38.617
39.502
40.307
41.025
41.649
42.175
42.6
42.922
43.138
43.247
43.248
43.142
42.928
42.61
42.19
41.674
41.069
40.385
39.633
38.828
37.981
37.107
36.216
35.321
34.435
33.57
32.736
31.944
31.21
30.549
29.986
29.541
29.221
29.032
28.968
29.017
29.171
29.416
29.733
30.108
30.539
31.03
31.605
32.29
33.094
34.015
35.032
36.124
37.29
38.534
39.863
41.298
42.859
44.568
46.477
48.619
50.987
53.549
56.227
58.924
61.575
64.132
66.558
68.828
70.896
72.714
74.252
75.463
76.298
76.69
76.53
75.733
74.273
72.162
69.469
66.304
62.743
58.855
54.722
50.417
46.023
41.616
37.243
32.957
28.827
24.946
21.441
18.428
15.97
14.099
12.798
11.996
11.634
11.637
11.913
12.374
12.918
13.437
13.837
14.032
13.928
13.442
12.445
10.763
8.329
5.185
1.528
-2.263
-5.826
-8.889
-11.126
-12.086
-11.489
-9.363
-6.083
-2.461
0.724
3.078
4.287
3.889
1.757
-1.589
-5.072
-6.869
-5.006
1.897
15.102
36.05
65.821
104.809
152.665
208.218
268.515
329.309
386.674
436.381
478.304
516.692
551.703
579.901
590.168
565.534
499.911
396.385
267.641
132.193
-2.933
-133.709
-256.355
-366.825
-449.82
-493.614
-496.484
-462.195
-406.078
-345.433
-288.67
-241.119
-203.372
-169.298
-137.715
-109.418
-83.582
-64.128
-52.587
-47.657
-49.059
-54.044
-59.633
-63.858
-65.197
-63.449
-59.003
-52.417
-44.43
-35.62
-26.843
-19.362
-13.874
-10.627
-9.607
-10.327
-12.287
-15.145
-18.413
-21.532
-24.162
-26.056
-27.087
-27.327
-26.826
-25.604
-23.739
-21.306
-18.368
-15.016
-11.34
-7.427
-3.402
0.609
4.514
8.233
11.707
14.883
17.719
20.194
22.308
24.075
25.503
26.599
27.374
27.853
28.074
28.086
27.942
27.694
27.385
27.053
26.727
26.429
26.176
25.978
25.836
25.75
25.721
25.756
25.859
26.033
26.28
26.597
26.981
27.428
27.934
28.495
29.106
29.765
30.47
31.221
32.016
32.855
33.736
34.656
35.609
36.589
37.589
38.602
39.62
40.635
41.639
42.624
43.582
44.508
45.393
46.232
47.017
47.743
48.403
48.991
49.502
49.93
50.271
50.519
50.672
50.725
50.674
50.517
50.251
49.873
49.38
48.771
48.043
47.195
46.227
45.136
43.924
42.591
41.137
39.566
37.878
36.078
34.166
32.147
30.025
27.802
25.484
23.075
20.579
18.002
15.349
12.625
9.837
6.991
4.093
1.151
-1.828
-4.837
-7.868
-10.912
-13.961
-17.008
-20.042
-23.055
-26.039
-28.985
-31.884
-34.728
-37.509
-40.221
-42.854
-45.405
-47.865
-50.23
-52.496
-54.657
-56.711
-58.654
-60.484
-62.198
-63.797
-65.278
-66.643
-67.892
-69.025
-70.047
-70.959
-71.765
-72.469
-73.078
-73.596
-74.03
-74.388
-74.678
-74.907
-75.085
-75.22
-75.323
-75.404
-75.471
-75.535
-75.606
-75.693
-75.806
-75.953
-76.142
-76.382
-76.68
-77.043
-77.477
-77.989
-78.584
-79.266
-80.041
-80.91
-81.878
-82.945
-84.113
-85.382
-86.75
-88.217
-89.779
-91.432
-93.171
-94.991
-96.885
-98.844
-100.86
-102.922
-105.021
-107.146
-109.283
-111.421
-113.547
-115.647
-117.71
-119.721
-121.667
-123.536
-125.314
-126.989
-128.548
-129.979
-131.269
-132.408
-133.384
-134.186
-134.806
-135.233
-135.46
-135.48
-135.286
-134.873
-134.236
-133.374
-132.285
-130.967
-129.424
-127.657
-125.67
-123.469
-121.061
-118.454
-115.658
-112.683
-109.542
-106.246
-102.81
-99.247
-95.572
