Name,Criss Capps
Date of Birth,"Feb 5, 1952"
Recorded Date,2021-09-21 14:40:17 -0400
Classification,Sinus Rhythm
Symptoms,
Software Version,1.90
Device,"Watch5,4"
Sample Rate,512.844 hertz


Lead,Lead I
Unit,µV

-17.81
-22.697
-26.762
-29.965
-32.282
-33.702
-34.246
-33.961
-32.923
-31.233
-28.999
-26.34
-23.355
-20.124
-16.734
-13.283
-9.86
-6.548
-3.413
-0.5
2.147
4.492
6.516
8.213
9.602
10.72
11.617
12.352
12.973
13.513
14.007
14.485
14.973
15.49
16.044
16.631
17.247
17.894
18.569
19.267
19.975
20.672
21.333
21.934
22.454
22.884
23.215
23.441
23.565
23.589
23.525
23.389
23.192
22.943
22.651
22.326
21.981
21.63
21.288
20.969
20.687
20.457
20.291
20.2
20.187
20.255
20.402
20.632
20.955
21.378
21.904
22.536
23.271
24.1
25.011
25.981
26.972
27.943
28.861
29.7
30.449
31.099
31.642
32.065
32.342
32.452
32.36
32.035
31.459
30.629
29.57
28.343
27.004
25.619
24.263
22.942
21.604
20.161
18.417
16.187
13.456
10.224
6.523
2.589
-1.337
-4.997
-7.897
-9.658
-10.288
-9.871
-8.651
-7.295
-6.364
-6.367
-8.173
-12.518
-19.766
-30.283
-44.111
-60.602
-79.144
-99.183
-119.735
-139.882
-158.824
-175.414
-188.749
-198.67
-205.121
-208.079
-207.836
-204.537
-198.304
-189.862
-180.064
-169.444
-158.46
-147.477
-136.79
-126.999
-118.969
-113.203
-109.745
-108.412
-109
-111.503
-115.985
-122.234
-129.712
-137.904
-146.649
-156.193
-165.901
-173.721
-177.67
-176.791
-173.049
-170.038
-168.959
-166.065
-151.189
-114.578
-51.658
34.363
129.233
219.307
295.225
351.908
394.478
427.46
452.647
471.936
482.232
482.184
473.643
458.371
440.404
423.106
407.859
395.93
387.615
382.48
379.89
378.316
375.814
370.778
361.768
348.616
331.541
309.472
282.46
249.337
208.925
164.836
119.396
75.726
37.861
2.873
-31.844
-68.175
-109.412
-153.377
-197.305
-240.186
-280.254
-317.56
-352.299
-383.386
-409.868
-431.171
-447.226
-458.27
-464.582
-466.538
-464.766
-460.238
-454.027
-446.714
-438.527
-429.661
-420.018
-409.251
-395.902
-377.453
-351.838
-318.081
-277.676
-233.529
-187.859
-141.221
-89.883
-29.464
42.749
127.905
218.845
304.453
373.324
410.341
407.163
363.078
280.354
171.382
52.17
-63.315
-158.91
-224.859
-260.448
-269.192
-262.119
-249.663
-234.661
-216.644
-190.316
-153.334
-111.803
-73.376
-47.095
-36.523
-36.587
-41.589
-45.272
-44.779
-42.217
-38.663
-34.848
-30.491
-23.631
-13.758
-1.415
12.612
26.924
40.462
52.795
63.537
72.486
79.686
85.24
89.368
92.409
94.714
96.512
97.971
99.241
100.417
101.579
102.792
104.077
105.42
106.834
108.338
109.935
111.635
113.429
115.292
117.207
119.155
121.108
123.037
124.904
126.667
128.298
129.782
131.108
132.277
133.293
134.162
134.902
135.539
136.092
136.584
137.032
137.453
137.867
138.294
138.751
139.257
139.825
140.468
141.198
142.025
142.955
143.994
145.144
146.405
147.779
149.267
150.868
152.582
154.408
156.344
158.388
160.535
162.782
165.122
167.546
170.048
172.615
175.239
177.906
180.606
183.325
186.048
188.763
191.454
194.107
196.706
199.236
201.682
204.029
206.263
208.37
210.335
212.146
213.792
215.26
216.541
217.624
218.5
219.162
219.601
219.811
219.786
219.521
219.012
218.257
217.253
216.001
214.5
212.753
210.763
208.533
206.068
203.376
200.463
197.337
194.008
190.486
186.781
182.906
178.873
174.693
170.382
165.95
161.412
156.781
152.07
147.292
142.461
137.589
132.689
127.774
122.855
117.946
113.056
108.199
103.382
98.615
93.908
89.273
84.719
80.255
75.888
71.62
67.456
63.41
59.48
55.652
51.918
48.264
44.69
41.218
37.849
34.556
31.356
28.299
25.42
22.762
20.321
18.026
15.86
13.892
12.03
10.015
7.808
5.474
2.974
0.607
-2.234
-7.135
-13.59
-20.217
-24.474
-21.821
-12.987
-2.418
5.298
3.67
-7.102
-21.006
-33.441
-39.245
-38.006
-34.256
-30.619
-29.071
-30.001
-31.544
-32.975
-34.333
-35.576
-37
-38.651
-40.287
-41.853
-43.395
-44.912
-46.405
-47.893
-49.4
-50.959
-52.629
-54.432
-56.362
-58.429
-60.648
-63.031
-65.595
-68.353
-71.317
-74.509
-77.95
-81.653
-85.626
-89.875
-94.395
-99.182
-104.22
-109.481
-114.937
-120.557
-126.312
-132.182
-138.141
-144.156
-150.192
-156.203
-162.151
-168.018
-173.798
-179.49
-185.108
-190.674
-196.23
-201.852
-207.618
-213.605
-219.869
-226.449
-233.378
-240.695
-248.446
-256.669
-265.373
-274.526
-284.057
-293.878
-303.875
-313.921
-323.84
-333.389
-342.295
-350.28
-357.092
-362.518
-366.334
-368.287
-368.16
-365.814
-361.208
-354.425
-345.578
-334.735
-321.973
-307.4
-291.015
-272.753
-252.514
-230.088
-205.391
-178.587
-150.026
-120.247
-90.168
-60.932
-33.678
-9.607
10.399
25.893
36.737
43.13
45.75
45.609
43.729
41.173
38.745
36.901
35.922
35.887
36.626
37.776
39.022
40.083
40.78
41.113
41.121
40.878
40.508
40.15
39.842
39.529
39.142
38.534
37.524
36.005
33.906
31.238
28.22
25.15
22.28
19.929
18.45
18.007
18.672
20.318
22.403
24.347
25.692
25.916
24.59
21.621
17.121
11.635
6.468
3.174
3.285
8.474
20.409
40.423
69.586
108.612
156.347
209.71
265.588
320.497
372.523
423.608
474.137
520.722
557.145
571.536
552.363
496.566
405.987
288.189
157.831
26.505
-93.934
-189.959
-257.718
-297.026
-312.422
-315.791
-312.97
-305.875
-294.977
-276.875
-251.923
-223.873
-195.857
-171.539
-153.228
-140.961
-134.226
-132.082
-133.126
-135.906
-139.348
-142.438
-143.958
-143.333
-140.468
-135.448
-128.887
-121.579
-114.067
-107.023
-101.25
-97.115
-94.738
-94.088
-94.804
-96.523
-98.98
-101.813
-104.667
-107.355
-109.759
-111.856
-113.707
-115.34
-116.757
-117.97
-118.995
-119.87
-120.647
-121.392
-122.197
-123.151
-124.346
-125.879
-127.813
-130.186
-133.021
-136.313
-140.044
-144.208
-148.791
-153.788
-159.196
-164.996
-171.157
-177.637
-184.374
-191.31
-198.387
-205.54
-212.712
-219.855
-226.923
-233.884
-240.711
-247.373
-253.834
-260.061
-266.015
-271.661
-276.969
-281.908
-286.452
-290.577
-294.261
-297.486
-300.238
-302.502
-304.265
-305.514
-306.238
-306.43
-306.087
-305.208
-303.798
-301.864
-299.419
-296.478
-293.06
-289.185
-284.877
-280.161
-275.065
-269.618
-263.847
-257.786
-251.468
-244.928
-238.205
-231.335
-224.358
-217.312
-210.239
-203.179
-196.173
-189.262
-182.481
-175.868
-169.463
-163.306
-157.439
-151.899
-146.71
-141.898
-137.479
-133.467
-129.866
-126.673
-123.867
-121.436
-119.366
-117.65
-116.284
-115.259
-114.553
-114.149
-114.028
-114.181
-114.611
-115.326
-116.332
-117.654
-119.33
-121.406
-123.95
-127.005
-130.583
-134.691
-139.309
-144.421
-150.01
-156.037
-162.445
-169.16
-176.088
-183.123
-190.154
-197.033
-203.583
-209.622
-214.955
-219.423
-222.912
-225.323
-226.582
-226.631
-225.425
-222.95
-219.234
-214.313
-208.243
-201.104
-192.985
-184.024
-174.398
-164.277
-153.837
-143.224
-132.547
-121.909
-111.4
-101.087
-91.026
-81.251
-71.771
-62.592
-53.725
-45.156
-36.867
-28.811
-20.912
-13.109
-5.351
2.4
10.161
17.943
25.757
33.595
41.439
49.266
57.047
64.757
72.381
79.894
87.269
94.469
101.451
108.182
114.641
120.81
126.677
132.238
137.487
142.428
147.074
151.436
155.523
159.344
162.904
166.21
169.272
172.103
174.712
177.111
179.307
181.307
183.121
184.755
186.218
187.515
188.648
189.626
190.454
191.14
191.692
192.117
192.423
192.616
192.704
192.695
192.594
192.408
192.14
191.796
191.381
190.9
190.356
189.754
189.096
188.385
187.626
186.82
185.97
185.076
184.141
183.166
182.152
181.099
180.007
178.875
177.7
176.481
175.214
173.894
172.513
171.067
169.547
167.947
166.26
164.478
162.592
160.598
158.488
156.258
153.899
151.405
148.766
145.975
143.028
139.917
136.638
133.186
129.557
125.753
121.777
117.63
113.309
108.807
104.118
99.244
94.194
88.973
83.597
78.082
72.453
66.751
61.014
55.28
49.581
43.938
38.374
32.923
27.625
22.526
17.669
13.071
8.746
4.714
0.969
-2.509
-5.765
-8.882
-11.937
-14.99
-18.105
-21.341
-24.76
-28.444
-32.46
-36.882
-41.806
-47.243
-53.161
-59.472
-65.941
-72.315
-78.329
-83.589
-87.695
-90.391
-91.475
-91.004
-89.396
-86.994
-84.199
-81.585
-79.518
-78.283
-78.267
-79.172
-79.91
-79.611
-76.254
-67.486
-52.688
-30.372
-0.46
35.32
77.99
127.434
183.551
248.156
318.781
391.886
463.185
523.505
565.039
580.65
562.682
510.3
425.641
313.886
187.841
60.437
-54.609
-144.906
-207.701
-245.841
-266.695
-278.506
-283.874
-281.767
-269.359
-245.65
-213.354
-176.977
-141.428
-109.872
-83.816
-64.119
-50.927
-43.813
-41.896
-43.843
-48.288
-54.126
-60.231
-65.476
-68.884
-69.975
-68.843
-65.888
-61.618
-56.502
-51.002
-45.688
-41.184
-37.837
-35.669
-34.537
-34.168
-34.303
-34.765
-35.333
-35.746
-35.868
-35.658
-35.137
-34.403
-33.536
-32.574
-31.57
-30.581
-29.646
-28.807
-28.101
-27.552
-27.196
-27.061
-27.16
-27.504
-28.094
-28.921
-29.973
-31.23
-32.666
-34.26
-35.997
-37.861
-39.836
-41.902
-44.035
-46.211
-48.406
-50.595
-52.757
-54.87
-56.911
-58.865
-60.715
-62.448
-64.053
-65.516
-66.821
-67.955
-68.905
-69.66
-70.207
-70.538
-70.644
-70.518
-70.155
-69.552
-68.708
-67.621
-66.291
-64.718
-62.906
-60.856
-58.574
-56.063
-53.331
-50.383
-47.228
-43.876
-40.336
-36.618
-32.735
-28.697
-24.519
-20.212
-15.791
-11.269
-6.66
-1.98
2.757
7.536
12.342
17.16
21.975
26.772
31.535
36.251
40.904
45.48
49.966
54.347
58.61
62.742
66.729
70.559
74.22
77.697
80.981
84.059
86.919
89.552
91.947
94.095
95.986
97.613
98.967
100.043
100.834
101.335
101.542
101.451
101.061
100.369
99.376
98.083
96.491
94.603
92.423
89.958
87.213
84.197
80.918
77.386
73.614
69.612
65.396
60.981
56.382
51.617
46.704
41.664
36.516
31.281
25.983
20.642
15.283
9.929
4.603
-0.671
-5.869
-10.968
-15.945
-20.776
-25.439
-29.914
-34.179
-38.215
-42.004
-45.528
-48.772
-51.722
-54.365
-56.689
-58.685
-60.346
-61.667
-62.643
-63.274
-63.558
-63.501
-63.105
-62.379
-61.33
-59.971
-58.314
-56.375
-54.169
-51.716
-49.035
-46.149
-43.079
-39.849
-36.486
-33.013
-29.458
-25.846
-22.204
-18.559
-14.938
-11.365
-7.866
-4.466
-1.188
1.945
4.912
7.693
10.27
12.627
14.748
16.621
18.236
19.583
20.656
21.451
21.967
22.203
22.162
21.849
21.272
20.441
19.367
18.066
16.553
14.845
12.962
10.925
8.757
6.479
4.116
1.692
-0.767
-3.236
-5.69
-8.103
-10.451
-12.709
-14.853
-16.86
-18.71
-20.381
-21.856
-23.117
-24.149
-24.938
-25.471
-25.738
-25.73
-25.443
-24.873
-24.022
-22.894
-21.496
-19.836
-17.925
-15.777
-13.407
-10.832
-8.067
-5.126
-2.03
1.2
4.541
7.966
11.453
14.983
18.535
22.087
25.617
29.1
32.519
35.857
39.095
42.207
45.163
47.924
50.465
52.77
54.824
56.617
58.134
59.351
60.257
60.854
61.157
61.202
61.011
60.593
59.978
59.184
58.269
57.35
56.437
55.443
54.309
52.939
51.342
49.712
48.081
46.294
44.375
42.434
40.601
39.178
38.058
36.637
34.581
31.804
28.153
23.631
18.107
11.114
2.806
-5.999
-14.772
-23.183
-31.093
-38.838
-46.547
-53.89
-60.999
-68.449
-76.514
-85.211
-94.103
-102.2
-108.446
-111.949
-111.763
-105.901
-92.501
-71.233
-41.578
-5.05
35.495
80.186
128.04
178.666
234.184
293.572
354.902
413.856
460.329
483.323
474.373
430.45
356.68
262.787
157.711
49.246
-56.824
-154.088
-233.452
-289.637
-320.638
-328.784
-320.749
-299.177
-266.467
-226.738
-184.849
-149.478
-126.706
-116.433
-114.363
-114.212
-112.08
-108.486
-106.466
-107.903
-112.659
-118.785
-123.462
-125.462
-124.836
-121.969
-117.72
-112.801
-107.689
-103.13
-99.7
-97.556
-96.747
-97.137
-98.46
-100.489
-102.906
-105.332
-107.529
-109.397
-110.903
-112.1
-113.021
-113.674
-114.118
-114.42
-114.628
-114.781
-114.89
-114.965
-115.041
-115.162
-115.383
-115.743
-116.257
-116.929
-117.757
-118.734
-119.854
-121.101
-122.451
-123.879
-125.371
-126.91
-128.481
-130.068
-131.644
-133.183
-134.661
-136.052
-137.336
-138.495
-139.511
-140.369
-141.055
-141.558
-141.867
-141.973
-141.863
-141.526
-140.951
-140.13
-139.055
-137.721
-136.122
-134.256
-132.123
-129.725
-127.063
-124.143
-120.969
-117.548
-113.888
-109.998
-105.889
-101.571
-97.059
-92.366
-87.506
-82.495
-77.352
-72.092
-66.735
-61.299
-55.805
-50.273
-44.723
-39.176
-33.653
-28.174
-22.761
-17.434
-12.213
-7.119
-2.169
2.618
7.223
11.631
15.825
19.792
23.518
26.991
30.2
33.136
35.79
38.156
40.228
42.001
43.471
44.637
45.498
46.055
46.309
46.263
45.923
45.295
44.384
43.201
41.754
40.055
38.115
35.947
33.564
30.981
28.213
25.277
22.188
18.964
15.622
12.181
8.657
5.069
1.436
-2.226
-5.898
-9.564
-13.205
-16.806
-20.35
-23.821
-27.205
-30.485
-33.65
-36.684
-39.577
-42.316
-44.891
-47.294
-49.515
-51.548
-53.387
-55.026
-56.462
-57.692
-58.715
-59.529
-60.135
-60.536
-60.733
-60.73
-60.533
-60.146
-59.577
-58.833
-57.921
-56.85
-55.629
-54.268
-52.777
-51.166
-49.447
-47.631
-45.73
-43.755
-41.719
-39.633
-37.51
-35.361
-33.198
-31.032
-28.874
-26.735
-24.624
-22.552
-20.527
-18.559
-16.656
-14.824
-13.07
-11.401
-9.82
-8.331
-6.939
-5.645
-4.451
-3.358
-2.366
-1.474
-0.681
0.018
0.624
1.141
1.577
1.935
2.224
2.45
2.621
2.746
2.834
2.893
2.934
2.968
3.003
3.051
3.123
3.229
3.381
3.59
3.865
4.216
4.654
5.187
5.824
6.574
7.442
8.436
9.562
10.825
12.229
13.777
15.471
17.311
19.297
21.427
23.697
26.104
28.64
31.299
34.074
36.954
39.929
42.987
46.116
49.301
52.528
55.78
59.037
62.282
65.493
68.652
71.738
74.731
77.609
80.356
82.953
85.384
87.633
89.681
91.512
93.11
94.463
95.558
96.385
96.935
97.199
97.176
96.868
96.276
95.4
94.237
92.778
91.023
88.975
86.643
84.037
81.169
78.056
74.724
71.213
67.562
63.809
59.987
56.118
52.241
48.398
44.642
41.032
37.614
34.415
31.464
28.784
26.385
24.268
22.414
20.761
19.248
17.813
16.384
14.896
13.285
11.444
9.23
6.55
3.379
-0.207
-4
-7.794
-11.414
-14.605
-17.037
-18.462
-18.754
-18.083
-17.03
-16.164
-15.95
-16.897
-19.394
-23.645
-29.671
-36.886
-43.912
-49.217
-51.127
-47.818
-37.68
-19.231
8.708
46.578
93.952
149.746
212.021
277.305
340.986
398.404
445.865
482.752
510.207
528.137
534.237
521.098
480.903
409.531
307.26
185.16
58.124
-58.348
-148.254
-207.148
-236.927
-243.987
-240.985
-233.903
-224.473
-213.148
-196.286
-173.779
-148.853
-124.078
-102.858
-87.456
-77.775
-73.182
-72.818
-75.462
-79.912
-85.328
-90.725
-94.831
-97.018
-97.135
-95.182
-91.662
-87.26
-82.473
-77.98
-74.632
-72.849
-72.79
-74.491
-77.675
-82.013
-87.223
-92.864
-98.484
-103.829
-108.747
-113.165
-117.095
-120.497
-123.297
-125.491
-127.093
-128.114
-128.572
-128.465
-127.809
-126.671
-125.161
-123.408
-121.51
-119.521
-117.471
-115.384
-113.284
-111.2
-109.155
-107.145
-105.172
-103.237
-101.343
-99.497
-97.689
-95.89
-94.059
-92.145
-90.114
-87.944
-85.621
-83.137
-80.482
-77.652
-74.648
-71.478
-68.148
-64.66
-61.014
-57.204
-53.235
-49.112
-44.846
-40.446
-35.922
-31.282
-26.534
-21.689
-16.754
-11.736
-6.642
-1.477
3.752
9.035
14.363
19.722
25.102
30.489
35.87
41.232
46.559
51.839
57.058
62.204
67.262
72.22
77.065
81.784
86.365
90.794
95.061
99.153
103.059
106.769
110.272
113.56
116.622
119.452
122.042
124.385
126.475
128.308
129.879
131.184
132.222
132.99
133.489
133.72
133.684
133.384
132.825
132.011
130.95
129.648
128.112
126.352
124.376
122.196
119.821
117.264
114.535
111.648
108.616
105.451
102.167
98.779
95.3
91.744
88.126
84.458
80.756
77.033
73.302
69.577
65.871
62.197
58.565
54.989
51.478
48.044
44.695
41.441
38.289
35.246
32.32
29.516
26.839
24.293
21.882
19.607
17.471
15.476
13.622
11.909
10.336
8.903
7.608
6.45
5.425
4.532
3.767
3.128
2.611
2.212
1.927
1.752
1.684
1.716
1.845
2.066
2.373
2.762
3.227
3.763
4.365
5.028
5.745
6.512
7.323
8.172
9.054
9.963
10.893
11.839
12.795
13.755
14.713
15.663
16.6
17.518
18.41
19.271
20.094
20.874
21.604
22.28
22.895
23.446
23.927
24.334
24.664
24.913
25.079
25.16
25.155
25.062
24.882
24.615
24.263
23.827
23.312
22.722
22.06
21.333
20.547
19.71
18.83
17.915
16.974
16.017
15.054
14.096
13.154
12.24
11.366
10.544
9.786
9.104
8.51
8.016
7.631
7.365
7.228
7.229
7.374
7.671
8.124
8.739
9.519
10.464
11.575
12.851
14.287
15.88
17.621
19.502
21.51
23.632
25.855
28.162
30.535
32.956
35.405
37.862
40.309
42.727
45.094
47.389
49.588
51.669
53.613
55.399
57.007
58.419
59.614
60.577
61.302
61.779
61.999
61.947
61.601
60.944
59.969
58.671
57.05
55.109
52.855
50.302
47.488
44.448
41.219
37.836
34.31
30.66
26.917
23.116
19.325
15.607
11.991
8.511
5.182
1.991
-1.039
-3.906
-6.728
-9.611
-12.671
-16.048
-19.73
-23.681
-28.004
-32.819
-38.144
-43.993
-50.19
-56.422
-62.609
-68.67
-74.357
-79.388
-83.473
-86.406
-88.356
-89.807
-91.192
-92.971
-95.622
-99.569
-105.188
-112.544
-121.214
-130.22
-138.107
-143.097
-143.389
-137.203
-122.715
-98.494
-63.57
-17.372
38.796
101.505
167.242
232.26
294.538
356.169
417.709
475.564
522.584
545.738
533.001
481.251
393.808
280.054
154.228
27.582
-90.18
-188.741
-263.088
-311.657
-335.415
-339.469
-328.095
-303.987
-271.854
-238.264
-209.733
-191.683
-184.32
-182.185
-180.303
-175.825
-169.222
-164.572
-164.13
-167.396
-172.647
-176.802
-177.914
-175.856
-170.808
-163.243
-153.806
-142.967
-131.342
-119.808
-108.972
-99.071
-90.226
-82.376
-75.354
-69.049
-63.23
-57.542
-51.742
-45.677
-39.289
-32.659
-25.89
-19.091
-12.374
-5.831
0.468
6.464
12.137
17.496
22.576
27.441
32.121
36.618
40.918
44.987
48.826
52.47
55.967
59.385
62.784
66.198
69.668
73.235
76.915
80.706
84.58
88.47
92.338
96.171
99.965
103.734
107.482
111.199
114.88
118.522
122.124
125.688
129.216
132.703
136.159
139.605
143.073
146.611
150.259
154.04
157.975
162.077
166.358
170.834
175.521
180.419
185.524
190.832
196.335
202.027
207.893
213.907
220.029
226.211
232.404
238.564
244.654
250.632
256.447
262.042
267.355
272.344
276.986
281.263
285.155
288.636
291.698
294.362
296.697
298.792
300.722
302.536
304.294
306.079
307.932
309.853
311.767
313.48
314.823
315.689
315.939
315.467
314.346
312.792
311.206
310.137
309.953
310.835
312.942
316.193
320.09
323.696
325.557
324.089
318.041
306.433
288.501
263.866
232.706
195.936
155.34
112.922
70.563
30.082
-7.014
-39.493
-66.534
-88.048
-104.715
-117.438
-127.299
-135.565
-143.142
-150.784
-159.002
-167.73
-176.585
-185.161
-192.868
-198.991
-203.255
-205.612
-206.197
-205.558
-204.185
-202.32
-200.191
-197.985
-195.38
-191.69
-186.159
-177.81
-165.868
-150.037
-130.213
-106.41
-79.261
-49.863
-19.27
11.22
40.304
67.139
90.98
111.051
127.156
139.302
147.199
150.897
150.608
146.19
137.59
124.889
107.835
86.576
61.924
34.494
5.01
-25.341
-55.343
-83.58
-108.446
-129.058
-145.203
-156.677
-163.641
-166.659
-166.505
-164.487
-162.009
-159.863
-158.445
-157.983
-158.409
-159.579
-161.214
-162.64
-163.257
-162.808
-161.235
-158.733
-155.628
-152.155
-148.574
-145.231
-142.345
-140.044
-138.383
-137.279
-136.629
-136.361
-136.374
-136.596
-136.991
-137.506
-138.084
-138.657
-139.125
-139.419
-139.503
-139.343
-138.924
-138.241
-137.288
-136.093
-134.7
-133.143
-131.456
-129.66
-127.764
-125.795
-123.788
-121.781
-119.824
-117.949
-116.178
-114.533
-113.03
-111.677
-110.483
-109.439
-108.532
-107.755
-107.103
-106.574
-106.166
-105.877
-105.702
-105.636
-105.678
-105.825
-106.076
-106.428
-106.882
-107.437
-108.095
-108.856
-109.721
-110.689
-111.761
-112.938
-114.22
-115.608
-117.099
-118.693
-120.391
-122.19
-124.089
-126.083
-128.165
-130.331
-132.582
-134.92
-137.354
-139.892
-142.533
-145.275
-148.116
-151.047
-154.058
-157.126
-160.215
-163.291
-166.326
-169.293
-172.172
-174.942
-177.566
-180.014
-182.247
-184.232
-185.953
-187.412
-188.606
-189.557
-190.296
-190.858
-191.326
-191.79
-192.331
-193.044
-194.01
-195.272
-196.918
-199.061
-201.74
-204.955
-208.596
-212.371
-215.993
-219.265
-221.906
-223.592
-224.102
-223.288
-221.295
-218.713
-216.194
-214.127
-212.845
-212.825
-214.24
-216.96
-220.558
-222.934
-221.658
-215.994
-204.636
-187.784
-166.179
-136.332
-96.169
-44.918
16.982
82.963
146.787
206.003
260.65
311.589
357.003
388.378
391.9
360.089
292.229
194.718
83.186
-31.002
-138.993
-230.483
-300.323
-342.434
-353.122
-337.432
-302.09
-255.81
-208.195
-162.734
-121.337
-85.529
-53.036
-24.149
0.136
20.627
35.446
44.149
48.124
48.089
46.263
44.944
45.343
48.257
53.715
61.234
70.248
80.115
90.191
99.74
108.008
114.637
119.589
122.987
125.135
126.338
126.808
126.831
126.718
126.619
126.598
126.676
126.792
126.918
127.073
127.228
127.339
127.359
127.186
126.776
126.159
125.295
124.131
122.541
120.285
117.277
113.597
109.321
104.532
99.335
93.843
88.445
83.833
80.415
78.236
77.052
76.322
75.577
74.36
71.803
66.69
58.08
45.562
29.404
10.548
-10.092
-31.546
-52.436
-71.21
-86.425
-97.087
-102.979
-104.603
-102.604
-97.799
-91.293
-84.128
-77.328
-71.696
-67.544
-64.792
-63.205
-62.36
-61.709
-60.879
-59.57
-57.576
-54.895
-51.607
-47.831
-43.776
-39.684
-35.685
-31.832
-28.127
-24.49
-20.849
-17.169
-13.405
-9.514
-5.479
-1.287
3.055
7.509
12.041
16.626
21.241
25.87
30.489
35.052
39.509
43.81
47.902
51.746
55.315
58.581
61.525
64.133
66.394
68.307
69.876
71.101
71.979
72.509
72.69
72.53
72.038
71.228
70.115
68.711
67.03
65.088
62.9
60.48
57.842
55.002
51.972
48.769
45.412
41.921
38.315
34.617
30.845
27.02
23.164
19.296
15.434
11.597
7.8
4.06
0.393
-3.188
-6.669
-10.039
-13.285
-16.398
-19.369
-22.191
-24.856
-27.359
-29.695
-31.862
-33.856
-35.676
-37.322
-38.792
-40.09
-41.215
-42.172
-42.963
-43.593
-44.068
-44.392
-44.572
-44.614
-44.526
-44.314
-43.987
-43.55
-43.01
-42.376
-41.654
-40.849
-39.969
-39.019
-38.006
-36.934
-35.808
-34.635
-33.418
-32.163
-30.874
-29.555
-28.212
-26.85
-25.473
-24.086
-22.693
-21.3
-19.91
-18.529
-17.159
-15.806
-14.473
-13.164
-11.882
-10.631
-9.415
-8.237
-7.1
-6.008
-4.964
-3.97
-3.032
-2.151
-1.331
-0.575
0.114
0.732
1.277
1.748
2.142
2.458
2.696
2.857
2.943
2.959
2.909
2.798
2.631
2.415
2.158
1.866
1.546
1.205
0.849
0.488
0.13
-0.216
-0.538
-0.826
-1.069
-1.253
-1.368
-1.398
-1.333
-1.163
-0.875
-0.459
0.099
0.816
1.703
2.767
4.009
5.429
7.02
8.774
10.674
12.693
14.806
16.989
19.223
21.492
23.781
26.077
28.363
30.619
32.839
35.027
37.195
39.361
41.548
43.78
46.091
48.531
51.138
53.934
56.932
60.125
63.494
67.01
70.638
74.334
78.037
81.665
85.119
88.289
91.063
93.333
94.986
95.901
95.976
95.129
93.31
90.496
86.696
81.944
76.291
69.798
62.551
54.652
46.232
37.446
28.441
19.36
10.345
1.533
-6.949
-14.988
-22.508
-29.462
-35.845
-41.704
-47.084
-52.035
-56.615
-60.864
-64.854
-68.697
-72.489
-76.331
-80.307
-84.458
-88.856
-93.611
-98.744
-104.178
-109.687
-114.814
-119.116
-122.258
-123.863
-123.561
-121.144
-116.549
-110.116
-102.734
-95.336
-88.706
-83.592
-80.521
-79.661
-80.864
-83.203
-84.759
-83.369
-76.873
-63.027
-39.926
-6.186
39.289
95.703
159.741
227.662
295.098
359.089
420.456
478.921
531.834
573.718
592.636
577.532
523.375
430.317
308.772
174.525
42.314
-73.097
-162.087
-221.925
-253.97
-263.433
-258.211
-243.846
-222.573
-198.079
-171.451
-143.916
-120.048
-99.421
-82.051
-69.191
-58.895
-52.23
-50.201
-51.736
-56.498
-62.923
-69.044
-73.543
-75.581
-75.052
-72.165
-67.34
-61.129
-53.958
-46.451
-39.464
-33.446
-28.581
-24.908
-22.169
-20.105
-18.525
-17.104
-15.491
-13.505
-11.052
-8.123
-4.813
-1.181
2.731
6.842
11.079
15.383
19.702
24.003
28.258
32.414
36.408
40.176
43.666
46.849
49.705
52.224
54.401
56.235
57.737
58.924
59.808
60.401
60.716
60.765
60.566
60.146
59.531
58.747
57.825
56.788
55.662
54.472
53.238
51.983
50.728
49.491
48.295
47.162
46.114
45.172
44.357
43.688
43.184
42.859
42.729
42.806
43.099
43.616
44.364
45.347
46.568
48.026
49.72
51.645
53.795
56.163
58.737
61.508
64.46
67.58
70.852
74.257
77.779
81.397
85.091
88.841
92.626
96.425
100.215
103.975
107.684
111.319
114.861
118.288
121.581
124.72
127.688
130.466
133.041
135.396
137.518
139.396
141.019
142.377
143.465
144.275
144.804
145.049
145.007
144.68
144.067
143.173
142
140.555
138.841
136.868
134.643
132.175
129.474
126.551
123.417
120.084
116.566
112.875
109.025
105.03
100.904
96.663
92.32
87.891
83.392
78.836
74.239
69.616
64.98
60.347
55.729
51.14
46.594
42.101
37.674
33.325
29.065
24.903
20.851
16.917
13.109
9.437
5.908
2.528
-0.695
-3.757
-6.651
-9.375
-11.924
-14.295
-16.486
-18.496
-20.323
-21.967
-23.43
-24.713
-25.817
-26.747
-27.505
-28.096
-28.525
-28.797
-28.918
-28.896
-28.736
-28.448
-28.039
-27.518
-26.894
-26.177
-25.376
-24.503
-23.566
-22.578
-21.549
-20.49
-19.412
-18.326
-17.243
-16.173
-15.128
-14.116
-13.149
-12.236
-11.384
-10.604
-9.903
-9.287
-8.764
-8.339
-8.018
-7.804
-7.7
-7.71
-7.835
-8.075
-8.431
-8.902
-9.486
-10.18
-10.98
-11.882
-12.881
-13.969
-15.139
-16.385
-17.696
-19.064
-20.478
-21.928
-23.405
-24.895
-26.388
-27.873
-29.337
-30.768
-32.154
-33.483
-34.743
-35.922
-37.008
-37.992
-38.862
-39.608
-40.221
-40.691
-41.012
-41.176
-41.175
-41.005
-40.66
-40.136
-39.432
-38.545
-37.475
-36.223
-34.791
-33.182
-31.401
-29.453
-27.345
-25.085
-22.681
-20.142
-17.479
-14.705
-11.831
-8.871
-5.84
-2.756
0.364
3.503
6.64
9.759
12.838
15.86
18.807
21.662
24.411
27.037
29.524
31.856
34.017
35.993
37.772
39.343
40.697
41.824
42.72
43.386
43.824
44.032
44.006
43.735
43.211
42.432
41.401
40.122
38.608
36.869
34.931
32.829
30.601
28.283
25.908
23.495
21.073
18.679
16.357
14.169
12.165
10.384
8.857
7.605
6.633
5.933
5.471
5.192
5.028
4.907
4.758
4.509
4.078
3.391
2.334
0.746
-1.473
-4.34
-7.752
-11.436
-15.081
-18.422
-21.109
-22.724
-22.984
-21.791
-19.45
-16.735
-14.5
-13.471
-14.251
-17.29
-22.772
-30.482
-39.395
-47.63
-52.848
-52.671
-45.084
-28.187
-0.356
39.435
91.432
153.841
222.88
294.684
365.208
432.409
496.635
555.316
604.298
635.691
638.658
609.952
550.872
468.655
374.654
272.377
165.21
57.393
-45.22
-127.854
-180.232
-200.143
-192.513
-171.895
-149.2
-129.134
-112.339
-94.446
-74.242
-53.617
-34.836
-21.377
-14.315
-12.443
-14.581
-19.145
-24.623
-30.304
-35.336
-38.554
-39.516
-38.274
-35.01
-30.285
-24.724
-18.677
-12.659
-7.416
-3.303
-0.434
1.184
1.809
1.699
1.01
0.021
-0.91
-1.581
-1.875
-1.747
-1.263
-0.461
0.652
2.022
3.589
5.304
7.122
9.016
10.977
12.968
14.942
16.846
18.624
20.241
21.679
22.927
23.98
24.84
25.516
26.024
26.386
26.619
26.739
26.761
26.7
26.574
26.405
26.215
26.027
25.86
25.731
25.656
25.65
25.723
25.887
26.151
26.519
27.001
27.605
28.336
29.203
30.21
31.36
32.656
34.1
35.69
37.424
39.299
41.31
43.449
45.711
48.086
50.565
53.137
55.792
58.517
61.299
64.125
66.98
69.851
72.72
75.575
78.397
81.173
83.886
86.521
89.063
91.496
93.807
95.982
98.007
99.869
101.556
103.056
104.36
105.457
106.337
106.994
107.421
107.611
107.56
107.264
106.72
105.927
104.883
103.588
102.043
100.251
98.212
95.931
93.412
90.66
87.682
84.483
81.072
77.456
73.645
69.647
65.472
61.132
56.636
51.996
47.225
42.335
37.338
32.248
27.077
21.839
16.547
11.215
5.856
0.485
-4.886
-10.244
-15.575
-20.865
-26.103
-31.275
-36.369
-41.374
-46.279
-51.072
-55.744
-60.284
-64.685
-68.937
-73.034
-76.968
-80.733
-84.325
-87.738
-90.97
-94.018
-96.881
-99.558
-102.048
-104.354
-106.478
-108.422
-110.191
-111.787
-113.217
-114.486
-115.601
-116.568
-117.395
-118.092
-118.665
-119.126
-119.483
-119.746
-119.926
-120.033
-120.077
-120.068
-120.019
-119.938
-119.838
-119.728
-119.62
-119.524
-119.45
-119.409
-119.409
-119.46
-119.571
-119.748
-120
-120.333
-120.751
-121.262
-121.869
-122.577
-123.39
-124.312
-125.345
-126.49
-127.75
-129.125
-130.614
-132.218
-133.934
-135.761
-137.697
-139.74
-141.885
-144.13
-146.469
-148.898
-151.41
-153.999
-156.655
-159.372
-162.138
-164.945
-167.782
-170.637
-173.499
-176.358
-179.204
-182.028
-184.819
-187.567
-190.262
-192.895
-195.455
-197.931
-200.31
-202.578
-204.723
-206.732
-208.597
-210.306
-211.852
-213.223
-214.414
-215.42
-216.237
-216.856
-217.27
-217.463
-217.429
-217.173
-216.702
-216.033
-215.182
-214.16
-212.987
-211.691
-210.289
-208.793
-207.203
-205.502
-203.688
-201.768
-199.76
-197.701
-195.612
-193.497
-191.36
-189.2
-187.016
-184.813
-182.578
-180.278
-177.906
-175.482
-173.052
-170.71
-168.52
-166.525
-164.758
-163.231
-161.97
-161.023
-160.422
-160.193
-160.364
-160.958
-162.029
-163.662
-165.906
-168.764
-172.198
-176.117
-180.453
-185.159
-190.185
-195.482
-200.981
-206.605
-212.296
-218.017
-223.725
-229.362
-234.843
-240.046
-244.879
-249.289
-253.265
-256.82
-259.962
-262.708
-265.093
-267.179
-269.051
-270.765
-272.364
-273.897
-275.415
-277.009
-278.789
-280.84
-283.272
-286.219
-289.727
-293.78
-298.237
-302.72
-306.831
-310.232
-312.51
-313.282
-312.35
-309.658
-305.572
-301.019
-296.965
-294.248
-293.617
-295.565
-300.228
-307.361
-315.852
-323.538
-327.95
-326.646
-317.195
-297.594
-266.249
-221.929
-165.64
-100.922
-31.623
37.81
105.531
173.132
238.646
297.328
339.278
349.922
323.101
259.816
168.715
64.641
-45.655
-159.027
-272.719
-384.678
-483.854
-557.65
-599.845
-607.729
-587.602
-551.423
-508.558
-469.267
-440.674
-423.145
-414.968
-411.048
-405.964
-399.027
-391.568
-385.191
-381.556
-380.393
-380.712
-383.203
-385.832
-383.449
-371.086
-343.01
-299.481
-247.81
-194.831
-147.509
-108.783
-76.264
-49.167
-27.018
-9.647
1.678
7.405
9.033
7.83
5.295
2.76
0.996
0.497
1.417
3.41
5.964
8.627
11.13
13.316
15.145
16.7
18.092
19.536
21.323
23.696
26.777
30.582
35.055
40.107
45.67
51.671
58.005
64.554
71.204
77.864
84.456
90.906
97.152
103.151
108.875
114.328
119.526
124.495
129.27
133.891
138.388
142.794
147.138
151.445
155.749
160.084
164.486
168.996
173.645
178.449
183.422
188.564
193.872
199.337
204.944
210.673
216.504
222.423
228.413
234.465
240.562
246.687
252.822
258.947
265.043
271.095
277.084
282.995
288.811
294.518
300.103
305.555
310.861
316.006
320.976
325.758
330.336
334.699
338.832
342.724
346.361
349.732
352.828
355.639
358.156
360.372
362.278
363.868
365.137
366.081
366.694
366.974
366.918
366.526
365.797
364.733
363.334
361.605
359.548
357.169
354.473
351.468
348.16
344.558
340.671
336.51
332.085
327.409
322.494
317.355
312.004
306.459
300.734
294.846
288.812
282.65
276.376
270.01
263.569
257.072
250.537
243.984
237.429
230.892
224.39
217.94
211.56
205.264
199.069
192.989
187.039
181.231
175.578
170.09
164.779
159.652
154.719
149.985
145.458
141.141
137.037
133.149
129.478
126.024
122.784
119.757
116.938
114.324
111.908
109.684
107.645
105.784
104.091
102.557
101.175
99.934
98.824
97.836
96.961
96.188
95.508
94.911
94.39
93.935
93.538
93.191
92.887
92.619
92.381
92.168
91.974
91.795
91.627
91.468
91.314
91.165
91.02
90.877
90.738
90.603
90.473
90.35
90.235
90.131
90.04
89.964
89.905
89.866
89.848
89.854
89.884
89.94
90.022
90.132
90.268
90.43
90.618
90.828
91.061
91.312
91.579
91.86
92.149
92.444
92.74
93.03
93.311
93.575
93.817
94.031
94.209
94.345
94.433
94.466
94.438
94.343
94.175
93.928
93.598
93.179
92.668
92.062
91.357
90.552
89.645
88.637
87.529
86.321
85.015
83.615
82.123
80.543
78.881
77.139
75.324
73.442
71.498
69.499
67.453
65.367
63.247
61.101
58.937
56.761
54.579
52.397
50.218
48.047
45.888
43.743
41.616
39.508
37.42
35.357
33.322
31.315
29.338
27.39
25.469
23.572
21.697
19.843
18.006
16.182
14.37
12.572
10.789
9.021
7.264
5.506
3.736
1.948
0.137
-1.7
-3.56
-5.441
-7.33
-9.2
-11.024
-12.779
-14.438
-15.993
-17.428
-18.722
-19.849
-20.775
-21.466
-21.909
-22.09
-21.998
-21.65
-21.074
-20.326
-19.496
-18.666
-17.915
-17.336
-17.007
-17.02
-17.474
-18.438
-20.013
-22.323
-25.417
-29.28
-33.79
-38.643
-43.501
-48.049
-51.864
-54.483
-55.574
-54.966
-52.874
-49.937
-46.867
-44.308
-42.863
-43.101
-45.387
-49.672
-55.11
-60.023
-62.355
-60.038
-51.053
-33.361
-5.12
35.087
86.653
146.693
211.887
278.29
344.62
412.323
479.141
540.652
587.112
603.714
583.989
527.742
442.168
342.671
237.228
129.617
23.014
-82.488
-178.767
-253.686
-301.062
-317.467
-307.697
-284.71
-256.365
-228.742
-205.27
-181.004
-154.397
-125.631
-94.054
-64.806
-41.43
-24.55
-15.204
-11.648
-11.803
-15.196
-20.853
-27.574
-34.371
-40.045
-43.903
-46.07
-46.872
-46.534
-45.403
-44.008
-42.958
-42.951
-44.344
-47.002
-50.633
-54.945
-59.665
-64.557
-69.322
-73.545
-76.954
-79.464
-81.075
-81.871
-81.923
-81.25
-79.901
-77.993
-75.64
-72.967
-70.104
-67.111
-64.035
-60.931
-57.842
-54.823
-51.922
-49.149
-46.498
-43.969
-41.56
-39.277
-37.125
-35.08
-33.109
-31.174
-29.23
-27.253
-25.224
-23.124
-20.941
-18.662
-16.279
-13.795
-11.221
-8.561
-5.814
-2.978
-0.051
2.964
6.061
9.234
12.479
15.789
19.16
22.587
26.062
29.583
33.145
36.746
40.383
44.052
47.747
51.46
55.185
58.911
62.63
66.331
70.002
73.632
77.211
80.728
84.171
87.53
90.793
93.949
96.987
99.896
102.665
105.283
107.739
110.024
112.126
114.038
115.75
117.255
118.546
119.616
120.461
121.075
121.454
121.596
121.498
121.16
120.579
119.758
118.698
117.402
115.874
114.118
112.141
109.95
107.551
104.954
102.167
99.2
96.062
92.765
89.32
85.738
82.033
78.217
74.303
70.305
66.236
62.11
57.941
53.743
49.527
45.308
41.099
36.911
32.757
28.65
24.599
20.616
16.711
12.894
9.174
5.558
2.054
-1.332
-4.595
-7.729
-10.73
-13.596
-16.323
-18.911
-21.358
-23.663
-25.828
-27.853
-29.74
-31.491
-33.11
-34.6
-35.964
-37.208
-38.334
-39.348
-40.255
-41.06
-41.767
-42.383
-42.911
-43.358
-43.73
-44.031
-44.266
-44.441
-44.56
-44.628
-44.65
-44.629
-44.569
-44.473
-44.346
-44.189
-44.005
-43.798
-43.567
-43.316
-43.046
-42.758
-42.453
-42.132
-41.795
-41.442
-41.075
-40.694
-40.299
-39.89
-39.469
-39.034
-38.587
-38.127
-37.656
-37.173
-36.678
-36.171
-35.654
-35.127
-34.589
-34.042
-33.486
-32.921
-32.348
-31.767
-31.179
-30.584
-29.983
-29.377
-28.767
-28.153
-27.536
-26.917
-26.297
-25.675
-25.052
-24.429
-23.805
-23.179
-22.551
-21.921
-21.288
-20.651
-20.01
-19.364
-18.712
-18.054
-17.389
-16.715
-16.033
-15.342
-14.642
-13.932
-13.214
-12.487
-11.753
-11.013
-10.268
-9.522
-8.775
-8.032
-7.293
-6.564
-5.846
-5.146
-4.466
-3.814
-3.194
-2.613
-2.081
-1.607
-1.199
-0.865
-0.617
-0.463
-0.413
-0.474
-0.653
-0.955
-1.387
-1.956
-2.668
-3.53
-4.545
-5.718
-7.049
-8.543
-10.2
-12.017
-13.985
-16.099
-18.352
-20.744
-23.279
-25.955
-28.768
-31.707
-34.761
-37.914
-41.149
-44.436
-47.733
-51
-54.198
-57.297
-60.273
-63.095
-65.728
-68.131
-70.259
-72.082
-73.575
-74.717
-75.508
-75.957
-76.092
-75.969
-75.656
-75.23
-74.78
-74.383
-74.126
-74.098
-74.365
-75.025
-76.199
-77.935
-80.228
-82.981
-85.939
-88.841
-91.46
-93.461
-94.465
-94.211
-92.542
-89.639
-86.042
-82.311
-78.943
-76.412
-75.157
-75.466
-77.338
-80.119
-82.49
-82.816
-79.391
-70.719
-55.214
-31.377
1.829
44.83
96.205
152.762
211.269
268.222
322.144
373.88
421.312
460.757
484.355
480.488
444.788
377.827
286.622
184.336
77.296
-30.702
-136.24
-237.513
-325.772
-391.758
-430.8
-441.107
-427.94
-398.491
-359.898
-320.583
-285.623
-259.247
-241.928
-229.003
-217.512
-204.529
-189.602
-176.355
-166.277
-159.746
-156.575
-154.492
-151.998
-148.584
-143.622
-137.223
-129.893
-121.943
-113.677
-105.472
-97.659
-90.608
-84.851
-80.665
-77.972
-76.611
-76.307
-76.749
-77.72
-78.956
-80.111
-80.961
-81.377
-81.261
-80.621
-79.473
-77.799
-75.632
-73.021
-70.011
-66.666
-63.053
-59.24
-55.314
-51.368
-47.491
-43.76
-40.231
-36.95
-33.956
-31.271
-28.902
-26.851
-25.102
-23.64
-22.452
-21.51
-20.784
-20.237
-19.827
-19.507
-19.23
-18.953
-18.641
-18.267
-17.805
-17.237
-16.547
-15.723
-14.76
-13.65
-12.383
-10.951
-9.347
-7.564
-5.6
-3.455
-1.13
1.374
4.053
6.905
9.927
13.114
16.461
19.963
23.613
27.404
31.324
35.36
39.496
43.718
48.007
52.345
56.714
61.093
65.463
69.802
74.093
78.314
82.444
86.463
90.351
94.086
97.648
101.018
104.176
107.104
109.783
112.197
114.33
116.166
117.693
118.898
119.769
120.297
120.473
120.291
119.745
118.833
117.553
115.906
113.892
111.517
108.785
105.704
102.281
98.527
94.453
90.07
85.394
80.438
75.22
69.755
64.063
58.163
52.074
45.819
39.417
32.892
26.266
19.562
12.802
6.012
-0.788
-7.572
-14.319
-21.007
-27.612
-34.115
-40.495
-46.732
-52.808
-58.707
-64.41
-69.902
-75.17
-80.2
-84.98
-89.499
-93.746
-97.714
-101.395
-104.783
-107.874
-110.663
-113.149
-115.331
-117.209
-118.784
-120.059
-121.036
-121.721
-122.119
-122.236
-122.081
-121.661
-120.986
-120.064
-118.907
-117.524
-115.927
-114.126
-112.134
-109.961
-107.621
-105.124
-102.486
-99.717
-96.833
-93.846
-90.771
-87.622
-84.411
-81.154
-77.862
-74.55
-71.231
-67.916
-64.619
-61.351
-58.126
-54.954
-51.848
-48.818
-45.876
-43.03
-40.291
-37.666
-35.165
-32.796
-30.566
-28.482
-26.551
-24.78
-23.173
-21.737
-20.475
-19.389
-18.48
-17.75
-17.196
-16.816
-16.604
-16.556
-16.666
-16.927
-17.334
-17.877
-18.55
-19.343
-20.252
-21.265
-22.371
-23.558
-24.81
-26.112
-27.45
-28.806
-30.162
-31.5
-32.804
-34.058
-35.251
-36.369
-37.394
-38.308
-39.088
-39.718
-40.188
-40.487
-40.609
-40.552
-40.32
-39.929
-39.408
-38.777
-38.042
-37.207
-36.264
-35.204
-34.029
-32.732
-31.309
-29.757
-28.067
-26.236
-24.275
-22.175
-19.921
-17.476
-14.779
-11.796
-8.522
-4.968
-1.168
2.831
6.983
11.218
15.445
19.588
23.571
27.333
30.839
34.035
36.85
39.199
40.965
42.058
42.429
42.049
40.911
39.04
36.471
33.278
29.578
25.481
21.08
16.459
11.679
6.802
1.905
-2.929
-7.614
-12.05
-16.155
-19.857
-23.084
-25.812
-28.07
-29.893
-31.331
-32.487
-33.477
-34.499
-35.852
-37.695
-40.04
-42.866
-46.139
-49.832
-53.885
-57.94
-61.291
-63.403
-64.044
-63.217
-61.107
-57.78
-53.309
-48.238
-43.7
-40.877
-40.612
-43.264
-48.742
-56.966
-67.722
-80.214
-92.851
-103.497
-109.97
-110.33
-102.968
-86.461
-59.629
-21.779
26.894
85.184
150.479
218.729
285.725
348.059
404.768
456.198
500.763
533.536
545.292
528.014
480.159
406.621
318.127
223.378
125.865
27.979
-67.666
-153.282
-218.24
-256.543
-268.222
-260.598
-243.116
-221.625
-198.308
-171.873
-141.904
-110.648
-81.371
-58.051
-42.847
-35.604
-35.423
-40.782
-49.812
-60.857
-72.186
-81.836
-88.615
-92.111
-92.241
-89.45
-84.504
-78.152
-71.317
-65.084
-60.064
-56.484
-54.411
-53.614
-53.798
-54.687
-55.874
-56.933
-57.637
-57.894
-57.696
-57.124
-56.22
-55.01
-53.563
-51.946
-50.207
-48.374
-46.454
-44.455
-42.408
-40.367
-38.386
-36.507
-34.748
-33.119
-31.623
-30.259
-29.029
-27.921
-26.915
-26.001
-25.167
-24.405
-23.708
-23.063
-22.449
-21.847
-21.238
-20.6
-19.92
-19.184
-18.38
-17.497
-16.528
-15.466
-14.307
-13.046
-11.675
-10.188
-8.579
-6.844
-4.979
-2.982
-0.852
1.411
3.804
6.324
8.966
11.725
14.594
17.565
20.63
23.779
27.004
30.292
33.634
37.018
40.429
43.857
47.287
50.707
54.101
57.458
60.763
64.002
67.163
70.234
73.201
76.053
78.779
81.367
83.809
86.094
88.213
90.158
91.922
93.5
94.885
96.075
97.067
97.859
98.45
98.841
99.033
99.027
98.827
98.435
97.856
97.095
96.157
95.048
93.775
92.345
90.765
89.043
87.188
85.208
83.111
80.906
78.602
76.207
73.731
71.182
68.568
65.899
63.183
60.429
57.644
54.837
52.014
49.183
46.35
43.52
40.7
37.895
35.109
32.346
29.611
26.908
24.239
21.607
19.017
16.468
13.965
11.508
9.1
6.742
4.435
2.18
-0.022
-2.168
-4.259
-6.294
-8.272
-10.192
-12.054
-13.857
-15.601
-17.284
-18.908
-20.47
-21.971
-23.408
-24.782
-26.091
-27.333
-28.508
-29.614
-30.65
-31.613
-32.504
-33.321
-34.062
-34.726
-35.314
-35.823
-36.254
-36.605
-36.879
-37.073
-37.189
-37.229
-37.192
-37.08
-36.896
-36.641
-36.317
-35.927
-35.474
-34.962
-34.393
-33.77
-33.099
-32.384
-31.628
-30.838
-30.017
-29.172
-28.307
-27.429
-26.543
-25.654
-24.769
-23.892
-23.029
-22.185
-21.365
-20.573
-19.813
-19.088
-18.403
-17.759
-17.16
-16.606
-16.099
-15.639
-15.226
-14.859
-14.537
-14.257
-14.017
-13.813
-13.642
-13.5
-13.381
-13.281
-13.194
-13.113
-13.032
-12.944
-12.843
-12.72
-12.567
-12.378
-12.144
-11.858
-11.514
-11.105
-10.623
-10.063
-9.42
-8.688
-7.865
-6.946
-5.929
-4.812
-3.595
-2.279
-0.866
0.642
2.238
3.916
5.668
7.485
9.356
11.27
13.215
15.179
17.149
19.114
21.063
22.981
24.855
26.669
28.407
30.055
31.598
33.023
34.316
35.463
36.452
37.279
37.936
38.415
38.705
38.785
38.639
38.261
37.646
36.793
35.709
34.399
32.879
31.183
29.341
27.385
25.342
23.226
21.056
18.865
16.695
14.6
12.627
10.802
9.143
7.665
6.372
5.251
4.266
3.348
2.423
1.421
0.279
-1.06
-2.667
-4.613
-6.997
-9.96
-13.579
-17.848
-22.674
-27.828
-33.056
-38.131
-42.721
-46.407
-48.898
-50.037
-49.961
-49.235
-48.398
-47.898
-48.248
-49.802
-52.724
-57.026
-62.114
-66.628
-69.097
-67.862
-61.111
-47.444
-25.601
5.627
46.698
97.231
156.495
221.861
289.024
354.282
413.358
464.704
510.558
550.005
581.045
598.057
588.747
546.96
470.502
361.243
233.764
101.871
-19.727
-113.571
-175.042
-204.557
-208.071
-200.289
-188.626
-175.754
-162.211
-143.187
-117.92
-89.738
-61.663
-37.844
-20.976
-10.968
-7.052
-8.159
-12.852
-19.723
-27.728
-35.666
-42.046
-46.13
-47.74
-46.877
-44.067
-39.984
-35.045
-29.876
-25.328
-21.82
-19.512
-18.435
-18.306
-18.835
-19.839
-21.007
-21.984
-22.592
-22.734
-22.392
-21.654
-20.575
-19.183
-17.547
-15.735
-13.796
-11.774
-9.696
-7.582
-5.474
-3.424
-1.486
0.301
1.912
3.335
4.564
5.596
6.433
7.083
7.563
7.882
8.049
8.072
7.959
7.725
7.389
6.969
6.486
5.961
5.41
4.85
4.297
3.764
3.263
2.807
2.405
2.072
1.819
1.661
1.609
1.677
1.874
2.212
2.698
3.342
4.147
5.119
6.262
7.577
9.067
10.731
12.568
14.576
16.751
19.089
21.583
24.225
27.005
29.914
32.939
36.067
39.285
42.578
45.93
49.325
52.746
56.176
59.599
62.994
66.345
69.634
72.841
75.949
78.94
81.797
84.502
87.039
89.392
91.546
93.488
95.204
96.682
97.911
98.879
99.579
100.002
100.142
99.993
99.551
98.816
97.784
96.458
94.84
92.933
90.743
88.275
85.539
82.542
79.295
75.81
72.1
68.177
64.059
59.759
55.295
50.683
45.943
41.092
36.149
31.134
26.067
20.966
15.851
10.743
5.661
0.624
-4.349
-9.238
-14.028
-18.699
-23.237
-27.626
-31.851
-35.899
-39.759
-43.42
-46.872
-50.107
-53.117
-55.897
-58.443
-60.751
-62.82
-64.649
-66.238
-67.59
-68.707
-69.594
-70.256
-70.699
-70.931
-70.96
-70.794
-70.443
-69.918
-69.229
-68.389
-67.409
-66.302
-65.081
-63.759
-62.349
-60.864
-59.318
-57.722
-56.09
-54.434
-52.765
-51.095
-49.435
-47.796
-46.187
-44.618
-43.098
-41.636
-40.24
-38.915
-37.67
-36.509
-35.437
-34.458
-33.575
-32.791
-32.108
-31.528
-31.052
-30.681
-30.414
-30.25
-30.187
-30.224
-30.357
-30.582
-30.896
-31.295
-31.773
-32.326
-32.949
-33.635
-34.381
-35.179
-36.023
-36.906
-37.82
-38.758
-39.71
-40.668
-41.623
-42.564
-43.483
-44.372
-45.223
-46.029
-46.781
-47.473
-48.099
-48.651
-49.12
-49.499
-49.776
-49.941
-49.985
-49.901
-49.681
-49.321
-48.814
-48.157
-47.35
-46.392
-45.28
-44.008
-42.565
-40.946
-39.153
-37.195
-35.083
-32.841
-30.486
-28.038
-25.528
-22.977
-20.4
-17.802
-15.174
-12.508
-9.805
-7.078
-4.353
-1.655
1.009
3.636
6.228
8.801
11.368
13.946
16.575
19.275
22.033
24.821
27.568
30.19
32.63
34.846
36.811
38.51
39.905
40.954
41.62
41.852
41.601
40.815
39.409
37.328
34.574
31.183
27.253
22.912
18.255
13.361
8.301
3.128
-2.089
-7.274
-12.368
-17.302
-22.01
-26.423
-30.443
-34.005
-37.107
-39.796
-42.192
-44.436
-46.628
-48.86
-51.229
-53.811
-56.698
-59.974
-63.675
-67.858
-72.606
-77.942
-83.86
-90.234
-96.755
-103.072
-108.826
-113.59
-116.926
-118.514
-118.14
-115.926
-112.361
-107.991
-103.331
-98.85
-94.981
-92.041
-90.096
-88.625
-86.445
-81.982
-73.615
-59.97
-39.535
-10.787
27.356
75.545
132.568
194.933
259.221
322.164
381.994
440.103
495.931
545.398
581.56
593.329
571.769
515.238
427.167
315.984
193.353
68.713
-48.013
-145.72
-217.335
-258.765
-272.146
-266.105
-249.223
-229.357
-210.18
-192.06
-175.244
-157.648
-138.882
-119.507
-99.579
-82.397
-70.111
-62.978
-61.315
-63.41
-67.821
-74.228
-81.716
-89.175
-95.567
-100.038
-102.349
-102.77
-101.577
-98.991
-95.379
-91.399
-87.826
-85.147
-83.505
-82.764
-82.661
-82.977
-83.533
-84.076
-84.308
-84.055
-83.252
-81.93
-80.2
-78.147
-75.815
-73.26
-70.537
-67.688
-64.757
-61.781
-58.789
-55.823
-52.921
-50.105
-47.397
-44.809
-42.341
-39.993
-37.753
-35.604
-33.538
-31.55
-29.638
-27.8
-26.029
-24.314
-22.642
-21
-19.378
-17.763
-16.144
-14.51
-12.854
-11.17
-9.457
-7.711
-5.928
-4.101
-2.227
-0.297
1.693
3.747
5.87
8.066
10.339
12.688
15.115
17.619
20.2
22.856
25.585
28.385
31.253
34.184
37.173
40.217
43.307
46.438
49.602
52.792
55.997
59.21
62.42
65.618
68.795
71.939
75.041
78.09
81.077
83.991
86.822
89.559
92.193
94.713
97.111
99.374
101.495
103.465
105.274
106.914
108.378
109.658
110.749
111.643
112.335
112.82
113.095
113.156
112.999
112.624
112.029
111.214
110.18
108.927
107.46
105.779
103.89
101.797
99.504
97.017
94.344
91.489
88.462
85.27
81.922
78.426
74.794
71.034
67.158
63.177
59.102
54.945
50.719
46.434
42.104
37.74
33.355
28.961
24.57
20.194
15.845
11.532
7.267
3.061
-1.078
-5.14
-9.117
-13
-16.782
-20.457
-24.018
-27.459
-30.775
-33.961
-37.012
-39.926
-42.698
-45.326
-47.807
-50.14
-52.324
-54.357
-56.24
-57.972
-59.555
-60.99
-62.278
-63.421
-64.422
-65.282
-66.005
-66.595
-67.054
-67.385
-67.593
-67.681
-67.654
-67.514
-67.267
-66.916
-66.466
-65.919
-65.282
-64.558
-63.751
-62.867
-61.91
-60.886
-59.8
-58.658
-57.465
-56.228
-54.953
-53.644
-52.31
-50.955
-49.586
-48.209
-46.83
-45.455
-44.09
-42.742
-41.415
-40.116
-38.849
-37.621
-36.435
-35.296
-34.209
-33.177
-32.204
-31.294
-30.45
-29.674
-28.968
-28.335
-27.776
-27.29
-26.878
-26.538
-26.268
-26.065
-25.927
-25.848
-25.825
-25.852
-25.924
-26.036
-26.179
-26.348
-26.535
-26.732
-26.931
-27.124
-27.302
-27.457
-27.582
-27.669
-27.709
-27.697
-27.625
-27.487
-27.277
-26.989
-26.618
-26.16
-25.611
-24.97
-24.234
-23.405
-22.483
-21.472
-20.376
-19.203
-17.959
-16.653
-15.294
-13.891
-12.457
-11.003
-9.538
-8.076
-6.628
-5.208
-3.83
-2.511
-1.266
-0.109
0.945
1.882
2.688
3.352
3.866
4.224
4.417
4.435
4.264
3.89
3.305
2.505
1.488
0.26
-1.17
-2.781
-4.542
-6.421
-8.387
-10.413
-12.482
-14.572
-16.662
-18.717
-20.701
-22.574
-24.307
-25.877
-27.262
-28.459
-29.487
-30.39
-31.247
-32.132
-33.103
-34.214
-35.519
-37.073
-38.947
-41.211
-43.912
-47.126
-50.95
-55.417
-60.496
-66.027
-71.68
-77.088
-81.897
-85.696
-88.058
-88.697
-87.508
-84.757
-81.096
-77.22
-73.762
-71.276
-70.251
-70.979
-73.327
-76.444
-78.786
-78.479
-73.545
-62.23
-42.92
-14.062
25.338
75.301
134.942
201.3
269.553
335.375
394.47
445.687
491.462
531.525
563.141
577.647
561.326
506.403
412.237
288.642
154.051
24.98
-85.481
-170.816
-230.379
-265.667
-280.552
-279.498
-267.881
-249.96
-228.211
-204.363
-178.681
-152.812
-129.39
-110.506
-98.083
-92.328
-92.06
-95.744
-101.406
-107.133
-111.381
-113.029
-111.562
-106.982
-99.637
-90.186
-79.453
-68.41
-58.093
-49.226
-42.18
-37.096
-33.875
-32.304
-32.128
-32.942
-34.247
-35.647
-36.874
-37.784
-38.354
-38.567
-38.394
-37.842
-36.932
-35.676
-34.077
-32.099
-29.708
-26.897
-23.698
-20.182
-16.451
-12.62
-8.792
-5.045
-1.434
2.006
5.254
8.299
11.141
13.787
16.241
18.491
20.527
22.342
23.942
25.351
26.602
27.742
28.808
29.838
30.861
31.897
32.963
34.069
35.221
36.417
37.661
38.962
40.329
41.777
43.315
44.948
46.682
48.516
50.453
52.49
54.626
56.857
59.182
61.599
64.108
66.707
69.395
72.166
75.016
77.936
80.918
83.951
87.023
90.122
93.234
96.347
99.445
102.516
105.546
108.519
111.422
114.238
116.954
119.553
122.02
124.339
126.496
128.475
130.262
131.843
133.204
134.333
135.219
135.852
136.222
136.321
136.141
135.678
134.926
133.882
132.544
130.911
128.984
126.767
124.263
121.477
118.418
115.093
111.512
107.684
103.623
99.341
94.851
90.17
85.312
80.296
75.14
69.862
64.482
59.02
53.498
47.936
42.355
36.776
31.22
25.708
20.261
14.899
9.64
4.503
-0.493
-5.332
-9.998
-14.477
-18.755
-22.821
-26.663
-30.273
-33.643
-36.765
-39.635
-42.249
-44.605
-46.702
-48.539
-50.12
-51.448
-52.527
-53.363
-53.964
-54.339
-54.498
-54.45
-54.208
-53.784
-53.191
-52.444
-51.556
-50.543
-49.419
-48.199
-46.899
-45.533
-44.117
-42.664
-41.19
-39.707
-38.229
-36.768
-35.337
-33.946
-32.607
-31.328
-30.121
-28.992
-27.95
-27
-26.15
-25.404
-24.767
-24.24
-23.827
-23.529
-23.347
-23.28
-23.327
-23.487
-23.756
-24.131
-24.609
-25.185
-25.853
-26.609
-27.445
-28.356
-29.335
-30.376
-31.47
-32.612
-33.792
-35.005
-36.241
-37.493
-38.752
-40.012
-41.262
-42.496
-43.704
-44.879
-46.012
-47.093
-48.116
-49.072
-49.951
-50.746
-51.45
-52.053
-52.548
-52.929
-53.188
-53.32
-53.317
-53.176
-52.889
-52.453
-51.864
-51.119
-50.212
-49.143
-47.91
-46.512
-44.948
-43.219
-41.326
-39.27
-37.056
-34.687
-32.167
-29.503
-26.702
-23.771
-20.72
-17.561
-14.304
-10.962
-7.551
-4.085
-0.583
2.94
6.465
9.972
13.444
16.859
20.2
23.446
26.58
29.583
32.437
35.124
37.625
39.925
42.005
43.85
45.446
46.78
47.839
48.619
49.114
49.318
49.228
48.835
48.134
47.127
45.819
44.216
42.33
40.176
37.783
35.189
32.434
29.555
26.586
23.553
20.482
17.412
14.383
11.44
8.625
5.962
3.476
1.197
-0.86
-2.699
-4.359
-5.913
-7.436
-8.973
-10.552
-12.2
-13.957
-15.889
-18.062
-20.534
-23.339
-26.511
-30.129
-34.232
-38.752
-43.478
-47.999
-51.85
-54.665
-56.096
-55.742
-53.37
-49.001
-42.961
-36.124
-29.445
-23.572
-19.144
-16.732
-16.477
-18.071
-20.541
-21.819
-19.643
-12.193
2.541
26.403
60.655
106.218
161.913
223.796
287.892
350.314
409.506
467.19
521.908
569.094
599.828
601.317
567.505
499.418
404.535
295.233
179.861
64.126
-46.329
-144.287
-219.546
-265.153
-280.445
-272.651
-253.966
-233.001
-214.168
-197.173
-178.406
-157.378
-135.469
-114.622
-97.942
-86.532
-79.643
-76.414
-75.596
-76.104
-77.521
-79.401
-80.878
-81.198
-80.078
-77.55
-73.958
-69.786
-65.337
-60.872
-56.904
-53.991
-52.399
-52.15
-53.036
-54.714
-56.927
-59.461
-62.049
-64.388
-66.279
-67.613
-68.357
-68.538
-68.152
-67.183
-65.645
-63.586
-61.073
-58.189
-55.035
-51.696
-48.262
-44.821
-41.43
-38.132
-34.953
-31.904
-28.988
-26.214
-23.595
-21.135
-18.845
-16.726
-14.764
-12.939
-11.215
-9.554
-7.924
-6.296
-4.647
-2.965
-1.239
0.53
2.339
4.183
6.064
7.982
9.941
11.944
13.991
16.08
18.206
20.364
22.548
24.751
26.966
29.187
31.407
33.623
35.832
38.028
40.208
42.364
44.488
46.573
48.61
50.588
52.497
54.327
56.068
57.712
59.249
60.67
61.968
63.135
64.163
65.046
65.777
66.35
66.76
67.001
67.069
66.96
66.671
66.2
65.544
64.703
63.677
62.466
61.072
59.495
57.74
55.808
53.705
51.433
48.999
46.41
43.67
40.789
37.775
34.636
31.383
28.024
24.569
21.028
17.412
13.73
9.992
6.21
2.393
-1.448
-5.303
-9.162
-13.015
-16.851
-20.661
-24.436
-28.166
-31.842
-35.457
-39.002
-42.469
-45.852
-49.144
-52.338
-55.428
-58.41
-61.28
-64.032
-66.665
-69.176
-71.563
-73.825
-75.962
-77.974
-79.862
-81.627
-83.27
-84.794
-86.202
-87.497
-88.681
-89.76
-90.736
-91.615
-92.401
-93.099
-93.713
-94.249
-94.711
-95.105
-95.436
-95.708
-95.926
-96.094
-96.217
-96.3
-96.345
-96.358
-96.34
-96.296
-96.227
-96.137
-96.026
-95.897
-95.75
-95.587
-95.407
-95.211
-94.998
-94.767
-94.518
-94.249
-93.959
-93.645
-93.306
-92.94
-92.543
-92.115
-91.651
-91.15
-90.609
-90.026
-89.399
-88.725
-88.003
-87.231
-86.407
-85.53
-84.598
-83.611
-82.569
-81.47
-80.315
-79.103
-77.835
-76.512
-75.133
-73.702
-72.217
-70.683
-69.099
-67.467
-65.791
-64.073
-62.315
-60.521
-58.692
-56.833
-54.945
-53.033
-51.098
-49.145
-47.175
-45.19
-43.194
-41.189
-39.177
-37.16
-35.141
-33.119
-31.099
-29.08
-27.065
-25.054
-23.049
-21.051
-19.06
-17.079
-15.109
-13.15
-11.204
-9.273
-7.357
-5.46
-3.581
-1.723
0.112
1.923
3.706
5.46
7.181
8.866
10.51
12.107
13.651
15.135
16.552
17.895
19.158
20.333
21.413
22.395
23.274
24.046
24.705
25.244
25.656
25.939
26.088
26.101
25.974
25.705
25.295
24.75
24.076
23.275
22.345
21.276
20.063
18.707
17.212
15.586
13.84
11.986
10.048
8.064
6.071
4.103
2.186
0.332
-1.434
-3.08
-4.565
-5.836
-6.855
-7.603
-8.056
-8.204
-8.055
-7.629
-6.977
-6.178
-5.302
-4.424
-3.617
-2.95
-2.51
-2.374
-2.647
-3.478
-4.943
-7.04
-9.67
-12.575
-15.449
-18.03
-19.971
-20.853
-20.415
-18.564
-15.561
-12.121
-9.017
-6.901
-6.314
-7.679
-11.201
-16.727
-23.372
-29.441
-32.794
-31.302
-23.227
-6.882
19.292
56.277
104.433
162.262
225.923
291.477
355.313
415.18
472.057
525.76
572.7
606.728
617.733
596.668
541.427
454.764
344.176
221.595
97.175
-18.802
-114.843
-185.02
-226.504
-240.567
-235.347
-217.505
-193.202
-169.264
-148.071
-132.366
-123.307
-117.457
-112.983
-108.048
-101.946
-97.481
-96.059
-97.762
-101.785
-105.703
-107.791
-107.37
-104.3
-98.972
-91.792
-83.212
-73.833
-64.315
-55.45
-47.812
-41.652
-37.14
-34.27
-32.919
-32.956
-34.093
-35.927
-38.162
-40.625
-43.193
-45.824
-48.443
-50.923
-53.211
-55.293
-57.15
-58.755
-60.035
-60.91
-61.346
-61.354
-60.973
-60.264
-59.279
-58.054
-56.644
-55.109
-53.517
-51.951
-50.457
-49.058
-47.776
-46.631
-45.656
-44.882
-44.314
-43.942
-43.75
-43.719
-43.836
-44.088
-44.447
-44.88
-45.352
-45.822
-46.264
-46.66
-46.991
-47.242
-47.397
-47.441
-47.366
-47.174
-46.86
-46.42
-45.848
-45.137
-44.287
-43.3
-42.178
-40.925
-39.542
-38.032
-36.396
-34.639
-32.763
-30.769
-28.659
-26.436
-24.102
-21.664
-19.127
-16.498
-13.786
-10.999
-8.145
-5.235
-2.279
0.715
3.736
6.776
9.824
12.87
15.906
18.92
21.902
24.843
27.733
30.561
33.318
35.995
38.584
41.076
43.463
45.738
47.894
49.925
51.823
53.583
55.201
56.672
57.991
59.156
60.164
61.015
61.706
62.238
62.611
62.826
62.886
62.792
62.547
62.155
61.62
60.946
60.137
59.199
58.138
56.959
55.669
54.275
52.782
51.198
49.53
47.785
45.969
44.091
42.155
40.17
38.142
36.078
33.984
31.866
29.73
27.582
25.427
23.27
21.115
18.967
16.828
14.704
12.595
10.505
8.435
6.388
4.365
2.367
0.396
-1.549
-3.465
-5.352
-7.21
-9.038
-10.834
-12.599
-14.33
-16.027
-17.689
-19.314
-20.9
-22.447
-23.951
-25.411
-26.826
-28.192
-29.508
-30.771
-31.978
-33.127
-34.214
-35.237
-36.191
-37.074
-37.881
-38.608
-39.251
-39.808
-40.272
-40.641
-40.912
-41.079
-41.141
-41.095
-40.937
-40.667
-40.282
-39.781
-39.165
-38.432
-37.583
-36.62
-35.543
-34.355
-33.058
-31.654
-30.146
-28.538
-26.834
-25.035
-23.148
-21.176
-19.124
-16.998
-14.802
-12.542
-10.225
-7.856
-5.443
-2.991
-0.507
2.002
4.531
7.072
9.621
12.17
14.715
17.249
19.769
22.27
24.747
27.196
29.615
32
34.35
36.662
38.935
41.166
43.353
45.496
47.594
49.643
51.644
53.595
55.493
57.34
59.135
60.877
62.565
64.199
65.78
67.306
68.776
70.186
71.534
72.818
74.034
75.18
76.253
77.252
78.175
79.024
79.8
80.502
81.128
81.679
82.154
82.554
82.88
83.135
83.319
83.436
83.492
83.497
83.457
83.374
83.243
83.056
82.81
82.504
82.143
81.725
81.258
80.748
80.216
79.695
79.216
78.803
78.479
78.259
78.171
78.252
78.545
79.093
79.923
81.048
82.48
84.225
86.273
88.609
91.178
93.884
96.632
99.317
101.827
104.071
105.919
107.183
107.732
107.498
106.519
105.003
103.178
101.236
99.466
98.203
97.684
98.053
99.12
100.233
100.724
99.958
97.252
92.152
84.442
74.174
62.134
49.96
39.511
32.928
32.51
40.142
57.491
85.867
125.672
176.237
236.172
302.348
370.147
435.387
494.27
545.348
588.827
622.602
641.616
638.165
605.716
542.961
455.424
351.969
239.108
122.858
7.523
-100.896
-190.534
-253.919
-288.649
-297.827
-292.849
-281.646
-267.575
-252.127
-232.615
-208.875
-183.798
-159.954
-140.64
-127.737
-121.004
-119.594
-122.322
-127.856
-134.957
-142.572
-149.45
-154.365
-156.779
-156.631
-154.126
-149.785
-144.194
-137.85
-131.483
-125.879
-121.413
-118.212
-116.227
-115.183
-114.831
-114.949
-115.191
-115.213
-114.835
-113.973
-112.639
-110.922
-108.875
-106.538
-103.987
-101.294
-98.518
-95.708
-92.887
-90.082
-87.339
-84.713
-82.261
-80.027
-78.031
-76.281
-74.78
-73.523
-72.5
-71.692
-71.075
-70.627
-70.331
-70.167
-70.117
-70.158
-70.263
-70.404
-70.553
-70.681
-70.766
-70.784
-70.716
-70.543
-70.248
-69.817
-69.237
-68.493
-67.572
-66.46
-65.144
-63.613
-61.858
-59.872
-57.648
-55.182
-52.474
-49.523
-46.332
-42.904
-39.247
-35.366
-31.271
-26.974
-22.486
-17.823
-12.998
-8.029
-2.935
2.267
7.554
12.908
18.306
23.725
29.143
34.537
39.884
45.161
50.346
55.415
60.346
65.119
69.712
74.104
78.278
82.213
85.893
89.302
92.424
95.248
97.761
99.953
101.816
103.342
104.528
105.37
105.865
106.013
105.816
105.276
104.399
103.19
101.656
99.808
97.654
95.207
92.48
89.486
86.241
82.76
79.061
75.161
71.077
66.829
62.437
57.919
53.297
48.59
43.819
39.005
34.168
29.329
24.508
19.723
14.995
10.34
5.778
1.324
-3.006
-7.195
-11.231
-15.099
-18.787
-22.284
-25.581
-28.668
-31.537
-34.182
-36.597
-38.778
-40.721
-42.426
-43.89
-45.114
-46.098
-46.845
-47.358
-47.641
-47.7
-47.541
-47.172
-46.6
-45.836
-44.89
-43.771
-42.492
-41.065
-39.501
-37.815
-36.02
-34.13
-32.159
-30.123
-28.036
-25.916
-23.776
-21.633
-19.502
-17.399
-15.341
-13.341
-11.414
-9.577
-7.841
-6.223
-4.736
-3.394
-2.208
-1.193
-0.359
0.283
0.724
0.953
0.965
0.751
0.307
-0.372
-1.291
-2.452
-3.856
-5.503
-7.392
-9.52
-11.883
-14.475
-17.288
-20.312
-23.538
-26.954
-30.547
-34.3
-38.2
-42.23
-46.375
-50.617
-54.938
-59.318
-63.737
-68.176
-72.613
-77.024
-81.384
-85.668
-89.852
-93.912
-97.827
-101.575
-105.132
-108.477
-111.591
-114.459
-117.064
-119.385
-121.4
-123.088
-124.433
-125.432
-126.09
-126.409
-126.39
-126.036
-125.36
-124.378
-123.102
-121.534
-119.661
-117.473
-114.97
-112.168
-109.096
-105.787
-102.261
-98.521
-94.572
-90.428
-86.105
-81.613
-76.947
-72.088
-67.045
-61.863
-56.62
-51.397
-46.252
-41.222
-36.331
-31.609
-27.096
-22.845
-18.896
-15.273
-12
-9.12
-6.706
-4.843
-3.578
-2.897
-2.741
-3.054
-3.793
-4.933
-6.442
-8.261
-10.324
-12.573
-14.969
-17.493
-20.111
-22.758
-25.337
-27.741
-29.892
-31.779
-33.416
-34.813
-35.987
-36.962
-37.789
-38.565
-39.373
-40.269
-41.301
-42.509
-43.959
-45.745
-47.948
-50.673
-54.036
-58.053
-62.674
-67.766
-73.024
-78.117
-82.751
-86.536
-89.067
-90.119
-89.608
-87.762
-85.192
-82.519
-80.238
-78.785
-78.51
-79.552
-81.758
-84.355
-85.89
-84.604
-78.787
-67.032
-47.895
-20.059
17.333
64.635
120.225
180.49
242.136
301.98
359.228
415.873
470.151
517.367
548.237
550.045
518.453
455.489
369.838
274.252
173.503
70.859
-30.816
-127.283
-206.421
-260.448
-286.289
-285.875
-269.241
-241.729
-208.308
-174.673
-142.147
-116.408
-99.883
-89.321
-83.568
-78.828
-73.365
-70.144
-69.864
-72.579
-77.644
-82.121
-84.218
-83.664
-80.455
-75.182
-68.631
-61.318
-53.827
-46.96
-41.274
-36.946
-34.026
-32.374
-31.698
-31.745
-32.197
-32.635
-32.806
-32.607
-31.987
-30.991
-29.666
-28.023
-26.116
-24.025
-21.796
-19.469
-17.068
-14.599
-12.099
-9.623
-7.228
-4.976
-2.907
-1.036
0.622
2.066
3.296
4.319
5.152
5.822
6.347
6.743
7.025
7.209
7.315
7.371
7.4
7.431
7.485
7.583
7.744
7.987
8.325
8.774
9.345
10.049
10.896
11.898
13.068
14.416
15.951
17.681
19.614
21.754
24.106
26.672
29.452
32.444
35.647
39.056
42.665
46.468
50.455
54.617
58.943
63.421
68.036
72.775
77.62
82.556
87.564
92.626
97.724
102.836
107.943
113.025
118.061
123.032
127.916
132.693
137.345
141.85
146.191
150.348
154.303
158.039
161.538
164.786
167.767
170.467
172.874
174.977
176.764
178.228
179.36
180.152
180.601
180.7
180.448
179.841
178.881
177.566
175.901
173.887
171.53
168.835
165.809
162.46
158.796
154.827
150.564
146.019
141.202
136.127
130.808
125.258
119.494
113.53
107.382
101.068
94.604
88.008
81.296
74.486
67.597
60.646
53.652
46.632
39.604
32.586
25.596
18.651
11.768
4.964
-1.745
-8.343
-14.816
-21.149
-27.328
-33.339
-39.17
-44.808
-50.243
-55.463
-60.459
-65.22
-69.739
-74.008
-78.02
-81.77
-85.252
-88.462
-91.398
-94.056
-96.435
-98.535
-100.356
-101.9
-103.169
-104.166
-104.895
-105.361
-105.571
-105.531
-105.248
-104.731
-103.988
-103.029
-101.863
-100.503
-98.958
-97.241
-95.363
-93.338
-91.179
-88.898
-86.51
-84.027
-81.465
-78.837
-76.155
-73.435
-70.69
-67.933
-65.177
-62.435
-59.72
-57.043
-54.416
-51.85
-49.354
-46.939
-44.613
-42.384
-40.259
-38.245
-36.347
-34.57
-32.917
-31.391
-29.996
-28.73
-27.595
-26.589
-25.71
-24.955
-24.32
-23.8
-23.389
-23.081
-22.868
-22.744
-22.7
-22.728
-22.818
-22.961
-23.147
-23.367
-23.61
-23.866
-24.125
-24.377
-24.612
-24.821
-24.995
-25.126
-25.204
-25.223
-25.176
-25.056
-24.858
-24.576
-24.209
-23.753
-23.207
-22.571
-21.849
-21.042
-20.156
-19.199
-18.175
-17.096
-15.97
-14.807
-13.618
-12.414
-11.206
-10.004
-8.822
-7.672
-6.566
-5.518
-4.542
-3.653
-2.864
-2.187
-1.636
-1.221
-0.949
-0.828
-0.864
-1.066
-1.448
-2.019
-2.783
-3.742
-4.894
-6.232
-7.746
-9.413
-11.197
-13.064
-14.98
-16.916
-18.852
-20.764
-22.625
-24.401
-26.051
-27.543
-28.854
-29.97
-30.879
-31.574
-32.068
-32.413
-32.695
-32.997
-33.393
-33.925
-34.628
-35.56
-36.789
-38.393
-40.444
-42.969
-46.006
-49.617
-53.804
-58.505
-63.531
-68.496
-72.967
-76.583
-78.958
-79.714
-78.628
-75.61
-70.878
-65.047
-58.817
-52.798
-47.574
-43.687
-41.387
-40.551
-40.465
-39.722
-36.577
-29.267
-16.096
4.734
34.733
74.782
125.05
183.555
246.306
309.479
368.802
422.708
473.075
518.216
555.216
577.053
570.106
528.079
449.111
336.07
205.304
71.416
-51.447
-147.416
-214.594
-255.221
-273.863
-280.336
-276.08
-260.398
-235.865
-205.961
-178.75
-161.272
-153.905
-152.071
-150.181
-145.202
-138.194
-133.259
-133.132
-137.909
-146.269
-155.819
-164.684
-172.006
-177.416
-180.96
-182.868
-183.422
-182.892
-181.577
-179.982
-178.706
-178.13
-178.421
-179.534
-181.246
-183.332
-185.586
-187.747
-189.526
-190.74
-191.308
-191.217
-190.529
-189.31
-187.603
-185.465
-182.961
-180.14
-177.034
-173.683
-170.112
-166.367
-162.508
-158.577
-154.605
-150.618
-146.627
-142.642
-138.67
-134.703
-130.732
-126.752
-122.761
-118.76
-114.753
-110.735
-106.698
-102.636
-98.542
-94.409
-90.23
-86.002
-81.719
-77.381
-72.988
-68.542
-64.045
-59.499
-54.901
-50.253
-45.554
-40.802
-35.998
-31.144
-26.238
-21.285
-16.288
-11.25
-6.176
-1.073
4.056
9.202
14.359
19.52
24.677
29.82
34.943
40.034
45.083
50.08
55.014
59.874
64.649
69.326
73.894
78.34
82.654
86.823
90.837
94.683
98.351
101.83
105.111
108.183
111.038
113.666
116.06
118.213
120.117
121.769
123.164
124.298
125.17
125.777
126.121
126.201
126.019
125.578
124.881
123.933
122.741
121.31
119.65
117.767
115.674
113.379
110.895
108.234
105.408
102.431
99.317
96.08
92.735
89.297
85.781
82.203
78.58
74.926
71.257
67.589
63.938
60.318
56.743
53.228
49.786
46.429
43.17
40.019
36.987
34.084
31.318
28.697
26.227
23.914
21.762
19.773
17.951
16.296
14.808
13.486
12.329
11.333
10.495
9.809
9.272
8.875
8.614
8.479
8.462
8.556
8.752
9.039
9.408
9.851
10.356
10.914
11.517
12.153
12.814
13.49
14.173
14.854
15.526
16.181
16.811
17.412
17.976
18.499
18.978
19.407
19.784
20.108
20.375
20.585
20.737
20.832
20.869
20.852
20.781
20.658
20.487
20.271
20.014
19.718
19.389
19.031
18.648
18.245
17.826
17.398
16.964
16.531
16.104
15.687
15.286
14.905
14.551
14.228
13.941
13.694
13.493
13.343
13.247
13.211
13.239
13.336
13.507
13.757
14.088
14.506
15.014
15.616
16.316
17.117
18.023
19.036
20.159
21.397
22.752
24.225
25.821
27.539
29.383
31.351
33.447
35.668
38.016
40.49
43.087
45.806
48.644
51.597
54.66
57.826
61.09
64.443
67.874
71.373
74.926
78.522
82.145
85.781
89.415
93.03
96.61
100.137
103.596
106.968
110.235
113.378
116.376
119.21
121.862
124.312
126.539
128.526
130.254
131.708
132.879
133.753
134.319
134.565
134.476
134.043
133.265
132.141
130.675
128.876
126.755
124.338
121.663
118.764
115.671
112.415
109.012
105.488
101.875
98.204
94.517
90.85
87.224
83.668
80.207
76.848
73.597
70.434
67.287
64.104
60.837
57.447
53.942
50.307
46.5
42.487
38.215
33.641
28.776
23.589
18.012
12.07
5.843
-0.45
-6.373
-11.524
-15.598
-18.243
-19.135
-18.08
-14.989
-10.14
-4.216
2.079
8.15
13.489
17.682
20.498
21.999
22.865
24.435
28.373
36.357
49.792
70.144
98.804
136.702
184.277
240.228
301.044
362.91
422.114
476.782
529.116
580.451
628.973
668.553
685.246
665.854
604.058
500.899
369.765
228.491
92.389
-24.556
-115.889
-179.752
-215.264
-226.954
-219.784
-199.048
-172.52
-144.267
-117.14
-93.117
-69.962
-47.204
-25.263
-4.315
12.419
23.616
29.883
31.469
30.453
28.432
25.927
24.237
24.251
26.107
29.824
34.976
40.849
47.016
53.126
58.544
62.656
65.175
66.046
65.505
63.981
61.789
59.18
56.452
53.881
51.657
49.899
48.643
47.876
47.584
47.745
48.329
49.287
50.556
52.066
53.718
55.383
56.947
58.314
59.411
60.2
60.647
60.714
60.377
59.617
58.426
56.807
54.756
52.266
49.345
46.012
42.306
38.286
34.001
29.485
24.771
19.88
14.835
9.656
4.357
-1.055
-6.572
-12.183
-17.87
-23.614
-29.399
-35.211
-41.041
-46.882
-52.726
-58.562
-64.383
-70.179
-75.943
-81.667
-87.34
-92.952
-98.491
-103.954
-109.333
-114.626
-119.832
-124.948
-129.973
-134.91
-139.76
-144.525
-149.206
-153.805
-158.324
-162.766
-167.134
-171.429
-175.656
-179.818
-183.916
-187.956
-191.941
-195.873
-199.756
-203.592
-207.383
-211.132
-214.839
-218.505
-222.13
-225.715
-229.258
-232.759
-236.216
-239.628
-242.99
-246.3
-249.555
-252.748
-255.876
-258.931
-261.909
-264.802
-267.604
-270.308
-272.907
-275.395
-277.765
-280.01
-282.122
-284.095
-285.921
-287.593
-289.103
-290.444
-291.61
-292.592
-293.384
-293.981
-294.376
-294.563
-294.539
-294.297
-293.835
-293.147
-292.231
-291.084
-289.704
-288.089
-286.239
-284.153
-281.833
-279.281
-276.499
-273.489
-270.255
-266.801
-263.131
-259.251
-255.165
-250.879
-246.4
-241.735
-236.892
-231.881
-226.709
-221.388
-215.928
-210.34
-204.634
-198.824
-192.919
-186.931
-180.872
-174.754
-168.59
-162.391
-156.172
-149.943
-143.718
-137.51
-131.331
-125.193
-119.109
-113.088
-107.143
-101.284
-95.522
-89.869
-84.334
-78.929
-73.665
-68.554
-63.605
-58.828
-54.231
-49.821
-45.605
-41.589
-37.775
-34.165
-30.763
-27.57
-24.592
-21.832
-19.295
-16.985
-14.904
-13.058
-11.447
-10.074
-8.934
-8.021
-7.328
-6.852
-6.591
-6.545
-6.711
-7.078
-7.635
-8.374
-9.276
-10.322
-11.48
-12.704
-13.96
-15.224
-16.48
-17.722
-18.943
-20.132
-21.281
-22.386
-23.447
-24.467
-25.443
-26.358
-27.211
-28.017
-28.814
-29.67
-30.626
-31.699
-32.898
-34.212
-35.633
-37.148
-38.719
-40.281
-41.774
-43.142
-44.337
-45.339
-46.105
-46.563
-46.61
-46.108
-44.947
-43.054
-40.367
-36.835
-32.415
-27.085
-20.874
-13.865
-6.14
2.225
11.153
20.589
30.447
40.595
50.871
61.083
71.044
80.594
89.587
97.871
105.301
111.767
117.213
121.641
125.06
127.471
128.881
129.297
128.762
127.361
125.203
122.425
119.181
115.615
111.876
108.12
104.494
101.117
98.065
95.39
93.132
91.34
90.074
89.366
89.221
89.622
90.528
91.873
93.567
95.506
97.567
99.637
101.602
103.356
104.82
105.908
106.558
106.688
106.153
104.899
102.96
100.427
97.545
94.593
91.765
89.367
87.821
87.32
87.951
89.62
91.756
93.844
95.557
96.415
96.005
94.274
91.36
87.596
83.975
81.792
82.146
87.092
99.619
120.74
150.396
187.374
226.485
265.471
306.339
350.899
405.265
473.269
549.753
626.134
688.63
720.643
712.437
662.336
574.538
459.948
332.142
200.57
74.598
-36.219
-126.736
-192.014
-230.058
-244.917
-241.244
-223.67
-198.499
-171.301
-146.217
-128.374
-119.029
-114.841
-113.509
-111.713
-108.335
-106.353
-106.859
-109.904
-114.553
-117.843
-118.11
-115.195
-109.233
-100.926
-91.027
-80.031
-68.674
-57.926
-48.436
-40.518
-34.336
-29.826
-26.841
-25.275
-24.862
-25.215
-26.055
-27.168
-28.427
-29.817
-31.287
-32.759
-34.173
-35.448
-36.513
-37.312
-37.758
-37.782
-37.352
-36.443
-35.074
-33.293
-31.143
-28.684
-25.973
-23.039
-19.927
-16.684
-13.36
-10.031
-6.757
-3.573
-0.527
2.351
5.044
7.532
9.817
11.922
13.862
15.658
17.333
18.897
20.368
21.77
23.125
24.47
25.83
27.222
28.662
30.163
31.735
33.386
35.117
36.92
38.79
40.726
42.722
44.777
46.89
49.054
51.262
53.509
55.788
58.093
60.422
62.767
65.125
67.492
69.862
72.236
74.608
76.976
79.332
81.671
83.988
86.276
88.531
90.746
92.915
95.033
97.096
99.1
101.04
102.914
104.716
106.443
108.093
109.661
111.144
112.539
113.844
115.056
116.171
117.188
118.104
118.916
119.621
120.217
120.701
121.072
121.328
121.466
121.486
121.386
121.167
120.827
120.367
119.786
119.086
118.267
117.331
116.279
115.113
113.835
112.447
110.953
109.355
107.658
105.863
103.977
102.003
99.946
97.812
95.607
93.335
91.004
88.621
86.191
83.723
81.224
78.7
76.16
73.611
71.061
68.516
65.985
63.473
60.989
58.537
56.126
53.759
51.444
49.183
46.983
44.847
42.778
40.78
38.856
37.006
35.233
33.538
31.922
30.385
28.926
27.546
26.242
25.014
23.86
22.777
21.763
20.815
19.929
19.101
18.329
17.608
16.934
16.303
15.71
15.151
14.622
14.118
13.636
13.172
12.721
12.281
11.848
11.419
10.992
10.566
10.137
9.705
9.268
8.826
8.378
7.923
7.463
6.995
6.522
6.043
5.56
5.074
4.587
4.099
3.613
3.132
2.658
2.193
1.741
1.304
0.887
0.491
0.122
-0.218
-0.525
-0.795
-1.023
-1.207
-1.342
-1.425
-1.454
-1.424
-1.335
-1.183
-0.967
-0.684
-0.334
0.085
0.575
1.136
1.77
2.477
3.256
4.109
5.032
6.027
7.09
8.22
9.414
10.67
11.984
13.353
14.771
16.234
17.735
19.267
20.823
22.394
23.969
25.538
27.091
28.616
30.105
31.545
32.923
34.227
35.444
36.566
37.582
38.481
39.253
39.885
40.368
40.697
40.866
40.868
40.693
40.331
39.778
39.037
38.113
37.01
35.728
34.257
32.596
30.752
28.728
26.534
24.175
21.651
18.978
16.185
13.303
10.373
7.416
4.435
1.433
-1.599
-4.648
-7.671
-10.635
-13.513
-16.282
-18.956
-21.531
-23.968
-26.305
-28.639
-31.139
-34.092
-37.648
-41.774
-46.439
-51.562
-57.041
-62.852
-68.677
-73.884
-78.116
-81.218
-83.217
-84.439
-85.037
-84.9
-84.367
-84.153
-84.826
-87.023
-90.966
-96.362
-103.218
-111.727
-121.716
-132.696
-143.803
-153.557
-160.656
-164.067
-162.4
-154.072
-137.495
-111.305
-74.746
-28.873
23.68
80.238
137.545
193.509
248.79
302.502
350.909
387.949
402.931
386.027
334.591
250.751
141.552
18.576
-108.35
-229.274
-331.617
-406.722
-450.781
-465.285
-459.788
-445.069
-427.288
-409.289
-390.004
-367.011
-341.437
-315.884
-293.158
-276.264
-265.817
-260.866
-260.223
-262.044
-264.58
-266.598
-266.839
-264.321
-258.777
-250.302
-239.292
-226.531
-212.865
-199.09
-186.121
-174.671
-165.054
-157.39
-151.601
-147.431
-144.61
-142.823
-141.66
-140.793
-140.03
-139.216
-138.263
-137.132
-135.759
-134.106
-132.163
-129.878
-127.201
-124.107
-120.574
-116.607
-112.253
-107.555
-102.571
-97.388
-92.083
-86.736
-81.444
-76.265
-71.242
-66.415
-61.809
-57.456
-53.386
-49.609
-46.118
-42.909
-39.966
-37.277
-34.829
-32.589
-30.524
-28.597
-26.768
-25.008
-23.299
-21.62
-19.958
-18.301
-16.637
-14.961
-13.274
-11.575
-9.86
-8.125
-6.363
-4.573
-2.759
-0.921
0.938
2.817
4.715
6.631
8.564
10.515
12.484
14.473
16.483
18.515
20.567
22.638
24.725
26.823
28.932
31.045
33.16
35.272
37.376
39.471
41.552
43.617
45.661
47.68
49.671
51.629
53.551
55.431
57.264
59.047
60.774
62.441
64.043
65.575
67.033
68.412
69.708
70.915
72.028
73.043
73.956
74.761
75.456
76.035
76.497
76.837
77.053
77.142
77.102
76.931
76.629
76.193
75.623
74.918
74.08
73.109
72.007
70.776
69.419
67.94
66.343
64.634
62.817
60.899
58.886
56.787
54.608
52.358
50.046
47.68
45.271
42.827
40.359
37.877
35.39
32.909
30.443
28.003
25.598
23.237
20.929
18.682
16.506
14.407
12.392
10.467
8.639
6.911
5.287
3.77
2.362
1.064
-0.123
-1.201
-2.172
-3.037
-3.8
-4.467
-5.04
-5.528
-5.935
-6.27
-6.54
-6.754
-6.92
-7.047
-7.146
-7.225
-7.295
-7.366
-7.447
-7.548
-7.678
-7.847
-8.063
-8.335
-8.671
-9.076
-9.559
-10.124
-10.776
-11.518
-12.355
-13.287
-14.315
-15.44
-16.66
-17.972
-19.374
-20.862
-22.429
-24.07
-25.777
-27.541
-29.353
-31.204
-33.082
-34.975
-36.871
-38.758
-40.622
-42.45
-44.228
-45.942
-47.578
-49.122
-50.561
-51.88
-53.067
-54.108
-54.99
-55.703
-56.235
-56.575
-56.715
-56.644
-56.357
-55.846
-55.105
-54.132
-52.922
-51.474
-49.787
-47.862
-45.704
-43.314
-40.699
-37.867
-34.824
-31.582
-28.151
-24.545
-20.776
-16.859
-12.811
-8.649
-4.39
-0.055
4.336
8.761
13.196
17.617
22.001
26.323
30.558
34.682
38.673
42.508
46.166
49.626
52.867
55.867
58.607
61.069
63.237
65.096
66.635
67.84
68.705
69.226
69.4
69.225
68.691
67.789
66.51
64.855
62.831
60.447
57.713
54.645
51.265
47.614
43.73
39.655
35.423
31.061
26.603
22.101
17.613
13.207
8.943
4.855
0.965
-2.696
-6.108
-9.267
-12.182
-14.915
-17.541
-20.119
-22.714
-25.387
-28.198
-31.254
-34.709
-38.666
-43.164
-48.131
-53.369
-58.688
-63.947
-68.929
-73.319
-76.857
-79.4
-81.049
-82.27
-83.554
-85.178
-87.414
-90.51
-94.475
-99.193
-104.203
-108.351
-110.273
-108.782
-102.592
-90.511
-71.624
-44.962
-9.992
33.048
83.488
140.336
202.248
266.595
329.501
387.12
435.623
474.234
505.487
528.902
542.656
541.587
515.172
459.583
375.543
266.757
146.023
24.985
-86.66
-177.156
-240.109
-274.034
-278.239
-256.69
-217.965
-169.281
-120.543
-82.812
-59.356
-50.156
-50.896
-52.306
-50.414
-44.917
-37.622
-33.566
-34.431
-39.119
-45.904
-51.611
-54.707
-55.382
-53.845
-50.716
-46.616
-41.75
-36.624
-32.082
-28.555
-26.205
-25.088
-24.975
-25.62
-26.849
-28.339
-29.71
-30.761
-31.387
-31.562
-31.36
-30.815
-29.953
-28.842
-27.549
-26.123
-24.604
-23.008
-21.35
-19.668
-18.015
-16.447
-15.007
-13.718
-12.592
-11.636
-10.852
-10.239
-9.783
-9.463
-9.265
-9.176
-9.186
-9.285
-9.456
-9.677
-9.928
-10.188
-10.434
-10.649
-10.816
-10.917
-10.941
-10.875
-10.707
-10.43
-10.032
-9.502
-8.829
-8.001
-7.011
-5.848
-4.506
-2.978
-1.259
0.653
2.761
5.065
7.566
10.261
13.148
16.222
19.479
22.912
26.513
30.273
34.182
38.227
42.397
46.677
51.053
55.509
60.03
64.599
69.198
73.809
78.416
82.999
87.541
92.024
96.429
100.738
104.935
109
112.918
116.671
120.243
123.62
126.785
129.726
132.429
134.881
137.071
138.987
140.621
141.963
143.006
143.743
144.168
144.277
144.068
143.538
142.686
141.513
140.021
138.212
136.089
133.658
130.923
127.893
124.573
120.973
117.102
112.97
108.587
103.967
99.12
94.06
88.801
83.357
77.743
71.976
66.07
60.043
53.911
47.691
41.402
35.059
28.682
22.288
15.893
9.515
3.172
-3.12
-9.345
-15.486
-21.528
-27.456
-33.255
-38.91
-44.408
-49.736
-54.882
-59.833
-64.578
-69.107
-73.411
-77.479
-81.305
-84.88
-88.2
-91.257
-94.049
-96.571
-98.821
-100.799
-102.504
-103.936
-105.098
-105.992
-106.622
-106.992
-107.109
-106.977
-106.603
-105.996
-105.164
-104.116
-102.861
-101.41
-99.774
-97.963
-95.99
-93.866
-91.606
-89.221
-86.724
-84.129
-81.45
-78.7
-75.893
-73.042
-70.16
-67.26
-64.355
-61.456
-58.576
-55.724
-52.911
-50.146
-47.437
-44.793
-42.22
-39.724
-37.31
-34.982
-32.745
-30.6
-28.55
-26.596
-24.737
-22.974
-21.304
-19.726
-18.236
-16.83
-15.504
-14.252
-13.069
-11.948
-10.884
-9.869
-8.894
-7.954
-7.041
-6.146
-5.262
-4.383
-3.5
-2.609
-1.703
-0.777
0.173
1.15
2.157
3.195
4.266
5.367
6.5
7.663
8.851
10.061
11.289
12.529
13.774
15.016
16.244
17.448
18.616
19.736
20.796
21.783
22.684
23.487
24.182
24.758
25.205
25.512
25.666
25.657
25.478
25.122
24.583
23.855
22.934
21.823
20.527
19.049
17.394
15.559
13.539
11.332
8.946
6.39
3.674
0.812
-2.182
-5.278
-8.437
-11.618
-14.783
-17.901
-20.946
-23.882
-26.663
-29.235
-31.538
-33.528
-35.178
-36.465
-37.362
-37.863
-37.971
-37.71
-37.15
-36.363
-35.419
-34.404
-33.396
-32.472
-31.757
-31.411
-31.536
-32.157
-33.198
-34.444
-35.69
-36.759
-37.39
-37.247
-36.082
-33.784
-30.539
-26.94
-23.556
-20.857
-19.346
-19.382
-21.132
-24.565
-29.048
-33.174
-35.367
-33.844
-26.745
-12.596
10.066
42.512
85.227
137.979
199.025
264.722
331.47
395.692
455.668
512.461
564.478
607.857
635.475
636.745
606.509
545.327
457.781
352.78
238.478
121.743
12.245
-78.959
-144.501
-181.018
-192.875
-191.419
-184.316
-175.453
-165.189
-149.567
-128.177
-103.927
-79.77
-59.532
-45.239
-36.555
-32.837
-33.131
-36.032
-40.221
-44.558
-47.833
-49.189
-48.427
-45.595
-40.96
-35.203
-29.09
-23.38
-18.959
-16.429
-15.996
-17.736
-21.533
-27.108
-34.179
-42.375
-51.21
-60.347
-69.576
-78.727
-87.735
-96.543
-105.053
-113.215
-121.016
-128.434
-135.457
-142.086
-148.307
-154.147
-159.662
-164.918
-170.004
-174.995
-179.957
-184.966
-190.075
-195.323
-200.743
-206.355
-212.165
-218.177
-224.383
-230.759
-237.284
-243.929
-250.655
-257.425
-264.19
-270.9
-277.507
-283.955
-290.198
-296.2
-301.925
-307.343
-312.431
-317.162
-321.517
-325.486
-329.052
-332.202
-334.921
-337.196
-339.016
-340.374
-341.265
-341.686
-341.633
-341.104
-340.099
-338.618
-336.662
-334.235
-331.339
-327.979
-324.162
-319.898
-315.198
-310.078
-304.552
-298.639
-292.355
-285.723
-278.764
-271.498
-263.95
-256.142
-248.097
-239.841
-231.398
-222.793
-214.052
-205.202
-196.267
-187.274
-178.25
-169.22
-160.21
-151.243
-142.345
-133.539
-124.847
-116.292
-107.894
-99.672
-91.646
-83.831
-76.246
-68.902
-61.815
-54.995
-48.452
-42.195
-36.231
-30.564
-25.198
-20.136
-15.379
-10.926
-6.776
-2.926
0.629
3.893
6.874
9.578
12.016
14.198
16.134
17.837
19.32
20.596
21.68
22.587
23.331
23.928
24.392
24.74
24.987
25.148
25.239
25.274
25.267
25.232
25.183
25.132
25.089
25.067
25.074
25.12
25.213
25.36
25.567
25.841
26.185
26.603
27.099
27.674
28.33
29.065
29.88
30.772
31.74
32.78
33.89
35.064
36.298
37.589
38.93
40.316
41.742
43.201
44.689
46.198
47.723
49.258
50.797
52.336
53.87
55.394
56.904
58.397
59.87
61.319
62.743
64.138
65.504
66.839
68.142
69.413
70.653
71.861
73.04
74.19
75.313
76.411
77.487
78.542
79.579
80.601
81.611
82.612
83.607
84.601
85.597
86.599
87.612
88.639
89.684
90.752
91.845
92.969
94.126
95.321
96.558
97.84
99.173
100.56
102.005
103.513
105.088
106.733
108.451
110.247
112.124
114.085
116.133
118.272
120.505
122.837
125.268
127.803
130.444
133.191
136.046
139.009
142.081
145.261
148.548
151.939
155.433
159.028
162.718
166.499
170.364
174.308
178.319
182.388
186.502
190.646
194.809
198.974
203.124
207.241
211.308
215.305
219.217
223.026
226.714
230.261
233.645
236.848
239.856
242.651
245.216
247.532
249.579
251.342
252.814
253.99
254.861
255.414
255.626
255.477
254.964
254.08
252.822
251.186
249.166
246.77
244.03
240.983
237.673
234.13
230.365
226.389
222.211
217.873
213.435
208.957
204.487
200.044
195.636
191.289
187.053
182.908
178.751
174.376
169.487
163.922
157.68
150.798
143.295
135.164
126.453
117.494
108.992
101.508
95.24
90.129
85.986
82.776
80.518
78.841
76.706
72.956
66.894
58.302
47.369
34.297
19.253
2.874
-13.287
-27.04
-36.302
-39.174
-34.014
-19.435
5.935
43.086
92.063
151.888
221.001
296.25
372.991
446.959
514.433
574.147
626.929
671.385
702.158
710.776
689.712
636.664
557.705
463.584
362.455
261.437
164.659
76.133
5.814
-39.639
-57.903
-51.398
-30.77
-4.244
23.748
50.868
79.019
107.848
134.878
158.182
175.156
185.024
188.973
188.415
185.224
181.422
178.424
177.171
178.425
182.404
188.872
197.383
207.184
217.29
226.835
235.279
242.254
247.66
251.609
254.254
255.88
256.887
257.695
258.613
259.819
261.383
263.292
265.54
268.122
271.006
274.133
277.443
280.901
284.482
288.18
291.977
295.827
299.679
303.474
307.157
310.698
314.08
317.288
320.315
323.16
325.822
328.312
330.649
332.843
334.901
336.831
338.638
340.334
341.936
343.457
344.91
346.305
347.645
348.936
350.183
351.386
352.546
353.662
354.729
355.746
356.713
357.628
358.49
359.295
360.038
360.715
361.32
361.846
362.284
362.626
362.861
362.979
362.971
362.824
362.529
362.072
361.443
360.629
359.619
358.401
356.962
355.291
353.377
351.209
348.775
346.066
343.073
339.785
336.195
332.295
328.078
323.537
318.666
313.46
307.916
302.031
295.803
289.231
282.317
275.061
267.467
259.54
251.284
242.706
233.813
224.614
215.118
205.336
195.277
184.955
174.381
163.569
152.532
141.284
129.841
118.216
106.426
94.486
82.411
70.218
57.922
45.541
33.09
20.586
8.045
-4.516
-17.081
-29.635
-42.161
-54.644
-67.071
-79.427
-91.698
-103.872
-115.936
-127.878
-139.688
-151.355
-162.869
-174.222
-185.406
-196.412
-207.235
-217.868
-228.306
-238.545
-248.58
-258.408
-268.025
-277.431
-286.621
-295.597
-304.356
-312.9
-321.227
-329.341
-337.242
-344.933
-352.416
-359.694
-366.771
-373.651
-380.337
-386.834
-393.147
-399.28
-405.238
-411.026
-416.65
-422.115
-427.427
-432.591
-437.613
-442.498
-447.251
-451.879
-456.387
-460.781
-465.065
-469.247
-473.33
-477.322
-481.228
-485.054
-488.805
-492.488
-496.107
-499.668
-503.176
-506.636
-510.053
-513.432
-516.776
-520.091
-523.381
-526.648
-529.898
-533.133
-536.355
-539.569
-542.776
-545.977
-549.175
-552.37
-555.565
-558.759
-561.954
-565.148
-568.344
-571.539
-574.734
-577.928
-581.119
-584.306
-587.487
-590.659
-593.819
-596.965
-600.093
-603.199
-606.281
-609.335
-612.356
-615.341
-618.286
-621.187
-624.04
-626.84
-629.584
-632.267
-634.885
-637.436
-639.916
-642.32
-644.646
-646.892
-649.054
-651.13
-653.118
-655.014
-656.816
-658.521
-660.127
-661.632
-663.031
-664.324
-665.507
-666.579
-667.539
-668.388
-669.124
-669.744
-670.249
-670.636
-670.904
-671.047
-671.057
-670.93
-670.657
-670.233
-669.649
-668.898
-667.969
-666.851
-665.534
-664.007
-662.257
-660.269
-658.022
-655.501
-652.691
-649.584
-646.173
-642.453
-638.411
-634.034
-629.31
-624.226
-618.763
-612.899
-606.596
-599.82
-592.544
-584.738
-576.382
-567.452
-557.916
-547.746
-536.913
-525.391
-513.172
-500.266
-486.683
-472.454
-457.623
-442.239
-426.393
-410.193
-393.746
-377.174
-360.592
-344.1
-327.827
-311.918
-296.459
-281.479
-266.912
-252.543
-238.153
-223.545
-208.477
-192.697
-176.035
-158.422
-140.053
-121.472
-103.258
-85.949
-70.007
-55.678
-43.168
-32.606
-23.432
-14.512
-3.857
11.552
33.297
61.857
96.688
135.135
177.45
225.914
282.363
350.022
427.875
510.957
594.504
671.146
732.959
772.888
782.294
754.845
689.872
591.014
467.716
332.991
199.668
80.278
-15.567
-81.285
-114.691
-117.848
-95.624
-57.616
-13.69
26.503
55.378
72.398
80.584
85.92
93.721
104.421
116.014
124.699
127.832
126.052
121.352
116.389
113.298
112.642
114.229
117.688
122.526
128.214
134.196
139.746
144.018
146.566
147.285
146.187
143.503
139.534
134.58
129.1
123.602
118.387
113.617
109.376
105.668
102.551
100.118
98.391
97.347
96.965
97.218
98.095
99.579
101.597
104.026
106.721
109.556
112.451
115.362
118.253
121.089
123.827
126.434
128.903
131.235
133.429
135.481
137.386
139.151
140.806
142.398
143.98
145.594
147.267
149.017
150.858
152.804
154.864
157.045
159.341
161.75
164.277
166.928
169.711
172.631
175.687
178.875
182.191
185.63
189.19
192.867
196.656
200.552
204.552
208.652
212.849
217.138
221.51
225.954
230.458
235.008
239.589
244.185
248.779
253.352
257.886
262.363
266.762
271.065
275.252
279.302
283.194
286.91
290.426
293.724
296.781
299.579
302.098
304.32
306.225
307.798
309.022
309.883
310.368
310.465
310.165
309.458
308.338
306.799
304.839
302.456
299.653
296.431
292.797
288.757
284.321
279.501
274.309
268.761
262.871
256.66
250.146
243.351
236.297
229.007
221.509
213.826
205.988
198.021
189.954
181.817
173.638
165.447
157.273
149.146
141.094
133.145
125.327
117.666
110.187
102.914
95.871
89.078
82.556
76.322
70.393
64.784
59.507
54.573
49.991
45.768
41.909
38.417
35.293
32.537
30.145
28.114
26.437
25.106
24.113
23.446
23.093
23.04
23.272
23.775
24.53
25.521
26.73
28.137
29.724
31.472
33.361
35.373
37.488
39.687
41.951
44.262
46.603
48.956
51.304
53.632
55.924
58.166
60.345
62.449
64.466
66.385
68.197
69.893
71.465
72.908
74.215
75.381
76.403
77.278
78.005
78.583
79.012
79.293
79.427
79.417
79.266
78.978
78.556
78.006
77.332
76.543
75.643
74.64
73.542
72.357
71.094
69.762
68.37
66.927
65.443
63.928
62.39
60.841
59.29
57.748
56.224
54.728
53.27
51.859
50.505
49.215
47.999
46.863
45.815
44.862
44.01
43.264
42.629
42.109
41.707
41.426
41.267
41.23
41.315
41.519
41.838
42.268
42.801
43.43
44.144
44.935
45.79
46.699
47.648
48.626
49.621
50.619
51.61
52.579
53.511
54.39
55.202
55.933
56.569
57.099
57.508
57.787
57.929
57.928
57.778
57.469
56.985
56.312
55.445
54.382
53.126
51.683
50.066
48.292
46.396
44.412
42.371
40.302
38.223
36.154
34.13
32.19
30.382
28.751
27.317
26.098
25.112
24.354
23.804
23.417
23.111
22.817
22.478
22.029
21.41
20.551
19.36
17.771
15.704
13.039
9.755
5.888
1.539
-3.015
-7.485
-11.626
-15.069
-17.414
-18.437
-17.993
-16.198
-13.576
-10.562
-7.488
-4.778
-2.777
-1.717
-1.714
-2.31
-2.329
-0.519
4.38
13.69
28.767
51.13
82.188
122.79
172.137
227.926
287.538
347.769
406.536
463.901
519.26
570.733
613.695
639.405
637.714
600.665
525.734
415.646
280.621
136.49
-1.34
-116.467
-198.208
-246.039
-263.394
-258.187
-239.158
-210.35
-175.955
-141.752
-112.437
-92.553
-83.151
-79.928
-78.697
-76.961
-74.711
-75.201
-80.15
-88.74
-98.977
-107.664
-113.019
-114.916
-113.561
-109.717
-104.07
-97.214
-90.41
-84.002
-77.759
-72.784
-69.127
-68.724
-74.936
-85.075
-95.832
-102.338
-96.916
-82.115
-64.628
-50.365
-48.063
-56.691
-68.552
-78.756
-81.453
-76.159
-68.105
-59.917
-53.484
-49.5
-46.1
-42.577
-39.163
-35.787
-32.72
-30.079
-27.633
-25.299
-23.116
-21.049
-19.051
-17.125
-15.278
-13.515
-11.867
-10.329
-8.862
-7.44
-6.05
-4.672
-3.295
-1.903
-0.477
0.995
2.521
4.107
5.762
7.492
9.308
11.217
13.227
15.343
17.57
19.911
22.37
24.946
27.639
30.446
33.363
36.383
39.502
42.71
45.999
49.358
52.776
56.241
59.74
63.26
66.785
70.301
73.792
77.242
80.635
83.954
87.184
90.307
93.309
96.172
98.882
101.424
103.784
105.946
107.899
109.629
111.126
112.378
113.377
114.114
114.584
114.779
114.698
114.338
113.696
112.774
111.574
110.098
108.349
106.334
104.058
101.529
98.756
95.747
92.513
89.065
85.415
81.575
77.559
73.381
69.054
64.593
60.015
55.333
50.565
45.725
40.832
35.9
30.946
25.987
21.039
16.116
11.235
6.411
1.657
-3.012
-7.583
-12.044
-16.382
-20.588
-24.649
-28.558
-32.305
-35.882
-39.282
-42.5
-45.528
-48.364
-51.002
-53.439
-55.674
-57.705
-59.531
-61.154
-62.572
-63.79
-64.81
-65.634
-66.269
-66.719
-66.989
-67.088
-67.022
-66.798
-66.427
-65.917
-65.278
-64.519
-63.653
-62.689
-61.639
-60.514
-59.326
-58.086
-56.807
-55.499
-54.176
-52.848
-51.527
-50.226
-48.956
-47.727
-46.55
-45.437
-44.397
-43.439
-42.573
-41.805
-41.145
-40.599
-40.173
-39.871
-39.699
-39.659
-39.753
-39.983
-40.349
-40.849
-41.481
-42.241
-43.125
-44.127
-45.24
-46.458
-47.769
-49.166
-50.639
-52.176
-53.766
-55.396
-57.051
-58.72
-60.388
-62.04
-63.659
-65.23
-66.735
-68.161
-69.491
-70.71
-71.804
-72.757
-73.556
-74.19
-74.649
-74.919
-74.989
-74.847
-74.483
-73.894
-73.085
-72.053
-70.798
-69.325
-67.635
-65.742
-63.658
-61.385
-58.926
-56.286
-53.467
-50.492
-47.384
-44.161
-40.849
-37.459
-33.999
-30.495
-26.968
-23.428
-19.891
-16.362
-12.842
-9.378
-6.009
-2.769
0.299
3.183
5.867
8.327
10.547
12.509
14.19
15.583
16.68
17.443
17.847
17.867
17.468
16.68
15.534
14.05
12.27
10.227
7.948
5.478
2.853
0.091
-2.772
-5.705
-8.675
-11.608
-14.449
-17.154
-19.666
-21.98
-24.113
-26.074
-27.909
-29.675
-31.415
-33.186
-35.053
-37.053
-39.249
-41.7
-44.471
-47.687
-51.419
-55.664
-60.365
-65.311
-70.217
-74.824
-78.787
-81.671
-83.215
-83.303
-82.056
-80.026
-77.87
-76.213
-75.77
-77.183
-80.794
-86.624
-94.127
-101.947
-108.339
-111.32
-108.718
-98.517
-78.951
-48.68
-7.129
45.313
106.343
171.889
237.689
298.916
353.44
402.521
444.532
477.06
494.248
484.108
440.968
364.021
256.229
131.038
1.627
-120.231
-220.323
-290.899
-330.544
-341.781
-333.278
-315.374
-292.532
-265.955
-237.152
-205.396
-174.187
-149.444
-131.499
-120.854
-116.161
-113.572
-113.673
-116.536
-120.858
-126.374
-130.779
-132.191
-130.6
-126.009
-118.934
-110.303
-100.754
-91.051
-82.255
-75.021
-69.545
-65.854
-63.707
-62.746
-62.689
-63.168
-63.715
-64.057
-64.068
-63.68
-62.948
-61.918
-60.577
-58.957
-57.087
-54.942
-52.529
-49.869
-46.992
-43.992
-40.966
-37.992
-35.161
-32.536
-30.158
-28.063
-26.26
-24.733
-23.48
-22.494
-21.773
-21.337
-21.189
-21.313
-21.687
-22.263
-23
-23.862
-24.806
-25.788
-26.777
-27.74
-28.659
-29.527
-30.329
-31.049
-31.667
-32.16
-32.505
-32.684
-32.681
-32.481
-32.07
-31.435
-30.568
-29.462
-28.112
-26.512
-24.656
-22.538
-20.154
-17.504
-14.59
-11.415
-7.985
-4.309
-0.397
3.737
8.077
12.609
17.314
22.174
27.17
32.281
37.485
42.76
48.084
53.432
58.782
64.109
69.388
74.595
79.706
84.697
89.544
94.225
98.717
103
107.053
110.859
114.398
117.656
120.617
123.269
125.601
127.601
129.263
130.58
131.549
132.167
132.434
132.351
131.923
131.153
130.048
128.616
126.866
124.809
122.455
119.818
116.911
113.751
110.351
106.729
102.902
98.888
94.704
90.37
85.903
81.323
76.648
71.897
67.087
62.236
57.363
52.482
47.611
42.765
37.957
33.202
28.512
23.897
19.368
14.935
10.605
6.384
2.28
-1.704
-5.563
-9.295
-12.898
-16.37
-19.711
-22.922
-26.003
-28.957
-31.785
-34.491
-37.077
-39.547
-41.905
-44.156
-46.303
-48.351
-50.304
-52.167
-53.944
-55.64
-57.257
-58.801
-60.274
-61.68
-63.022
-64.302
-65.523
-66.685
-67.791
-68.841
-69.835
-70.773
-71.655
-72.48
-73.248
-73.957
-74.607
-75.194
-75.719
-76.178
-76.572
-76.897
-77.151
-77.334
-77.443
-77.476
-77.431
-77.308
-77.105
-76.821
-76.454
-76.003
-75.469
-74.85
-74.145
-73.355
-72.479
-71.516
-70.467
-69.331
-68.109
-66.8
-65.405
-63.925
-62.36
-60.71
-58.978
-57.162
-55.264
-53.285
-51.226
-49.086
-46.867
-44.57
-42.194
-39.743
-37.216
-34.616
-31.943
-29.2
-26.389
-23.511
-20.569
-17.566
-14.505
-11.39
-8.226
-5.018
-1.771
1.508
4.809
8.124
11.441
14.75
18.039
21.296
24.507
27.659
30.74
33.737
36.637
39.429
42.096
44.626
47.002
49.209
51.233
53.061
54.677
56.071
57.23
58.148
58.818
59.233
59.381
59.248
58.819
58.086
57.046
55.697
54.045
52.102
49.885
47.428
44.764
41.928
38.95
35.852
32.658
29.397
26.11
22.841
19.638
16.532
13.546
10.703
8.002
5.43
2.948
0.482
-2.036
-4.675
-7.505
-10.583
-13.974
-17.753
-21.983
-26.746
-32.154
-38.242
-44.991
-52.307
-59.939
-67.616
-75.068
-81.891
-87.646
-92.028
-94.835
-96.142
-96.413
-96.057
-95.468
-95.186
-95.612
-97.003
-99.454
-102.422
-104.708
-105.083
-102.076
-93.966
-79.338
-56.846
-25.24
15.867
66.012
124.504
188.731
254.19
317.118
373.611
422.442
466.089
503.703
531.144
540.673
521.231
468.386
385.663
281.671
168.305
54.444
-54.26
-152.281
-233.068
-290.258
-319.961
-322.515
-303.738
-270.559
-230.36
-190.734
-155.609
-128.52
-110.021
-96.399
-85.783
-76.008
-66.359
-59.52
-56.477
-57.282
-61.431
-66.597
-70.843
-73.142
-73.023
-70.773
-66.906
-61.816
-55.827
-49.331
-42.96
-37.396
-33.028
-29.972
-28.094
-27.122
-26.843
-27.053
-27.496
-27.897
-28.088
-28.003
-27.663
-27.157
-26.554
-25.903
-25.257
-24.672
-24.191
-23.846
-23.67
-23.682
-23.919
-24.425
-25.226
-26.339
-27.769
-29.508
-31.544
-33.858
-36.419
-39.192
-42.147
-45.257
-48.493
-51.826
-55.223
-58.646
-62.057
-65.417
-68.69
-71.837
-74.825
-77.621
-80.196
-82.523
-84.578
-86.34
-87.786
-88.895
-89.645
-90.019
-90
-89.577
-88.736
-87.47
-85.773
-83.644
-81.083
-78.094
-74.683
-70.857
-66.63
-62.013
-57.024
-51.68
-46.003
-40.016
-33.743
-27.213
-20.452
-13.493
-6.366
0.896
8.259
15.69
23.153
30.615
38.04
45.394
52.644
59.756
66.699
73.441
79.953
86.205
92.172
97.828
103.149
108.114
112.703
116.899
120.688
124.055
126.99
129.485
131.534
133.133
134.279
134.974
135.22
135.023
134.389
133.328
131.85
129.97
127.701
125.06
122.065
118.735
115.091
111.155
106.948
102.494
97.817
92.941
87.891
82.692
77.368
71.945
66.447
60.9
55.328
49.754
44.202
38.694
33.252
27.896
22.648
17.524
12.544
7.723
3.078
-1.379
-5.634
-9.675
-13.494
-17.08
-20.427
-23.529
-26.382
-28.982
-31.328
-33.419
-35.255
-36.838
-38.171
-39.258
-40.103
-40.712
-41.091
-41.248
-41.191
-40.929
-40.472
-39.829
-39.011
-38.03
-36.896
-35.621
-34.217
-32.696
-31.07
-29.351
-27.551
-25.684
-23.76
-21.792
-19.791
-17.769
-15.736
-13.704
-11.681
-9.679
-7.706
-5.771
-3.883
-2.049
-0.277
1.426
3.053
4.599
6.059
7.428
8.702
9.88
10.957
11.933
12.807
13.578
14.246
14.812
15.278
15.645
15.917
16.097
16.189
16.198
16.129
15.989
15.784
15.52
15.204
14.843
14.444
14.017
13.567
13.105
12.639
12.176
11.727
11.299
10.902
10.544
10.233
9.975
9.78
9.653
9.6
9.627
9.738
9.938
10.23
10.617
11.1
11.679
12.355
13.124
13.984
14.931
15.959
17.059
18.223
19.444
20.711
22.014
23.341
24.683
26.028
27.366
28.686
29.975
31.22
32.406
33.521
34.552
35.487
36.315
37.025
37.606
38.056
38.371
38.544
38.569
38.433
38.123
37.636
36.971
36.13
35.122
33.957
32.653
31.242
29.756
28.223
26.673
25.119
23.581
22.089
20.678
19.393
18.277
17.354
16.642
16.163
15.913
15.877
16.015
16.252
16.527
16.786
16.97
17.025
16.881
16.451
15.669
14.45
12.674
10.304
7.362
3.941
0.307
-3.229
-6.396
-8.826
-10.105
-10.009
-8.44
-5.544
-1.891
1.905
5.355
7.907
9.08
8.695
6.806
3.963
1.534
1.198
4.596
13.444
29.472
54.118
88.574
133.626
188.034
248.503
311.703
374.05
433.772
492.936
551.712
606.236
649.265
668.007
651.097
596.224
507.073
393.122
269.022
145.576
32.445
-59.776
-127.678
-171.017
-193.093
-201.972
-201.972
-193.411
-175.416
-148.366
-115.168
-82.217
-56.047
-37.537
-26.413
-20.904
-17.736
-17.783
-21.26
-26.841
-34.193
-41.084
-45.491
-47.187
-45.987
-42.231
-36.876
-30.664
-24.325
-18.832
-14.858
-12.664
-12.347
-13.757
-16.544
-20.374
-24.883
-29.611
-34.244
-38.632
-42.681
-46.404
-49.838
-52.992
-55.9
-58.608
-61.121
-63.425
-65.53
-67.46
-69.287
-71.098
-72.969
-74.969
-77.161
-79.594
-82.304
-85.306
-88.592
-92.147
-95.958
-100.017
-104.328
-108.895
-113.709
-118.744
-123.96
-129.319
-134.784
-140.317
-145.882
-151.439
-156.954
-162.404
-167.775
-173.054
-178.224
-183.263
-188.145
-192.847
-197.346
-201.622
-205.655
-209.426
-212.916
-216.108
-218.989
-221.545
-223.765
-225.634
-227.139
-228.265
-229.005
-229.349
-229.292
-228.83
-227.959
-226.68
-224.994
-222.906
-220.42
-217.544
-214.286
-210.653
-206.659
-202.315
-197.635
-192.634
-187.329
-181.739
-175.882
-169.779
-163.452
-156.922
-150.215
-143.352
-136.361
-129.265
-122.09
-114.862
-107.608
-100.352
-93.12
-85.938
-78.829
-71.817
-64.925
-58.174
-51.587
-45.182
-38.977
-32.989
-27.234
-21.726
-16.478
-11.501
-6.805
-2.398
1.714
5.524
9.031
12.231
15.126
17.717
20.007
22.001
23.706
25.129
26.281
27.172
27.816
28.225
28.414
28.4
28.198
27.826
27.303
26.644
25.87
24.997
24.046
23.033
21.977
20.895
19.806
18.724
17.667
16.649
15.685
14.789
13.973
13.249
12.629
12.122
11.737
11.482
11.364
11.388
11.558
11.877
12.346
12.967
13.737
14.656
15.72
16.924
18.265
19.735
21.328
23.035
24.849
26.759
28.756
30.829
32.967
35.158
37.391
39.655
41.939
44.231
46.521
48.797
51.049
53.265
55.435
57.548
59.593
61.562
63.443
65.229
66.91
68.48
69.932
71.258
72.453
73.512
74.431
75.206
75.833
76.312
76.64
76.82
76.852
76.739
76.486
76.099
75.585
74.95
74.202
73.346
72.391
71.345
70.213
69.002
67.72
66.375
64.979
63.544
62.083
60.609
59.136
57.681
56.259
54.885
53.573
52.333
51.174
50.111
49.159
48.338
47.663
47.14
46.774
46.569
46.524
46.635
46.883
47.24
47.678
48.179
48.739
49.366
50.063
50.833
51.675
52.589
53.59
54.697
55.922
57.269
58.744
60.366
62.179
64.253
66.645
69.382
72.456
75.84
79.504
83.413
87.513
91.732
95.967
100.122
104.13
107.941
111.504
114.749
117.564
119.808
121.37
122.183
122.216
121.463
119.921
117.615
114.609
111.023
107.008
102.696
98.178
93.52
88.793
84.101
79.579
75.385
71.637
68.411
65.756
63.711
62.303
61.523
61.316
61.543
62.032
62.639
63.24
63.728
64.015
63.958
63.35
62.057
60.035
57.355
54.252
50.943
47.58
44.412
41.774
39.91
38.965
38.772
38.722
38.254
36.97
34.491
30.626
25.417
19.045
12.223
6.395
3.091
3.935
10.503
23.873
45.114
75.218
114.584
163.127
219.236
279.43
340.565
399.662
456.061
512.286
567.508
617.795
654.477
664.096
639.46
580.22
492.7
388.94
277.661
165.536
58.654
-36.568
-111.79
-162.607
-189.103
-195.718
-188.733
-170.254
-141.704
-105.931
-68.83
-39.936
-25.58
-25.947
-35.337
-45.964
-53.425
-57.963
-62.96
-70.886
-81.593
-92.942
-102.214
-108.321
-111.481
-112.299
-111.673
-110.232
-108.532
-107.461
-107.588
-109.058
-111.888
-115.874
-120.799
-126.514
-132.732
-139.041
-145.15
-150.906
-156.255
-161.25
-165.912
-170.221
-174.199
-177.892
-181.347
-184.605
-187.679
-190.567
-193.275
-195.833
-198.28
-200.662
-203.017
-205.368
-207.721
-210.079
-212.441
-214.801
-217.145
-219.454
-221.7
-223.858
-225.907
-227.829
-229.601
-231.198
-232.595
-233.762
-234.675
-235.313
-235.655
-235.685
-235.386
-234.745
-233.751
-232.394
-230.668
-228.568
-226.086
-223.219
-219.963
-216.317
-212.282
-207.859
-203.054
-197.871
-192.319
-186.406
-180.146
-173.552
-166.637
-159.419
-151.916
-144.146
-136.131
-127.892
-119.453
-110.837
-102.07
-93.177
-84.185
-75.121
-66.012
-56.886
-47.77
-38.691
-29.678
-20.754
-11.948
-3.284
5.214
13.521
21.616
29.477
37.082
44.412
51.45
58.177
64.578
70.639
76.348
81.693
86.664
91.254
95.456
99.264
102.675
105.686
108.297
110.509
112.325
113.747
114.781
115.435
115.716
115.634
115.199
114.424
113.321
111.904
110.186
108.184
105.913
103.39
100.632
97.656
94.481
91.126
87.61
83.95
80.168
76.281
72.308
68.27
64.183
60.066
55.938
51.815
47.714
43.653
39.646
35.708
31.855
28.098
24.449
20.921
17.523
14.263
11.15
8.19
5.388
2.75
0.279
-2.023
-4.155
-6.115
-7.905
-9.527
-10.983
-12.277
-13.415
-14.401
-15.242
-15.945
-16.517
-16.967
-17.302
-17.533
-17.667
-17.715
-17.687
-17.594
-17.445
-17.252
-17.026
-16.776
-16.514
-16.25
-15.992
-15.75
-15.534
-15.349
-15.206
-15.109
-15.067
-15.085
-15.168
-15.322
-15.549
-15.854
-16.238
-16.703
-17.249
-17.876
-18.582
-19.366
-20.227
-21.162
-22.167
-23.238
-24.371
-25.561
-26.802
-28.087
-29.408
-30.757
-32.124
-33.502
-34.879
-36.245
-37.59
-38.903
-40.175
-41.397
-42.56
-43.653
-44.668
-45.597
-46.43
-47.159
-47.771
-48.257
-48.603
-48.804
-48.85
-48.736
-48.455
-48.001
-47.37
-46.563
-45.578
-44.412
-43.06
-41.51
-39.76
-37.817
-35.692
-33.404
-30.972
-28.408
-25.734
-22.98
-20.166
-17.305
-14.401
-11.438
-8.418
-5.351
-2.258
0.824
3.875
6.89
9.866
12.809
15.722
18.604
21.473
24.364
27.282
30.211
33.104
35.874
38.46
40.825
42.942
44.809
46.406
47.696
48.646
49.227
49.398
49.135
48.384
47.062
45.141
42.632
39.592
36.144
32.383
28.373
24.177
19.835
15.398
10.939
6.519
2.188
-1.989
-5.963
-9.661
-12.976
-15.863
-18.328
-20.425
-22.283
-24.001
-25.639
-27.276
-28.986
-30.851
-32.979
-35.435
-38.278
-41.614
-45.485
-49.898
-54.813
-59.995
-65.131
-69.909
-73.902
-76.66
-77.92
-77.518
-75.535
-72.499
-69.045
-65.787
-63.457
-62.686
-63.801
-66.886
-71.443
-76.099
-79.062
-78.42
-72.108
-58.042
-34.451
0.202
46.881
103.997
167.829
234.806
300.656
364.214
428.383
491.525
549.31
592.604
604.758
576.996
508.413
404.377
281.533
154.31
32.899
-72.406
-157.442
-220.846
-262.304
-286.808
-300.308
-305.982
-305.712
-298.887
-284.174
-263.072
-238.191
-212.479
-188.866
-168.717
-152.844
-141.615
-134.33
-130.195
-128.361
-127.682
-127.465
-126.969
-124.953
-120.77
-114.318
-105.645
-95.249
-83.765
-71.63
-59.546
-48.466
-38.911
-31.124
-25.19
-20.882
-17.975
-16.311
-15.564
-15.346
-15.417
-15.629
-15.92
-16.304
-16.728
-17.078
-17.233
-17.109
-16.656
-15.835
-14.623
-12.999
-10.961
-8.552
-5.84
-2.885
0.268
3.593
7.079
10.693
14.383
18.079
21.688
25.136
28.378
31.374
34.103
36.556
38.727
40.632
42.307
43.783
45.083
46.223
47.211
48.063
48.807
49.475
50.11
50.743
51.401
52.104
52.872
53.718
54.655
55.685
56.802
58.002
59.285
60.653
62.109
63.655
65.288
67.004
68.798
70.667
72.605
74.608
76.669
78.779
80.933
83.123
85.345
87.591
89.851
92.114
94.369
96.604
98.806
100.964
103.062
105.088
107.028
108.869
110.599
112.205
113.676
114.998
116.162
117.156
117.97
118.596
119.024
119.248
119.26
119.054
118.625
117.97
117.085
115.969
114.621
113.042
111.234
109.2
106.945
104.473
101.792
98.91
95.834
92.576
89.145
85.553
81.814
77.939
73.945
69.844
65.653
61.386
57.058
52.687
48.288
43.877
39.469
35.081
30.728
26.426
22.19
18.034
13.971
10.015
6.179
2.474
-1.09
-4.502
-7.754
-10.837
-13.746
-16.474
-19.017
-21.37
-23.532
-25.502
-27.277
-28.86
-30.251
-31.453
-32.47
-33.305
-33.964
-34.453
-34.778
-34.946
-34.964
-34.841
-34.585
-34.205
-33.71
-33.11
-32.414
-31.633
-30.776
-29.854
-28.876
-27.854
-26.796
-25.713
-24.613
-23.507
-22.403
-21.31
-20.236
-19.19
-18.178
-17.209
-16.288
-15.423
-14.619
-13.881
-13.215
-12.624
-12.113
-11.685
-11.343
-11.09
-10.927
-10.858
-10.882
-11.001
-11.215
-11.524
-11.927
-12.422
-13.008
-13.682
-14.442
-15.282
-16.201
-17.192
-18.251
-19.373
-20.551
-21.778
-23.048
-24.353
-25.685
-27.036
-28.397
-29.759
-31.112
-32.447
-33.753
-35.022
-36.244
-37.407
-38.502
-39.52
-40.45
-41.282
-42.007
-42.615
-43.097
-43.444
-43.648
-43.703
-43.6
-43.334
-42.9
-42.294
-41.51
-40.548
-39.406
-38.083
-36.58
-34.898
-33.041
-31.014
-28.822
-26.472
-23.973
-21.335
-18.572
-15.696
-12.722
-9.666
-6.544
-3.373
-0.17
3.047
6.262
9.457
12.615
15.716
18.742
21.67
24.483
27.161
29.687
32.042
34.21
36.175
37.929
39.46
40.76
41.814
42.604
43.116
43.342
43.278
42.927
42.296
41.396
40.248
38.885
37.342
35.655
33.852
31.953
29.983
27.969
25.952
23.982
22.102
20.341
18.714
17.231
15.888
14.671
13.537
12.407
11.209
9.863
8.301
6.471
4.304
1.722
-1.354
-5.017
-9.359
-14.396
-20.074
-26.284
-32.819
-39.456
-45.953
-51.967
-57.134
-61.232
-64.151
-65.935
-66.842
-67.116
-66.946
-66.597
-66.219
-65.826
-65.541
-65.286
-64.571
-62.129
-55.849
-43.903
-25.806
-3.542
19.769
42.795
68.024
101.799
149.663
213.099
287.175
361.798
430.023
487.677
532.203
563.521
575.638
559.317
510.468
426.302
309.922
174.624
32.997
-99.293
-203.947
-274.922
-312.368
-323.37
-323.537
-320.692
-316.569
-310.156
-296.266
-274.361
-248.184
-221.395
-198.122
-180.85
-169.97
-165.251
-165.821
-170.388
-177.605
-186.322
-195.533
-203.984
-210.492
-214.417
-215.56
-214.194
-210.912
-206.195
-200.49
-194.496
-188.956
-184.303
-180.715
-178.128
-176.271
-174.919
-173.87
-172.805
-171.393
-169.441
-166.861
-163.665
-159.944
-155.758
-151.151
-146.198
-140.973
-135.539
-129.948
-124.228
-118.407
-112.532
-106.662
-100.857
-95.166
-89.619
-84.236
-79.032
-74.014
-69.187
-64.546
-60.083
-55.791
-51.669
-47.712
-43.916
-40.271
-36.765
-33.383
-30.11
-26.93
-23.831
-20.8
-17.827
-14.902
-12.017
-9.163
-6.333
-3.519
-0.709
2.105
4.934
7.788
10.674
13.601
16.576
19.604
22.69
25.836
29.045
32.318
35.655
39.056
42.517
46.037
49.61
53.232
56.895
60.592
64.314
68.053
71.797
75.536
79.257
82.95
86.6
90.196
93.723
97.168
100.517
103.757
106.874
109.853
112.682
115.347
117.836
120.135
122.233
124.12
125.784
127.216
128.41
129.356
130.048
130.483
130.655
130.562
130.203
129.577
128.685
127.529
126.113
124.442
122.521
120.358
117.96
115.338
112.502
109.463
106.233
102.825
99.255
95.535
91.683
87.713
83.643
79.49
75.271
71.004
66.706
62.397
58.092
53.81
49.569
45.385
41.275
37.254
33.339
29.542
25.878
22.359
18.997
15.803
12.785
9.952
7.31
4.867
2.625
0.589
-1.241
-2.862
-4.275
-5.482
-6.486
-7.29
-7.899
-8.319
-8.556
-8.619
-8.516
-8.256
-7.849
-7.306
-6.636
-5.853
-4.968
-3.992
-2.937
-1.817
-0.643
0.574
1.82
3.085
4.358
5.627
6.883
8.116
9.317
10.476
11.588
12.645
13.641
14.57
15.427
16.21
16.914
17.538
18.079
18.537
18.911
19.201
19.407
19.533
19.578
19.546
19.439
19.261
19.015
18.706
18.336
17.91
17.433
16.91
16.344
15.742
15.107
14.445
13.76
13.057
12.342
11.617
10.887
10.157
9.428
8.705
7.99
7.286
6.596
5.921
5.264
4.627
4.011
3.416
2.845
2.296
1.77
1.267
0.786
0.327
-0.111
-0.53
-0.93
-1.313
-1.68
-2.034
-2.376
-2.711
-3.04
-3.368
-3.698
-4.035
-4.383
-4.746
-5.13
-5.539
-5.978
-6.453
-6.969
-7.533
-8.149
-8.826
-9.571
-10.392
-11.298
-12.295
-13.39
-14.59
-15.903
-17.332
-18.879
-20.547
-22.337
-24.253
-26.298
-28.473
-30.778
-33.214
-35.776
-38.463
-41.271
-44.191
-47.207
-50.307
-53.479
-56.714
-60.014
-63.371
-66.775
-70.214
-73.672
-77.13
-80.568
-83.952
-87.238
-90.383
-93.348
-96.101
-98.623
-100.885
-102.852
-104.487
-105.74
-106.574
-106.964
-106.88
-106.304
-105.24
-103.703
-101.734
-99.402
-96.766
-93.896
-90.867
-87.752
-84.64
-81.607
-78.752
-76.217
-74.088
-72.384
-71.033
-69.806
-68.409
-66.578
-63.976
-60.198
-54.981
-48.224
-40.18
-31.559
-23.201
-15.891
-10.331
-7.107
-6.561
-8.643
-12.499
-16.418
-18.15
-15.312
-5.825
12.306
40.874
81.074
133.307
195.873
264.858
336.175
405.594
470.993
533.11
590.01
637.835
669.122
672.385
641.956
577.859
485.583
377.045
261.707
146.011
36.908
-60.721
-141.401
-197.918
-227.75
-230.906
-209.415
-171.444
-126.083
-83.417
-52.921
-37.081
-33.219
-34.56
-34.408
-30.548
-24.306
-19.789
-19.701
-23.675
-29.949
-35.573
-38.549
-38.635
-36.069
-31.377
-25.139
-17.775
-9.775
-1.888
5.149
10.966
15.43
18.538
20.412
21.153
20.878
19.858
18.442
16.835
15.133
13.374
11.539
9.675
7.882
6.202
4.625
3.146
1.76
0.496
-0.576
-1.403
-1.973
-2.301
-2.417
-2.343
-2.076
-1.628
-1.03
-0.341
0.366
1.045
1.679
2.263
2.789
3.244
3.601
3.845
3.977
4.008
3.946
3.797
3.56
3.241
2.863
2.461
2.073
1.727
1.435
1.208
1.054
0.982
1.001
1.112
1.307
1.582
1.933
2.358
2.859
3.429
4.059
4.735
5.446
6.178
6.921
7.665
8.398
9.108
9.786
10.423
11.013
11.547
12.014
12.405
12.707
12.91
13.003
12.976
12.819
12.52
12.072
11.467
10.697
9.758
8.643
7.347
5.867
4.201
2.344
0.298
-1.939
-4.366
-6.98
-9.779
-12.757
-15.911
-19.233
-22.717
-26.354
-30.136
-34.051
-38.09
-42.24
-46.49
-50.826
-55.233
-59.698
-64.204
-68.736
-73.277
-77.811
-82.32
-86.787
-91.196
-95.529
-99.769
-103.9
-107.906
-111.769
-115.475
-119.008
-122.353
-125.496
-128.423
-131.122
-133.581
-135.787
-137.733
-139.407
-140.802
-141.912
-142.73
-143.253
-143.477
-143.4
-143.022
-142.343
-141.366
-140.093
-138.53
-136.681
-134.553
-132.154
-129.494
-126.581
-123.427
-120.044
-116.442
-112.636
-108.638
-104.463
-100.124
-95.636
-91.015
-86.276
-81.434
-76.504
-71.504
-66.447
-61.349
-56.227
-51.094
-45.966
-40.856
-35.778
-30.746
-25.771
-20.867
-16.043
-11.312
-6.682
-2.163
2.237
6.51
10.649
14.649
18.504
22.21
25.763
29.158
32.395
35.469
38.379
41.124
43.704
46.118
48.365
50.448
52.367
54.125
55.722
57.163
58.448
59.583
60.57
61.414
62.119
62.69
63.133
63.451
63.652
63.742
63.727
63.613
63.406
63.113
62.742
62.298
61.789
61.222
60.605
59.945
59.25
58.528
57.788
57.037
56.283
55.535
54.8
54.086
53.402
52.753
52.15
51.597
51.104
50.675
50.318
50.037
49.837
49.722
49.696
49.759
49.913
50.159
50.496
50.925
51.443
52.046
52.732
53.494
54.328
55.226
56.178
57.173
58.198
59.242
60.293
61.336
62.357
63.338
64.265
65.124
65.903
66.585
67.154
67.592
67.885
68.019
67.985
67.772
67.366
66.752
65.924
64.878
63.614
62.132
60.424
58.474
56.277
53.831
51.142
48.215
45.055
41.665
38.059
34.268
30.325
26.268
22.129
17.922
13.666
9.376
5.073
0.803
-3.386
-7.461
-11.393
-15.166
-18.798
-22.282
-25.589
-28.782
-31.99
-35.423
-39.317
-43.773
-48.727
-54.117
-60.036
-66.508
-73.372
-80.168
-86.209
-91.078
-94.801
-97.539
-99.232
-99.807
-99.387
-98.622
-98.772
-100.791
-105.011
-111.43
-119.992
-130.633
-143.144
-156.55
-168.863
-178.084
-182.403
-180.165
-170.079
-150.844
-121.162
-80.621
-29.931
29.767
95.582
163.212
229.026
288.654
339.959
384.111
419.276
442.718
449.331
429.172
378.368
297.633
190.36
68.391
-57.06
-175.77
-274.452
-345.959
-388.836
-404.133
-399.685
-383.628
-358.238
-327.476
-294.823
-261.665
-234.335
-215.118
-201.048
-191.254
-182.131
-171.838
-163.222
-157.145
-153.778
-152.935
-152.213
-149.695
-144.949
-137.969
-129.188
-119.286
-108.769
-98.021
-87.683
-78.577
-71.101
-65.374
-61.403
-58.914
-57.616
-57.283
-57.517
-57.848
-58.014
-57.857
-57.29
-56.34
-54.979
-53.126
-50.779
-47.958
-44.678
-40.974
-36.864
-32.357
-27.517
-22.448
-17.268
-12.106
-7.048
-2.135
2.589
7.097
11.356
15.333
19.021
22.425
25.548
28.394
30.968
33.273
35.336
37.199
38.91
40.521
42.072
43.587
45.09
46.602
48.138
49.716
51.34
53.013
54.74
56.53
58.392
60.339
62.375
64.5
66.715
69.017
71.405
73.878
76.434
79.07
81.785
84.575
87.439
90.376
93.382
96.449
99.57
102.734
105.93
109.148
112.373
115.592
118.79
121.953
125.065
128.114
131.082
133.956
136.719
139.358
141.856
144.198
146.371
148.359
150.15
151.731
153.088
154.212
155.09
155.715
156.076
156.168
155.982
155.514
154.758
153.711
152.371
150.737
148.809
146.589
144.079
141.285
138.211
134.864
131.254
127.388
123.277
118.932
114.365
109.59
104.62
99.471
94.157
88.695
83.103
77.398
71.597
65.718
59.781
53.803
47.803
41.799
35.81
29.854
23.949
18.113
12.363
6.715
1.187
-4.206
-9.45
-14.529
-19.431
-24.143
-28.652
-32.95
-37.025
-40.869
-44.475
-47.836
-50.948
-53.806
-56.408
-58.751
-60.836
-62.663
-64.233
-65.551
-66.619
-67.442
-68.026
-68.377
-68.502
-68.408
-68.104
-67.599
-66.902
-66.024
-64.974
-63.764
-62.405
-60.908
-59.286
-57.55
-55.713
-53.788
-51.785
-49.719
-47.602
-45.445
-43.261
-41.062
-38.859
-36.663
-34.484
-32.334
-30.22
-28.152
-26.139
-24.187
-22.305
-20.498
-18.774
-17.137
-15.593
-14.146
-12.8
-11.56
-10.427
-9.405
-8.494
-7.697
-7.014
-6.445
-5.989
-5.644
-5.41
-5.282
-5.258
-5.332
-5.501
-5.758
-6.097
-6.512
-6.996
-7.541
-8.139
-8.783
-9.464
-10.173
-10.901
-11.64
-12.38
-13.112
-13.827
-14.516
-15.17
-15.778
-16.333
-16.826
-17.248
-17.59
-17.845
-18.004
-18.061
-18.009
-17.843
-17.557
-17.148
-16.612
-15.948
-15.154
-14.232
-13.183
-12.01
-10.715
-9.304
-7.783
-6.159
-4.44
-2.636
-0.758
1.182
3.168
5.188
7.225
9.263
11.288
13.28
15.226
17.11
18.917
20.634
22.242
23.727
25.07
26.259
27.28
28.119
28.768
29.214
29.452
29.48
29.298
28.903
28.288
27.442
26.357
25.033
23.471
21.68
19.671
17.456
15.059
12.517
9.864
7.136
4.363
1.565
-1.231
-3.986
-6.657
-9.185
-11.521
-13.632
-15.49
-17.074
-18.384
-19.425
-20.226
-20.843
-21.339
-21.78
-22.239
-22.778
-23.472
-24.393
-25.648
-27.39
-29.682
-32.512
-35.778
-39.222
-42.594
-45.688
-48.172
-49.665
-49.988
-49.079
-47.171
-44.951
-42.982
-41.711
-41.728
-43.342
-46.469
-51.023
-56.4
-61.045
-63.556
-61.816
-52.686
-34.899
-8.21
26.543
65.997
109.225
157.452
211.918
275.293
346.467
421.17
494.065
556.278
599.943
617.587
602.457
554.349
476.156
373.277
254.962
129.273
5.37
-103.933
-188.458
-242.677
-266.59
-268.948
-260.915
-249.048
-236.44
-222.006
-202.529
-178.575
-153.003
-128.948
-110.112
-98.17
-92.646
-92.578
-96.617
-103.299
-111.434
-119.995
-127.724
-133.481
-136.81
-137.691
-136.385
-133.446
-129.417
-124.738
-120.074
-116.133
-113.251
-111.527
-110.88
-111.038
-111.752
-112.816
-113.918
-114.728
-115.067
-114.848
-114.071
-112.812
-111.118
-109.02
-106.58
-103.865
-100.925
-97.805
-94.53
-91.123
-87.627
-84.097
-80.589
-77.146
-73.794
-70.55
-67.424
-64.421
-61.541
-58.78
-56.124
-53.565
-51.096
-48.711
-46.408
-44.18
-42.01
-39.883
-37.791
-35.729
-33.688
-31.669
-29.655
-27.628
-25.593
-23.556
-21.489
-19.367
-17.171
-14.87
-12.478
-10.028
-7.492
-4.828
-2.132
0.481
3.084
5.67
8.219
10.982
13.278
14.442
15.42
16.495
19.401
26.215
34.629
43.1
49.338
50.195
48.439
46.416
45.729
49.035
54.415
59.929
65.135
68.844
71.728
74.654
77.443
80.194
82.836
85.181
87.333
89.372
91.259
92.974
94.519
95.881
97.045
97.998
98.715
99.169
99.362
99.296
98.963
98.36
97.485
96.334
94.91
93.214
91.25
89.018
86.523
83.77
80.767
77.522
74.044
70.344
66.432
62.323
58.028
53.564
48.944
44.186
39.305
34.319
29.247
24.107
18.918
13.699
8.47
3.25
-1.94
-7.082
-12.156
-17.145
-22.03
-26.793
-31.419
-35.89
-40.193
-44.313
-48.238
-51.955
-55.455
-58.727
-61.764
-64.558
-67.106
-69.402
-71.443
-73.229
-74.758
-76.032
-77.052
-77.822
-78.347
-78.63
-78.681
-78.505
-78.113
-77.513
-76.717
-75.735
-74.579
-73.263
-71.798
-70.198
-68.476
-66.646
-64.722
-62.717
-60.646
-58.52
-56.354
-54.161
-51.952
-49.74
-47.535
-45.35
-43.194
-41.078
-39.009
-36.998
-35.052
-33.178
-31.385
-29.677
-28.061
-26.542
-25.124
-23.811
-22.605
-21.509
-20.523
-19.65
-18.889
-18.239
-17.701
-17.271
-16.95
-16.733
-16.619
-16.603
-16.683
-16.853
-17.11
-17.449
-17.866
-18.354
-18.909
-19.525
-20.196
-20.917
-21.68
-22.481
-23.311
-24.164
-25.033
-25.909
-26.785
-27.653
-28.504
-29.331
-30.125
-30.879
-31.584
-32.232
-32.816
-33.328
-33.761
-34.108
-34.361
-34.515
-34.563
-34.499
-34.32
-34.02
-33.595
-33.042
-32.359
-31.542
-30.592
-29.506
-28.285
-26.93
-25.442
-23.825
-22.081
-20.217
-18.239
-16.154
-13.972
-11.705
-9.364
-6.963
-4.514
-2.033
0.466
2.968
5.459
7.925
10.352
12.724
15.026
17.241
19.352
21.346
23.209
24.927
26.486
27.876
29.09
30.122
30.965
31.611
32.043
32.248
32.219
31.954
31.451
30.72
29.768
28.614
27.29
25.83
24.266
22.629
20.938
19.214
17.491
15.807
14.21
12.748
11.446
10.325
9.405
8.682
8.137
7.728
7.377
7.017
6.588
6.018
5.25
4.233
2.884
1.144
-1.076
-3.918
-7.42
-11.533
-16.171
-21.117
-26.094
-30.851
-34.996
-38.037
-39.711
-39.974
-38.915
-36.861
-34.322
-31.857
-29.994
-29.412
-29.864
-29.892
-29.097
-27.4
-25.288
-24.885
-24.235
-17.975
-0.933
33.27
85.161
149.126
219.332
287.752
349.819
405.597
455.129
501.067
543.794
578.575
599.676
598.373
566.725
504.165
412.391
296.166
167.129
35.956
-83.692
-174.92
-231.2
-253.048
-248.026
-231.045
-211.174
-190.461
-167.538
-140.445
-110.333
-82.678
-63.904
-54.962
-54.627
-59.995
-66.683
-74.342
-82.786
-90.861
-98.169
-103.057
-104.45
-102.655
-98.095
-91.674
-84.435
-77.147
-70.656
-65.541
-61.952
-59.886
-59.131
-59.401
-60.433
-61.879
-63.336
-64.517
-65.277
-65.56
-65.406
-64.845
-63.875
-62.532
-60.874
-58.954
-56.818
-54.496
-51.999
-49.351
-46.602
-43.808
-41.036
-38.344
-35.772
-33.345
-31.084
-29.001
-27.105
-25.396
-23.866
-22.497
-21.279
-20.2
-19.252
-18.425
-17.704
-17.069
-16.503
-15.985
-15.502
-15.039
-14.584
-14.124
-13.648
-13.145
-12.607
-12.026
-11.394
-10.701
-9.937
-9.093
-8.159
-7.128
-5.991
-4.742
-3.373
-1.88
-0.258
1.495
3.383
5.406
7.565
9.859
12.286
14.842
17.523
20.326
23.242
26.265
29.386
32.596
35.885
39.24
42.651
46.103
49.583
53.077
56.571
60.05
63.5
66.903
70.247
73.514
76.69
79.758
82.704
85.512
88.166
90.653
92.959
95.069
96.973
98.658
100.113
101.33
102.299
103.014
103.468
103.655
103.573
103.219
102.593
101.696
100.529
99.097
97.406
95.462
93.273
90.848
88.198
85.335
82.272
79.021
75.598
72.018
68.299
64.456
60.51
56.478
52.381
48.236
44.065
39.888
35.723
31.591
27.51
23.5
19.58
15.766
12.075
8.523
5.125
1.895
-1.156
-4.016
-6.678
-9.132
-11.372
-13.393
-15.192
-16.767
-18.116
-19.24
-20.141
-20.822
-21.287
-21.542
-21.594
-21.452
-21.124
-20.621
-19.953
-19.134
-18.174
-17.088
-15.888
-14.589
-13.204
-11.749
-10.238
-8.685
-7.105
-5.511
-3.917
-2.336
-0.78
0.74
2.212
3.626
4.974
6.245
7.433
8.528
9.526
10.418
11.202
11.871
12.422
12.854
13.164
13.352
13.417
13.359
13.179
12.878
12.458
11.922
11.271
10.51
9.642
8.671
7.602
6.44
5.19
3.856
2.443
0.957
-0.597
-2.214
-3.89
-5.619
-7.394
-9.21
-11.06
-12.937
-14.835
-16.745
-18.659
-20.571
-22.473
-24.359
-26.223
-28.057
-29.855
-31.61
-33.316
-34.966
-36.552
-38.062
-39.486
-40.816
-42.044
-43.163
-44.164
-45.041
-45.786
-46.395
-46.864
-47.19
-47.365
-47.376
-47.211
-46.864
-46.342
-45.654
-44.809
-43.814
-42.676
-41.411
-40.038
-38.572
-37.015
-35.356
-33.583
-31.696
-29.708
-27.645
-25.533
-23.385
-21.197
-18.963
-16.686
-14.371
-12.016
-9.605
-7.11
-4.531
-1.9
0.716
3.249
5.656
7.915
10.019
11.957
13.702
15.215
16.458
17.407
18.041
18.329
18.213
17.633
16.568
15.054
13.185
11.048
8.702
6.188
3.53
0.766
-2.046
-4.845
-7.581
-10.207
-12.692
-14.987
-17.018
-18.726
-20.099
-21.184
-22.089
-22.912
-23.716
-24.565
-25.518
-26.648
-28.054
-29.805
-31.979
-34.683
-37.942
-41.736
-46.005
-50.522
-55.037
-59.302
-62.917
-65.483
-66.825
-66.825
-65.616
-63.732
-61.602
-59.641
-58.468
-58.411
-59.459
-61.712
-64.825
-67.582
-68.921
-66.818
-58.074
-41.568
-17.139
14.301
49.124
86.99
130.319
181.073
242.532
313.473
387.762
459.072
519.85
562.928
583.196
576.243
538.212
469.963
375.303
258.577
129.398
-2.344
-126.143
-227.241
-297.284
-334.491
-341.265
-329.103
-307.88
-281.628
-255.424
-229.045
-202.147
-179.093
-159.339
-143.191
-131.724
-122.316
-115.684
-112.62
-112.027
-113.828
-116.494
-118.067
-117.697
-114.958
-110.024
-103.396
-95.561
-87.039
-78.359
-70.224
-63.354
-58.083
-54.485
-52.443
-51.64
-51.751
-52.477
-53.441
-54.278
-54.782
-54.846
-54.443
-53.612
-52.367
-50.696
-48.598
-46.092
-43.191
-39.931
-36.359
-32.541
-28.587
-24.609
-20.709
-16.966
-13.427
-10.119
-7.058
-4.247
-1.684
0.633
2.699
4.508
6.054
7.342
8.391
9.236
9.921
10.493
10.995
11.466
11.936
12.426
12.952
13.526
14.15
14.834
15.588
16.427
17.365
18.417
19.594
20.904
22.353
23.943
25.679
27.559
29.584
31.756
34.074
36.539
39.153
41.914
44.819
47.865
51.043
54.346
57.762
61.28
64.886
68.566
72.306
76.091
79.904
83.73
87.552
91.351
95.112
98.815
102.443
105.977
109.399
112.692
115.836
118.815
121.612
124.21
126.594
128.749
130.662
132.321
133.715
134.833
135.668
136.21
136.456
136.399
136.037
135.369
134.395
133.116
131.538
129.664
127.501
125.056
122.339
119.36
116.13
112.662
108.969
105.066
100.969
96.694
92.259
87.682
82.982
78.178
73.289
68.335
63.335
58.31
53.278
48.258
43.27
38.331
33.458
28.669
23.978
19.402
14.952
10.643
6.485
2.488
-1.337
-4.985
-8.446
-11.717
-14.792
-17.669
-20.346
-22.821
-25.094
-27.169
-29.046
-30.73
-32.225
-33.536
-34.669
-35.632
-36.431
-37.074
-37.569
-37.924
-38.15
-38.253
-38.244
-38.131
-37.922
-37.626
-37.252
-36.806
-36.296
-35.73
-35.114
-34.453
-33.755
-33.024
-32.266
-31.485
-30.685
-29.872
-29.047
-28.215
-27.378
-26.539
-25.699
-24.86
-24.024
-23.193
-22.368
-21.551
-20.742
-19.943
-19.156
-18.382
-17.623
-16.88
-16.156
-15.453
-14.774
-14.121
-13.498
-12.908
-12.356
-11.846
-11.38
-10.963
-10.6
-10.294
-10.049
-9.868
-9.755
-9.714
-9.748
-9.859
-10.051
-10.326
-10.686
-11.133
-11.667
-12.291
-13.002
-13.801
-14.686
-15.656
-16.708
-17.84
-19.049
-20.329
-21.677
-23.088
-24.555
-26.072
-27.633
-29.228
-30.852
-32.496
-34.152
-35.812
-37.469
-39.116
-40.745
-42.35
-43.925
-45.464
-46.961
-48.412
-49.812
-51.158
-52.448
-53.677
-54.847
-55.957
-57.011
-58.012
-58.963
-59.87
-60.737
-61.572
-62.38
-63.168
-63.939
-64.698
-65.453
-66.21
-66.981
-67.772
-68.592
-69.449
-70.351
-71.306
-72.32
-73.396
-74.531
-75.726
-76.983
-78.309
-79.716
-81.213
-82.802
-84.484
-86.257
-88.114
-90.046
-92.031
-94.037
-96.034
-97.992
-99.892
-101.719
-103.453
-105.072
-106.542
-107.828
-108.904
-109.746
-110.342
-110.695
-110.823
-110.753
-110.544
-110.263
-109.981
-109.788
-109.763
-109.981
-110.524
-111.447
-112.825
-114.774
-117.346
-120.514
-124.155
-127.99
-131.7
-135.037
-137.697
-139.293
-139.559
-138.401
-136.05
-133.133
-130.363
-128.351
-127.548
-128.379
-131.251
-136.086
-142.016
-147.788
-150.981
-148.992
-140.797
-124.736
-100.671
-70.118
-32.013
13.481
66.25
128.107
196.553
267.44
335.537
390.782
423.984
428.616
400.409
341.722
259.457
159.119
45.233
-76.755
-201.34
-317.078
-408.038
-465.853
-488.546
-481.99
-459.118
-426.606
-387.479
-344.627
-300.55
-262.143
-235.605
-222.054
-217.756
-216.475
-214.07
-210.062
-206.889
-206.408
-208.194
-210.21
-209.922
-206.278
-199.564
-190.554
-180.328
-169.751
-159.567
-150.71
-143.768
-138.873
-135.994
-134.866
-135.146
-136.509
-138.51
-140.635
-142.562
-144.143
-145.308
-146.067
-146.382
-146.165
-145.397
-144.1
-142.289
-139.99
-137.212
-133.961
-130.3
-126.34
-122.209
-118.041
-113.919
-109.888
-105.986
-102.246
-98.703
-95.396
-92.333
-89.506
-86.916
-84.555
-82.421
-80.507
-78.783
-77.201
-75.708
-74.249
-72.782
-71.281
-69.722
-68.083
-66.347
-64.498
-62.529
-60.441
-58.226
-55.875
-53.378
-50.724
-47.909
-44.932
-41.793
-38.496
-35.043
-31.433
-27.669
-23.756
-19.695
-15.487
-11.137
-6.645
-2.016
2.742
7.619
12.605
17.688
22.854
28.089
33.377
38.703
44.05
49.401
54.74
60.051
65.316
70.517
75.637
80.658
85.562
90.333
94.953
99.405
103.672
107.74
111.593
115.217
118.598
121.724
124.584
127.167
129.464
131.466
133.167
134.56
135.641
136.406
136.856
136.988
136.806
136.311
135.509
134.404
133.003
131.315
129.348
127.112
124.62
121.884
118.917
115.733
112.348
108.778
105.041
101.153
97.133
92.999
88.769
84.464
80.101
75.701
71.282
66.862
62.461
58.097
53.788
49.551
45.402
41.357
37.432
33.64
29.995
26.509
23.193
20.057
17.112
14.364
11.821
9.489
7.372
5.473
3.795
2.338
1.101
0.085
-0.715
-1.301
-1.677
-1.849
-1.822
-1.603
-1.199
-0.618
0.132
1.041
2.1
3.299
4.629
6.08
7.64
9.3
11.049
12.877
14.772
16.724
18.721
20.754
22.812
24.883
26.958
29.027
31.081
33.112
35.112
37.074
38.992
40.858
42.668
44.416
46.097
47.706
49.24
50.694
52.065
53.35
54.548
55.657
56.675
57.601
58.435
59.177
59.826
60.385
60.853
61.235
61.532
61.751
61.894
61.969
61.982
61.941
61.854
61.729
61.574
61.396
61.203
61.002
60.798
60.597
60.407
60.233
60.084
59.971
59.902
59.889
59.944
60.077
60.299
60.618
61.043
61.579
62.232
63.004
63.903
64.935
66.109
67.431
68.9
70.513
72.257
74.118
76.071
78.093
80.157
82.241
84.332
86.424
88.522
90.631
92.757
94.896
97.032
99.149
101.236
103.286
105.296
107.28
109.257
111.254
113.301
115.415
117.601
119.837
122.081
124.28
126.371
128.31
130.081
131.666
133.054
134.224
135.151
135.793
136.097
135.998
135.418
134.293
132.565
130.207
127.222
123.633
119.487
114.808
109.595
103.846
97.56
90.748
83.437
75.672
67.516
59.055
50.4
41.673
