Name,Criss Capps
Date of Birth,"Feb 5, 1952"
Recorded Date,2020-02-28 22:48:07 -0400
Classification,Poor Recording
Symptoms,
Software Version,1.52
Device,"Watch5,4"
Sample Rate,512.844 hertz


Lead,Lead I
Unit,µV

34.681
29.298
22.645
14.747
5.635
-4.582
-15.757
-27.699
-40.144
-52.868
-65.678
-78.384
-90.837
-102.906
-114.425
-125.237
-135.181
-144.048
-151.68
-157.96
-162.787
-166.134
-168.007
-168.438
-167.518
-165.337
-161.972
-157.523
-152.069
-145.681
-138.47
-130.556
-122.078
-113.236
-104.191
-95.068
-85.981
-76.998
-68.169
-59.54
-51.122
-42.907
-34.897
-27.082
-19.463
-12.054
-4.844
2.194
9.099
15.946
22.786
29.646
36.544
43.478
50.441
57.421
64.39
71.3
78.109
84.777
91.27
97.562
103.621
109.403
114.861
119.944
124.609
128.829
132.58
135.844
138.608
140.86
142.6
143.839
144.587
144.851
144.64
143.959
142.823
141.257
139.282
136.92
134.19
131.095
127.646
123.863
119.764
115.374
110.722
105.833
100.75
95.529
90.23
84.915
79.644
74.458
69.409
64.561
59.984
55.768
51.996
48.725
46.005
43.864
42.316
41.357
40.961
41.057
41.556
42.34
43.285
44.269
45.154
45.808
46.059
45.643
44.398
42.296
39.434
36.141
32.759
29.488
26.677
24.832
24.211
24.969
26.931
29.196
31.018
32.056
31.816
30.1
27.165
23.15
18.84
16.344
17.705
24.827
40.006
64.63
99.575
146.447
206.382
279.035
363.372
455.776
549.867
640.524
724.514
803.082
880.372
957.252
1027.551
1073.083
1072.334
1009.678
882.941
712.416
528.593
362.442
235.382
148.369
91.023
47.275
4.122
-40.123
-81.486
-112.888
-129.182
-131.086
-122.166
-106.981
-88.985
-69.673
-48.961
-26.32
-2.169
22.514
46.212
67.164
84.621
98.403
108.036
113.388
114.765
112.926
109.645
106.735
105.092
105.135
107.035
110.608
115.608
121.447
126.891
130.889
132.934
132.832
130.749
127.025
121.936
115.899
109.54
103.349
97.661
92.703
88.524
85.127
82.531
80.703
79.57
79.09
79.216
79.897
81.101
82.769
84.829
87.223
89.891
92.762
95.757
98.787
101.766
104.638
107.372
109.945
112.341
114.554
116.588
118.463
120.208
121.852
123.415
124.917
126.374
127.808
129.247
130.72
132.256
133.877
135.595
137.419
139.353
141.397
143.548
145.793
148.115
150.5
152.937
155.413
157.918
160.439
162.962
165.472
167.953
170.39
172.766
175.068
177.279
179.385
181.371
183.227
184.94
186.5
187.894
189.11
190.139
190.967
191.587
191.989
192.165
192.106
191.808
191.265
190.475
189.436
188.147
186.61
184.826
182.8
180.535
178.037
175.312
172.369
169.214
165.857
162.308
158.577
154.676
150.615
146.408
142.067
137.606
133.038
128.375
123.631
118.82
113.954
109.046
104.11
99.156
94.199
89.251
84.323
79.427
74.574
69.774
65.037
60.372
55.788
51.291
46.889
42.589
38.396
34.317
30.355
26.516
22.803
19.22
15.77
12.454
9.276
6.235
3.333
0.57
-2.054
-4.538
-6.884
-9.092
-11.163
-13.099
-14.9
-16.571
-18.112
-19.527
-20.819
-21.991
-23.048
-23.993
-24.83
-25.563
-26.196
-26.733
-27.178
-27.536
-27.811
-28.007
-28.13
-28.184
-28.173
-28.103
-27.978
-27.803
-27.583
-27.321
-27.024
-26.696
-26.34
-25.963
-25.568
-25.161
-24.746
-24.327
-23.909
-23.497
-23.093
-22.702
-22.326
-21.969
-21.633
-21.321
-21.036
-20.779
-20.553
-20.359
-20.199
-20.073
-19.984
-19.931
-19.915
-19.935
-19.992
-20.086
-20.214
-20.377
-20.574
-20.804
-21.064
-21.355
-21.673
-22.018
-22.386
-22.777
-23.186
-23.613
-24.054
-24.507
-24.971
-25.442
-25.92
-26.403
-26.888
-27.374
-27.86
-28.345
-28.827
-29.306
-29.779
-30.248
-30.711
-31.168
-31.619
-32.065
-32.507
-32.944
-33.377
-33.807
-34.236
-34.663
-35.089
-35.515
-35.943
-36.373
-36.806
-37.243
-37.685
-38.133
-38.588
-39.049
-39.517
-39.991
-40.472
-40.957
-41.448
-41.941
-42.436
-42.932
-43.426
-43.916
-44.4
-44.876
-45.341
-45.79
-46.222
-46.63
-47.012
-47.363
-47.679
-47.954
-48.186
-48.369
-48.499
-48.572
-48.584
-48.53
-48.407
-48.21
-47.936
-47.582
-47.143
-46.619
-46.006
-45.304
-44.511
-43.627
-42.651
-41.586
-40.431
-39.189
-37.862
-36.453
-34.965
-33.404
-31.776
-30.086
-28.343
-26.555
-24.734
-22.891
-21.039
-19.19
-17.359
-15.56
-13.807
-12.115
-10.497
-8.967
-7.536
-6.218
-5.029
-3.983
-3.096
-2.381
-1.852
-1.52
-1.397
-1.491
-1.808
-2.348
-3.116
-4.115
-5.359
-6.857
-8.616
-10.638
-12.922
-15.46
-18.234
-21.219
-24.375
-27.659
-31.026
-34.437
-37.858
-41.256
-44.592
-47.819
-50.882
-53.721
-56.284
-58.531
-60.424
-61.952
-63.133
-64.014
-64.682
-65.23
-65.731
-66.271
-66.949
-67.864
-69.141
-70.907
-73.251
-76.321
-80.315
-85.318
-91.332
-98.16
-105.341
-112.434
-119.045
-124.663
-128.742
-130.854
-130.735
-128.746
-125.832
-122.819
-120.418
-119.175
-119.479
-121.78
-126.158
-131.403
-135.237
-135.126
-128.383
-112.819
-86.401
-46.637
8.385
78.8
162.917
257.609
358.608
461.506
561.093
650.699
723.461
773.555
797.057
791.949
757.961
696.043
609.006
502.223
382.785
258.282
135.554
20.737
-81.037
-165.72
-230.769
-276.253
-304.23
-317.595
-319.363
-312.796
-301.047
-287.151
-273.56
-260.781
-248.456
-236.252
-223.909
-211.429
-198.758
-185.365
-171.048
-156.93
-144.1
-133.201
-124.458
-117.184
-110.85
-105.558
-101.15
-96.877
-92.223
-86.901
-81.05
-75.603
-71.181
-67.904
-65.939
-65.42
-66.346
-68.691
-72.162
-76.134
-80.197
-84.156
-87.838
-91.202
-94.205
-96.768
-98.902
-100.674
-102.092
-103.126
-103.757
-103.955
-103.743
-103.181
-102.318
-101.193
-99.84
-98.286
-96.569
-94.715
-92.74
-90.644
-88.441
-86.155
-83.835
-81.542
-79.312
-77.159
-75.088
-73.092
-71.163
-69.293
-67.467
-65.662
-63.863
-62.057
-60.241
-58.417
-56.579
-54.712
-52.796
-50.803
-48.715
-46.525
-44.23
-41.828
-39.324
-36.724
-34.041
-31.295
-28.502
-25.676
-22.827
-19.967
-17.107
-14.265
-11.455
-8.697
-6.005
-3.397
-0.887
1.51
3.779
5.907
7.886
9.705
11.357
12.832
14.124
15.223
16.124
16.821
17.311
17.587
17.65
17.496
17.127
16.545
15.752
14.754
13.554
12.161
10.581
8.823
6.896
4.81
2.576
0.206
-2.288
-4.894
-7.599
-10.389
-13.25
-16.168
-19.129
-22.119
-25.126
-28.134
-31.132
-34.108
-37.048
-39.942
-42.78
-45.55
-48.244
-50.852
-53.366
-55.779
-58.084
-60.274
-62.345
-64.292
-66.113
-67.804
-69.364
-70.791
-72.085
-73.247
-74.278
-75.178
-75.952
-76.6
-77.128
-77.539
-77.838
-78.03
-78.121
-78.116
-78.022
-77.843
-77.587
-77.259
-76.865
-76.411
-75.902
-75.344
-74.743
-74.103
-73.43
-72.729
-72.005
-71.262
-70.505
-69.737
-68.962
-68.183
-67.404
-66.626
-65.853
-65.087
-64.33
-63.583
-62.849
-62.128
-61.421
-60.729
-60.053
-59.392
-58.747
-58.117
-57.503
-56.904
-56.32
-55.752
-55.199
-54.663
-54.142
-53.639
-53.152
-52.683
-52.231
-51.797
-51.381
-50.983
-50.604
-50.244
-49.904
-49.585
-49.287
-49.012
-48.758
-48.528
-48.322
-48.139
-47.98
-47.845
-47.735
-47.65
-47.591
-47.558
-47.552
-47.572
-47.62
-47.695
-47.797
-47.925
-48.08
-48.259
-48.464
-48.692
-48.944
-49.219
-49.516
-49.837
-50.18
-50.545
-50.932
-51.34
-51.769
-52.218
-52.688
-53.178
-53.687
-54.216
-54.766
-55.336
-55.927
-56.539
-57.171
-57.824
-58.497
-59.189
-59.899
-60.627
-61.371
-62.131
-62.907
-63.696
-64.498
-65.311
-66.135
-66.965
-67.8
-68.637
-69.471
-70.3
-71.117
-71.92
-72.704
-73.464
-74.194
-74.89
-75.546
-76.157
-76.715
-77.214
-77.648
-78.009
-78.291
-78.489
-78.595
-78.605
-78.514
-78.318
-78.012
-77.592
-77.057
-76.402
-75.626
-74.726
-73.702
-72.553
-71.282
-69.89
-68.38
-66.758
-65.027
-63.196
-61.271
-59.26
-57.172
-55.017
-52.806
-50.552
-48.265
-45.961
-43.653
-41.359
-39.096
-36.882
-34.735
-32.675
-30.719
-28.885
-27.191
-25.652
-24.281
-23.093
-22.098
-21.309
-20.738
-20.395
-20.291
-20.432
-20.823
-21.469
-22.369
-23.518
-24.908
-26.529
-28.373
-30.438
-32.721
-35.216
-37.916
-40.814
-43.892
-47.128
-50.491
-53.936
-57.419
-60.889
-64.299
-67.609
-70.777
-73.761
-76.515
-78.983
-81.107
-82.837
-84.127
-84.935
-85.242
-85.059
-84.425
-83.414
-82.102
-80.554
-78.85
-77.089
-75.387
-73.869
-72.671
-71.898
-71.697
-72.291
-73.78
-76.127
-79.107
-82.203
-84.859
-86.645
-87.036
-85.388
-81.425
-75.261
-67.516
-59.679
-53.229
-49.168
-48.523
-52.126
-59.941
-71.053
-83.386
-93.171
-96.392
-89.6
-69.262
-32.544
22.009
94.372
182.419
281.539
385.928
489.323
584.562
664.774
723.927
757.238
762.148
738.243
686.934
611.343
516.347
407.866
292.515
176.814
66.316
-33.895
-119.871
-189.159
-240.599
-274.706
-293.443
-299.251
-294.756
-283.223
-267.683
-250.742
-234.732
-220.686
-208.62
-198.341
-189.34
-180.729
-171.721
-161.44
-148.98
-134.253
-117.714
-99.927
-81.66
-63.639
-46.468
-30.885
-17.617
-7
0.898
6.199
9.198
10.146
9.259
6.837
3.207
-1.308
-6.398
-11.815
-17.375
-22.882
-28.121
-32.852
-36.844
-39.95
-42.099
-43.271
-43.486
-42.768
-41.165
-38.763
-35.678
-32.034
-27.958
-23.551
-18.899
-14.093
-9.237
-4.451
0.142
4.464
8.47
12.138
15.461
18.432
21.057
23.367
25.406
27.218
28.839
30.299
31.617
32.825
33.959
35.059
36.169
37.318
38.524
39.803
41.165
42.62
44.173
45.818
47.545
49.347
51.22
53.163
55.174
57.25
59.381
61.562
63.785
66.043
68.329
70.635
72.952
75.273
77.591
79.899
82.19
84.457
86.69
88.881
91.02
93.097
95.101
97.024
98.855
100.585
102.206
103.71
105.088
106.335
107.445
108.411
109.229
109.895
110.406
110.759
110.953
110.988
110.863
110.58
110.141
109.547
108.802
107.909
106.874
105.701
104.395
102.962
101.408
99.739
97.962
96.083
94.109
92.046
89.902
87.684
85.398
83.052
80.652
78.205
75.716
73.192
70.639
68.063
65.467
62.859
60.242
57.621
54.999
52.381
49.77
47.169
44.579
42.003
39.442
36.898
34.372
31.864
29.376
26.907
24.46
22.035
19.633
17.254
14.9
12.572
10.27
7.997
5.754
3.541
1.362
-0.781
-2.887
-4.953
-6.977
-8.957
-10.889
-12.771
-14.602
-16.376
-18.093
-19.748
-21.338
-22.859
-24.307
-25.677
-26.965
-28.167
-29.277
-30.29
-31.204
-32.012
-32.712
-33.299
-33.769
-34.12
-34.347
-34.45
-34.425
-34.27
-33.986
-33.571
-33.025
-32.349
-31.544
-30.61
-29.549
-28.361
-27.05
-25.616
-24.062
-22.39
-20.603
-18.704
-16.697
-14.587
-12.378
-10.075
-7.685
-5.212
-2.663
-0.044
2.637
5.375
8.162
10.991
13.854
16.746
19.657
22.581
25.513
28.444
31.369
34.282
37.177
40.05
42.893
45.703
48.473
51.197
53.869
56.484
59.034
61.515
63.92
66.245
68.484
70.633
72.688
74.646
76.502
78.254
79.898
81.432
82.853
84.161
85.354
86.431
87.393
88.239
88.972
89.591
90.098
90.493
90.777
90.953
91.021
90.984
90.844
90.605
90.272
89.851
89.347
88.769
88.123
87.418
86.663
85.865
85.032
84.171
83.289
82.394
81.493
80.592
79.699
78.823
77.971
77.155
76.383
75.661
74.997
74.393
73.856
73.391
72.999
72.681
72.437
72.271
72.188
72.199
72.306
72.501
72.772
73.102
73.471
73.863
74.257
74.623
74.941
75.197
75.388
75.526
75.611
75.637
75.583
75.418
75.122
74.694
74.13
73.438
72.625
71.69
70.654
69.553
68.4
67.188
65.883
64.413
62.729
60.804
58.618
56.183
53.494
50.532
47.289
43.763
39.951
35.864
31.489
26.785
21.751
16.412
10.833
5.132
-0.594
-6.273
-11.836
-17.238
-22.433
-27.356
-31.97
-36.256
-40.2
-43.809
-47.076
-49.978
-52.521
-54.737
-56.677
-58.409
-60.006
-61.537
-63.084
-64.726
-66.534
-68.556
-70.852
-73.526
-76.569
-79.815
-82.948
-85.416
-86.664
-86.307
-83.901
-78.918
-71.177
-60.886
-48.723
-36.146
-24.581
-14.941
-8.124
-4.839
-5.008
-7.839
-11.539
-12.869
-8.501
4.273
28.217
65.505
117.156
183.106
261.571
348.713
439.987
530.583
614.742
686.746
741.33
773.875
781.491
763.072
718.638
649.596
559.489
453.269
336.997
217.409
100.725
-7.253
-101.162
-176.834
-232.28
-267.518
-284.244
-285.442
-274.527
-255.385
-232.303
-209.254
-188.831
-172.196
-159.508
-150.128
-143.159
-137.468
-131.512
-123.754
-113.476
-100.744
-86.077
-70.321
-54.275
-38.667
-24.407
-12.392
-3.119
3.272
6.901
8.08
7.088
4.158
-0.397
-6.202
-12.896
-20.152
-27.702
-35.349
-42.897
-50.12
-56.778
-62.684
-67.721
-71.841
-75.053
-77.374
-78.832
-79.484
-79.419
-78.754
-77.621
-76.145
-74.433
-72.586
-70.701
-68.883
-67.257
-65.91
-64.893
-64.228
-63.912
-63.942
-64.311
-64.996
-65.952
-67.129
-68.478
-69.954
-71.523
-73.147
-74.781
-76.378
-77.884
-79.26
-80.477
-81.515
-82.357
-82.988
-83.394
-83.571
-83.523
-83.25
-82.753
-82.031
-81.08
-79.899
-78.496
-76.875
-75.043
-73.009
-70.779
-68.362
-65.77
-63.014
-60.106
-57.057
-53.879
-50.585
-47.191
-43.715
-40.174
-36.586
-32.97
-29.345
-25.73
-22.146
-18.61
-15.141
-11.757
-8.475
-5.311
-2.282
0.597
3.312
5.848
8.193
10.335
12.264
13.97
15.446
16.685
17.683
18.434
18.938
19.193
19.2
18.962
18.48
17.759
16.804
15.623
14.223
12.612
10.799
8.796
6.612
4.259
1.751
-0.902
-3.685
-6.587
-9.593
-12.69
-15.865
-19.103
-22.392
-25.716
-29.062
-32.418
-35.768
-39.101
-42.405
-45.668
-48.879
-52.029
-55.107
-58.106
-61.019
-63.838
-66.558
-69.175
-71.683
-74.08
-76.364
-78.532
-80.584
-82.52
-84.339
-86.044
-87.634
-89.114
-90.484
-91.748
-92.908
-93.97
-94.936
-95.812
-96.602
-97.312
-97.949
-98.517
-99.023
-99.473
-99.874
-100.23
-100.549
-100.835
-101.093
-101.329
-101.546
-101.749
-101.941
-102.127
-102.308
-102.488
-102.67
-102.854
-103.043
-103.238
-103.441
-103.652
-103.872
-104.103
-104.346
-104.6
-104.868
-105.148
-105.443
-105.75
-106.07
-106.402
-106.744
-107.096
-107.455
-107.82
-108.189
-108.559
-108.931
-109.3
-109.666
-110.027
-110.38
-110.724
-111.056
-111.375
-111.679
-111.966
-112.235
-112.483
-112.709
-112.913
-113.09
-113.242
-113.364
-113.455
-113.512
-113.533
-113.515
-113.457
-113.354
-113.206
-113.01
-112.765
-112.468
-112.12
-111.719
-111.264
-110.753
-110.188
-109.566
-108.888
-108.153
-107.363
-106.517
-105.617
-104.664
-103.659
-102.604
-101.501
-100.352
-99.158
-97.921
-96.643
-95.326
-93.974
-92.588
-91.171
-89.727
-88.258
-86.769
-85.261
-83.738
-82.202
-80.656
-79.103
-77.544
-75.98
-74.415
-72.849
-71.284
-69.722
-68.163
-66.609
-65.061
-63.518
-61.981
-60.449
-58.921
-57.394
-55.868
-54.342
-52.811
-51.277
-49.735
-48.185
-46.624
-45.052
-43.465
-41.865
-40.247
-38.612
-36.958
-35.285
-33.594
-31.886
-30.164
-28.43
-26.688
-24.943
-23.202
-21.47
-19.755
-18.06
-16.391
-14.758
-13.168
-11.632
-10.162
-8.768
-7.458
-6.247
-5.147
-4.168
-3.322
-2.616
-2.054
-1.643
-1.39
-1.3
-1.382
-1.637
-2.061
-2.65
-3.398
-4.299
-5.348
-6.536
-7.847
-9.267
-10.773
-12.345
-13.967
-15.62
-17.281
-18.918
-20.49
-21.967
-23.335
-24.594
-25.751
-26.796
-27.673
-28.319
-28.697
-28.8
-28.691
-28.405
-27.89
-27.165
-26.368
-25.797
-25.816
-26.603
-28.01
-29.809
-31.962
-34.443
-37.11
-39.426
-40.516
-39.785
-37.241
-33.33
-28.287
-22.116
-14.777
-6.708
0.906
6.707
10.001
11.044
9.686
5.247
-2.745
-14.637
-28.003
-37.261
-40.16
-36.745
-28.87
-22.483
-13.793
8.769
55.034
136.611
251.123
381.846
513.882
630.738
723.345
793.753
841.525
866.216
867.069
840.076
784.954
705.113
605.494
492.913
374.405
256.024
143.192
41.176
-46.088
-116.363
-168.743
-203.931
-223.825
-230.629
-226.995
-216.313
-201.5
-184.683
-167.55
-150.869
-135.073
-120.773
-107.922
-95.904
-84.338
-73.125
-62.428
-52.686
-43.881
-35.454
-27.301
-19.622
-12.552
-6.156
-0.144
5.805
11.453
16.141
19.475
21.338
21.791
21.011
18.969
15.679
11.492
6.98
2.662
-1.103
-4.128
-6.337
-7.605
-7.827
-6.994
-5.176
-2.486
0.981
5.153
9.969
15.342
21.16
27.284
33.575
39.904
46.144
52.195
57.972
63.41
68.474
73.142
77.403
81.263
84.733
87.83
90.575
92.994
95.111
96.961
98.584
100.023
101.326
102.529
103.659
104.738
105.784
106.808
107.822
108.831
109.837
110.845
111.859
112.885
113.932
115.005
116.107
117.24
118.402
119.596
120.822
122.082
123.375
124.7
126.055
127.44
128.854
130.293
131.752
133.225
134.702
136.175
137.636
139.074
140.478
141.837
143.14
144.377
145.537
146.609
147.584
148.45
149.198
149.819
150.302
150.64
150.824
150.847
150.701
150.38
149.88
149.196
148.325
147.264
146.014
144.572
142.942
141.124
139.122
136.938
134.579
132.05
129.357
126.507
123.508
120.369
117.1
113.71
110.21
106.611
102.924
99.161
95.332
91.449
87.525
83.571
79.599
75.622
71.65
67.697
63.775
59.894
56.067
52.305
48.617
45.015
41.507
38.102
34.808
31.633
28.584
25.668
22.889
20.255
17.768
15.433
13.253
11.23
9.366
7.66
6.113
4.724
3.493
2.416
1.493
0.719
0.091
-0.395
-0.744
-0.961
-1.052
-1.023
-0.882
-0.635
-0.29
0.145
0.663
1.256
1.915
2.634
3.403
4.216
5.064
5.94
6.835
7.743
8.656
9.567
10.47
11.359
12.227
13.071
13.884
14.663
15.404
16.102
16.755
17.361
17.916
18.419
18.869
19.266
19.609
19.899
20.137
20.325
20.463
20.554
20.6
20.604
20.567
20.493
20.384
20.242
20.072
19.876
19.656
19.416
19.158
18.885
18.599
18.301
17.993
17.677
17.353
17.022
16.685
16.342
15.992
15.635
15.27
14.897
14.513
14.116
13.704
13.274
12.823
12.349
11.848
11.316
10.751
10.148
9.504
8.817
8.082
7.297
6.459
5.564
4.61
3.596
2.52
1.381
0.177
-1.09
-2.42
-3.812
-5.265
-6.775
-8.34
-9.957
-11.622
-13.33
-15.076
-16.854
-18.658
-20.481
-22.315
-24.153
-25.986
-27.806
-29.604
-31.371
-33.098
-34.777
-36.397
-37.95
-39.426
-40.817
-42.113
-43.307
-44.389
-45.352
-46.191
-46.898
-47.468
-47.896
-48.18
-48.316
-48.304
-48.142
-47.832
-47.375
-46.774
-46.035
-45.162
-44.163
-43.045
-41.82
-40.498
-39.093
-37.619
-36.091
-34.527
-32.944
-31.359
-29.792
-28.26
-26.781
-25.372
-24.052
-22.839
-21.752
-20.81
-20.033
-19.436
-19.037
-18.849
-18.885
-19.15
-19.65
-20.388
-21.37
-22.606
-24.103
-25.867
-27.902
-30.209
-32.781
-35.606
-38.659
-41.909
-45.317
-48.847
-52.463
-56.133
-59.826
-63.505
-67.128
-70.641
-73.985
-77.104
-79.946
-82.464
-84.632
-86.451
-87.945
-89.182
-90.227
-91.126
-91.949
-92.767
-93.663
-94.753
-96.15
-97.949
-100.307
-103.44
-107.478
-112.449
-118.172
-124.192
-130.009
-135.147
-139.04
-141.068
-140.783
-138.054
-133.384
-127.957
-123.105
-120.02
-119.738
-123.146
-130.732
-142.234
-156.038
-169.186
-178.011
-178.749
-167.962
-142.317
-99.043
-36.553
44.802
142.391
251.792
367.45
483.229
591.992
686.313
759.199
804.916
820.117
803.407
755.176
677.623
575.105
453.835
321.382
185.678
53.617
-68.449
-175.07
-262.257
-327.594
-370.943
-394.124
-399.853
-391.05
-371.177
-343.898
-312.828
-281.44
-251.821
-225.101
-202.241
-183.782
-169.95
-160.577
-154.788
-151.303
-149.358
-148.216
-146.863
-144.652
-140.939
-135.35
-128.206
-120.091
-111.495
-103.138
-95.915
-90.382
-87.006
-86.021
-87.216
-90.272
-94.808
-100.256
-105.974
-111.483
-116.4
-120.474
-123.621
-125.776
-126.904
-127.037
-126.229
-124.532
-121.999
-118.7
-114.715
-110.148
-105.129
-99.804
-94.336
-88.892
-83.61
-78.577
-73.832
-69.39
-65.257
-61.446
-57.975
-54.843
-52.031
-49.494
-47.178
-45.041
-43.04
-41.104
-39.141
-37.042
-34.727
-32.189
-29.468
-26.612
-23.649
-20.582
-17.404
-14.124
-10.761
-7.349
-3.913
-0.462
2.981
6.364
9.616
12.641
15.377
17.846
20.107
22.222
24.247
26.196
28.074
29.896
31.672
33.423
35.161
36.881
38.602
40.372
42.251
44.329
46.669
49.241
51.984
54.819
57.648
60.418
63.09
65.616
67.962
70.093
71.977
73.599
74.928
75.903
76.455
76.483
75.904
74.721
72.963
70.694
68.01
64.972
61.627
58.034
54.236
50.268
46.168
41.95
37.637
33.277
28.932
24.685
20.616
16.75
13.091
9.618
6.283
3.06
-0.068
-3.132
-6.145
-9.11
-12.031
-14.891
-17.671
-20.37
-22.997
-25.573
-28.12
-30.639
-33.124
-35.558
-37.914
-40.172
-42.314
-44.319
-46.171
-47.863
-49.393
-50.767
-51.997
-53.09
-54.048
-54.87
-55.556
-56.108
-56.529
-56.827
-57.007
-57.077
-57.047
-56.927
-56.728
-56.458
-56.124
-55.73
-55.281
-54.779
-54.23
-53.638
-53.006
-52.34
-51.643
-50.923
-50.182
-49.427
-48.662
-47.888
-47.109
-46.327
-45.542
-44.755
-43.966
-43.177
-42.387
-41.596
-40.806
-40.017
-39.229
-38.444
-37.662
-36.882
-36.106
-35.333
-34.562
-33.794
-33.028
-32.264
-31.503
-30.745
-29.991
-29.242
-28.499
-27.763
-27.035
-26.316
-25.605
-24.905
-24.216
-23.54
-22.879
-22.235
-21.612
-21.012
-20.438
-19.893
-19.38
-18.901
-18.457
-18.05
-17.681
-17.351
-17.06
-16.809
-16.598
-16.427
-16.297
-16.205
-16.153
-16.139
-16.16
-16.216
-16.304
-16.422
-16.567
-16.737
-16.931
-17.145
-17.377
-17.625
-17.886
-18.157
-18.433
-18.712
-18.99
-19.26
-19.521
-19.766
-19.992
-20.195
-20.37
-20.515
-20.626
-20.7
-20.733
-20.722
-20.664
-20.556
-20.396
-20.18
-19.906
-19.572
-19.176
-18.717
-18.192
-17.601
-16.943
-16.215
-15.417
-14.546
-13.601
-12.581
-11.484
-10.31
-9.058
-7.728
-6.319
-4.834
-3.272
-1.636
0.074
1.856
3.707
5.624
7.604
9.645
11.74
13.886
16.074
18.299
20.553
22.826
25.108
27.39
29.66
31.908
34.121
36.288
38.394
40.428
42.376
44.227
45.965
47.577
49.048
50.363
51.511
52.477
53.248
53.809
54.148
54.253
54.12
53.743
53.115
52.231
51.08
49.661
47.976
46.029
43.825
41.375
38.691
35.799
32.738
29.552
26.282
22.968
19.638
16.326
13.071
9.916
6.907
4.084
1.473
-0.895
-2.988
-4.788
-6.287
-7.503
-8.508
-9.384
-10.207
-11.056
-11.978
-13.005
-14.2
-15.639
-17.404
-19.579
-22.221
-25.357
-29.06
-33.454
-38.523
-44.082
-49.739
-54.854
-58.845
-61.317
-61.817
-59.805
-55.07
-47.743
-38.422
-28.459
-19.08
-10.999
-4.973
-1.618
-0.851
-1.998
-3.471
-2.292
4.514
19.396
44.955
83.245
135.284
201.1
279.062
365.572
456.226
546.076
629.177
699.661
752.072
781.755
785.753
762.779
713.094
638.801
544.156
434.787
317.292
198.506
84.724
-18.137
-105.162
-173.068
-220.872
-249.692
-262.082
-261.449
-251.364
-235.563
-217.847
-201.545
-188.355
-178.393
-170.885
-164.346
-157.704
-150.477
-141.726
-130.365
-116.327
-100.298
-83.507
-67.834
-54.187
-42.332
-32.455
-24.947
-19.787
-16.894
-15.726
-15.12
-14.711
-14.972
-16.075
-18.073
-20.925
-24.263
-27.972
-32.27
-37.004
-41.7
-45.992
-49.508
-52.059
-53.729
-54.529
-54.407
-53.403
-51.59
-49.075
-46.022
-42.555
-38.744
-34.685
-30.474
-26.217
-22.051
-18.077
-14.374
-10.994
-7.957
-5.27
-2.933
-0.932
0.753
2.152
3.304
4.245
5.002
5.611
6.102
6.517
6.907
7.312
7.762
8.279
8.877
9.566
10.357
11.254
12.255
13.358
14.563
15.868
17.277
18.792
20.408
22.122
23.925
25.811
27.773
29.804
31.896
34.04
36.224
38.439
40.675
42.921
45.164
47.389
49.582
51.726
53.809
55.814
57.728
59.535
61.222
62.778
64.189
65.444
66.533
67.445
68.171
68.701
69.029
69.146
69.049
68.731
68.189
67.421
66.426
65.205
63.759
62.091
60.207
58.111
55.812
53.318
50.639
47.786
44.772
41.607
38.307
34.884
31.353
27.727
24.022
20.25
16.427
12.567
8.682
4.787
0.896
-2.979
-6.825
-10.629
-14.378
-18.062
-21.669
-25.187
-28.608
-31.922
-35.12
-38.194
-41.138
-43.947
-46.614
-49.137
-51.512
-53.739
-55.817
-57.747
-59.529
-61.168
-62.665
-64.024
-65.25
-66.348
-67.322
-68.177
-68.92
-69.555
-70.089
-70.529
-70.881
-71.151
-71.347
-71.475
-71.544
-71.559
-71.528
-71.457
-71.354
-71.226
-71.078
-70.918
-70.752
-70.586
-70.424
-70.272
-70.135
-70.015
-69.916
-69.841
-69.791
-69.768
-69.773
-69.807
-69.87
-69.963
-70.086
-70.239
-70.423
-70.637
-70.88
-71.151
-71.451
-71.777
-72.128
-72.503
-72.901
-73.321
-73.759
-74.217
-74.691
-75.179
-75.68
-76.192
-76.713
-77.24
-77.772
-78.307
-78.843
-79.38
-79.916
-80.452
-80.986
-81.519
-82.05
-82.579
-83.106
-83.63
-84.151
-84.669
-85.183
-85.694
-86.201
-86.706
-87.207
-87.707
-88.204
-88.701
-89.196
-89.691
-90.185
-90.679
-91.173
-91.668
-92.165
-92.664
-93.167
-93.674
-94.185
-94.702
-95.225
-95.753
-96.286
-96.823
-97.364
-97.908
-98.456
-99.006
-99.559
-100.113
-100.669
-101.227
-101.785
-102.342
-102.897
-103.448
-103.993
-104.531
-105.059
-105.573
-106.072
-106.552
-107.012
-107.45
-107.862
-108.247
-108.6
-108.92
-109.205
-109.45
-109.648
-109.796
-109.889
-109.923
-109.898
-109.81
-109.657
-109.436
-109.145
-108.789
-108.365
-107.872
-107.301
-106.644
-105.899
-105.073
-104.178
-103.223
-102.215
-101.163
-100.079
-98.983
-97.888
-96.798
-95.703
-94.591
-93.464
-92.332
-91.221
-90.153
-89.139
-88.174
-87.249
-86.367
-85.529
-84.732
-83.955
-83.17
-82.371
-81.584
-80.868
-80.283
-79.866
-79.635
-79.593
-79.747
-80.118
-80.742
-81.648
-82.852
-84.367
-86.219
-88.454
-91.129
-94.257
-97.794
-101.638
-105.686
-109.855
-114.085
-118.329
-122.527
-126.608
-130.5
-134.141
-137.496
-140.53
-143.2
-145.443
-147.195
-148.444
-149.25
-149.755
-150.123
-150.493
-150.992
-151.715
-152.756
-154.226
-156.24
-158.885
-162.222
-166.299
-171.107
-176.693
-183.161
-190.423
-198.219
-206.046
-213.119
-218.727
-222.354
-223.405
-221.282
-215.793
-207.007
-195.62
-183.137
-170.873
-159.836
-151.005
-144.841
-140.991
-138.597
-135.627
-128.726
-114.641
-90.268
-52.727
-0.438
66.646
147.37
238.597
335.193
431.193
519.787
593.786
647.04
675.077
674.844
645.437
588.338
506.837
406.329
293.956
177.237
63.033
-42.284
-133.415
-206.693
-259.881
-292.759
-307.28
-306.61
-294.18
-273.689
-248.808
-222.63
-197.817
-176.259
-158.47
-143.976
-132.02
-121.678
-111.911
-102
-91.353
-79.236
-65.546
-50.798
-35.534
-20.39
-6.085
7.08
19.013
29.344
38.022
45.177
50.645
54.417
56.739
57.573
56.732
54.019
49.023
41.746
32.975
23.663
14.449
5.928
-1.275
-6.267
-7.882
-5.592
0.086
8.039
17.356
27.43
37.752
47.605
55.941
62.071
66.098
68.732
70.6
72.009
73.083
73.93
74.896
76.289
78.082
79.969
81.661
83.037
84.122
85.042
85.845
86.521
87.121
87.73
88.439
89.308
90.345
91.513
92.784
94.151
95.61
97.176
98.859
100.654
102.563
104.58
106.698
108.913
111.22
113.61
116.075
118.61
121.208
123.865
126.581
129.35
132.16
134.996
137.836
140.663
143.458
146.201
148.873
151.452
153.915
156.245
158.427
160.443
162.276
163.909
165.321
166.497
167.429
168.111
168.541
168.72
168.654
168.354
167.843
167.138
166.258
165.218
164.028
162.703
161.261
159.716
158.088
156.384
154.598
152.719
150.73
148.597
146.294
143.78
141.004
137.936
134.549
130.829
126.781
122.399
117.685
112.65
107.307
101.697
95.893
89.983
84.082
78.336
72.886
67.882
63.481
59.804
56.959
55.031
54.077
54.161
55.339
57.653
61.14
65.8
71.579
78.397
86.123
94.578
103.583
112.94
122.455
131.973
141.357
150.491
159.289
167.654
175.492
182.709
189.206
194.915
199.814
203.904
207.24
209.919
212.048
213.757
215.167
216.36
217.403
218.34
219.196
220
220.786
221.59
222.467
223.454
224.568
225.818
227.175
228.588
229.995
231.312
232.464
233.406
234.103
234.537
234.707
234.61
234.244
233.609
232.694
231.487
229.986
228.185
226.095
223.737
221.14
218.345
215.393
212.311
209.124
205.848
202.495
199.074
195.592
192.053
188.466
184.842
181.192
177.531
173.871
170.219
166.584
162.966
159.368
155.792
152.242
148.72
145.23
141.778
138.368
135.007
131.701
128.454
125.267
122.142
119.078
116.077
113.137
110.256
107.434
104.67
101.961
99.306
96.705
94.154
91.65
89.191
86.774
84.394
82.047
79.732
77.442
75.175
72.927
70.696
68.477
66.27
64.072
61.881
59.695
57.514
55.336
53.161
50.99
48.823
46.661
44.506
42.36
40.226
38.107
36.007
33.93
31.879
29.86
27.877
25.934
24.038
22.192
20.402
18.674
17.014
15.426
13.915
12.488
11.148
9.9
8.748
7.695
6.744
5.897
5.155
4.52
3.992
3.568
3.249
3.03
2.909
2.88
2.938
3.074
3.283
3.554
3.878
4.242
4.635
5.041
5.448
5.84
6.202
6.517
6.77
6.947
7.033
7.014
6.875
6.603
6.182
5.599
4.838
3.886
2.731
1.362
-0.228
-2.04
-4.076
-6.337
-8.823
-11.54
-14.49
-17.671
-21.082
-24.715
-28.558
-32.591
-36.782
-41.083
-45.449
-49.835
-54.203
-58.521
-62.757
-66.875
-70.835
-74.59
-78.095
-81.309
-84.194
-86.715
-88.856
-90.621
-92.064
-93.274
-94.339
-95.336
-96.314
-97.316
-98.413
-99.693
-101.256
-103.199
-105.592
-108.534
-112.185
-116.61
-121.723
-127.242
-132.634
-137.32
-140.86
-142.829
-142.72
-140.293
-135.713
-129.561
-122.983
-117.184
-112.885
-110.586
-110.823
-113.592
-118.027
-122.503
-124.368
-120.661
-109.105
-87.737
-54.698
-8.56
51.152
123.163
204.768
290.831
374.483
451.699
519.392
576.707
627.14
666.281
684.359
672.409
618.672
525.621
409.138
283.537
165.096
60.715
-33.668
-118.72
-194.57
-260.223
-311.535
-347.62
-370.578
-382.404
-385.591
-382.516
-374.514
-362.323
-346.497
-327.532
-305.422
-280.175
-252.201
-222.018
-190.754
-160.49
-133.281
-110.342
-92.695
-81.029
-75.325
-75.272
-79.833
-86.907
-94.47
-101.317
-106.6
-109.906
-111.32
-111.001
-109.535
-108.085
-107.583
-108.461
-110.847
-114.527
-119.098
-124.207
-129.383
-134.021
-137.721
-140.301
-141.717
-142.09
-141.562
-140.233
-138.237
-135.741
-132.861
-129.691
-126.32
-122.805
-119.232
-115.727
-112.384
-109.27
-106.428
-103.87
-101.595
-99.603
-97.876
-96.378
-95.075
-93.936
-92.932
-92.046
-91.25
-90.509
-89.782
-89.024
-88.197
-87.277
-86.245
-85.091
-83.809
-82.396
-80.856
-79.2
-77.437
-75.574
-73.614
-71.562
-69.42
-67.199
-64.909
-62.559
-60.162
-57.725
-55.261
-52.778
-50.288
-47.801
-45.324
-42.868
-40.441
-38.055
-35.723
-33.456
-31.267
-29.169
-27.173
-25.291
-23.535
-21.914
-20.437
-19.113
-17.946
-16.945
-16.113
-15.454
-14.971
-14.664
-14.534
-14.58
-14.801
-15.193
-15.752
-16.475
-17.355
-18.386
-19.563
-20.877
-22.321
-23.886
-25.563
-27.344
-29.218
-31.174
-33.202
-35.292
-37.431
-39.608
-41.812
-44.032
-46.255
-48.472
-50.671
-52.843
-54.978
-57.067
-59.102
-61.075
-62.98
-64.811
-66.561
-68.228
-69.806
-71.294
-72.688
-73.986
-75.188
-76.292
-77.298
-78.204
-79.012
-79.721
-80.332
-80.847
-81.266
-81.593
-81.829
-81.978
-82.041
-82.024
-81.929
-81.761
-81.525
-81.224
-80.865
-80.451
-79.987
-79.479
-78.931
-78.348
-77.734
-77.092
-76.427
-75.741
-75.038
-74.319
-73.588
-72.845
-72.093
-71.334
-70.57
-69.802
-69.032
-68.261
-67.492
-66.727
-65.967
-65.214
-64.468
-63.732
-63.007
-62.294
-61.594
-60.906
-60.232
-59.572
-58.925
-58.291
-57.67
-57.061
-56.462
-55.874
-55.294
-54.723
-54.159
-53.603
-53.054
-52.512
-51.978
-51.451
-50.931
-50.42
-49.916
-49.421
-48.934
-48.454
-47.981
-47.516
-47.056
-46.601
-46.151
-45.705
-45.262
-44.822
-44.384
-43.947
-43.512
-43.078
-42.647
-42.219
-41.795
-41.377
-40.968
-40.568
-40.18
-39.808
-39.452
-39.116
-38.802
-38.511
-38.246
-38.009
-37.801
-37.624
-37.481
-37.373
-37.302
-37.27
-37.279
-37.33
-37.427
-37.57
-37.762
-38.003
-38.296
-38.641
-39.04
-39.492
-39.998
-40.556
-41.166
-41.826
-42.532
-43.281
-44.068
-44.888
-45.737
-46.608
-47.495
-48.392
-49.291
-50.187
-51.071
-51.937
-52.776
-53.582
-54.346
-55.06
-55.719
-56.313
-56.834
-57.277
-57.632
-57.893
-58.052
-58.103
-58.038
-57.852
-57.539
-57.095
-56.517
-55.801
-54.946
-53.95
-52.815
-51.541
-50.134
-48.595
-46.932
-45.15
-43.259
-41.266
-39.184
-37.022
-34.793
-32.51
-30.186
-27.839
-25.487
-23.152
-20.855
-18.616
-16.457
-14.396
-12.449
-10.635
-8.967
-7.459
-6.123
-4.971
-4.018
-3.281
-2.774
-2.504
-2.468
-2.652
-3.039
-3.618
-4.381
-5.328
-6.458
-7.768
-9.259
-10.939
-12.812
-14.877
-17.109
-19.448
-21.845
-24.262
-26.692
-29.168
-31.705
-34.272
-36.813
-39.239
-41.459
-43.449
-45.146
-46.406
-47.209
-47.633
-47.877
-48.389
-49.534
-51.33
-53.755
-56.763
-59.959
-62.931
-65.207
-65.852
-64.201
-60.312
-54.288
-46.442
-37.778
-29.085
-21.077
-15.032
-11.725
-11.161
-13.728
-19.641
-28.269
-39.397
-52.644
-66.951
-81.903
-97.151
-111.009
-121.313
-126.051
-122.446
-108.275
-81.781
-40.331
17.815
92.304
181.325
281.574
388.309
496.85
601.72
695.709
772.176
825.688
852.279
850.292
819.44
760.268
675.468
570.182
450.669
324.068
197.251
75.93
-34.187
-128.206
-203.054
-257.453
-292.258
-310.015
-313.604
-306.098
-291.33
-272.668
-252.777
-233.551
-215.058
-196.639
-177.788
-157.701
-135.551
-111.148
-84.671
-57.049
-30.336
-6.311
13.73
28.56
37.646
41.063
39.331
33.927
26.744
19.099
11.978
6.1
1.636
-1.387
-3.22
-4.732
-6.667
-9.315
-12.781
-16.865
-21.196
-25.538
-29.555
-32.75
-34.827
-35.672
-35.277
-33.82
-31.491
-28.414
-24.756
-20.691
-16.357
-11.897
-7.426
-3.037
1.174
5.128
8.77
12.057
14.974
17.527
19.731
21.622
23.244
24.637
25.84
26.884
27.803
28.633
29.42
30.208
31.037
31.934
32.921
34.016
35.232
36.577
38.051
39.647
41.357
43.178
45.106
47.142
49.282
51.52
53.847
56.256
58.737
61.284
63.886
66.535
69.218
71.928
74.653
77.386
80.116
82.83
85.514
88.156
90.741
93.257
95.687
98.02
100.24
102.335
104.294
106.106
107.759
109.244
110.552
111.675
112.607
113.342
113.874
114.202
114.321
114.232
113.933
113.427
112.714
111.799
110.684
109.376
107.88
106.202
104.351
102.334
100.16
97.839
95.381
92.796
90.096
87.292
84.395
81.418
78.372
75.269
72.123
68.944
65.743
62.534
59.325
56.128
52.952
49.807
46.702
43.646
40.645
37.709
34.844
32.057
29.353
26.739
24.22
21.801
19.485
17.277
15.18
13.196
11.329
9.579
7.949
6.438
5.047
3.775
2.621
1.582
0.656
-0.16
-0.869
-1.476
-1.983
-2.396
-2.718
-2.954
-3.107
-3.183
-3.184
-3.117
-2.986
-2.794
-2.548
-2.251
-1.908
-1.525
-1.105
-0.654
-0.177
0.32
0.834
1.357
1.886
2.416
2.941
3.459
3.964
4.455
4.929
5.383
5.816
6.226
6.613
6.975
7.312
7.624
7.909
8.168
8.4
8.606
8.784
8.936
9.061
9.159
9.231
9.276
9.295
9.289
9.259
9.206
9.132
9.039
8.93
8.806
8.671
8.527
8.376
8.221
8.062
7.902
7.742
7.582
7.422
7.264
7.107
6.951
6.796
6.641
6.487
6.332
6.177
6.021
5.863
5.704
5.544
5.384
5.222
5.06
4.898
4.734
4.57
4.404
4.235
4.062
3.882
3.695
3.499
3.291
3.071
2.837
2.587
2.322
2.041
1.743
1.429
1.098
0.753
0.394
0.023
-0.359
-0.749
-1.145
-1.545
-1.947
-2.349
-2.749
-3.145
-3.534
-3.916
-4.287
-4.646
-4.989
-5.314
-5.617
-5.895
-6.144
-6.359
-6.538
-6.675
-6.766
-6.807
-6.794
-6.722
-6.588
-6.387
-6.117
-5.774
-5.357
-4.864
-4.293
-3.645
-2.918
-2.114
-1.234
-0.278
0.751
1.851
3.019
4.251
5.544
6.893
8.292
9.732
11.207
12.706
14.22
15.738
17.249
18.738
20.194
21.605
22.958
24.239
25.435
26.532
27.515
28.372
29.088
29.648
30.039
30.247
30.262
30.079
29.689
29.088
28.271
27.226
25.949
24.436
22.685
20.694
18.468
16.015
13.355
10.526
7.565
4.511
1.406
-1.719
-4.825
-7.871
-10.815
-13.607
-16.203
-18.563
-20.644
-22.408
-23.84
-24.932
-25.716
-26.277
-26.705
-27.103
-27.567
-28.169
-28.993
-30.153
-31.76
-33.938
-36.799
-40.423
-44.929
-50.49
-57.151
-64.797
-73.102
-81.478
-89.303
-96.052
-101.129
-103.786
-103.527
-100.337
-94.714
-87.794
-80.848
-74.717
-70.203
-68.389
-69.799
-73.82
-78.799
-81.747
-79.119
-68.104
-45.832
-8.93
45.045
116.77
204.977
306.001
414.654
525.726
632.92
728.511
804.948
855.861
877.019
866.668
825.011
753.46
655.483
537.178
406.28
270.895
138.187
14.422
-95.175
-186.348
-256.12
-304.081
-332.137
-343.031
-339.598
-325.044
-302.44
-275.086
-246.524
-218.867
-192.857
-169.148
-148.378
-130.916
-117.247
-107.072
-99.276
-93.27
-88.867
-85.56
-82.636
-79.372
-74.914
-69.04
-62.215
-54.813
-47.172
-39.821
-33.403
-28.462
-25.509
-24.726
-25.874
-28.662
-32.735
-37.629
-42.865
-48.079
-52.965
-57.297
-60.988
-63.947
-66.126
-67.567
-68.324
-68.448
-67.983
-66.969
-65.453
-63.518
-61.264
-58.781
-56.144
-53.404
-50.617
-47.855
-45.193
-42.71
-40.45
-38.428
-36.653
-35.129
-33.852
-32.808
-31.968
-31.286
-30.721
-30.24
-29.814
-29.422
-29.04
-28.635
-28.177
-27.629
-26.964
-26.168
-25.226
-24.126
-22.862
-21.431
-19.839
-18.097
-16.215
-14.202
-12.065
-9.81
-7.448
-4.991
-2.452
0.153
2.809
5.499
8.206
10.912
13.6
16.251
18.849
21.377
23.82
26.159
28.378
30.459
32.385
34.141
35.712
37.082
38.239
39.171
39.869
40.323
40.528
40.478
40.169
39.599
38.768
37.675
36.324
34.717
32.859
30.757
28.416
25.848
23.06
20.066
16.876
13.506
9.969
6.281
2.456
-1.488
-5.535
-9.669
-13.874
-18.132
-22.427
-26.743
-31.063
-35.371
-39.653
-43.892
-48.076
-52.192
-56.227
-60.172
-64.017
-67.752
-71.369
-74.86
-78.22
-81.44
-84.517
-87.445
-90.219
-92.838
-95.299
-97.603
-99.75
-101.742
-103.582
-105.272
-106.816
-108.22
-109.487
-110.623
-111.632
-112.523
-113.3
-113.972
-114.546
-115.032
-115.436
-115.767
-116.034
-116.244
-116.402
-116.517
-116.593
-116.637
-116.654
-116.652
-116.636
-116.613
-116.59
-116.576
-116.577
-116.601
-116.652
-116.735
-116.853
-117.011
-117.208
-117.446
-117.724
-118.041
-118.399
-118.8
-119.246
-119.739
-120.278
-120.866
-121.504
-122.189
-122.921
-123.694
-124.499
-125.334
-126.195
-127.083
-128.004
-128.961
-129.948
-130.962
-131.996
-133.035
-134.057
-135.032
-135.918
-136.685
-137.31
-137.783
-138.107
-138.285
-138.323
-138.229
-138.009
-137.665
-137.205
-136.633
-135.954
-135.193
-134.387
-133.595
-132.91
-132.404
-132.131
-132.126
-132.388
-132.891
-133.594
-134.435
-135.336
-136.233
-137.064
-137.767
-138.298
-138.592
-138.575
-138.148
-137.172
-135.518
-133.076
-129.76
-125.543
-120.452
-114.545
-107.922
-100.726
-93.089
-85.145
-77.035
-68.87
-60.757
-52.809
-45.145
-37.916
-31.289
-25.422
-20.445
-16.439
-13.429
-11.399
-10.3
-10.026
-10.47
-11.509
-13.003
-14.852
-16.972
-19.293
-21.745
-24.245
-26.688
-28.961
-30.978
-32.67
-34.003
-34.96
-35.544
-35.789
-35.748
-35.489
-35.096
-34.623
-34.098
-33.54
-32.958
-32.363
-31.779
-31.233
-30.736
-30.302
-29.94
-29.654
-29.451
-29.326
-29.26
-29.225
-29.187
-29.126
-29.038
-28.923
-28.79
-28.647
-28.502
-28.37
-28.273
-28.23
-28.256
-28.363
-28.561
-28.864
-29.292
-29.866
-30.607
-31.53
-32.646
-33.969
-35.511
-37.288
-39.307
-41.561
-44.045
-46.748
-49.661
-52.776
-56.076
-59.528
-63.103
-66.767
-70.494
-74.264
-78.051
-81.82
-85.533
-89.146
-92.623
-95.946
-99.097
-102.048
-104.786
-107.297
-109.592
-111.711
-113.701
-115.616
-117.505
-119.405
-121.351
-123.367
-125.495
-127.798
-130.334
-133.156
-136.309
-139.818
-143.732
-148.171
-153.115
-158.365
-163.565
-168.104
-171.39
-173.029
-172.555
-169.403
-163.354
-154.573
-143.725
-132.319
-121.844
-113.271
-107.591
-105.607
-107.34
-112.103
-118.156
-122.181
-120.646
-110.489
-88.531
-52.231
-0.255
67.533
149.475
241.748
339.427
436.855
527.29
604.051
661.021
693.145
697.182
671.693
617.099
535.901
432.932
314.602
188.324
61.512
-59.066
-167.119
-257.647
-327.331
-375.007
-401.736
-410.268
-404.076
-386.886
-362.637
-334.968
-307.257
-282.083
-260.771
-243.477
-229.711
-218.803
-210.17
-203.373
-197.564
-191.722
-184.992
-177.107
-168.34
-159.07
-149.494
-139.588
-129.653
-120.358
-112.597
-106.997
-103.61
-102.236
-102.558
-104.194
-106.642
-109.244
-111.217
-111.963
-111.425
-109.816
-107.647
-105.789
-105.032
-106.003
-108.945
-113.484
-118.577
-122.757
-124.094
-120.159
-108.486
-86.818
-54.036
-10.398
42.757
103.211
168.084
233.648
295.349
348.281
388.854
415.17
426.648
423.696
407.15
379.009
342.899
303.496
264.875
229.732
199.595
175.487
158.589
149.175
146.068
146.973
149.411
151.876
153.802
154.747
153.968
151.089
146.37
140.772
135.703
131.987
129.809
129.235
130.338
133.123
137.507
143.097
149.187
155.257
161.01
166.267
170.982
175.099
178.529
181.259
183.354
184.878
185.893
186.445
186.541
186.212
185.498
184.457
183.169
181.734
180.25
178.787
177.385
176.066
174.848
173.744
172.759
171.874
171.055
170.269
169.493
168.708
167.901
167.043
166.098
165.026
163.789
162.362
160.733
158.893
156.84
154.573
152.097
149.427
146.585
143.588
140.451
137.188
133.811
130.336
126.783
123.171
119.517
115.841
112.157
108.483
104.834
101.224
97.667
94.174
90.756
87.422
84.185
81.054
78.042
75.158
72.412
69.811
67.366
65.082
62.966
61.021
59.253
57.661
56.25
55.018
53.966
53.091
52.392
51.866
51.508
51.313
51.275
51.389
51.646
52.039
52.562
53.204
53.957
54.814
55.765
56.802
57.917
59.101
60.347
61.646
62.991
64.375
65.789
67.227
68.682
70.147
71.616
73.084
74.545
75.994
77.427
78.839
80.226
81.586
82.916
84.213
85.477
86.708
87.905
89.07
90.205
91.313
92.394
93.452
94.49
95.511
96.518
97.513
98.499
99.479
100.456
101.434
102.416
103.404
104.402
105.411
106.435
107.476
108.536
109.619
110.727
111.862
113.028
114.226
115.461
116.732
118.043
119.391
120.778
122.201
123.656
125.138
126.644
128.168
129.705
131.25
132.798
134.343
135.883
137.412
138.926
140.419
141.881
143.306
144.685
146.01
147.272
148.461
149.567
150.581
151.501
152.318
153.026
153.615
154.07
154.381
154.545
154.56
154.427
154.15
153.734
153.193
152.555
151.844
151.084
150.289
149.457
148.589
147.691
146.766
145.821
144.852
143.833
142.749
141.591
140.345
138.999
137.519
135.847
133.937
131.756
129.294
126.576
123.62
120.448
117.099
113.619
110.083
106.595
103.236
100.065
97.147
94.541
92.33
90.633
89.538
89.108
89.383
90.364
92.05
94.441
97.498
101.157
105.326
109.875
114.703
119.739
124.903
130.122
135.301
140.319
145.082
149.524
153.588
157.238
160.438
163.147
165.356
167.084
168.365
169.257
169.795
169.989
169.855
169.411
168.682
167.704
166.493
165.042
163.346
161.404
159.218
156.799
154.148
151.258
148.128
144.764
141.187
137.43
133.526
129.498
125.375
121.191
116.993
112.853
108.838
104.999
101.376
98.007
94.906
92.065
89.449
86.977
84.565
82.147
79.644
76.976
74.047
70.741
66.938
62.529
57.364
51.253
44.12
36.024
27.212
18.154
9.356
1.255
-5.634
-10.648
-13.39
-13.919
-12.764
-11.045
-9.906
-10.02
-12.013
-16.752
-24.577
-34.816
-45.819
-54.666
-58.07
-53.531
-38.524
-10.123
33.846
94.075
169.477
256.737
351.206
448.217
542.147
626.144
693.361
737.858
755.601
744.788
705.507
639.123
548.875
440.324
320.549
197.056
76.601
-34.761
-132.186
-212.137
-272.414
-313.209
-336.585
-345.25
-342.324
-331.515
-316.062
-298.763
-282.12
-266.901
-253.147
-241.194
-230.695
-220.752
-210.836
-200.299
-188.622
-176.558
-164.596
-152.431
-140.341
-128.771
-117.966
-108.529
-100.777
-94.196
-88.74
-84.942
-82.936
-82.821
-84.614
-87.926
-92.527
-98.488
-105.554
-113.204
-121.044
-128.648
-135.683
-142.036
-147.554
-152.056
-155.496
-157.894
-159.286
-159.763
-159.403
-158.263
-156.444
-154.063
-151.235
-148.098
-144.775
-141.386
-138.066
-134.927
-132.044
-129.469
-127.223
-125.313
-123.743
-122.504
-121.569
-120.9
-120.46
-120.213
-120.128
-120.165
-120.28
-120.427
-120.553
-120.622
-120.607
-120.491
-120.261
-119.908
-119.426
-118.814
-118.079
-117.227
-116.26
-115.179
-113.983
-112.675
-111.259
-109.743
-108.136
-106.444
-104.674
-102.833
-100.93
-98.974
-96.974
-94.937
-92.872
-90.788
-88.698
-86.613
-84.549
-82.517
-80.531
-78.606
-76.754
-74.989
-73.321
-71.764
-70.325
-69.014
-67.842
-66.816
-65.943
-65.232
-64.689
-64.319
-64.128
-64.12
-64.299
-64.666
-65.222
-65.967
-66.9
-68.019
-69.319
-70.796
-72.445
-74.257
-76.227
-78.346
-80.603
-82.989
-85.493
-88.103
-90.808
-93.595
-96.454
-99.371
-102.335
-105.334
-108.357
-111.392
-114.429
-117.456
-120.462
-123.438
-126.371
-129.252
-132.07
-134.816
-137.48
-140.054
-142.528
-144.896
-147.15
-149.284
-151.293
-153.172
-154.916
-156.523
-157.991
-159.318
-160.503
-161.548
-162.451
-163.216
-163.845
-164.339
-164.701
-164.936
-165.046
-165.036
-164.909
-164.671
-164.325
-163.878
-163.334
-162.7
-161.98
-161.183
-160.313
-159.378
-158.385
-157.34
-156.251
-155.124
-153.966
-152.784
-151.584
-150.372
-149.154
-147.934
-146.717
-145.509
-144.312
-143.131
-141.969
-140.829
-139.713
-138.624
-137.563
-136.533
-135.534
-134.568
-133.636
-132.738
-131.875
-131.046
-130.253
-129.494
-128.768
-128.074
-127.41
-126.775
-126.166
-125.581
-125.017
-124.47
-123.94
-123.421
-122.913
-122.413
-121.916
-121.423
-120.929
-120.433
-119.933
-119.426
-118.911
-118.387
-117.851
-117.304
-116.743
-116.169
-115.581
-114.977
-114.359
-113.726
-113.077
-112.413
-111.734
-111.04
-110.334
-109.616
-108.888
-108.151
-107.409
-106.663
-105.915
-105.168
-104.423
-103.683
-102.95
-102.226
-101.512
-100.812
-100.125
-99.455
-98.803
-98.17
-97.558
-96.966
-96.395
-95.844
-95.314
-94.804
-94.312
-93.838
-93.379
-92.934
-92.501
-92.078
-91.662
-91.248
-90.834
-90.415
-89.987
-89.545
-89.082
-88.593
-88.074
-87.52
-86.927
-86.291
-85.606
-84.869
-84.076
-83.224
-82.305
-81.315
-80.245
-79.09
-77.849
-76.516
-75.091
-73.57
-71.951
-70.237
-68.432
-66.538
-64.555
-62.48
-60.309
-58.045
-55.699
-53.29
-50.831
-48.335
-45.817
-43.296
-40.795
-38.334
-35.92
-33.551
-31.22
-28.932
-26.706
-24.568
-22.547
-20.657
-18.895
-17.254
-15.737
-14.346
-13.077
-11.913
-10.823
-9.796
-8.857
-8.056
-7.443
-7.049
-6.876
-6.913
-7.157
-7.621
-8.333
-9.322
-10.602
-12.185
-14.093
-16.37
-19.067
-22.196
-25.708
-29.498
-33.462
-37.519
-41.607
-45.679
-49.668
-53.48
-57.019
-60.193
-62.928
-65.169
-66.854
-67.899
-68.24
-67.855
-66.782
-65.154
-63.135
-60.869
-58.521
-56.254
-54.216
-52.637
-51.809
-51.902
-52.986
-54.955
-57.46
-60.201
-62.952
-65.313
-66.754
-66.865
-65.396
-62.66
-59.669
-57.341
-56.434
-57.739
-61.86
-69.182
-79.718
-92.293
-104.351
-113.076
-115.384
-108.041
-88.194
-52.991
-0.115
70.964
158.782
260.612
372.165
487.943
601.84
706.432
793.964
857.915
893.252
896.569
866.846
805.165
714.51
600.783
471.778
335.583
200.361
73.672
-38.521
-131.527
-202.229
-250.497
-278.349
-288.65
-285.04
-271.186
-250.209
-225.521
-200.303
-175.968
-152.959
-131.493
-111.601
-93.93
-79.392
-67.9
-58.913
-52.471
-48.59
-47.166
-47.762
-48.861
-48.865
-47.107
-43.385
-37.665
-30.188
-21.185
-11.212
-1.544
6.729
13.075
17.262
19.437
19.89
18.819
16.588
13.772
10.789
7.901
5.264
2.873
0.737
-1.074
-2.527
-3.591
-4.229
-4.421
-4.151
-3.415
-2.239
-0.665
1.256
3.478
5.969
8.693
11.616
14.707
17.923
21.218
24.537
27.8
30.945
33.934
36.746
39.382
41.853
44.165
46.335
48.39
50.35
52.232
54.05
55.808
57.522
59.212
60.905
62.636
64.433
66.311
68.28
70.346
72.508
74.764
77.107
79.519
81.987
84.502
87.054
89.638
92.244
94.859
97.469
100.06
102.616
105.125
107.573
109.947
112.233
114.421
116.501
118.466
120.307
122.013
123.577
124.988
126.238
127.32
128.226
128.949
129.483
129.825
129.972
129.922
129.676
129.234
128.597
127.769
126.753
125.555
124.181
122.635
120.926
119.062
117.051
114.902
112.624
110.227
107.721
105.116
102.423
99.652
96.814
93.918
90.974
87.995
84.989
81.966
78.938
75.912
72.9
69.911
66.953
64.035
61.165
58.35
55.598
52.916
50.309
47.782
45.341
42.989
40.73
38.568
36.506
34.545
32.688
30.937
29.291
27.754
26.324
25.002
23.789
22.682
21.682
20.788
19.998
19.309
18.721
18.23
17.833
17.528
17.311
17.177
17.123
17.144
17.234
17.39
17.606
17.876
18.196
18.559
18.961
19.396
19.86
20.347
20.851
21.369
21.895
22.423
22.95
23.471
23.98
24.475
24.949
25.401
25.826
26.22
26.581
26.905
27.19
27.434
27.634
27.79
27.9
27.964
27.982
27.954
27.88
27.763
27.603
27.402
27.162
26.885
26.574
26.231
25.858
25.457
25.032
24.584
24.117
23.633
23.134
22.622
22.101
21.571
21.035
20.495
19.953
19.409
18.865
18.322
17.781
17.242
16.706
16.173
15.641
15.112
14.582
14.052
13.518
12.98
12.435
11.88
11.313
10.731
10.132
9.512
8.869
8.2
7.502
6.774
6.012
5.217
4.384
3.514
2.606
1.659
0.672
-0.354
-1.419
-2.521
-3.658
-4.83
-6.032
-7.263
-8.519
-9.796
-11.089
-12.394
-13.707
-15.021
-16.331
-17.631
-18.914
-20.172
-21.4
-22.589
-23.732
-24.82
-25.846
-26.803
-27.684
-28.481
-29.188
-29.799
-30.308
-30.71
-30.999
-31.173
-31.226
-31.158
-30.965
-30.648
-30.207
-29.642
-28.956
-28.152
-27.235
-26.208
-25.079
-23.853
-22.538
-21.142
-19.675
-18.146
-16.568
-14.952
-13.313
-11.666
-10.03
-8.419
-6.854
-5.352
-3.932
-2.611
-1.406
-0.332
0.597
1.367
1.962
2.37
2.575
2.565
2.329
1.858
1.145
0.184
-1.022
-2.471
-4.158
-6.082
-8.246
-10.655
-13.312
-16.215
-19.363
-22.743
-26.337
-30.116
-34.036
-38.051
-42.112
-46.169
-50.182
-54.108
-57.9
-61.509
-64.872
-67.924
-70.609
-72.876
-74.678
-76.003
-76.868
-77.318
-77.445
-77.339
-77.077
-76.763
-76.511
-76.449
-76.731
-77.493
-78.856
-80.99
-84.119
-88.35
-93.634
-99.7
-106.023
-112.063
-117.381
-121.469
-123.672
-123.599
-121.351
-117.536
-113.398
-110.184
-108.558
-109.106
-112.597
-119.143
-127.814
-136.666
-142.434
-141.643
-131.806
-110.404
-74.597
-22.613
45.851
129.201
223.483
323.921
426.039
524.239
611.805
682.367
730.223
751.851
746.326
713.548
654.267
571.416
469.761
355.446
235.712
116.557
2.694
-100.828
-189.96
-262.305
-316.49
-353.158
-374.678
-382.966
-380.04
-369.023
-352.399
-332.151
-310.68
-289.202
-268.107
-248.326
-230.267
-213.547
-198.41
-185.238
-173.6
-163.422
-154.594
-146.326
-138.409
-131.082
-124.093
-117.103
-110.219
-103.478
-97.22
-92.305
-89.07
-87.505
-87.721
-89.708
-93.314
-98.388
-104.5
-110.932
-117.205
-122.99
-128.005
-132.132
-135.262
-137.29
-138.232
-138.19
-137.251
-135.505
-133.038
-129.906
-126.202
-122.041
-117.546
-112.857
-108.107
-103.429
-98.936
-94.706
-90.796
-87.236
-84.04
-81.207
-78.725
-76.564
-74.689
-73.07
-71.673
-70.464
-69.407
-68.45
-67.545
-66.637
-65.686
-64.663
-63.546
-62.318
-60.968
-59.488
-57.877
-56.14
-54.282
-52.303
-50.204
-47.983
-45.642
-43.187
-40.626
-37.967
-35.217
-32.383
-29.474
-26.499
-23.466
-20.387
-17.269
-14.121
-10.955
-7.784
-4.623
-1.486
1.611
4.653
7.623
10.507
13.289
15.955
18.492
20.888
23.13
25.207
27.109
28.825
30.348
31.67
32.783
33.682
34.363
34.821
35.056
35.066
34.851
34.413
33.754
32.877
31.787
30.491
28.993
27.303
25.429
23.38
21.168
18.802
16.296
13.66
10.909
8.053
5.107
2.082
-1.008
-4.151
-7.334
-10.546
-13.773
-17.005
-20.229
-23.434
-26.61
-29.746
-32.832
-35.859
-38.818
-41.703
-44.504
-47.216
-49.832
-52.348
-54.759
-57.06
-59.249
-61.324
-63.282
-65.124
-66.848
-68.456
-69.948
-71.327
-72.594
-73.752
-74.804
-75.753
-76.602
-77.355
-78.017
-78.591
-79.083
-79.496
-79.837
-80.11
-80.321
-80.474
-80.575
-80.63
-80.642
-80.618
-80.561
-80.477
-80.37
-80.243
-80.102
-79.949
-79.789
-79.623
-79.455
-79.288
-79.122
-78.96
-78.803
-78.653
-78.512
-78.379
-78.256
-78.143
-78.043
-77.955
-77.879
-77.816
-77.767
-77.73
-77.705
-77.693
-77.692
-77.702
-77.721
-77.749
-77.785
-77.828
-77.876
-77.93
-77.987
-78.047
-78.108
-78.171
-78.235
-78.299
-78.362
-78.426
-78.489
-78.553
-78.617
-78.681
-78.745
-78.811
-78.876
-78.943
-79.01
-79.078
-79.146
-79.216
-79.286
-79.358
-79.431
-79.507
-79.586
-79.668
-79.755
-79.848
-79.948
-80.055
-80.171
-80.297
-80.434
-80.582
-80.743
-80.916
-81.102
-81.301
-81.512
-81.735
-81.969
-82.213
-82.464
-82.723
-82.986
-83.253
-83.52
-83.787
-84.05
-84.308
-84.557
-84.795
-85.02
-85.226
-85.411
-85.571
-85.701
-85.797
-85.853
-85.864
-85.825
-85.73
-85.573
-85.348
-85.051
-84.675
-84.216
-83.668
-83.028
-82.29
-81.451
-80.509
-79.46
-78.302
-77.035
-75.657
-74.168
-72.568
-70.858
-69.039
-67.115
-65.086
-62.958
-60.733
-58.418
-56.017
-53.54
-50.993
-48.387
-45.732
-43.04
-40.326
-37.603
-34.886
-32.191
-29.535
-26.935
-24.407
-21.966
-19.628
-17.409
-15.324
-13.388
-11.614
-10.018
-8.612
-7.41
-6.422
-5.658
-5.125
-4.824
-4.759
-4.93
-5.339
-5.99
-6.884
-8.02
-9.395
-11.003
-12.833
-14.869
-17.079
-19.423
-21.863
-24.357
-26.866
-29.36
-31.799
-34.147
-36.361
-38.393
-40.198
-41.734
-42.957
-43.834
-44.343
-44.481
-44.291
-43.843
-43.21
-42.462
-41.65
-40.822
-40.061
-39.45
-39.089
-39.079
-39.48
-40.395
-41.982
-44.309
-47.334
-50.844
-54.367
-57.391
-59.499
-60.207
-58.984
-55.489
-49.607
-41.736
-32.858
-24.044
-16.222
-10.212
-6.758
-6.259
-8.529
-12.364
-15.489
-15.117
-8.386
7.441
35.073
76.695
133.456
204.948
288.945
381.842
479.034
575.081
663.641
738.283
793.119
823.574
826.9
801.859
748.955
670.645
571.551
457.846
336.546
214.575
98.293
-6.293
-94.306
-162.4
-209.398
-236.412
-245.985
-241.334
-226.165
-204.455
-179.894
-155.934
-134.845
-117.073
-102.145
-89.058
-76.3
-62.806
-48.032
-31.073
-11.501
10.015
32.462
54.403
73.99
90.442
103.923
114.216
121.268
125.439
127.04
126.847
126.074
125.1
123.597
121.53
118.888
115.763
112.545
109.33
105.952
102.6
99.71
97.601
96.552
96.65
97.753
99.796
102.773
106.588
111.103
116.156
121.561
127.171
132.883
138.585
144.148
149.458
154.416
158.955
163.047
166.682
169.869
172.626
174.989
177
178.702
180.141
181.359
182.399
183.313
184.15
184.967
185.809
186.718
187.723
188.849
190.113
191.527
193.099
194.828
196.716
198.765
200.978
203.361
205.917
208.644
211.54
214.6
217.818
221.19
224.708
228.364
232.148
236.052
240.064
244.175
248.372
252.639
256.96
261.315
265.686
270.052
274.393
278.686
282.911
287.046
291.072
294.967
298.714
302.294
305.688
308.88
311.854
314.595
317.09
319.325
321.289
322.974
324.37
325.473
326.278
326.782
326.984
326.886
326.488
325.797
324.817
323.556
322.023
320.227
318.181
315.897
313.392
310.68
307.778
304.705
301.482
298.13
294.668
291.119
287.503
283.841
280.154
276.464
272.789
269.147
265.559
262.044
258.621
255.31
252.128
249.093
246.222
243.53
241.036
238.753
236.689
234.854
233.257
231.911
230.829
230.019
229.482
229.216
229.214
229.467
229.961
230.668
231.552
232.571
233.691
234.88
236.116
237.368
238.603
239.784
240.876
241.868
242.755
243.54
244.224
244.821
245.361
245.908
246.546
247.348
248.371
249.659
251.25
253.192
255.527
258.277
261.433
264.945
268.74
272.744
276.866
280.991
284.955
288.544
291.527
293.703
294.886
294.906
293.589
290.748
286.233
279.953
271.879
262.041
250.496
237.321
222.629
206.591
189.443
171.483
153.012
134.306
115.645
97.311
79.613
62.87
47.34
33.213
20.613
9.619
0.285
-7.356
-13.326
-17.709
-20.644
-22.31
-22.88
-22.52
-21.417
-19.777
-17.844
-15.858
-14.004
-12.418
-11.2
-10.429
-10.174
-10.486
-11.373
-12.807
-14.737
-17.104
-19.861
-22.956
-26.321
-29.866
-33.486
-37.085
-40.604
-44.006
-47.268
-50.37
-53.298
-56.051
-58.647
-61.118
-63.492
-65.792
-68.035
-70.239
-72.435
-74.656
-76.94
-79.311
-81.782
-84.357
-87.038
-89.822
-92.705
-95.672
-98.703
-101.777
-104.875
-107.983
-111.088
-114.173
-117.22
-120.21
-123.124
-125.948
-128.67
-131.275
-133.754
-136.094
-138.289
-140.332
-142.22
-143.949
-145.515
-146.913
-148.142
-149.2
-150.088
-150.808
-151.36
-151.748
-151.978
-152.057
-151.994
-151.797
-151.478
-151.047
-150.52
-149.912
-149.239
-148.518
-147.766
-147.001
-146.242
-145.506
-144.809
-144.166
-143.592
-143.101
-142.708
-142.429
-142.277
-142.266
-142.407
-142.709
-143.183
-143.834
-144.662
-145.667
-146.848
-148.205
-149.747
-151.481
-153.409
-155.53
-157.837
-160.319
-162.956
-165.72
-168.569
-171.461
-174.351
-177.2
-179.979
-182.656
-185.196
-187.557
-189.682
-191.514
-193.008
-194.133
-194.857
-195.179
-195.124
-194.746
-194.139
-193.398
-192.595
-191.811
-191.13
-190.648
-190.481
-190.744
-191.537
-193.002
-195.327
-198.586
-202.717
-207.47
-212.371
-216.928
-220.744
-223.351
-224.151
-222.81
-219.426
-214.556
-209.335
-204.868
-201.752
-200.51
-201.868
-206.041
-212.335
-219.132
-223.61
-222.692
-214.118
-195.655
-164.747
-119.543
-59.52
14.206
98.445
188.823
281.014
369.85
449.078
512.494
554.707
572.071
563.03
527.744
467.517
385.388
286.483
177.292
64.748
-44.929
-146.258
-234.736
-306.985
-360.903
-396.474
-415.559
-420.921
-415.533
-402.714
-385.641
-367.192
-349.98
-335.294
-323.184
-313.255
-304.836
-297.036
-289.046
-279.973
-268.897
-255.65
-240.675
-224.616
-208.272
-192.355
-177.427
-164.133
-153.111
-144.658
-138.805
-135.396
-134.112
-134.659
-136.785
-140.184
-144.49
-149.352
-154.426
-159.409
-164.095
-168.318
-171.913
-174.728
-176.642
-177.586
-177.55
-176.577
-174.726
-172.068
-168.69
-164.696
-160.225
-155.434
-150.485
-145.532
-140.692
-136.044
-131.663
-127.611
-123.933
-120.656
-117.777
-115.27
-113.11
-111.276
-109.739
-108.464
-107.402
-106.496
-105.688
-104.92
-104.151
-103.345
-102.474
-101.514
-100.447
-99.261
-97.952
-96.522
-94.968
-93.287
-91.474
-89.526
-87.443
-85.229
-82.888
-80.425
-77.845
-75.152
-72.354
-69.457
-66.466
-63.388
-60.23
-56.999
-53.705
-50.362
-46.981
-43.58
-40.174
-36.78
-33.415
-30.097
-26.843
-23.671
-20.595
-17.633
-14.799
-12.107
-9.574
-7.212
-5.034
-3.052
-1.279
0.276
1.603
2.695
3.544
4.144
4.492
4.584
4.418
3.993
3.311
2.372
1.179
-0.261
-1.944
-3.862
-6.006
-8.366
-10.931
-13.689
-16.626
-19.729
-22.984
-26.375
-29.888
-33.507
-37.217
-41.001
-44.844
-48.729
-52.641
-56.563
-60.48
-64.376
-68.236
-72.045
-75.79
-79.456
-83.031
-86.502
-89.858
-93.088
-96.182
-99.131
-101.927
-104.562
-107.032
-109.33
-111.454
-113.4
-115.168
-116.757
-118.167
-119.399
-120.456
-121.34
-122.056
-122.608
-123.001
-123.241
-123.334
-123.287
-123.108
-122.805
-122.385
-121.857
-121.23
-120.511
-119.709
-118.833
-117.892
-116.894
-115.848
-114.761
-113.642
-112.497
-111.336
-110.163
-108.984
-107.806
-106.632
-105.468
-104.317
-103.182
-102.066
-100.971
-99.899
-98.851
-97.828
-96.829
-95.856
-94.908
-93.983
-93.082
-92.203
-91.345
-90.508
-89.691
-88.891
-88.109
-87.343
-86.591
-85.852
-85.123
-84.405
-83.694
-82.989
-82.289
-81.592
-80.898
-80.207
-79.517
-78.829
-78.143
-77.458
-76.776
-76.096
-75.421
-74.751
-74.087
-73.432
-72.789
-72.16
-71.547
-70.953
-70.38
-69.829
-69.302
-68.8
-68.323
-67.871
-67.445
-67.044
-66.671
-66.326
-66.01
-65.725
-65.471
-65.252
-65.068
-64.921
-64.811
-64.736
-64.697
-64.695
-64.729
-64.798
-64.901
-65.04
-65.216
-65.43
-65.684
-65.976
-66.301
-66.657
-67.039
-67.446
-67.873
-68.314
-68.765
-69.226
-69.703
-70.208
-70.743
-71.302
-71.874
-72.441
-72.99
-73.509
-73.978
-74.372
-74.675
-74.881
-74.999
-75.053
-75.053
-74.995
-74.862
-74.628
-74.286
-73.849
-73.331
-72.751
-72.137
-71.519
-70.957
-70.529
-70.276
-70.199
-70.263
-70.393
-70.54
-70.677
-70.783
-70.84
-70.809
-70.641
-70.301
-69.757
-68.957
-67.83
-66.259
-64.104
-61.3
-57.844
-53.791
-49.249
-44.311
-39.053
-33.573
-27.982
-22.394
-16.915
-11.616
-6.555
-1.819
2.474
6.157
9.054
11.063
12.14
12.303
11.613
10.133
7.93
5.1
1.766
-1.964
-6.004
-10.307
-14.839
-19.543
-24.324
-29.042
-33.553
-37.749
-41.543
-44.904
-47.827
-50.318
-52.401
-54.088
-55.373
-56.26
-56.743
-56.806
-56.483
-55.768
-54.598
-53.115
-51.571
-50.219
-49.392
-49.19
-49.402
-50.032
-51.298
-53.165
-55.501
-58.01
-60.008
-61.278
-62.133
-62.496
-62.049
-60.619
-57.938
-54.178
-50.337
-47.146
-45.032
-44.885
-47.532
-53.587
-63.8
-78.071
-94.942
-112.296
-127.303
-136.286
-135.624
-121.863
-91.347
-41.542
28.361
117.374
222.319
338.281
459.373
578.807
688.657
781.19
849.553
888.549
895.513
869.604
811.773
725.036
614.637
487.445
351.31
213.895
81.663
-39.366
-144.104
-228.911
-291.847
-333.205
-354.992
-359.759
-349.908
-328.39
-298.613
-264.115
-228.203
-192.915
-159.339
-128.538
-101.955
-80.736
-65.11
-54.496
-47.834
-44.341
-43.53
-44.553
-45.879
-45.997
-44.172
-40.33
-34.905
-28.43
-21.251
-13.953
-7.591
-3.101
-0.952
-1.22
-3.566
-7.51
-12.691
-18.65
-24.766
-30.524
-35.529
-39.54
-42.532
-44.53
-45.545
-45.612
-44.786
-43.098
-40.601
-37.366
-33.456
-28.961
-23.993
-18.662
-13.096
-7.438
-1.829
3.618
8.823
13.738
18.337
22.574
26.399
29.757
32.607
34.939
36.761
38.095
38.982
39.484
39.681
39.685
39.59
39.47
39.386
39.375
39.471
39.728
40.209
40.984
42.137
43.72
45.768
48.306
51.318
54.768
58.599
62.713
67.028
71.484
76.028
80.626
85.25
89.852
94.383
98.789
102.993
106.939
110.584
113.885
116.834
119.439
121.726
123.753
125.57
127.207
128.688
130.023
131.214
132.271
133.203
134.016
134.729
135.36
135.921
136.43
136.889
137.293
137.628
137.868
137.985
137.964
137.797
137.48
137.014
136.404
135.654
134.778
133.783
132.677
131.464
130.149
128.737
127.237
125.661
124.02
122.33
120.603
118.851
117.084
115.312
113.544
111.785
110.041
108.316
106.616
104.946
103.312
101.722
100.18
98.692
97.267
95.908
94.622
93.414
92.288
91.248
90.299
89.444
88.685
88.027
87.471
87.02
86.676
86.439
86.312
86.294
86.387
86.588
86.896
87.31
87.826
88.44
89.148
89.945
90.828
91.79
92.826
93.932
95.1
96.325
97.601
98.919
100.272
101.652
103.05
104.459
105.869
107.272
108.658
110.02
111.349
112.636
113.873
115.051
116.161
117.196
118.148
119.008
119.77
120.427
120.975
121.409
121.724
121.919
121.99
121.938
121.76
121.457
121.029
120.476
119.8
119.003
118.087
117.055
115.911
114.661
113.308
111.86
110.321
108.699
107
105.23
103.398
101.511
99.575
97.599
95.591
93.559
91.511
89.453
87.394
85.341
83.298
81.273
79.269
77.291
75.342
73.426
71.544
69.7
67.896
66.132
64.41
62.732
61.097
59.505
57.956
56.447
54.978
53.547
52.149
50.784
49.449
48.139
46.852
45.585
44.333
43.094
41.864
40.638
39.414
38.188
36.958
35.721
34.477
33.223
31.961
30.691
29.413
28.13
26.842
25.552
24.263
22.976
21.696
20.423
19.164
17.92
16.698
15.501
14.335
13.207
12.12
11.081
10.097
9.173
8.316
7.531
6.827
6.208
5.682
5.256
4.935
4.725
4.63
4.656
4.804
5.078
5.477
6.004
6.657
7.434
8.335
9.356
10.493
11.743
13.1
14.558
16.109
17.746
19.458
21.233
23.061
24.928
26.82
28.723
30.621
32.498
34.341
36.134
37.859
39.501
41.043
42.468
43.759
44.899
45.87
46.656
47.241
47.615
47.769
47.697
47.394
46.854
46.068
45.03
43.74
42.198
40.403
38.361
36.082
33.588
30.922
28.125
25.243
22.314
19.372
16.456
13.607
10.871
8.295
5.924
3.789
1.93
0.386
-0.824
-1.687
-2.235
-2.558
-2.751
-2.909
-3.12
-3.44
-3.941
-4.736
-5.942
-7.68
-10.062
-13.144
-17.02
-21.874
-27.742
-34.501
-41.813
-49
-55.382
-60.463
-63.68
-64.378
-62.257
-57.371
-50.29
-42.445
-35.239
-29.581
-26.369
-26.306
-29.32
-34.557
-40.112
-42.523
-38.188
-24.141
2.656
44.646
103.064
177.889
267.117
366.412
470.534
573.986
670.289
753.01
816.174
854.568
865.161
847.018
800.594
727.819
632.524
519.918
396.532
269.502
145.018
28.744
-74.384
-160.738
-228.064
-275.982
-306.087
-320.965
-323.347
-316.339
-302.904
-285.699
-267.109
-248.339
-229.559
-210.708
-191.634
-172.384
-153.442
-135.126
-117.722
-101.946
-88.589
-78.227
-71.254
-67.337
-65.52
-65.066
-65.277
-65.476
-65.28
-64.424
-62.79
-60.782
-59.185
-58.537
-59.217
-61.365
-64.795
-69.286
-74.585
-80.241
-85.665
-90.406
-94.155
-96.769
-98.303
-98.818
-98.361
-97.026
-94.934
-92.201
-88.942
-85.257
-81.208
-76.88
-72.373
-67.791
-63.264
-58.898
-54.759
-50.89
-47.303
-44
-40.98
-38.237
-35.744
-33.471
-31.388
-29.464
-27.68
-26.009
-24.42
-22.873
-21.321
-19.729
-18.076
-16.348
-14.538
-12.644
-10.661
-8.594
-6.453
-4.249
-1.991
0.315
2.666
5.055
7.472
9.904
12.339
14.766
17.173
19.551
21.887
24.171
26.391
28.538
30.603
32.577
34.447
36.204
37.835
39.329
40.678
41.87
42.896
43.748
44.419
44.903
45.195
45.293
45.193
44.895
44.396
43.7
42.807
41.719
40.441
38.977
37.331
35.511
33.522
31.373
29.07
26.624
24.042
21.335
18.513
15.587
12.566
9.462
6.287
3.05
-0.237
-3.563
-6.917
-10.289
-13.668
-17.046
-20.411
-23.756
-27.072
-30.352
-33.59
-36.778
-39.911
-42.984
-45.991
-48.93
-51.795
-54.582
-57.289
-59.912
-62.448
-64.895
-67.25
-69.513
-71.681
-73.754
-75.731
-77.611
-79.394
-81.079
-82.668
-84.159
-85.555
-86.855
-88.061
-89.174
-90.196
-91.128
-91.973
-92.73
-93.402
-93.991
-94.496
-94.92
-95.264
-95.528
-95.716
-95.828
-95.866
-95.833
-95.732
-95.563
-95.331
-95.038
-94.686
-94.279
-93.82
-93.311
-92.757
-92.161
-91.526
-90.856
-90.155
-89.426
-88.672
-87.898
-87.105
-86.296
-85.476
-84.647
-83.812
-82.974
-82.136
-81.302
-80.475
-79.659
-78.855
-78.067
-77.298
-76.55
-75.824
-75.122
-74.445
-73.794
-73.171
-72.575
-72.006
-71.466
-70.952
-70.465
-70.004
-69.567
-69.152
-68.758
-68.383
-68.026
-67.684
-67.357
-67.042
-66.737
-66.442
-66.154
-65.871
-65.592
-65.315
-65.036
-64.755
-64.469
-64.176
-63.876
-63.568
-63.249
-62.92
-62.58
-62.23
-61.869
-61.497
-61.117
-60.727
-60.331
-59.929
-59.523
-59.116
-58.71
-58.307
-57.91
-57.522
-57.144
-56.779
-56.43
-56.098
-55.785
-55.494
-55.227
-54.984
-54.768
-54.58
-54.422
-54.294
-54.196
-54.129
-54.093
-54.086
-54.108
-54.157
-54.231
-54.328
-54.444
-54.577
-54.724
-54.878
-55.037
-55.194
-55.344
-55.481
-55.599
-55.693
-55.756
-55.783
-55.767
-55.703
-55.585
-55.407
-55.163
-54.85
-54.461
-53.992
-53.439
-52.798
-52.068
-51.244
-50.327
-49.315
-48.208
-47.007
-45.714
-44.332
-42.863
-41.312
-39.686
-37.991
-36.233
-34.424
-32.575
-30.697
-28.805
-26.911
-25.031
-23.181
-21.375
-19.629
-17.957
-16.372
-14.887
-13.517
-12.275
-11.176
-10.235
-9.466
-8.879
-8.489
-8.303
-8.33
-8.571
-9.026
-9.696
-10.582
-11.694
-13.037
-14.612
-16.421
-18.459
-20.717
-23.175
-25.804
-28.562
-31.403
-34.283
-37.16
-40.001
-42.771
-45.43
-47.936
-50.236
-52.277
-54.015
-55.414
-56.434
-57.065
-57.331
-57.277
-56.998
-56.584
-56.104
-55.644
-55.295
-55.154
-55.348
-55.992
-57.17
-59.017
-61.702
-65.305
-69.812
-75.005
-80.414
-85.527
-89.863
-92.868
-93.945
-92.69
-89.018
-83.398
-76.886
-70.667
-65.738
-62.988
-63.259
-66.91
-73.502
-81.507
-88.235
-90.462
-85.115
-69.253
-39.9
5.086
66.583
143.786
233.862
332.644
435.248
535.948
628.067
705.092
761.13
791.676
794.349
768.159
713.662
633.378
531.868
415.176
290.319
164.22
42.91
-67.832
-163.16
-239.681
-295.734
-331.847
-350.04
-352.889
-342.95
-323.094
-296.496
-266.409
-235.566
-205.287
-176.226
-148.931
-124.32
-103.719
-87.646
-75.666
-67.184
-61.998
-59.947
-60.727
-63.289
-65.64
-66.503
-65.582
-62.874
-58.584
-52.924
-46.008
-38.483
-31.666
-26.411
-23.013
-21.512
-21.554
-22.813
-25.152
-28.222
-31.457
-34.459
-36.937
-38.709
-39.832
-40.351
-40.249
-39.577
-38.386
-36.709
-34.623
-32.191
-29.455
-26.481
-23.317
-19.998
-16.587
-13.151
-9.767
-6.524
-3.471
-0.627
1.989
4.369
6.504
8.389
10.052
11.529
12.856
14.063
15.172
16.201
17.179
18.141
19.123
20.166
21.295
22.529
23.886
25.381
27.024
28.823
30.777
32.877
35.117
37.495
40.008
42.655
45.43
48.324
51.329
54.437
57.636
60.917
64.268
67.678
71.133
74.623
78.134
81.656
85.178
88.685
92.163
95.597
98.974
102.28
105.499
108.617
111.621
114.499
117.238
119.828
122.258
124.519
126.602
128.5
130.205
131.711
133.011
134.101
134.977
135.635
136.071
136.283
136.27
136.029
135.562
134.867
133.947
132.801
131.432
129.843
128.037
126.016
123.784
121.347
118.709
115.875
112.851
109.644
106.26
102.707
98.991
95.12
91.101
86.943
82.652
78.238
73.709
69.074
64.341
59.521
54.622
49.655
44.631
39.558
34.448
29.31
24.157
18.999
13.846
8.711
3.604
-1.464
-6.481
-11.437
-16.321
-21.123
-25.832
-30.441
-34.94
-39.321
-43.576
-47.699
-51.682
-55.521
-59.209
-62.742
-66.116
-69.328
-72.376
-75.257
-77.971
-80.516
-82.893
-85.103
-87.147
-89.026
-90.744
-92.304
-93.71
-94.967
-96.081
-97.057
-97.903
-98.627
-99.236
-99.739
-100.144
-100.46
-100.697
-100.863
-100.967
-101.018
-101.025
-100.995
-100.938
-100.86
-100.769
-100.673
-100.578
-100.489
-100.414
-100.356
-100.322
-100.316
-100.343
-100.406
-100.509
-100.656
-100.849
-101.091
-101.383
-101.727
-102.122
-102.569
-103.066
-103.612
-104.206
-104.843
-105.522
-106.238
-106.989
-107.77
-108.577
-109.405
-110.252
-111.113
-111.984
-112.862
-113.743
-114.625
-115.504
-116.379
-117.247
-118.106
-118.954
-119.789
-120.611
-121.417
-122.205
-122.976
-123.726
-124.456
-125.164
-125.85
-126.513
-127.153
-127.772
-128.368
-128.944
-129.5
-130.039
-130.562
-131.072
-131.569
-132.056
-132.534
-133.006
-133.472
-133.934
-134.391
-134.844
-135.292
-135.734
-136.17
-136.596
-137.011
-137.412
-137.795
-138.158
-138.495
-138.804
-139.081
-139.321
-139.521
-139.676
-139.784
-139.841
-139.842
-139.783
-139.661
-139.472
-139.211
-138.874
-138.458
-137.959
-137.373
-136.698
-135.931
-135.07
-134.113
-133.061
-131.913
-130.671
-129.335
-127.908
-126.396
-124.802
-123.135
-121.4
-119.608
-117.77
-115.896
-114
-112.093
-110.189
-108.302
-106.446
-104.633
-102.877
-101.191
-99.586
-98.077
-96.678
-95.4
-94.256
-93.256
-92.414
-91.743
-91.255
-90.958
-90.859
-90.963
-91.272
-91.795
-92.538
-93.504
-94.691
-96.093
-97.705
-99.516
-101.515
-103.677
-105.962
-108.323
-110.712
-113.089
-115.417
-117.657
-119.772
-121.717
-123.445
-124.924
-126.13
-127.043
-127.653
-127.945
-127.925
-127.629
-127.137
-126.557
-126.004
-125.579
-125.363
-125.419
-125.813
-126.631
-127.973
-129.901
-132.453
-135.619
-139.421
-143.953
-149.217
-155.041
-160.977
-166.354
-170.571
-173.156
-173.601
-171.386
-166.231
-158.138
-147.946
-137.069
-126.45
-117.225
-110.644
-106.997
-106.502
-107.724
-105.51
-96.666
-80.536
-57.752
-34.737
-12.606
17.776
66.53
147.002
263.962
400.183
531.196
631.934
682.121
684.487
653.851
602.467
542.653
475.636
394.896
300.345
194.26
82.007
-27.157
-127.035
-213.9
-284.438
-337.387
-372.896
-391.672
-395.511
-386.701
-367.66
-341.13
-310.393
-278.58
-247.844
-219.84
-195.416
-174.954
-158.999
-147.518
-139.527
-133.766
-129.014
-123.941
-117.915
-110.635
-101.415
-90.053
-76.973
-62.766
-48.396
-35.045
-23.301
-13.455
-5.924
-0.785
2.089
2.862
2.043
0.281
-2.055
-4.718
-7.494
-10.3
-12.996
-15.403
-17.464
-19.142
-20.361
-21.071
-21.206
-20.704
-19.581
-17.883
-15.664
-13.001
-9.954
-6.57
-2.904
0.99
5.058
9.236
13.466
17.682
21.809
25.792
29.594
33.195
36.602
39.83
42.898
45.835
48.676
51.448
54.177
56.884
59.586
62.304
65.064
67.899
70.846
73.933
77.179
80.599
84.198
87.979
91.942
96.079
100.377
104.825
109.413
114.135
118.985
123.955
129.033
134.206
139.459
144.777
150.146
155.551
160.977
166.409
171.833
177.235
182.606
187.931
193.197
198.39
203.495
208.496
213.38
218.131
222.734
227.175
231.439
235.514
239.388
243.051
246.49
249.697
252.662
255.377
257.837
260.034
261.964
263.623
265.007
266.116
266.948
267.505
267.787
267.798
267.54
267.018
266.237
265.201
263.917
262.392
260.631
258.644
256.44
254.027
251.416
248.618
245.644
242.508
239.223
235.801
232.255
228.601
224.853
221.024
217.129
213.183
209.2
205.196
201.184
197.178
193.193
189.241
185.336
181.489
177.713
174.018
170.416
166.917
163.531
160.267
157.135
154.142
151.297
148.607
146.078
143.717
141.526
139.512
137.675
136.018
134.543
133.248
132.133
131.196
130.435
129.845
129.424
129.164
129.061
129.108
129.297
129.621
130.071
130.64
131.318
132.097
132.968
133.922
134.95
136.044
137.194
138.391
139.627
140.892
142.177
143.474
144.774
146.069
147.352
148.616
149.855
151.064
152.238
153.374
154.469
155.522
156.531
157.496
158.419
159.301
160.146
160.959
161.746
162.514
163.27
164.022
164.777
165.544
166.33
167.143
167.989
168.874
169.808
170.798
171.855
172.987
174.205
175.518
176.937
178.472
180.131
181.923
183.851
185.921
188.136
190.503
193.027
195.709
198.544
201.524
204.637
207.868
211.199
214.604
218.053
221.513
224.956
228.355
231.685
234.925
238.052
241.042
243.869
246.516
248.981
251.266
253.383
255.343
257.157
258.84
260.419
261.912
263.337
264.704
266.012
267.258
268.433
269.533
270.557
271.482
272.255
272.802
273.023
272.83
272.147
270.897
268.998
266.371
262.938
258.638
253.431
247.273
240.121
231.915
222.578
212.088
200.474
187.814
174.234
159.842
144.733
129.016
112.806
96.234
79.436
62.524
45.592
28.77
12.219
-3.85
-19.187
-33.606
-46.981
-59.236
-70.342
-80.242
-88.884
-96.251
-102.346
-107.19
-110.805
-113.178
-114.3
-114.225
-113.07
-111.027
-108.343
-105.212
-101.797
-98.245
-94.689
-91.294
-88.206
-85.52
-83.313
-81.65
-80.619
-80.346
-80.942
-82.451
-84.869
-88.128
-92.125
-96.785
-102.026
-107.749
-113.845
-120.167
-126.589
-133.022
-139.39
-145.615
-151.597
-157.207
-162.336
-166.91
-170.881
-174.219
-176.908
-178.922
-180.26
-180.949
-181.043
-180.636
-179.842
-178.776
-177.555
-176.292
-175.089
-174.071
-173.369
-173.105
-173.407
-174.393
-176.153
-178.814
-182.539
-187.377
-193.211
-199.716
-206.335
-212.47
-217.643
-221.326
-222.853
-221.8
-218.188
-212.507
-205.85
-199.38
-193.77
-189.621
-187.735
-188.365
-190.825
-193.514
-193.602
-187.886
-173.916
-149.241
-111.084
-57.506
11.999
96.251
191.931
294.435
399.103
500.323
591.315
665.405
716.832
741.645
738.059
706.068
646.907
563.752
462.081
348.835
231.441
116.605
10.296
-82.474
-157.848
-213.46
-249.293
-267.372
-270.754
-262.743
-247.022
-227.207
-206.618
-188.172
-173.272
-161.947
-153.662
-147.586
-142.652
-137.821
-131.988
-124.037
-113.641
-101.148
-87.142
-72.358
-57.467
-43.002
-29.556
-17.761
-7.954
-0.194
5.612
9.7
12.302
13.604
13.842
13.311
12.269
10.946
9.54
8.152
6.857
5.749
4.894
4.361
4.243
4.589
5.432
6.826
8.782
11.286
14.318
17.805
21.664
25.818
30.187
34.715
39.374
44.129
48.954
53.831
58.717
63.58
68.384
73.069
77.593
81.932
86.068
90.01
93.774
97.376
100.836
104.182
107.428
110.592
113.686
116.717
119.697
122.646
125.585
128.548
131.56
134.642
137.81
141.077
144.451
147.939
151.544
155.263
159.097
163.048
167.12
171.316
175.642
180.1
184.694
189.43
194.309
199.326
204.472
209.738
215.106
220.56
226.071
231.606
237.13
242.611
248.025
253.35
258.563
263.634
268.532
273.223
277.694
281.942
285.975
289.804
293.456
296.969
300.403
303.832
307.313
310.889
314.583
318.403
322.364
326.481
330.767
335.225
339.825
344.513
349.222
353.862
358.318
362.444
366.066
369
371.095
372.226
372.297
371.224
368.922
365.31
360.312
353.866
345.946
336.558
325.736
313.566
300.179
285.75
270.502
254.656
238.41
221.944
205.418
188.992
172.842
157.139
142.068
127.824
114.579
102.489
91.675
82.187
74.03
67.151
61.45
56.83
53.206
50.499
48.643
47.57
47.188
47.409
48.11
49.144
50.366
51.629
52.814
53.864
54.759
55.527
56.246
56.987
57.803
58.739
59.803
60.991
62.304
63.728
65.266
66.943
68.765
70.738
72.853
75.051
77.244
79.308
81.057
82.295
82.849
82.562
81.323
79.056
75.683
71.152
65.412
58.416
50.146
40.607
29.808
17.782
4.586
-9.702
-24.933
-40.918
-57.482
-74.454
-91.698
-109.097
-126.522
-143.843
-160.93
-177.67
-193.979
-209.792
-225.041
-239.648
-253.542
-266.654
-278.968
-290.515
-301.325
-311.425
-320.83
-329.556
-337.643
-345.155
-352.168
-358.731
-364.875
-370.614
-375.972
-380.989
-385.717
-390.212
-394.497
-398.574
-402.442
-406.107
-409.577
-412.854
-415.919
-418.727
-421.226
-423.39
-425.211
-426.689
-427.827
-428.62
-429.058
-429.135
-428.862
-428.257
-427.335
-426.112
-424.599
-422.817
-420.8
-418.594
-416.249
-413.801
-411.278
-408.702
-406.095
-403.475
-400.863
-398.27
-395.701
-393.161
-390.657
-388.197
-385.788
-383.434
-381.133
-378.88
-376.669
-374.498
-372.361
-370.256
-368.179
-366.125
-364.093
-362.079
-360.086
-358.109
-356.145
-354.19
-352.239
-350.288
-348.332
-346.366
-344.386
-342.388
-340.368
-338.324
-336.255
-334.159
-332.037
-329.889
-327.717
-325.524
-323.315
-321.095
-318.873
-316.655
-314.451
-312.272
-310.128
-308.031
-305.991
-304.019
-302.126
-300.323
-298.62
-297.029
-295.559
-294.221
-293.025
-291.985
-291.111
-290.414
-289.901
-289.575
-289.44
-289.497
-289.75
-290.206
-290.866
-291.731
-292.799
-294.068
-295.533
-297.183
-298.992
-300.917
-302.912
-304.929
-306.926
-308.866
-310.71
-312.416
-313.939
-315.23
-316.249
-316.963
-317.338
-317.344
-316.962
-316.187
-315.063
-313.695
-312.193
-310.677
-309.252
-307.98
-306.949
-306.27
-306.062
-306.453
-307.559
-309.432
-312.164
-315.924
-320.734
-326.449
-332.688
-338.683
-343.643
-346.959
-347.956
-345.929
-340.627
-332.19
-321.31
-309.669
-298.949
-290.358
-285.166
-284.209
-287.19
-292.979
-299.313
-302.201
-297.56
-281.756
-250.929
-202.372
-135.201
-50.016
50.477
161.199
276.167
388.568
490.372
574.267
634.14
665.242
664.969
632.543
568.865
477.167
363.136
233.526
95.631
-43.423
-176.892
-297.862
-400.407
-480.495
-536.429
-568.568
-578.373
-567.877
-540.427
-500.941
-454.702
-406.813
-361.12
-320.018
-285.747
-260.175
-243.728
-235.545
-233.848
-236.14
-240.536
-245.716
-249.879
-251.475
-249.808
-244.737
-236.912
-227.579
-217.635
-207.888
-199.46
-193.111
-189.191
-187.833
-188.695
-191.194
-194.855
-199.106
-203.298
-207.037
-210.072
-212.243
-213.537
-213.949
-213.469
-212.167
-210.148
-207.494
-204.276
-200.554
-196.399
-191.926
-187.283
-182.626
-178.074
-173.708
-169.584
-165.752
-162.262
-159.155
-156.442
-154.11
-152.143
-150.526
-149.248
-148.293
-147.624
-147.189
-146.933
-146.796
-146.731
-146.707
-146.691
-146.658
-146.587
-146.46
-146.265
-146.001
-145.66
-145.231
-144.703
-144.064
-143.306
-142.428
-141.428
-140.304
-139.055
-137.68
-136.179
-134.554
-132.803
-130.928
-128.927
-126.802
-124.555
-122.191
-119.716
-117.138
-114.466
-111.711
-108.883
-105.994
-103.057
-100.085
-97.089
-94.083
-91.079
-88.089
-85.127
-82.205
-79.337
-76.535
-73.812
-71.181
-68.653
-66.239
-63.951
-61.799
-59.793
-57.941
-56.252
-54.733
-53.392
-52.236
-51.272
-50.506
-49.944
-49.591
-49.451
-49.528
-49.825
-50.344
-51.086
-52.052
-53.241
-54.653
-56.286
-58.14
-60.21
-62.495
-64.99
-67.691
-70.592
-73.688
-76.971
-80.435
-84.072
-87.873
-91.83
-95.934
-100.176
-104.545
-109.031
-113.623
-118.309
-123.078
-127.916
-132.81
-137.747
-142.711
-147.69
-152.667
-157.63
-162.562
-167.451
-172.281
-177.039
-181.711
-186.284
-190.745
-195.08
-199.28
-203.331
-207.224
-210.949
-214.497
-217.859
-221.03
-224.001
-226.767
-229.321
-231.661
-233.78
-235.677
-237.348
-238.792
-240.009
-240.999
-241.763
-242.305
-242.627
-242.735
-242.633
-242.326
-241.823
-241.13
-240.255
-239.206
-237.993
-236.624
-235.11
-233.461
-231.686
-229.796
-227.801
-225.711
-223.536
-221.287
-218.971
-216.6
-214.182
-211.727
-209.244
-206.742
-204.23
-201.717
-199.21
-196.719
-194.251
-191.812
-189.408
-187.046
-184.73
-182.465
-180.256
-178.107
-176.019
-173.996
-172.04
-170.153
-168.334
-166.586
-164.907
-163.296
-161.754
-160.28
-158.871
-157.527
-156.246
-155.026
-153.865
-152.762
-151.714
-150.719
-149.773
-148.874
-148.018
-147.202
-146.424
-145.679
-144.964
-144.277
-143.613
-142.971
-142.347
-141.737
-141.139
-140.551
-139.968
-139.389
-138.811
-138.232
-137.649
-137.06
-136.464
-135.859
-135.243
-134.615
-133.972
-133.312
-132.635
-131.937
-131.218
-130.475
-129.706
-128.909
-128.082
-127.224
-126.332
-125.405
-124.439
-123.432
-122.382
-121.287
-120.142
-118.945
-117.692
-116.381
-115.007
-113.568
-112.058
-110.476
-108.817
-107.077
-105.253
-103.34
-101.336
-99.237
-97.038
-94.737
-92.331
-89.817
-87.193
-84.456
-81.605
-78.64
-75.558
-72.36
-69.047
-65.618
-62.077
-58.424
-54.665
-50.802
-46.841
-42.787
-38.649
-34.435
-30.153
-25.816
-21.434
-17.021
-12.59
-8.158
-3.737
0.655
5.006
9.3
13.523
17.661
21.7
25.624
29.421
33.075
36.571
39.896
43.039
45.991
48.747
51.302
53.655
55.802
57.737
59.454
60.95
62.221
63.267
64.092
64.707
65.139
65.422
65.596
65.698
65.766
65.832
65.931
66.101
66.378
66.814
67.458
68.355
69.557
71.106
73.031
75.337
77.983
80.895
83.99
87.195
90.455
93.714
96.885
99.86
102.53
104.773
106.504
107.595
107.823
107.09
105.468
103.239
101.005
99.413
98.929
100.08
103.527
109.565
118.074
128.394
138.977
148.294
155.394
159.401
159.565
155.907
149.327
141.885
137.328
139.621
151.966
177.551
219.116
278.28
355.342
448.511
553.404
664.512
776.151
881.677
974.306
1047.602
1095.846
1115.603
1105.93
1067.507
1002.483
914.857
809.874
694.168
575.096
458.846
350.641
254.863
174.571
111.785
67.414
40.338
28.331
29.375
41.164
61.449
88.231
119.035
151.401
183.993
215.762
245.444
272.183
295.051
313.42
327.644
338.57
346.823
353.286
359.151
365.293
372.67
381.915
392.91
405.191
418.232
431.269
443.385
453.999
462.614
468.942
473.154
475.562
476.567
476.728
476.638
476.698
477.24
478.54
480.689
483.757
487.775
492.665
498.348
504.77
511.875
519.603
527.892
536.642
545.741
555.096
564.61
574.197
583.763
593.193
602.402
611.34
619.975
628.305
636.326
644.032
651.436
658.571
665.474
672.185
678.741
685.169
691.503
697.781
704.044
710.34
716.702
723.153
729.713
736.394
743.21
750.171
757.281
764.534
771.927
779.458
787.127
794.935
802.88
810.955
819.153
827.467
835.888
844.409
853.022
861.714
870.478
879.3
888.171
897.082
906.019
914.97
923.921
932.856
941.761
950.622
959.423
968.149
976.787
985.322
993.744
1002.04
1010.201
1018.217
1026.08
1033.783
1041.32
1048.687
1055.879
1062.895
1069.734
1076.395
1082.879
1089.188
1095.323
1101.29
1107.091
1112.733
1118.221
1123.562
1128.764
1133.835
1138.783
1143.619
1148.352
1152.992
1157.551
1162.039
1166.468
1170.849
1175.195
1179.516
1183.825
1188.131
1192.446
1196.781
1201.143
1205.542
1209.987
1214.486
1219.045
1223.674
1228.38
1233.171
1238.056
1243.044
1248.144
1253.363
1258.709
1264.191
1269.815
1275.587
1281.511
1287.592
1293.836
1300.25
1306.84
1313.613
1320.568
1327.708
1335.033
1342.547
1350.251
1358.146
1366.227
1374.495
1382.952
1391.607
1400.472
1409.552
1418.841
1428.326
1437.995
1447.837
1457.837
1467.975
1478.209
1488.496
1498.792
1509.058
1519.259
1529.354
1539.286
1548.986
1558.391
1567.445
1576.13
1584.451
1592.396
1599.96
1607.139
1613.925
1620.38
1626.604
1632.687
1638.738
1644.833
1650.985
1657.282
1663.866
1670.752
1677.884
1684.996
1691.586
1697.398
1702.43
1706.664
1710.11
1712.785
1714.607
1715.914
1717.496
1719.533
1721.614
1722.969
1722.37
1718.795
1711.604
1699.734
1681.716
1656.856
1625.188
1587.509
1545.51
1500.606
1453.775
1406.324
1359.788
1315.253
1273.407
1234.302
1197.254
1161.883
1128.152
1095.889
1064.892
1035.031
1006.204
978.548
952.456
928.052
905.178
883.614
863.028
843.086
823.494
803.87
783.751
762.749
740.581
717.025
691.921
665.093
636.312
605.391
572.206
536.673
498.769
458.479
415.773
370.649
323.143
273.312
221.231
166.965
110.517
51.883
-8.902
-71.78
-136.639
-203.369
-271.908
-342.19
-414.129
-487.621
-562.519
-638.672
-715.953
-794.223
-873.311
-953.022
-1033.101
-1113.276
-1193.317
-1272.998
-1352.09
-1430.353
-1507.494
-1583.221
-1657.272
-1729.394
-1799.341
-1866.858
-1931.666
-1993.503
-2052.155
-2107.42
-2159.124
-2207.107
-2251.187
-2291.22
-2327.109
-2358.791
-2386.241
-2409.452
-2428.431
-2443.221
-2453.921
-2460.677
-2463.681
-2463.145
-2459.295
-2452.402
-2442.782
-2430.782
-2416.775
-2401.112
-2384.115
-2366.111
-2347.447
-2328.469
-2309.511
-2290.865
-2272.778
-2255.459
-2239.097
-2223.847
-2209.814
-2197.027
-2185.451
-2175.008
-2165.601
-2157.132
-2149.497
-2142.561
-2136.145
-2130.045
-2124.058
-2117.988
-2111.651
-2104.864
-2097.439
-2089.206
-2080.047
-2069.902
-2058.743
-2046.571
-2033.388
-2019.21
-2004.075
-1988.044
-1971.222
-1953.745
-1935.767
-1917.472
-1899.04
-1880.639
-1862.457
-1844.683
-1827.484
-1811.01
-1795.392
-1780.727
-1767.143
-1754.807
-1743.772
-1733.96
-1725.104
-1716.723
-1708.298
-1699.378
-1689.462
-1677.936
-1664.424
-1648.985
-1632.123
-1614.898
-1598.44
-1583.438
-1570.505
-1560.425
-1553.396
-1548.653
-1544.546
-1538.271
-1526.757
-1507.746
-1478.922
-1437.671
-1382.318
-1312.55
-1229.727
-1137.247
-1039.262
-939.65
-843.307
-756.168
-683.901
-631.527
-602.131
-596.691
-615.458
-657.993
-721.978
-803.152
-895.916
-993.813
-1091.331
-1183.751
-1266.175
-1334.453
-1385.761
-1419.019
-1435.045
-1435.924
-1423.901
-1401.595
-1372.269
-1338.933
-1304.253
-1270.138
-1237.575
-1207.17
-1179.086
-1153.017
-1128.417
-1104.849
-1082.01
-1059.758
-1037.846
-1015.708
-993.161
-970.361
-947.485
-924.672
-901.864
-879.013
-856.51
-835.152
-815.452
-797.603
-781.658
-767.559
-755.378
-745.162
-736.621
-729.226
-722.548
-716.307
-710.343
-704.583
-698.854
-692.944
-686.745
-680.2
-673.268
-665.92
-658.107
-649.773
-640.932
-631.631
-621.933
-611.921
-601.65
-591.164
-580.514
-569.755
-558.943
-548.142
-537.411
-526.807
-516.406
-506.259
-496.396
-486.834
-477.561
-468.555
-459.796
-451.247
-442.871
-434.636
-426.511
-418.469
-410.49
-402.545
-394.605
-386.635
-378.595
-370.453
-362.191
-353.794
-345.257
-336.58
-327.763
-318.814
-309.749
-300.58
-291.319
-281.975
-272.557
-263.076
-253.546
-243.985
-234.412
-224.843
-215.298
-205.793
-196.35
-186.986
-177.72
-168.568
-159.545
-150.67
-141.958
-133.428
-125.098
-116.985
-109.103
-101.468
-94.094
-86.994
-80.18
-73.659
-67.441
-61.531
-55.934
-50.653
-45.691
-41.048
-36.721
-32.708
-29.005
-25.606
-22.504
-19.688
-17.15
-14.877
-12.856
-11.073
-9.513
-8.159
-6.995
-6.003
-5.164
-4.46
-3.873
-3.382
-2.969
-2.615
-2.3
-2.007
-1.717
-1.414
-1.08
-0.7
-0.26
0.254
0.855
1.555
2.364
3.292
4.346
5.533
6.859
8.329
9.946
11.71
13.623
15.684
17.891
20.24
22.728
25.349
28.097
30.965
33.944
37.028
40.205
43.467
46.802
50.201
53.652
57.146
60.67
64.215
67.769
71.322
74.865
78.387
81.879
85.333
88.74
92.094
95.388
98.615
101.772
104.854
107.857
110.78
113.622
116.381
119.059
121.655
124.171
126.611
128.976
131.272
133.501
135.67
137.782
139.845
141.864
143.845
145.795
147.722
149.632
151.533
153.431
155.335
157.252
159.189
161.153
163.153
165.194
167.283
169.426
171.628
173.894
176.228
178.634
181.115
183.673
186.312
189.031
191.834
194.722
197.695
200.753
203.897
207.127
210.442
213.842
217.323
220.886
224.528
228.247
232.04
235.903
239.834
243.827
247.88
251.985
256.136
260.327
264.551
268.802
273.072
277.355
281.644
285.935
290.224
294.505
298.774
303.025
307.25
311.442
315.591
319.689
323.727
327.692
331.573
335.36
339.048
342.629
346.095
349.436
352.637
355.69
358.592
361.341
363.936
366.382
368.679
370.84
372.887
374.836
376.707
378.508
380.233
381.879
383.448
384.938
386.357
387.696
388.926
390.029
390.987
391.775
392.377
392.755
392.847
392.614
392.022
391.056
389.736
388.079
386.094
383.806
381.238
378.425
375.449
372.381
369.277
366.215
363.262
360.512
358.097
356.121
354.667
353.796
353.525
353.861
354.829
356.428
358.655
361.502
364.897
368.77
373.062
377.688
382.56
387.565
392.539
397.326
401.809
405.88
409.471
412.534
414.994
416.791
417.874
418.183
417.713
416.48
414.484
411.75
408.319
404.246
399.64
394.632
389.312
383.761
378.05
372.229
366.383
360.6
354.957
349.54
344.407
339.598
335.166
331.159
327.613
324.553
321.971
319.828
318.108
316.798
315.862
315.261
314.916
314.744
314.69
314.684
314.647
314.49
314.094
313.339
312.144
310.385
307.897
304.61
300.54
295.874
291.045
286.493
282.605
279.813
278.574
279.186
281.705
285.662
290.022
293.685
295.697
295.327
292.059
285.628
276.312
265.487
255.567
249.474
250.34
260.761
282.848
318.782
370.167
436.661
516.502
605.331
695.849
783.33
864.438
937.315
1003.564
1059.095
1094.088
1096.75
1054.986
966.376
841.276
698.994
559.214
435.55
332.708
244.997
168.04
100.325
41.326
-3.347
-31.664
-45.159
-44.406
-34.009
-17.738
2.495
23.548
44.217
64.713
84.488
103.294
120.894
135.991
148.081
157.562
164.112
167.411
167.479
164.075
157.556
149.33
140.418
131.705
124.515
119.497
117.016
117.703
121.791
129.054
139.173
151.204
163.712
175.947
187.461
197.736
206.375
212.838
216.774
218.552
218.989
218.615
217.715
216.442
214.887
213.422
212.384
211.779
211.416
211.1
210.747
210.419
210.237
210.221
210.365
210.694
211.266
212.159
213.413
215.011
216.9
218.999
221.232
223.52
225.769
227.908
229.885
231.654
233.187
234.467
235.478
236.224
236.725
236.992
237.039
236.879
236.526
236.006
235.356
234.611
233.806
232.97
232.119
231.274
230.451
229.663
228.918
228.215
227.54
226.882
226.227
225.558
224.856
224.1
223.272
222.361
221.366
220.298
219.169
217.994
216.779
215.521
214.218
212.874
211.5
210.108
208.723
207.378
206.113
204.976
204.001
203.201
202.568
202.067
201.65
201.259
200.847
200.385
199.846
199.207
198.443
197.528
196.422
195.078
193.434
191.415
188.966
186.052
182.671
178.857
174.665
170.174
165.452
160.551
155.519
150.389
145.194
139.965
134.737
129.547
124.45
119.515
114.802
110.356
106.196
102.316
98.687
95.264
92.006
88.879
85.858
82.929
80.084
77.32
74.637
72.037
69.511
67.038
64.6
62.18
59.773
57.385
55.03
52.732
50.513
48.392
46.384
44.497
42.736
41.098
39.58
38.171
36.867
35.665
34.565
33.568
32.673
31.875
31.169
30.548
30.003
29.526
29.108
28.74
28.417
28.132
27.882
27.664
27.474
27.309
27.165
27.037
26.918
26.804
26.689
26.567
26.432
26.278
26.103
25.9
25.667
25.399
25.093
24.745
24.353
23.913
23.423
22.878
22.277
21.618
20.898
20.118
19.275
18.37
17.404
16.378
15.294
14.154
12.96
11.715
10.422
9.086
7.709
6.295
4.85
3.379
1.885
0.374
-1.149
-2.678
-4.209
-5.737
-7.258
-8.767
-10.26
-11.733
-13.182
-14.603
-15.992
-17.346
-18.661
-19.935
-21.164
-22.347
-23.483
-24.569
-25.607
-26.595
-27.534
-28.426
-29.272
-30.074
-30.834
-31.556
-32.242
-32.896
-33.522
-34.123
-34.703
-35.266
-35.815
-36.354
-36.885
-37.411
-37.935
-38.458
-38.981
-39.507
-40.036
-40.567
-41.103
-41.642
-42.184
-42.728
-43.272
-43.816
-44.356
-44.89
-45.415
-45.928
-46.424
-46.899
-47.35
-47.771
-48.157
-48.502
-48.802
-49.05
-49.24
-49.367
-49.426
-49.411
-49.318
-49.143
-48.883
-48.536
-48.101
-47.577
-46.963
-46.261
-45.471
-44.597
-43.643
-42.612
-41.511
-40.346
-39.124
-37.856
-36.552
-35.224
-33.884
-32.543
-31.217
-29.92
-28.673
-27.494
-26.401
-25.409
-24.536
-23.798
-23.211
-22.792
-22.555
-22.506
-22.655
-23.012
-23.585
-24.389
-25.428
-26.695
-28.18
-29.869
-31.756
-33.847
-36.142
-38.637
-41.325
-44.198
-47.251
-50.489
-53.9
-57.455
-61.112
-64.811
-68.512
-72.199
-75.867
-79.53
-83.16
-86.678
-90.006
-93.047
-95.741
-98.095
-100.06
-101.535
-102.541
-103.161
-103.649
-104.495
-105.941
-107.959
-110.524
-113.499
-116.754
-120.333
-123.803
-126.194
-126.94
-125.755
-122.669
-118.293
-112.971
-106.615
-99.847
-93.958
-90.175
-89.923
-93.952
-102.032
-114.181
-130.562
-150.637
-173.069
-195.575
-214.702
-227.25
-230.501
-221.593
-197.932
-157.121
-97.707
-20.153
73.085
178.318
290.856
405.385
516.195
616.435
699.497
760.023
794.022
799.637
776.705
725.935
649.423
551.399
437.112
312.66
184.617
58.253
-61.827
-170.908
-265.12
-341.763
-399.211
-437.749
-458.98
-464.139
-454.658
-432.885
-401.673
-364.459
-324.64
-284.338
-244.986
-208.384
-176.547
-151.028
-132.392
-119.993
-112.663
-109.664
-110.379
-113.813
-118.337
-122.113
-124.107
-124.196
-122.729
-120.063
-116.456
-112.248
-108.255
-105.582
-104.815
-106.015
-108.915
-113.042
-118.038
-123.62
-129.295
-134.438
-138.636
-141.679
-143.539
-144.356
-144.212
-143.146
-141.252
-138.659
-135.508
-131.933
-128.035
-123.885
-119.573
-115.2
-110.892
-106.765
-102.894
-99.327
-96.085
-93.171
-90.588
-88.332
-86.379
-84.698
-83.254
-82.008
-80.932
-79.996
-79.162
-78.388
-77.627
-76.837
-75.991
-75.071
-74.064
-72.963
-71.761
-70.453
-69.045
-67.541
-65.944
-64.253
-62.466
-60.583
-58.607
-56.545
-54.402
-52.186
-49.901
-47.554
-45.152
-42.704
-40.218
-37.702
-35.165
-32.616
-30.068
-27.534
-25.027
-22.562
-20.154
-17.815
-15.56
-13.403
-11.355
-9.429
-7.635
-5.982
-4.48
-3.138
-1.965
-0.967
-0.152
0.475
0.908
1.141
1.173
0.999
0.619
0.033
-0.76
-1.758
-2.957
-4.354
-5.944
-7.72
-9.675
-11.8
-14.087
-16.525
-19.103
-21.81
-24.633
-27.562
-30.583
-33.684
-36.853
-40.079
-43.35
-46.655
-49.982
-53.32
-56.658
-59.985
-63.289
-66.56
-69.787
-72.959
-76.065
-79.095
-82.04
-84.891
-87.637
-90.271
-92.786
-95.173
-97.427
-99.541
-101.511
-103.332
-105
-106.514
-107.872
-109.071
-110.112
-110.995
-111.721
-112.289
-112.701
-112.959
-113.066
-113.022
-112.832
-112.498
-112.026
-111.419
-110.683
-109.823
-108.848
-107.762
-106.575
-105.293
-103.926
-102.481
-100.968
-99.397
-97.776
-96.117
-94.428
-92.719
-91.002
-89.285
-87.578
-85.89
-84.231
-82.61
-81.035
-79.515
-78.058
-76.671
-75.362
-74.139
-73.008
-71.976
-71.048
-70.229
-69.524
-68.936
-68.468
-68.122
-67.9
-67.802
-67.828
-67.976
-68.247
-68.636
-69.142
-69.761
-70.488
-71.319
-72.248
-73.27
-74.379
-75.567
-76.829
-78.156
-79.544
-80.983
-82.466
-83.987
-85.538
-87.112
-88.701
-90.298
-91.896
-93.489
-95.071
-96.637
-98.18
-99.698
-101.184
-102.638
-104.055
-105.433
-106.77
-108.066
-109.32
-110.53
-111.699
-112.825
-113.911
-114.958
-115.967
-116.94
-117.879
-118.787
-119.666
-120.517
-121.344
-122.149
-122.935
-123.704
-124.459
-125.202
-125.934
-126.659
-127.376
-128.087
-128.793
-129.493
-130.186
-130.873
-131.55
-132.217
-132.869
-133.505
-134.12
-134.709
-135.268
-135.791
-136.273
-136.707
-137.088
-137.409
-137.664
-137.848
-137.953
-137.975
-137.908
-137.744
-137.48
-137.108
-136.624
-136.021
-135.296
-134.443
-133.46
-132.342
-131.087
-129.693
-128.159
-126.484
-124.67
-122.716
-120.626
-118.403
-116.051
-113.576
-110.986
-108.29
-105.499
-102.624
-99.679
-96.677
-93.633
-90.564
-87.484
-84.411
-81.36
-78.348
-75.393
-72.511
-69.721
-67.041
-64.488
-62.082
-59.84
-57.781
-55.923
-54.282
-52.867
-51.689
-50.759
-50.086
-49.683
-49.561
-49.724
-50.175
-50.918
-51.95
-53.269
-54.856
-56.68
-58.705
-60.895
-63.214
-65.636
-68.13
-70.659
-73.185
-75.66
-78.046
-80.314
-82.43
-84.357
-86.075
-87.565
-88.852
-90.008
-91.112
-92.247
-93.489
-94.88
-96.485
-98.393
-100.696
-103.501
-106.903
-110.956
-115.762
-121.485
-128.188
-135.803
-144.056
-152.4
-160.218
-166.948
-171.957
-174.532
-174.201
-170.912
-165.126
-157.918
-150.673
-144.651
-141.085
-141.278
-145.81
-154.081
-164.494
-174.438
-180.152
-177.65
-163.128
-132.237
-83.274
-18.234
62.132
156.614
264.34
387.411
517.962
639.777
737.142
792.082
800.399
772.102
715.906
642.907
558.475
459.845
348.861
229.631
107.168
-10.369
-116.557
-207.865
-281.74
-337.121
-374.929
-397.222
-405.701
-402.394
-389.923
-370.093
-345.254
-318.35
-290.593
-262.262
-234.207
-206.973
-181.385
-159.313
-141.414
-127.22
-117.016
-111.086
-109.21
-111.239
-116.044
-121.397
-126.092
-129.776
-131.985
-132.6
-131.59
-128.797
-124.822
-120.919
-117.737
-115.441
-114.027
-113.16
-112.634
-112.427
-112.233
-111.533
-110.02
-107.573
-104.25
-100.339
-96.079
-91.601
-87.057
-82.614
-78.425
-74.642
-71.352
-68.544
-66.169
-64.192
-62.592
-61.38
-60.557
-60.079
-59.874
-59.849
-59.91
-59.986
-60.024
-59.958
-59.725
-59.27
-58.564
-57.62
-56.486
-55.195
-53.759
-52.178
-50.448
-48.579
-46.593
-44.504
-42.326
-40.062
-37.717
-35.301
-32.829
-30.305
-27.725
-25.068
-22.305
-19.417
-16.398
-13.245
-9.963
-6.554
-3.025
0.611
4.335
8.128
11.973
15.854
19.759
23.669
27.563
31.422
35.219
38.935
42.55
46.047
49.407
52.616
55.658
58.523
61.204
63.69
65.973
68.046
69.9
71.53
72.932
74.102
75.038
75.738
76.203
76.436
76.44
76.221
75.785
75.139
74.293
73.255
72.036
70.648
69.101
67.409
65.583
63.637
61.582
59.433
57.202
54.903
52.548
50.15
47.723
45.278
42.828
40.384
37.957
35.558
33.197
30.883
28.627
26.435
24.318
22.283
20.337
18.485
16.735
15.092
13.558
12.139
10.836
9.653
8.589
7.648
6.827
6.129
5.552
5.094
4.755
4.533
4.425
4.428
4.539
4.755
5.071
5.483
5.987
6.579
7.254
8.008
8.837
9.736
10.7
11.726
12.807
13.939
15.119
16.34
17.597
18.888
20.206
21.548
22.91
24.289
25.68
27.081
28.488
29.899
31.311
32.722
34.129
35.53
36.925
38.311
39.687
41.054
42.409
43.754
45.087
46.409
47.719
49.016
50.301
51.574
52.834
54.082
55.317
56.541
57.753
58.955
60.146
61.327
62.498
63.661
64.815
65.961
67.098
68.226
69.347
70.46
71.565
72.662
73.751
74.833
75.907
76.972
78.029
79.076
80.114
81.142
82.16
83.168
84.165
85.151
86.128
87.095
88.052
89
89.939
90.869
91.791
92.706
93.613
94.514
95.411
96.304
97.195
98.086
98.978
99.873
100.773
101.68
102.596
103.523
104.464
105.421
106.396
107.393
108.413
109.461
110.538
111.647
112.791
113.973
115.195
116.461
117.772
119.134
120.547
122.016
123.544
125.134
126.789
128.511
130.303
132.167
134.105
136.119
138.21
140.38
142.628
144.956
147.364
149.852
152.418
155.063
157.784
160.58
163.448
166.387
169.392
172.461
175.589
178.773
182.006
185.284
188.599
191.944
195.311
198.69
202.069
205.438
208.785
212.096
215.36
218.562
221.689
224.729
227.669
230.497
233.2
235.767
238.184
240.441
242.527
244.431
246.144
247.655
248.954
250.035
250.896
251.533
251.946
252.132
252.085
251.805
251.299
250.571
249.633
248.496
247.178
245.705
244.118
242.464
240.789
239.134
237.533
236.026
234.65
233.451
232.477
231.762
231.334
231.22
231.437
231.998
232.904
234.123
235.581
237.189
238.855
240.493
242.041
243.444
244.639
245.545
246.083
246.191
245.804
244.907
243.466
241.385
238.718
235.675
232.607
230.118
228.806
229.059
231.376
236.341
244.057
254.402
266.889
280.226
293.327
305.548
315.951
323.795
329.304
333.093
336.597
342.696
353.992
372.567
400.792
440.842
493.795
559.468
636.508
719.873
802.224
879.415
947.852
1006.161
1057.836
1097.37
1113.232
1095.801
1032.966
927.677
797.601
658.785
528.93
416.581
319.234
237.328
171.541
122.89
94.586
86.165
94.085
114.584
142.941
174.037
203.85
229.959
251.199
267.417
279.428
287.957
293.907
299.492
306.786
316.677
329.453
344.779
361.84
380.282
399.812
419.193
437.205
453.178
466.659
477.71
486.662
493.523
498.262
501.229
502.783
503.225
502.888
501.864
500.148
497.848
495.089
492.006
488.796
485.627
482.605
479.835
477.393
475.332
473.691
472.471
471.643
471.167
471.017
471.213
471.829
472.955
474.675
477.01
479.913
483.319
487.144
491.316
495.76
500.367
505.042
509.695
514.226
518.542
522.531
526.012
528.76
530.515
530.969
529.874
527.041
522.307
515.558
506.685
495.582
482.203
466.535
448.599
428.461
406.195
381.89
355.707
327.861
298.626
268.36
237.388
206.002
174.503
143.181
112.353
82.356
53.477
25.926
-0.139
-24.602
-47.36
-68.314
-87.42
-104.696
-120.214
-134.103
-146.473
-157.434
-167.14
-175.788
-183.643
-190.992
-198.09
-205.115
-212.2
-219.46
-227
-234.923
-243.289
-252.122
-261.412
-271.154
-281.367
-292.046
-303.142
-314.543
-326.071
-337.548
-348.82
-359.776
-370.337
-380.431
-389.994
-398.98
-407.375
-415.178
-422.398
-429.017
-434.99
-440.301
-444.965
-449.035
-452.611
-455.779
-458.607
-461.156
-463.478
-465.615
-467.607
-469.473
-471.208
-472.814
-474.294
-475.668
-476.976
-478.243
-479.478
-480.68
-481.833
-482.927
-483.96
-484.927
-485.82
-486.637
-487.377
-488.053
-488.684
-489.285
-489.867
-490.434
-490.986
-491.523
-492.049
-492.567
-493.078
-493.585
-494.087
-494.586
-495.084
-495.581
-496.077
-496.567
-497.042
-497.498
-497.927
-498.323
-498.68
-498.991
-499.248
-499.445
-499.576
-499.635
-499.613
-499.503
-499.297
-498.986
-498.563
-498.02
-497.352
-496.551
-495.611
-494.529
-493.3
-491.921
-490.391
-488.708
-486.871
-484.882
-482.743
-480.456
-478.025
-475.454
-472.749
-469.916
-466.962
-463.895
-460.723
-457.454
-454.099
-450.665
-447.165
-443.608
-440.005
-436.367
-432.705
-429.033
-425.361
-421.702
-418.068
-414.469
-410.919
-407.427
-404.005
-400.663
-397.409
-394.253
-391.202
-388.262
-385.44
-382.741
-380.166
-377.718
-375.398
-373.206
-371.139
-369.196
-367.374
-365.667
-364.072
-362.583
-361.193
-359.894
-358.68
-357.541
-356.467
-355.45
-354.477
-353.539
-352.623
-351.719
-350.813
-349.893
-348.946
-347.961
-346.923
-345.819
-344.638
-343.366
-341.992
-340.505
-338.895
-337.152
-335.27
-333.24
-331.058
-328.717
-326.215
-323.548
-320.714
-317.711
-314.539
-311.198
-307.69
-304.018
-300.184
-296.192
-292.048
-287.756
-283.323
-278.756
-274.063
-269.252
-264.332
-259.315
-254.21
-249.03
-243.789
-238.5
-233.177
-227.835
-222.488
-217.151
-211.839
-206.565
-201.343
-196.188
-191.111
-186.126
-181.247
-176.489
-171.866
-167.39
-163.077
-158.938
-154.988
-151.238
-147.698
-144.375
-141.278
-138.414
-135.789
-133.414
-131.294
-129.435
-127.838
-126.506
-125.439
-124.634
-124.087
-123.783
-123.711
-123.861
-124.227
-124.814
-125.623
-126.649
-127.885
-129.319
-130.937
-132.723
-134.652
-136.685
-138.782
-140.9
-143.005
-145.073
-147.073
-148.966
-150.701
-152.203
-153.408
-154.267
-154.74
-154.803
-154.445
-153.664
-152.484
-150.958
-149.161
-147.194
-145.162
-143.171
-141.338
-139.768
-138.631
-138.185
-138.598
-139.926
-142.061
-144.663
-147.397
-150.065
-152.36
-153.873
-154.331
-153.581
-151.985
-150.588
-150.34
-151.823
-155.393
-161.041
-168.586
-177.848
-187.62
-195.495
-198.95
-195.614
-183.716
-162.374
-130.568
-86.935
-31.376
34.841
109.624
189.994
273.276
357.149
438.007
510.912
571.183
614.546
637.687
638.713
615.8
567.811
495.947
403.812
296.569
180.59
62.304
-52.338
-157.002
-246.026
-315.606
-364.231
-392.617
-403.13
-398.917
-383.571
-361.398
-336.7
-313.076
-292.715
-276.282
-263.535
-253.71
-245.758
-238.331
-229.887
-219.103
-205.47
-189.273
-171.184
-152.084
-132.817
-114.198
-97.16
-82.544
-70.8
-62.026
-56.072
-52.652
-51.508
-52.406
-55.054
-59.095
-64.172
-69.963
-76.192
-82.626
-89.035
-95.153
-100.686
-105.407
-109.166
-111.882
-113.541
-114.142
-113.694
-112.241
-109.868
-106.686
-102.83
-98.433
-93.608
-88.477
-83.159
-77.791
-72.529
-67.49
-62.745
-58.34
-54.287
-50.598
-47.284
-44.33
-41.699
-39.351
-37.243
-35.339
-33.614
-32.031
-30.549
-29.119
-27.691
-26.225
-24.702
-23.103
-21.421
-19.648
-17.779
-15.818
-13.778
-11.668
-9.493
-7.257
-4.961
-2.609
-0.21
2.228
4.696
7.186
9.691
12.205
14.719
17.225
19.716
22.185
24.627
27.035
29.397
31.704
33.945
36.109
38.184
40.159
42.023
43.767
45.38
46.855
48.185
49.362
50.381
51.237
51.924
52.439
52.778
52.94
52.921
52.721
52.341
51.78
51.04
50.123
49.032
47.77
46.342
44.752
43.007
41.112
39.076
36.905
34.609
32.198
29.681
27.068
24.372
21.603
18.772
15.89
12.97
10.021
7.053
4.078
1.105
-1.857
-4.797
-7.708
-10.581
-13.406
-16.177
-18.885
-21.523
-24.084
-26.563
-28.952
-31.245
-33.438
-35.525
-37.502
-39.364
-41.109
-42.734
-44.236
-45.615
-46.871
-48.004
-49.016
-49.909
-50.684
-51.344
-51.894
-52.335
-52.672
-52.908
-53.047
-53.094
-53.051
-52.922
-52.713
-52.426
-52.064
-51.633
-51.135
-50.573
-49.952
-49.275
-48.545
-47.767
-46.942
-46.075
-45.17
-44.228
-43.252
-42.245
-41.208
-40.142
-39.048
-37.926
-36.775
-35.594
-34.383
-33.14
-31.864
-30.553
-29.205
-27.818
-26.391
-24.922
-23.411
-21.855
-20.255
-18.609
-16.918
-15.181
-13.4
-11.575
-9.707
-7.796
-5.846
-3.856
-1.828
0.235
2.331
4.457
6.61
8.787
10.983
13.193
15.412
17.634
19.854
22.065
24.26
26.432
28.574
30.68
32.742
34.753
36.707
38.597
40.418
42.164
43.83
45.412
46.907
48.312
49.624
50.841
51.962
52.987
53.916
54.749
55.487
56.133
56.689
57.159
57.547
57.858
58.098
58.273
58.391
58.461
58.491
58.49
58.468
58.435
58.402
58.38
58.378
58.408
58.481
58.606
58.794
59.054
59.396
59.827
60.357
60.992
61.739
62.605
63.595
64.714
65.965
67.352
68.876
70.54
72.343
74.284
76.362
78.573
80.913
83.378
85.96
88.652
91.445
94.331
97.3
100.339
103.437
106.581
109.758
112.955
116.157
119.349
122.516
125.644
128.716
131.716
134.627
137.432
140.112
142.65
145.028
147.227
149.229
151.019
152.581
153.904
154.972
155.777
156.307
156.552
156.503
156.151
155.487
154.506
153.202
151.577
149.635
147.383
144.829
141.981
138.839
135.407
131.691
127.698
123.434
118.916
114.161
109.207
104.107
98.911
93.673
88.443
83.255
78.154
73.183
68.387
63.824
59.547
55.599
52.029
48.878
46.173
43.916
42.051
40.478
39.097
37.816
36.571
35.305
33.915
32.286
30.299
27.812
24.744
20.977
16.291
10.637
4.134
-2.905
-9.801
-15.855
-20.615
-23.499
-23.852
-21.626
-17.08
-10.991
-5.079
-0.676
1.528
0.608
-3.971
-11.481
-20.587
-28.77
-31.89
-26.729
-10.878
18.631
63.736
124.654
200.644
288.66
383.39
480.341
574.954
661.11
733.337
786.978
817.847
824.481
807.332
766.272
702.408
619.141
520.629
412.261
300.208
189.044
83.053
-12.524
-93.484
-157.104
-202.145
-229.64
-241.812
-240.601
-228.717
-209.921
-187.882
-166.074
-146.763
-130.501
-117.205
-106.671
-98.237
-90.87
-83.307
-74.137
-62.749
-49.419
-34.694
-19.292
-3.933
10.752
23.996
35
43.381
49.111
52.362
53.504
52.861
50.711
47.427
43.41
39.005
34.532
30.229
26.259
22.809
20.051
18.132
17.169
17.189
18.169
20.06
22.757
26.134
30.048
34.305
38.715
43.12
47.353
51.275
54.795
57.81
60.259
62.115
63.361
64.028
64.177
63.88
63.256
62.439
61.556
60.759
60.191
59.964
60.208
61.043
62.548
64.796
67.828
71.643
76.24
81.593
87.644
94.315
101.493
109.06
116.907
124.939
133.063
141.195
149.242
157.098
164.685
171.94
178.814
185.284
191.335
196.973
202.232
207.185
211.928
216.552
221.138
225.737
230.385
235.113
239.946
244.913
250.028
255.292
260.699
266.228
271.838
277.451
282.953
288.182
292.948
297.065
300.354
302.662
303.855
303.82
302.47
299.733
295.553
289.879
282.662
273.874
263.52
251.661
238.414
223.946
208.463
192.184
175.337
158.153
140.861
123.662
106.722
90.193
74.206
58.91
44.465
31.006
18.639
7.415
-2.666
-11.639
-19.563
-26.525
-32.63
-38.008
-42.806
-47.142
-51.103
-54.77
-58.212
-61.518
-64.799
-68.135
-71.576
-75.14
-78.815
-82.576
-86.401
-90.252
-94.067
-97.772
-101.274
-104.505
-107.416
-109.957
-112.083
-113.733
-114.849
-115.41
-115.434
-114.966
-114.07
-112.825
-111.293
-109.539
-107.639
-105.668
-103.711
-101.84
-100.123
-98.635
-97.46
-96.695
-96.416
-96.668
-97.455
-98.751
-100.509
-102.657
-105.138
-107.9
-110.892
-114.075
-117.41
-120.86
-124.386
-127.944
-131.471
-134.893
-138.145
-141.179
-143.974
-146.532
-148.873
-151.036
-153.055
-154.955
-156.753
-158.454
-160.055
-161.551
-162.936
-164.199
-165.344
-166.385
-167.334
-168.201
-168.987
-169.679
-170.258
-170.696
-170.969
-171.054
-170.935
-170.604
-170.059
-169.302
-168.341
-167.189
-165.855
-164.344
-162.663
-160.815
-158.806
-156.647
-154.349
-151.926
-149.392
-146.761
-144.048
-141.268
-138.43
-135.547
-132.625
-129.671
-126.693
-123.696
-120.69
-117.68
-114.676
-111.684
-108.712
-105.766
-102.852
-99.975
-97.138
-94.343
-91.591
-88.881
-86.213
-83.586
-80.995
-78.438
-75.91
-73.407
-70.923
-68.453
-65.989
-63.524
-61.051
-58.562
-56.049
-53.503
-50.917
-48.281
-45.588
-42.828
-39.994
-37.077
-34.068
-30.957
-27.737
-24.399
-20.933
-17.332
-13.587
-9.69
-5.636
-1.418
2.97
7.531
12.269
17.186
22.285
27.564
33.025
38.665
44.482
50.472
56.63
62.95
69.426
76.052
82.818
89.716
96.736
103.869
111.102
118.424
125.82
133.273
140.767
148.286
155.809
163.32
170.799
178.228
185.592
192.875
200.06
207.133
214.075
220.87
227.506
233.968
240.247
246.333
252.219
257.899
263.378
268.658
273.74
278.622
283.293
287.744
291.973
295.982
299.777
303.367
306.763
309.989
313.08
316.077
319.019
321.945
324.882
327.866
330.943
334.171
337.625
341.372
345.467
349.952
354.853
360.186
365.951
372.121
378.644
385.449
392.442
399.527
406.596
413.519
420.181
426.409
431.954
436.66
440.475
443.499
446.079
448.58
451.292
454.65
459.194
465.269
473.056
482.218
491.729
500.625
508.075
513.239
515.509
514.553
510.441
504.374
498.849
496.625
500.698
514.074
539.342
579.079
635.186
707.929
795.743
895.742
1003.856
1115.249
1224.569
1325.331
1411.053
1476.107
1516.207
1528.958
1513.407
1469.968
1400.773
1310.074
1203.566
1088.03
970.448
856.769
752.636
662.955
591.149
539.334
507.863
494.916
497.598
513.062
537.84
568.493
602.132
635.496
666.075
693.136
716.741
737.104
754.923
770.684
784.551
797.713
811.473
826.063
841.308
856.823
871.956
886.506
900.655
913.833
925.149
934.246
940.989
945.559
948.425
949.766
949.562
948.16
946.141
943.982
942.11
940.739
939.899
939.72
940.358
941.871
944.232
947.332
951.014
955.14
959.586
964.217
968.895
973.472
977.812
981.816
985.423
988.657
991.591
994.296
996.864
999.374
1001.918
1004.665
1007.822
1011.615
1016.281
1022.006
1028.983
1037.436
1047.46
1059.011
1071.871
1085.558
1099.574
1113.535
1127.01
1139.668
1151.515
1162.781
1173.999
1185.945
1199.106
1213.636
1229.489
1246.143
1262.275
1275.834
1284.286
1285.172
1276.614
1257.281
1226.388
1183.827
1130.79
1069.959
1004.558
937.481
871.164
807.55
748.197
694.48
646.571
603.088
562.483
523.664
485.882
448.884
412.457
376.054
339.848
304.927
272.231
242.393
215.713
191.978
171.009
152.911
137.466
124.138
112.471
101.995
92.383
83.553
75.374
67.654
60.3
53.224
46.319
39.648
33.376
27.779
23.35
20.508
19.522
20.763
24.603
31.052
39.837
50.251
60.887
70.462
77.954
81.974
81.356
75.714
64.695
48.615
29.373
8.401
-11.467
-24.99
-30.262
-26.851
-17.909
-13.82
-19.157
-32.336
-47.77
-50.031
-28.936
1.953
5.021
-27.292
-69.11
-201.118
-557.808
-1067.176
-1512.336
-1830.532
-2130.479
-2463.736
-2762.136
-2981.977
-3136.392
-3231.77
-3277.99
-3296.385
-3311.588
-3343.534
-3392.876
-3448.868
-3493.487
-3510.202
-3496.167
-3457.655
-3406.133
-3350.688
-3294.456
-3238.293
-3182.099
-3128.682
-3083.406
-3051.297
-3037.626
-3046.673
-3080.202
-3138.401
-3217.893
-3311.025
-3412.315
-3517.568
-3624.026
-3733.248
-3837.759
-3923.041
-3976.411
-3983.444
-3944.592
-3875.262
-3789.088
-3701.184
-3618.17
-3535.143
-3449.369
-3358.225
-3260.643
-3159.212
-3055.648
-2951.487
-2845.199
-2733.861
-2614.5
-2482.32
-2342.209
-2206.131
-2085.459
-1994.923
-1936.915
-1900.035
-1873.596
-1844.257
-1805.913
-1763.533
-1719.793
-1675.942
-1630.961
-1580.697
-1524.31
-1464.123
-1403.149
-1343.944
-1287.591
-1234.493
-1185.285
-1140.306
-1099.294
-1061.12
-1024.056
-987.091
-949.944
-912.488
-874.674
-836.461
-797.895
-759.391
-721.667
-685.208
-650.241
-616.901
-585.219
-555.243
-527.047
-500.599
-475.775
-452.463
-430.566
-409.999
-390.706
-372.608
-355.601
-339.586
-324.461
-310.123
-296.477
-283.427
-270.879
-258.753
-246.987
-235.521
-224.31
-213.316
-202.508
-191.861
-181.355
-170.97
-160.682
-150.474
-140.33
-130.235
-120.177
-110.145
-100.127
-90.111
-80.09
-70.055
-59.997
-49.912
-39.794
-29.64
-19.449
-9.224
1.03
11.303
21.585
31.866
42.132
52.367
62.557
72.685
82.733
92.686
102.525
112.231
121.783
131.159
140.337
149.295
158.011
166.462
174.626
182.484
190.015
197.206
204.041
210.505
216.585
222.265
227.533
232.381
236.8
240.787
244.339
247.455
250.143
252.414
254.28
255.753
256.839
257.533
257.839
257.765
257.322
256.527
255.403
253.974
252.279
250.37
248.301
246.13
243.902
241.657
239.442
237.311
235.333
233.595
232.168
231.113
230.482
230.299
230.578
231.319
232.483
234.009
235.815
237.788
239.821
241.801
243.593
245.094
246.126
246.428
245.866
244.407
242.197
239.641
237.111
234.885
233.413
233.235
234.73
238.08
242.788
247.716
251.894
254.512
254.937
252.727
247.482
239.35
229.942
222.007
218.5
222.423
236.136
261.837
302.081
358.433
430.517
516.044
611.337
712.068
814.052
912.105
999.655
1070.4
1119.068
1142.492
1139.437
1109.372
1052.604
971.595
871.206
757.793
638.561
519.718
406.599
304.788
219.12
152.728
106.718
80.095
70.186
74.121
88.887
110.673
135.743
161
184.087
203.689
219.723
232.596
242.799
251.241
258.849
266.197
273.985
282.975
293.184
304.25
315.866
327.552
338.992
350.236
360.932
370.32
378.054
384.033
388.254
390.968
392.263
392.015
390.416
387.947
384.983
381.823
378.646
375.446
372.311
369.436
366.929
364.821
363.132
361.857
361.01
360.645
360.773
361.347
362.3
363.542
364.993
366.611
368.366
370.221
372.143
374.099
376.064
378.035
380.004
381.948
383.847
385.687
387.475
389.243
391.042
392.923
394.928
397.077
399.385
401.866
404.525
407.356
410.327
413.376
416.449
419.497
422.487
425.385
428.161
430.79
433.217
435.375
437.209
438.676
439.781
440.579
441.105
441.348
441.403
441.472
441.92
443.304
445.979
450.019
455.437
462.242
470.425
479.894
490.032
499.583
507.632
513.978
518.945
523.27
527.597
532.519
539.388
550.489
567.74
591.876
622.364
657.531
695.471
734.207
770.941
801.877
823.42
833.179
830.235
815.099
788.942
753.233
710.173
662.84
614.28
566.765
521.693
479.539
440.268
403.715
369.35
336.187
303.425
270.75
238.192
206.205
175.403
146.307
119.538
95.822
75.645
59.246
46.699
37.857
32.55
30.682
32.075
36.515
43.803
53.66
65.802
79.965
95.831
113.057
131.301
150.184
169.355
188.539
207.477
225.94
243.71
260.516
276.12
290.315
302.92
313.843
323.044
330.506
336.272
340.427
343.08
344.391
344.526
343.615
341.794
339.201
335.98
332.334
328.463
324.552
320.783
317.282
314.139
311.421
309.152
307.318
305.888
304.803
303.986
303.384
302.934
302.571
302.231
301.815
301.222
300.354
299.111
297.42
295.235
292.525
289.284
285.529
281.284
276.588
271.495
266.046
260.288
254.266
248.02
241.605
235.076
228.494
221.919
215.402
208.985
202.7
196.573
190.624
184.869
179.316
173.97
168.836
163.923
159.239
154.796
150.6
146.657
142.968
139.537
136.363
133.451
130.802
128.416
126.296
124.44
122.849
121.524
120.463
119.659
119.106
118.794
118.713
118.853
119.2
119.739
120.457
121.339
122.372
123.542
124.833
126.228
127.711
129.267
130.879
132.527
134.19
135.847
137.479
139.065
140.589
142.029
143.368
144.586
145.666
146.594
147.355
147.931
148.298
148.434
148.323
147.96
147.343
146.472
145.342
143.951
142.305
140.414
138.281
135.902
133.255
130.322
127.092
123.571
119.775
115.72
111.41
106.838
101.993
96.874
91.483
85.817
79.856
73.573
66.965
60.062
52.929
45.627
38.2
30.672
23.057
15.372
7.651
-0.066
-7.745
-15.362
-22.894
-30.302
-37.525
-44.492
-51.171
-57.576
-63.761
-69.777
-75.65
-81.392
-87.005
-92.506
-97.92
-103.268
-108.561
-113.797
-118.987
-124.16
-129.365
-134.66
-140.068
-145.57
-151.122
-156.685
-162.244
-167.8
-173.353
-178.887
-184.386
-189.842
-195.256
-200.631
-205.949
-211.166
-216.226
-221.075
-225.68
-230.034
-234.141
-237.988
-241.547
-244.77
-247.618
-250.076
-252.124
-253.745
-254.945
-255.733
-256.163
-256.323
-256.282
-256.114
-255.896
-255.699
-255.611
-255.74
-256.175
-257.066
-258.619
-260.924
-263.937
-267.453
-271.034
-274.232
-276.697
-277.987
-277.534
-275.048
-270.694
-265.141
-259.667
-255.552
-253.526
-254.182
-258.246
-265.875
-276.253
-287.568
-296.717
-300.308
-295.879
-281.091
-253.377
-211.035
-153.621
-82.348
-0.618
87.28
177.334
264.601
343.214
407.586
452.631
475.076
473.782
448.32
399.075
328.494
240.774
141.329
36.418
-68.845
-169.922
-261.561
-339.248
-400.001
-442.394
-467.136
-476.125
-470.646
-452.803
-426.448
-395.596
-364.25
-335.713
-311.311
-291.713
-278.106
-270.696
-268.33
-269.277
-270.967
-270.98
-268.349
-262.483
-252.544
-238.366
-220.358
-199.36
-177.051
-155.189
-134.733
-116.357
-100.682
-87.931
-78.19
-71.382
-66.985
-64.392
-63.249
-63.311
-64.398
-66.434
-69.293
-72.811
-76.875
-81.327
-85.942
-90.461
-94.62
-98.209
-101.103
-103.229
-104.549
-105.053
-104.749
-103.65
-101.78
-99.156
-95.77
-91.636
-86.814
-81.411
-75.589
-69.537
-63.427
-57.381
-51.489
-45.813
-40.39
-35.247
-30.383
-25.795
-21.477
-17.443
-13.733
-10.38
-7.381
-4.703
-2.275
-0.002
2.199
4.388
6.62
8.931
11.345
13.88
16.528
19.277
22.118
25.055
28.109
31.298
34.627
38.086
41.651
45.286
48.963
52.655
56.33
59.966
63.542
67.043
70.463
73.804
77.06
80.222
83.275
86.203
88.993
91.635
94.121
96.442
98.592
100.564
102.356
103.966
105.389
106.62
107.654
108.484
109.104
109.514
109.709
109.691
109.462
109.023
108.379
107.537
106.502
105.282
103.885
102.319
100.592
98.714
96.695
94.545
92.277
89.9
87.426
84.868
82.236
79.543
76.801
74.019
71.21
68.385
65.554
62.726
59.913
57.122
54.364
51.648
48.979
46.367
43.817
41.336
38.927
36.595
34.342
32.171
30.082
28.078
26.156
24.318
22.561
20.885
19.287
17.763
16.312
14.929
13.611
12.353
11.151
10
8.897
7.836
6.814
5.825
4.865
3.93
3.014
2.114
1.225
0.343
-0.536
-1.415
-2.297
-3.183
-4.076
-4.976
-5.886
-6.804
-7.732
-8.67
-9.616
-10.57
-11.531
-12.497
-13.468
-14.442
-15.416
-16.388
-17.358
-18.323
-19.28
-20.23
-21.17
-22.098
-23.013
-23.913
-24.797
-25.663
-26.509
-27.333
-28.135
-28.912
-29.664
-30.39
-31.09
-31.764
-32.412
-33.036
-33.636
-34.214
-34.77
-35.308
-35.829
-36.334
-36.827
-37.309
-37.784
-38.253
-38.72
-39.186
-39.654
-40.126
-40.604
-41.088
-41.581
-42.083
-42.596
-43.122
-43.661
-44.216
-44.789
-45.381
-45.993
-46.629
-47.288
-47.974
-48.685
-49.425
-50.192
-50.987
-51.81
-52.662
-53.541
-54.446
-55.377
-56.332
-57.308
-58.303
-59.314
-60.338
-61.372
-62.412
-63.455
-64.497
-65.536
-66.568
-67.589
-68.596
-69.585
-70.552
-71.493
-72.403
-73.276
-74.108
-74.893
-75.624
-76.296
-76.902
-77.436
-77.893
-78.265
-78.547
-78.733
-78.816
-78.793
-78.658
-78.407
-78.036
-77.545
-76.93
-76.192
-75.33
-74.347
-73.243
-72.021
-70.686
-69.24
-67.689
-66.039
-64.295
-62.465
-60.556
-58.577
-56.538
-54.449
-52.324
-50.177
-48.023
-45.88
-43.764
-41.694
-39.69
-37.771
-35.953
-34.255
-32.69
-31.276
-30.03
-28.966
-28.099
-27.44
-26.998
-26.78
-26.794
-27.041
-27.521
-28.229
-29.157
-30.305
-31.673
-33.269
-35.1
-37.165
-39.46
-41.98
-44.717
-47.661
-50.789
-54.065
-57.449
-60.896
-64.369
-67.828
-71.23
-74.517
-77.616
-80.442
-82.916
-84.977
-86.578
-87.68
-88.254
-88.28
-87.76
-86.746
-85.33
-83.62
-81.741
-79.832
-78.01
-76.453
-75.437
-75.161
-75.731
-77.105
-78.983
-81.048
-83.085
-84.75
-85.589
-85.327
-83.79
-81.232
-78.657
-77.023
-77.111
-79.788
-85.608
-94.692
-106.95
-121.343
-135.451
-146.631
-151.996
-148.345
-133.039
-103.857
-58.901
2.857
80.56
172
274.189
381.041
486.068
585.128
671.987
743.843
799.549
830.071
829.763
793.01
714.223
603.327
471.464
329.972
193.138
64.268
-53.816
-156.179
-241.285
-305.104
-345.672
-365.781
-368.513
-357.644
-337.792
-312.278
-284.108
-256.617
-231.51
-209.256
-190.34
-174.575
-161.426
-151.066
-143.161
-136.618
-131.032
-125.967
-120.543
-114.622
-108.092
-100.302
-91.256
-81.418
-71.054
-60.907
-51.979
-44.636
-39.163
-35.953
-34.973
-36.062
-39.052
-43.409
-48.483
-53.896
-59.354
-64.613
-69.554
-74.012
-77.807
-80.867
-83.191
-84.773
-85.612
-85.702
-85.031
-83.635
-81.598
-79.016
-75.989
-72.6
-68.916
-65
-60.94
-56.828
-52.753
-48.803
-45.034
-41.48
-38.171
-35.12
-32.325
-29.777
-27.448
-25.302
-23.307
-21.435
-19.665
-17.978
-16.348
-14.744
-13.132
-11.476
-9.751
-7.94
-6.029
-4.01
-1.882
0.355
2.694
5.123
7.634
10.221
12.878
15.603
18.389
21.228
24.109
27.021
29.95
32.885
35.814
38.724
41.603
44.438
47.221
49.944
52.598
55.172
57.658
60.044
62.321
64.477
66.502
68.383
70.108
71.668
73.055
74.267
75.299
76.149
76.816
77.3
77.604
77.726
77.664
77.407
76.951
76.3
75.464
74.458
73.307
72.03
70.651
69.199
67.699
66.168
64.614
63.026
61.396
59.726
58.03
56.339
54.678
53.048
51.444
49.854
48.247
46.596
44.855
42.951
40.829
38.465
35.862
33.069
30.14
27.106
23.979
20.759
17.448
14.089
10.724
7.397
4.184
1.171
-1.526
-3.73
-5.313
-6.204
-6.368
-5.845
-4.693
-2.939
-0.609
2.274
5.683
9.546
13.782
18.313
23.007
27.707
32.207
36.233
39.564
42.047
43.55
44.019
43.421
41.695
38.794
