Name,Criss Capps
Date of Birth,"Feb 5, 1952"
Recorded Date,2022-10-02 14:20:46 -0400
Classification,Sinus Rhythm
Symptoms,
Software Version,1.90
Device,"Watch5,4"
Sample Rate,512.844 hertz


Lead,Lead I
Unit,µV

94.314
118.808
140.831
159.911
175.648
187.872
196.623
202.071
204.385
203.746
200.411
194.721
187.063
177.829
167.383
156.057
144.189
132.123
120.162
108.578
97.609
87.452
78.296
70.309
63.583
58.153
54.01
51.102
49.356
48.674
48.915
49.915
51.487
53.438
55.603
57.831
59.964
61.84
63.275
64.092
64.177
63.457
61.889
59.45
56.128
51.925
46.887
41.09
34.621
27.564
19.986
11.953
3.545
-5.133
-13.958
-22.821
-31.646
-40.37
-48.935
-57.271
-65.311
-73.004
-80.329
-87.28
-93.852
-100.025
-105.771
-111.069
-115.911
-120.313
-124.3
-127.878
-131.056
-133.86
-136.349
-138.64
-140.85
-143.08
-145.405
-147.875
-150.561
-153.578
-157.026
-160.967
-165.477
-170.565
-176.281
-182.803
-190.116
-198.009
-206.175
-214.046
-221.039
-226.783
-230.695
-232.016
-230.58
-226.603
-220.539
-213.444
-206.424
-200.409
-196.56
-196.171
-198.295
-199.913
-199.735
-196.549
-190.908
-186.582
-179.792
-161.471
-124.17
-58.905
32.741
137.648
244.205
339.239
414.225
468.727
500.505
507.419
487.493
437.175
357.659
253.914
130.635
-4.644
-146.822
-291.873
-428.198
-546.374
-637.294
-693.003
-718.677
-720.335
-703.587
-676.742
-641.193
-598.986
-554.395
-508.794
-465.338
-426.855
-394.289
-368.701
-349.577
-335.069
-323.552
-313.994
-305.779
-298.368
-290.678
-281.332
-269.748
-256.214
-241.414
-225.923
-210.068
-194.14
-178.835
-165.203
-153.873
-144.941
-138.19
-133.227
-129.769
-127.626
-126.445
-125.661
-124.835
-123.702
-122.126
-120.116
-117.647
-114.612
-110.968
-106.744
-101.989
-96.776
-91.171
-85.202
-78.919
-72.402
-65.725
-58.975
-52.236
-45.564
-39.018
-32.655
-26.532
-20.719
-15.265
-10.189
-5.488
-1.144
2.87
6.58
10.019
13.233
16.268
19.168
21.975
24.717
27.43
30.152
32.926
35.804
38.824
42.015
45.399
48.993
52.811
56.865
61.163
65.703
70.485
75.512
80.788
86.319
92.107
98.15
104.442
110.978
117.751
124.753
131.977
139.414
147.052
154.882
162.894
171.078
179.42
187.905
196.515
205.231
214.036
222.909
231.831
240.782
249.744
258.701
267.635
276.53
285.369
294.134
302.808
311.373
319.812
328.104
336.233
344.18
351.93
359.474
366.798
373.893
380.748
387.354
393.705
399.794
405.612
411.145
416.383
421.317
425.946
430.272
434.296
438.012
441.416
444.504
447.266
449.692
451.759
453.432
454.677
455.461
455.767
455.594
454.942
453.809
452.202
450.124
447.593
444.645
441.306
437.587
433.515
429.116
424.449
419.6
414.654
409.681
404.74
399.858
395.053
390.327
385.648
380.959
376.174
371.173
365.859
360.157
353.987
347.268
339.893
331.724
322.631
312.5
301.225
288.717
274.92
259.817
243.45
225.918
207.368
187.991
167.967
147.462
126.635
105.633
84.611
63.733
43.163
23.049
3.552
-15.163
-32.968
-49.774
-65.55
-80.319
-94.157
-107.174
-119.493
-131.247
-142.544
-153.469
-164.095
-174.48
-184.683
-194.761
-204.782
-214.826
-224.958
-235.217
-245.619
-256.149
-266.76
-277.384
-287.933
-298.297
-308.394
-318.164
-327.565
-336.577
-345.182
-353.36
-361.094
-368.361
-375.143
-381.426
-387.2
-392.461
-397.219
-401.495
-405.325
-408.759
-411.837
-414.586
-417.028
-419.173
-421.032
-422.617
-423.932
-424.982
-425.775
-426.32
-426.632
-426.727
-426.62
-426.322
-425.84
-425.179
-424.347
-423.353
-422.206
-420.916
-419.497
-417.959
-416.317
-414.59
-412.79
-410.933
-409.03
-407.091
-405.127
-403.149
-401.166
-399.188
-397.222
-395.277
-393.363
-391.486
-389.656
-387.879
-386.162
-384.51
-382.927
-381.418
-379.986
-378.632
-377.358
-376.163
-375.048
-374.01
-373.047
-372.156
-371.333
-370.573
-369.871
-369.22
-368.613
-368.042
-367.499
-366.976
-366.464
-365.954
-365.435
-364.9
-364.339
-363.741
-363.099
-362.403
-361.643
-360.811
-359.898
-358.896
-357.799
-356.597
-355.286
-353.858
-352.309
-350.636
-348.835
-346.904
-344.843
-342.652
-340.335
-337.894
-335.334
-332.662
-329.886
-327.015
-324.059
-321.031
-317.943
-314.81
-311.648
-308.473
-305.304
-302.159
-299.06
-296.027
-293.081
-290.247
-287.546
-285.003
-282.64
-280.481
-278.55
-276.869
-275.459
-274.34
-273.531
-273.052
-272.919
-273.149
-273.755
-274.75
-276.146
-277.949
-280.165
-282.794
-285.831
-289.269
-293.099
-297.312
-301.899
-306.85
-312.148
-317.774
-323.706
-329.915
-336.37
-343.024
-349.819
-356.699
-363.609
-370.499
-377.325
-384.04
-390.594
-396.932
-402.992
-408.717
-414.061
-418.976
-423.42
-427.363
-430.8
-433.771
-436.349
-438.607
-440.613
-442.402
-444.02
-445.541
-447.046
-448.642
-450.427
-452.464
-454.857
-457.761
-461.246
-465.262
-469.565
-473.645
-476.953
-479.039
-479.39
-477.444
-472.854
-465.583
-456.142
-445.65
-435.344
-426.253
-419.35
-415.601
-415.512
-418.856
-424.307
-429.382
-431.035
-426.193
-411.862
-384.956
-342.968
-284.641
-210.389
-122.559
-25.274
76.266
176.258
267.626
342.793
394.991
418.498
410.696
372.75
306.494
213.721
94.54
-51.586
-219.383
-396.344
-562.336
-696.762
-789.141
-840.319
-862.124
-868.224
-864.936
-852.702
-828.299
-790.151
-741.606
-688.859
-638.074
-593.403
-557.455
-531.079
-513.563
-504.003
-500.829
-501.677
-504.815
-508.381
-509.838
-507.765
-501.691
-491.5
-477.976
-462.275
-445.192
-427.837
-411.744
-397.756
-386.266
-377.462
-370.97
-366.34
-363.268
-361.222
-359.565
-357.947
-356.14
-354.003
-351.606
-348.963
-346.045
-342.916
-339.639
-336.232
-332.713
-329.059
-325.215
-321.186
-317.012
-312.735
-308.404
-304.047
-299.675
-295.323
-291.016
-286.773
-282.605
-278.505
-274.462
-270.485
-266.584
-262.777
-259.095
-255.548
-252.124
-248.814
-245.59
-242.432
-239.323
-236.233
-233.128
-229.98
-226.762
-223.454
-220.043
-216.505
-212.81
-208.928
-204.816
-200.444
-195.792
-190.842
-185.581
-179.999
-174.088
-167.849
-161.289
-154.414
-147.23
-139.74
-131.948
-123.862
-115.493
-106.857
-97.971
-88.852
-79.516
-69.981
-60.27
-50.405
-40.409
-30.306
-20.111
-9.844
0.474
10.821
21.171
31.501
41.789
52.013
62.145
72.158
82.025
91.715
101.21
110.49
119.538
128.341
136.867
145.085
152.964
160.467
167.592
174.338
180.684
186.621
192.135
197.187
201.826
206.11
209.937
213.241
215.943
217.919
219.314
220.324
220.891
220.982
220.833
220.565
220.473
220.928
221.594
222.085
222.42
222.513
222.13
221.201
219.302
215.937
211.577
206.706
201.434
196.028
190.65
185.321
180.472
176.554
173.261
170.31
167.611
164.948
162.344
159.892
157.402
154.697
151.926
149.203
146.609
144.281
142.177
140.24
138.523
137.054
135.821
134.824
134.042
133.446
133.055
132.888
132.944
133.232
133.739
134.452
135.365
136.469
137.756
139.218
140.843
142.622
144.542
146.59
148.755
151.025
153.388
155.829
158.335
160.893
163.492
166.125
168.782
171.454
174.131
176.805
179.467
182.109
184.724
187.305
189.847
192.341
194.786
197.175
199.505
201.773
203.976
206.111
208.175
210.167
212.084
213.926
215.691
217.379
218.99
220.523
221.98
223.361
224.666
225.896
227.053
228.137
229.15
230.094
230.969
231.777
232.52
233.201
233.82
234.381
234.885
235.332
235.726
236.067
236.356
236.594
236.783
236.923
237.015
237.061
237.062
237.018
236.931
236.801
236.63
236.419
236.168
235.878
235.55
235.184
234.782
234.344
233.87
233.362
232.819
232.241
231.629
230.981
230.296
229.574
228.814
228.014
227.173
226.29
225.365
224.398
223.386
222.331
221.231
220.086
218.896
217.661
216.381
215.055
213.684
212.27
210.811
209.31
207.768
206.185
204.563
202.904
201.209
199.479
197.717
195.926
194.108
192.267
190.408
188.535
186.654
184.771
182.892
181.023
179.173
177.347
175.553
173.798
172.09
170.436
168.843
167.319
165.872
164.509
163.237
162.062
160.991
160.029
159.181
158.452
157.848
157.371
157.026
156.816
156.743
156.81
157.017
157.365
157.852
158.475
159.23
160.112
161.111
162.22
163.429
164.727
166.102
167.539
169.025
170.545
172.086
173.631
175.165
176.67
178.129
179.527
180.848
182.076
183.195
184.189
185.042
185.739
186.27
186.626
186.797
186.77
186.532
186.073
185.39
184.481
183.347
181.988
180.411
178.631
176.681
174.597
172.422
170.191
167.935
165.69
163.493
161.389
159.426
157.64
156.057
154.697
153.576
152.702
152.077
151.668
151.392
151.135
150.775
150.188
149.281
147.979
146.186
143.783
140.659
136.733
131.97
126.398
119.983
112.59
104.22
95.056
85.49
76.18
67.749
60.648
55.496
53.089
53.88
57.915
64.768
73.332
82.327
90.649
96.94
99.505
99.058
98.726
101
109.157
121.641
131.123
137.264
144.042
162.08
211.449
300.082
425.138
577.285
732.978
872.51
981.725
1044.059
1052.618
1007.229
911.317
779.319
628.106
468.969
311.293
159.492
14.543
-117.942
-232.58
-324.9
-388.621
-422.741
-426.917
-401.73
-356.762
-300.544
-242.923
-194.982
-156.149
-125.405
-101.957
-81.442
-66.207
-57.936
-54.71
-55.694
-57.469
-56.389
-51.183
-41.231
-26.711
-8.507
12.286
34.439
56.613
77.34
95.626
111.082
123.479
132.882
139.596
143.902
146.27
147.371
147.597
147.058
145.932
144.389
142.615
140.923
139.348
137.58
135.541
133.389
131.028
128.246
124.748
119.968
113.939
107.407
100.758
94.09
87.763
82.12
77.68
75.373
75.23
76.318
78.08
80.17
82.168
83.892
84.886
84.262
81.912
78.473
74.365
69.959
65.508
60.954
56.475
52.517
49.174
46.252
43.616
41.105
38.692
36.54
34.718
33.209
32.048
31.278
30.947
31.119
31.81
32.981
34.605
36.653
39.109
41.978
45.256
48.933
52.995
57.421
62.19
67.281
72.67
78.336
84.256
90.403
96.753
103.282
109.968
116.79
123.72
130.723
137.767
144.817
151.838
158.8
165.671
172.417
179.007
185.41
191.598
197.544
203.222
208.605
213.668
218.387
222.741
226.709
230.271
233.411
236.11
238.356
240.133
241.433
242.244
242.56
242.376
241.687
240.493
238.793
236.59
233.889
230.696
227.019
222.87
218.261
213.206
207.72
201.821
195.528
188.859
181.837
174.481
166.815
158.862
150.646
142.192
133.526
124.673
115.661
106.516
97.266
87.939
78.561
69.161
59.763
50.396
41.085
31.855
22.73
13.734
4.889
-3.784
-12.264
-20.534
-28.575
-36.372
-43.912
-51.181
-58.168
-64.863
-71.258
-77.346
-83.121
-88.578
-93.714
-98.529
-103.021
-107.191
-111.043
-114.581
-117.809
-120.734
-123.363
-125.707
-127.774
-129.574
-131.121
-132.425
-133.501
-134.361
-135.019
-135.491
-135.791
-135.934
-135.933
-135.805
-135.563
-135.222
-134.795
-134.296
-133.739
-133.135
-132.498
-131.839
-131.172
-130.505
-129.851
-129.22
-128.621
-128.063
-127.553
-127.1
-126.708
-126.384
-126.132
-125.956
-125.859
-125.842
-125.907
-126.054
-126.282
-126.59
-126.976
-127.436
-127.967
-128.565
-129.227
-129.946
-130.719
-131.54
-132.404
-133.306
-134.239
-135.197
-136.175
-137.166
-138.163
-139.159
-140.148
-141.123
-142.076
-143
-143.89
-144.739
-145.539
-146.287
-146.975
-147.6
-148.155
-148.638
-149.045
-149.373
-149.62
-149.784
-149.864
-149.861
-149.773
-149.602
-149.349
-149.013
-148.597
-148.103
-147.53
-146.883
-146.161
-145.369
-144.508
-143.581
-142.592
-141.543
-140.438
-139.281
-138.075
-136.825
-135.534
-134.207
-132.848
-131.46
-130.049
-128.616
-127.166
-125.701
-124.224
-122.737
-121.242
-119.739
-118.23
-116.714
-115.191
-113.661
-112.122
-110.575
-109.019
-107.451
-105.871
-104.278
-102.67
-101.045
-99.403
-97.742
-96.061
-94.359
-92.635
-90.887
-89.114
-87.316
-85.492
-83.641
-81.762
-79.855
-77.921
-75.96
-73.973
-71.962
-69.929
-67.879
-65.815
-63.742
-61.666
-59.592
-57.529
-55.484
-53.465
-51.481
-49.543
-47.661
-45.847
-44.115
-42.479
-40.951
-39.547
-38.279
-37.162
-36.209
-35.43
-34.835
-34.434
-34.236
-34.253
-34.494
-34.97
-35.687
-36.651
-37.865
-39.334
-41.057
-43.03
-45.242
-47.689
-50.365
-53.272
-56.415
-59.788
-63.385
-67.193
-71.193
-75.362
-79.674
-84.084
-88.548
-93.019
-97.454
-101.816
-106.074
-110.183
-114.091
-117.738
-121.06
-124.008
-126.547
-128.645
-130.305
-131.544
-132.401
-132.948
-133.256
-133.408
-133.516
-133.693
-134.066
-134.775
-135.937
-137.706
-140.314
-143.857
-148.316
-153.542
-159.131
-164.698
-169.976
-174.55
-177.918
-179.84
-180.226
-179.374
-178.214
-177.457
-177.549
-179.014
-182.143
-186.903
-193.069
-199.648
-204.674
-206.283
-202.504
-191.272
-171.129
-140.55
-98.111
-43.222
24.128
101.832
184.743
267.783
346.143
419.126
491.727
564.188
631.246
679.208
685.68
637.312
532.606
380.066
198.318
4.608
-188.223
-365.204
-510.674
-614.873
-673.781
-694.873
-696.289
-689.839
-680.402
-667.229
-643.436
-608.125
-565.702
-520.518
-477.874
-440.589
-409.306
-384.694
-366.417
-353.263
-343.949
-337.502
-333.187
-330.206
-327.178
-322.467
-315.24
-305.591
-294.116
-281.416
-267.944
-254.164
-240.971
-229.564
-220.64
-214.347
-210.475
-208.606
-208.411
-209.62
-211.784
-214.295
-216.694
-218.697
-220.164
-221.086
-221.414
-221.074
-220.059
-218.417
-216.224
-213.554
-210.473
-207.03
-203.294
-199.355
-195.301
-191.219
-187.189
-183.291
-179.599
-176.194
-173.159
-170.544
-168.38
-166.679
-165.424
-164.59
-164.146
-164.049
-164.246
-164.688
-165.324
-166.106
-166.995
-167.944
-168.901
-169.814
-170.621
-171.273
-171.729
-171.955
-171.923
-171.611
-170.996
-170.066
-168.815
-167.232
-165.308
-163.033
-160.393
-157.38
-153.992
-150.227
-146.087
-141.575
-136.695
-131.454
-125.858
-119.917
-113.642
-107.043
-100.131
-92.919
-85.424
-77.665
-69.662
-61.438
-53.016
-44.419
-35.673
-26.805
-17.842
-8.81
0.264
9.353
18.427
27.458
36.419
45.281
54.016
62.597
70.997
79.189
87.147
94.848
102.268
109.385
116.177
122.624
128.708
134.411
139.717
144.611
149.08
153.113
156.699
159.829
162.498
164.699
166.43
167.688
168.476
168.795
168.649
168.045
166.99
165.494
163.57
161.23
158.489
155.366
151.879
148.047
143.892
139.437
134.705
129.721
124.511
119.101
113.517
107.788
101.94
96.003
90.004
83.972
77.935
71.921
65.958
60.073
54.293
48.643
43.148
37.832
32.717
27.824
23.173
18.781
14.666
10.841
7.32
4.112
1.228
-1.327
-3.547
-5.429
-6.972
-8.174
-9.04
-9.572
-9.775
-9.657
-9.224
-8.488
-7.459
-6.148
-4.569
-2.737
-0.667
1.626
4.123
6.808
9.663
12.669
15.808
19.06
22.409
25.834
29.318
32.844
36.395
39.953
43.504
47.032
50.524
53.966
57.346
60.653
63.876
67.008
70.038
72.96
75.768
78.454
81.016
83.449
85.751
87.918
89.952
91.85
93.615
95.247
96.748
98.123
99.373
100.503
101.517
102.42
103.217
103.913
104.513
105.024
105.45
105.798
106.073
106.28
106.425
106.512
106.547
106.534
106.478
106.382
106.251
106.09
105.9
105.687
105.453
105.202
104.936
104.658
104.37
104.072
103.768
103.459
103.144
102.825
102.503
102.177
101.849
101.518
101.183
100.846
100.504
100.157
99.805
99.447
99.082
98.709
98.328
97.938
97.538
97.128
96.705
96.27
95.821
95.356
94.874
94.374
93.855
93.314
92.75
92.163
91.552
90.914
90.25
89.557
88.836
88.085
87.304
86.491
85.647
84.772
83.865
82.928
81.961
80.965
79.941
78.891
77.816
76.716
75.594
74.452
73.291
72.114
70.924
69.723
68.514
67.302
66.09
64.881
63.679
62.486
61.308
60.146
59.004
57.886
56.793
55.73
54.699
53.701
52.739
51.814
50.925
50.073
49.256
48.471
47.714
46.981
46.266
45.563
44.868
44.174
43.474
42.765
42.041
41.298
40.53
39.73
38.89
38.002
37.059
36.054
34.981
33.832
32.603
31.295
29.909
28.445
26.901
25.266
23.531
21.691
19.744
17.692
15.543
13.309
11.012
8.69
6.383
4.127
1.959
-0.102
-2.034
-3.809
-5.399
-6.759
-7.848
-8.645
-9.129
-9.284
-9.119
-8.672
-8.003
-7.225
-6.448
-5.757
-5.252
-5.024
-5.164
-5.786
-6.987
-8.849
-11.492
-15.052
-19.581
-25.016
-31.124
-37.475
-43.618
-49.143
-53.569
-56.316
-56.975
-55.546
-52.453
-48.597
-44.926
-41.963
-40.175
-40.26
-42.552
-46.606
-51.216
-54.2
-53.049
-45.975
-31.246
-6.743
28.986
76.576
135.778
204.73
280.707
359.746
435.664
501.893
552.628
587.026
609.177
621.709
625.108
609.652
557.96
457.914
302.761
104.852
-106.092
-299.119
-443.168
-527.12
-561.493
-561.939
-548.999
-531.276
-503.297
-463.622
-413.113
-358.531
-314.381
-285.667
-268.922
-260.043
-250.715
-238.395
-227.777
-220.39
-217.512
-218.555
-218.728
-215.295
-207.747
-195.907
-180.928
-164.259
-146.562
-128.814
-112.534
-98.729
-87.931
-80.443
-76.075
-74.383
-75.046
-77.558
-81.212
-85.547
-90.245
-95.043
-99.83
-104.472
-108.781
-112.625
-115.899
-118.488
-120.305
-121.285
-121.381
-120.605
-119.011
-116.673
-113.683
-110.121
-106.062
-101.586
-96.777
-91.729
-86.54
-81.307
-76.135
-71.107
-66.278
-61.683
-57.327
-53.2
-49.286
-45.555
-41.962
-38.472
-35.052
-31.673
-28.314
-24.945
-21.53
-18.031
-14.405
-10.619
-6.654
-2.496
1.863
6.422
11.179
16.127
21.249
26.534
31.972
37.556
43.284
49.149
55.142
61.25
67.462
73.767
80.154
86.612
93.129
99.695
106.299
112.931
119.583
126.244
132.902
139.544
146.156
152.724
159.235
165.675
172.03
178.287
184.432
190.455
196.343
202.086
207.67
213.086
218.321
223.364
228.204
232.83
237.231
241.396
245.315
248.978
252.376
255.499
258.34
260.89
263.142
265.09
266.728
268.051
269.055
269.738
270.097
270.131
269.839
269.222
268.282
267.021
265.441
263.547
261.342
258.832
256.023
252.921
249.535
245.873
241.944
237.761
233.333
228.674
223.797
218.718
213.449
208.009
202.412
196.677
190.82
184.86
178.815
172.702
166.541
160.349
154.145
147.945
141.768
135.631
129.549
123.538
117.615
111.795
106.09
100.516
95.086
89.811
84.703
79.772
75.029
70.482
66.138
62.004
58.086
54.387
50.911
47.659
44.632
41.831
39.253
36.896
34.756
32.829
31.109
29.59
28.266
27.129
26.171
25.383
24.756
24.282
23.95
23.75
23.671
23.704
23.837
24.058
24.357
24.723
25.142
25.606
26.101
26.616
27.141
27.664
28.176
28.666
29.124
29.542
29.91
30.222
30.468
30.643
30.739
30.752
30.676
30.506
30.238
29.868
29.393
28.809
28.116
27.31
26.39
25.357
24.208
22.944
21.567
20.077
18.476
16.767
14.952
13.035
11.02
8.913
6.717
4.438
2.083
-0.342
-2.832
-5.379
-7.978
-10.62
-13.3
-16.009
-18.742
-21.49
-24.246
-27.004
-29.755
-32.494
-35.211
-37.901
-40.556
-43.17
-45.735
-48.245
-50.693
-53.074
-55.381
-57.609
-59.754
-61.81
-63.774
-65.642
-67.413
-69.083
-70.652
-72.119
-73.484
-74.747
-75.909
-76.972
-77.937
-78.807
-79.585
-80.272
-80.874
-81.392
-81.833
-82.199
-82.495
-82.727
-82.899
-83.015
-83.083
-83.105
-83.088
-83.038
-82.958
-82.856
-82.735
-82.601
-82.458
-82.313
-82.168
-82.028
-81.897
-81.777
-81.671
-81.581
-81.508
-81.454
-81.419
-81.404
-81.408
-81.433
-81.479
-81.543
-81.627
-81.728
-81.848
-81.984
-82.137
-82.306
-82.49
-82.69
-82.907
-83.141
-83.395
-83.67
-83.968
-84.294
-84.65
-85.042
-85.473
-85.948
-86.472
-87.051
-87.691
-88.393
-89.165
-90.01
-90.934
-91.942
-93.041
-94.234
-95.529
-96.931
-98.443
-100.07
-101.811
-103.663
-105.622
-107.685
-109.849
-112.117
-114.487
-116.953
-119.507
-122.14
-124.835
-127.574
-130.323
-133.04
-135.681
-138.208
-140.586
-142.79
-144.79
-146.556
-148.049
-149.227
-150.054
-150.503
-150.549
-150.172
-149.365
-148.144
-146.572
-144.741
-142.747
-140.674
-138.578
-136.518
-134.577
-132.843
-131.423
-130.416
-129.877
-129.893
-130.59
-132.013
-134.101
-136.619
-139.085
-140.971
-141.849
-141.24
-138.638
-133.724
-126.407
-117.055
-106.592
-96.059
-86.316
-78.142
-72.269
-69.088
-68.5
-69.532
-70.205
-67.937
-60.141
-44.541
-18.701
19.635
71.939
138.614
217.137
302.065
388.073
471.029
550.001
625.666
694.262
746.269
766.978
743.619
672.474
559.406
417.1
257.047
89.12
-75.919
-225.443
-344.331
-424.221
-468.409
-486.375
-488.587
-478.724
-450.993
-403.994
-345.227
-286.431
-244.259
-224.316
-218.462
-218.799
-215.457
-204.909
-192.81
-181.433
-171.826
-163.963
-154.224
-140.818
-124.028
-104.339
-83.197
-62.304
-42.758
-25.173
-9.971
2.61
12.596
20.013
25.001
28.09
29.891
30.838
31.28
31.411
31.281
31.017
30.793
30.692
30.751
30.988
31.407
32.064
33.061
34.477
36.333
38.591
41.179
44.013
47.032
50.192
53.448
56.744
60.013
63.202
66.279
69.236
72.059
74.719
77.166
79.341
81.221
82.813
84.135
85.217
86.081
86.748
87.248
87.627
87.922
88.167
88.386
88.594
88.814
89.079
89.427
89.904
90.54
91.357
92.372
93.597
95.044
96.721
98.626
100.75
103.088
105.638
108.397
111.364
114.534
117.897
121.441
125.154
129.021
133.028
137.158
141.395
145.723
150.124
154.584
159.087
163.617
168.157
172.688
177.191
181.647
186.037
190.341
194.54
198.615
202.548
206.321
209.919
213.324
216.521
219.495
222.232
224.718
226.941
228.889
230.55
231.915
232.975
233.723
234.152
234.257
234.034
233.482
232.598
231.382
229.835
227.959
225.756
223.231
220.388
217.233
213.774
210.018
205.974
201.652
197.063
192.217
187.128
181.808
176.269
170.525
164.591
158.481
152.211
145.796
139.253
132.598
125.848
119.02
112.131
105.197
98.235
91.261
84.291
77.34
70.424
63.558
56.756
50.031
43.397
36.866
30.45
24.16
18.005
11.996
6.139
0.444
-5.083
-10.436
-15.61
-20.599
-25.4
-30.009
-34.423
-38.64
-42.66
-46.483
-50.108
-53.537
-56.772
-59.816
-62.671
-65.341
-67.83
-70.142
-72.282
-74.256
-76.069
-77.726
-79.235
-80.601
-81.831
-82.931
-83.908
-84.768
-85.517
-86.161
-86.706
-87.158
-87.522
-87.805
-88.011
-88.147
-88.217
-88.227
-88.183
-88.088
-87.947
-87.765
-87.545
-87.293
-87.01
-86.7
-86.367
-86.014
-85.643
-85.257
-84.858
-84.448
-84.028
-83.601
-83.166
-82.725
-82.278
-81.827
-81.372
-80.913
-80.451
-79.986
-79.52
-79.053
-78.585
-78.116
-77.647
-77.179
-76.711
-76.244
-75.778
-75.313
-74.852
-74.392
-73.937
-73.485
-73.038
-72.596
-72.16
-71.73
-71.307
-70.892
-70.484
-70.087
-69.699
-69.323
-68.959
-68.609
-68.273
-67.953
-67.65
-67.364
-67.097
-66.848
-66.619
-66.41
-66.221
-66.054
-65.908
-65.783
-65.679
-65.596
-65.532
-65.488
-65.461
-65.452
-65.457
-65.477
-65.509
-65.551
-65.603
-65.661
-65.724
-65.79
-65.857
-65.921
-65.981
-66.034
-66.078
-66.11
-66.128
-66.13
-66.114
-66.077
-66.018
-65.936
-65.827
-65.69
-65.525
-65.328
-65.099
-64.837
-64.54
-64.21
-63.845
-63.445
-63.012
-62.544
-62.044
-61.511
-60.948
-60.355
-59.734
-59.086
-58.414
-57.719
-57.006
-56.275
-55.53
-54.773
-54.007
-53.236
-52.462
-51.688
-50.918
-50.155
-49.403
-48.666
-47.949
-47.256
-46.592
-45.963
-45.377
-44.838
-44.356
-43.937
-43.587
-43.314
-43.125
-43.024
-43.015
-43.101
-43.287
-43.575
-43.972
-44.482
-45.107
-45.85
-46.713
-47.695
-48.797
-50.011
-51.332
-52.753
-54.27
-55.89
-57.617
-59.45
-61.386
-63.422
-65.546
-67.74
-69.979
-72.224
-74.437
-76.584
-78.632
-80.563
-82.354
-83.977
-85.395
-86.564
-87.437
-87.987
-88.192
-88.031
-87.514
-86.684
-85.613
-84.418
-83.206
-82.046
-81.024
-80.229
-79.764
-79.769
-80.371
-81.656
-83.764
-86.867
-91.038
-96.232
-102.178
-108.334
-114.146
-119.155
-122.849
-124.658
-124.234
-121.568
-117.216
-112.334
-108.078
-105.269
-104.611
-106.857
-112.355
-120.719
-130.41
-138.844
-143.256
-140.926
-129.124
-104.92
-65.354
-9.87
58.793
137.324
221.573
310.664
408.098
511.795
614.476
700.632
746.506
737.788
672.457
562.164
430.312
292.342
152.295
6.725
-150.318
-311.84
-458.513
-571.583
-637.862
-657.908
-645.452
-611.295
-565.599
-517.733
-470.31
-430.177
-400.022
-374.437
-351.067
-325.632
-297.59
-272.761
-253.56
-241.217
-235.185
-231.82
-229.08
-225.588
-219.793
-211.541
-201.006
-188.342
-174.217
-159.205
-143.759
-128.824
-115.53
-104.535
-96.09
-90.079
-86.079
-83.745
-82.824
-82.913
-83.504
-84.21
-84.748
-84.987
-84.95
-84.616
-83.925
-82.822
-81.256
-79.212
-76.709
-73.781
-70.461
-66.794
-62.829
-58.619
-54.226
-49.714
-45.15
-40.582
-36.039
-31.557
-27.172
-22.941
-18.936
-15.198
-11.731
-8.527
-5.565
-2.821
-0.279
2.094
4.341
6.501
8.606
10.684
12.748
14.824
16.942
19.141
21.463
23.941
26.594
29.439
32.485
35.743
39.217
42.908
46.803
50.897
55.188
59.671
64.348
69.214
74.259
79.474
84.848
90.367
96.022
101.797
107.68
113.656
119.712
125.834
132.011
138.227
144.467
150.715
156.952
163.162
169.326
175.426
181.441
187.354
193.145
198.797
204.291
209.61
214.736
219.653
224.345
228.795
232.988
236.908
240.54
243.872
246.889
249.58
251.931
253.932
255.574
256.849
257.749
258.266
258.394
258.126
257.458
256.388
254.916
253.042
250.766
248.088
245.015
241.554
237.713
233.5
228.919
223.975
218.677
213.041
207.082
200.817
194.259
187.418
180.308
172.949
165.361
157.568
149.586
141.427
133.11
124.66
116.108
107.498
98.861
90.222
81.605
73.019
64.494
56.095
47.876
39.891
32.168
24.677
17.405
10.407
3.738
-2.598
-8.665
-14.641
-20.566
-26.249
-31.454
-35.982
-39.908
-43.384
-46.346
-48.798
-50.814
-52.672
-55.371
-58.525
-61.176
-64.452
-68.269
-75.565
-89.883
-106.35
-121.161
-128.308
-120.893
-104.838
-85.675
-67.678
-56.895
-50.222
-44.885
-41.782
-39.942
-40.63
-44.669
-50.299
-56.652
-63.192
-69.038
-73.435
-75.589
-75.118
-72.437
-68.596
-64.385
-60.067
-55.794
-51.742
-48.248
-45.61
-43.766
-42.324
-40.953
-39.532
-38.073
-36.674
-35.338
-33.987
-32.608
-31.244
-29.951
-28.762
-27.664
-26.6
-25.525
-24.424
-23.293
-22.142
-20.973
-19.779
-18.551
-17.281
-15.964
-14.606
-13.212
-11.785
-10.328
-8.843
-7.335
-5.814
-4.291
-2.772
-1.263
0.239
1.731
3.21
4.668
6.1
7.497
8.854
10.166
11.425
12.622
13.751
14.805
15.778
16.664
17.458
18.154
18.745
19.226
19.593
19.839
19.963
19.959
19.825
19.559
19.159
18.625
17.955
17.152
16.217
15.152
13.96
12.645
11.211
9.664
8.011
6.258
4.413
2.485
0.483
-1.582
-3.7
-5.859
-8.048
-10.255
-12.468
-14.674
-16.861
-19.017
-21.129
-23.184
-25.171
-27.077
-28.89
-30.598
-32.188
-33.651
-34.974
-36.147
-37.162
-38.008
-38.679
-39.168
-39.468
-39.576
-39.487
-39.2
-38.714
-38.029
-37.148
-36.073
-34.809
-33.364
-31.745
-29.962
-28.025
-25.946
-23.739
-21.419
-19.001
-16.502
-13.941
-11.335
-8.705
-6.07
-3.451
-0.869
1.657
4.105
6.455
8.686
10.776
12.706
14.455
16.005
17.335
18.432
19.279
19.867
20.191
20.244
20.021
19.521
18.735
17.662
16.308
14.676
12.777
10.627
8.247
5.671
2.943
0.103
-2.811
-5.761
-8.72
-11.651
-14.512
-17.267
-19.86
-22.245
-24.381
-26.222
-27.733
-28.9
-29.72
-30.233
-30.512
-30.617
-30.61
-30.539
-30.446
-30.407
-30.508
-30.836
-31.503
-32.577
-34.157
-36.413
-39.4
-43.073
-47.26
-51.545
-55.48
-58.719
-60.798
-61.186
-59.582
-55.786
-49.976
-42.932
-35.358
-27.922
-21.438
-16.553
-13.705
-13.117
-14.222
-15.453
-15.068
-10.794
-0.07
19.217
49.442
92.757
150.206
222.048
305.851
395.677
485.995
571.589
651.225
728.981
803.036
865.936
903.307
894.562
830.316
713.43
554.999
373.365
183.524
-4.21
-176.897
-320.134
-422.46
-476.511
-486.375
-466.386
-432.105
-398.281
-372.862
-357.481
-349.207
-340.822
-327.25
-304.144
-271.615
-235.698
-200.421
-169.491
-144.422
-122.554
-103.072
-86.689
-73.853
-65.441
-61.185
-59.14
-57.587
-55.794
-53.216
-49.507
-44.561
-38.263
-30.912
-23.564
-17.325
-12.719
-9.909
-8.787
-9.1
-10.703
-13.372
-16.608
-19.829
-22.649
-24.874
-26.468
-27.464
-27.857
-27.627
-26.82
-25.549
-23.921
-22.024
-19.921
-17.642
-15.227
-12.744
-10.265
-7.854
-5.567
-3.45
-1.547
0.073
1.362
2.299
2.88
3.125
3.061
2.712
2.113
1.307
0.336
-0.759
-1.939
-3.174
-4.428
-5.662
-6.836
-7.9
-8.813
-9.545
-10.075
-10.384
-10.459
-10.289
-9.868
-9.2
-8.287
-7.128
-5.722
-4.064
-2.156
-0.002
2.393
5.019
7.869
10.933
14.202
17.662
21.302
25.109
29.069
33.172
37.402
41.743
46.177
50.686
55.252
59.855
64.475
69.093
73.688
78.242
82.735
87.15
91.469
95.672
99.745
103.669
107.429
111.009
114.395
117.571
120.524
123.241
125.71
127.919
129.858
131.516
132.887
133.962
134.737
135.205
135.363
135.209
134.741
133.959
132.863
131.456
129.739
127.716
125.393
122.775
119.869
116.682
113.224
109.502
105.527
101.311
96.864
92.198
87.328
82.266
77.026
71.625
66.078
60.401
54.611
48.724
42.759
36.731
30.657
24.556
18.443
12.335
6.247
0.196
-5.803
-11.735
-17.587
-23.343
-28.991
-34.519
-39.912
-45.162
-50.256
-55.184
-59.937
-64.507
-68.886
-73.065
-77.04
-80.805
-84.354
-87.684
-90.792
-93.677
-96.336
-98.77
-100.979
-102.963
-104.726
-106.269
-107.594
-108.706
-109.607
-110.303
-110.797
-111.095
-111.201
-111.122
-110.864
-110.433
-109.836
-109.08
-108.173
-107.122
-105.935
-104.621
-103.188
-101.644
-99.998
-98.26
-96.438
-94.542
-92.581
-90.565
-88.501
-86.4
-84.271
-82.121
-79.961
-77.797
-75.64
-73.496
-71.374
-69.283
-67.229
-65.22
-63.264
-61.367
-59.536
-57.777
-56.095
-54.496
-52.984
-51.564
-50.238
-49.01
-47.882
-46.857
-45.935
-45.117
-44.403
-43.794
-43.286
-42.879
-42.57
-42.356
-42.233
-42.197
-42.244
-42.368
-42.566
-42.831
-43.157
-43.539
-43.97
-44.444
-44.952
-45.49
-46.049
-46.623
-47.205
-47.791
-48.372
-48.945
-49.504
-50.044
-50.56
-51.048
-51.503
-51.921
-52.299
-52.632
-52.918
-53.155
-53.34
-53.473
-53.553
-53.58
-53.554
-53.476
-53.347
-53.168
-52.94
-52.665
-52.346
-51.985
-51.584
-51.147
-50.676
-50.174
-49.644
-49.088
-48.508
-47.903
-47.275
-46.623
-45.946
-45.241
-44.509
-43.747
-42.955
-42.133
-41.28
-40.396
-39.482
-38.538
-37.564
-36.557
-35.514
-34.431
-33.302
-32.122
-30.884
-29.585
-28.22
-26.784
-25.277
-23.697
-22.044
-20.314
-18.5
-16.595
-14.593
-12.493
-10.302
-8.029
-5.689
-3.306
-0.906
1.485
3.845
6.159
8.424
10.646
12.832
14.991
17.122
19.212
21.252
23.233
25.154
27.02
28.85
30.676
32.534
34.471
36.515
38.674
40.934
43.253
45.575
47.83
49.967
51.954
53.767
55.389
56.797
57.966
58.848
59.388
59.526
59.185
58.312
56.886
54.92
52.474
49.646
46.556
43.311
40
36.691
33.442
30.322
27.393
24.74
22.448
20.596
19.285
18.594
18.552
19.157
20.356
22.034
24.074
26.354
28.727
31.076
33.278
35.199
36.758
37.809
38.155
37.729
36.53
34.699
32.613
30.582
28.844
27.821
27.987
29.624
32.861
37.254
41.873
46.06
49.316
51.177
51.285
49.33
45.428
40.83
37.561
37.506
42.564
54.41
74.578
104.743
146.03
198.286
260.216
330.019
403.819
476.015
541.479
595.784
638.638
673.137
698.353
708.428
692.46
637.81
541.559
409.733
253.59
89.498
-69.798
-212.273
-323.403
-396.28
-429.966
-431.442
-417.094
-398.01
-379.113
-360.916
-338.309
-310.255
-279.172
-247.263
-218.152
-193.502
-172.913
-156.259
-142.689
-131.021
-120.82
-111.893
-103.764
-95.841
-87.607
-78.474
-68.349
-57.695
-46.848
-36.06
-25.803
-16.688
-9.211
-3.821
-0.657
0.534
0.029
-1.858
-4.693
-8.003
-11.377
-14.451
-16.968
-18.807
-19.89
-20.192
-19.74
-18.593
-16.805
-14.431
-11.53
-8.166
-4.428
-0.415
3.772
8.046
12.312
16.469
20.411
24.032
27.261
30.066
32.431
34.354
35.839
36.9
37.567
37.887
37.907
37.668
37.211
36.572
35.793
34.922
34.012
33.113
32.269
31.509
30.859
30.343
29.978
29.78
29.757
29.91
30.244
30.767
31.487
32.413
33.551
34.905
36.475
38.263
40.268
42.49
44.927
47.576
50.432
53.491
56.748
60.198
63.833
67.643
71.616
75.739
79.997
84.376
88.858
93.428
98.065
102.754
107.474
112.208
116.936
121.639
126.295
130.886
135.389
139.785
144.053
148.171
152.121
155.881
159.432
162.756
165.834
168.648
171.182
173.421
175.35
176.956
178.227
179.152
179.722
179.93
179.769
179.235
178.323
177.031
175.36
173.31
170.883
168.083
164.916
161.389
157.509
153.287
148.733
143.862
138.686
133.221
127.484
121.494
115.267
108.825
102.188
95.378
88.415
81.324
74.126
66.843
59.499
52.115
44.713
37.315
29.941
22.611
15.346
8.162
1.08
-5.886
-12.718
-19.402
-25.924
-32.271
-38.431
-44.396
-50.155
-55.7
-61.027
-66.129
-71.002
-75.644
-80.053
-84.23
-88.174
-91.888
-95.374
-98.638
-101.682
-104.514
-107.139
-109.562
-111.792
-113.835
-115.697
-117.387
-118.911
-120.276
-121.49
-122.56
-123.493
-124.296
-124.976
-125.538
-125.99
-126.337
-126.584
-126.738
-126.802
-126.781
-126.68
-126.503
-126.254
-125.936
-125.552
-125.105
-124.598
-124.034
-123.414
-122.74
-122.015
-121.24
-120.417
-119.549
-118.638
-117.686
-116.697
-115.673
-114.618
-113.535
-112.428
-111.3
-110.156
-109
-107.836
-106.669
-105.504
-104.346
-103.2
-102.07
-100.963
-99.883
-98.835
-97.825
-96.858
-95.938
-95.07
-94.259
-93.509
-92.825
-92.21
-91.669
-91.203
-90.817
-90.513
-90.292
-90.155
-90.104
-90.139
-90.259
-90.464
-90.753
-91.123
-91.573
-92.1
-92.701
-93.374
-94.113
-94.917
-95.779
-96.695
-97.661
-98.671
-99.72
-100.801
-101.91
-103.04
-104.184
-105.337
-106.492
-107.643
-108.782
-109.905
-111.003
-112.073
-113.106
-114.099
-115.045
-115.939
-116.777
-117.553
-118.263
-118.902
-119.467
-119.954
-120.358
-120.676
-120.904
-121.039
-121.076
-121.013
-120.846
-120.571
-120.187
-119.689
-119.074
-118.341
-117.487
-116.511
-115.411
-114.187
-112.837
-111.362
-109.761
-108.035
-106.184
-104.21
-102.113
-99.894
-97.555
-95.099
-92.527
-89.842
-87.048
-84.149
-81.147
-78.049
-74.858
-71.582
-68.227
-64.801
-61.313
-57.771
-54.188
-50.574
-46.942
-43.306
-39.681
-36.079
-32.517
-29.009
-25.571
-22.217
-18.961
-15.818
-12.8
-9.921
-7.193
-4.629
-2.242
-0.042
1.959
3.75
5.321
6.662
7.768
8.637
9.267
9.658
9.809
9.716
9.381
8.81
8.011
6.991
5.765
4.351
2.777
1.088
-0.673
-2.463
-4.246
-5.995
-7.678
-9.264
-10.714
-11.991
-13.064
-13.91
-14.509
-14.838
-14.884
-14.648
-14.172
-13.541
-12.843
-12.163
-11.56
-11.068
-10.735
-10.626
-10.823
-11.404
-12.435
-13.946
-15.995
-18.713
-22.129
-26.125
-30.393
-34.355
-37.431
-39.195
-39.209
-36.957
-32.229
-25.159
-16.299
-6.93
1.669
8.65
13.164
14.53
12.753
8.467
3.145
-0.446
0.579
8.645
26.348
55.784
98.097
153.537
220.827
296.886
377.858
459.307
535.791
601.93
652.42
682.188
687.56
666.142
617.976
546.028
454.459
347.229
225.5
89.215
-57.581
-204.717
-334.76
-430.346
-483.468
-496.875
-483.72
-458.137
-428.35
-397.322
-362.698
-323.406
-281.699
-240.907
-205.879
-179.609
-162.026
-151.932
-147.24
-145.574
-145.422
-145.469
-143.866
-139.185
-130.859
-118.829
-103.714
-86.629
-68.394
-49.864
-32.308
-16.646
-3.355
7.288
15.43
21.455
25.636
28.379
30.268
31.666
32.794
33.814
34.728
35.552
36.361
37.154
37.898
38.617
39.352
40.173
41.193
42.447
43.92
45.583
47.383
49.294
51.304
53.382
55.486
57.579
59.63
61.625
63.565
65.426
67.17
68.75
70.108
71.22
72.085
72.707
73.107
73.302
73.307
73.15
72.872
72.502
72.07
71.597
71.099
70.602
70.141
69.757
69.493
69.384
69.453
69.719
70.197
70.898
71.83
72.992
74.378
75.984
77.807
79.845
82.098
84.561
87.223
90.073
93.098
96.284
99.617
103.081
106.662
110.342
114.107
117.941
121.83
125.759
129.71
133.663
137.6
141.501
145.346
149.114
152.786
156.341
159.76
163.023
166.112
169.009
171.697
174.157
176.373
178.329
180.011
181.403
182.494
183.272
183.727
183.848
183.629
183.064
182.146
180.872
179.239
177.247
174.895
172.184
169.117
165.699
161.935
157.831
153.396
148.639
143.57
138.201
132.546
126.617
120.43
114.001
107.347
100.485
93.435
86.216
78.848
71.352
63.75
56.063
48.313
40.521
32.71
24.902
17.117
9.377
1.704
-5.883
-13.362
-20.716
-27.924
-34.969
-41.834
-48.503
-54.961
-61.194
-67.188
-72.932
-78.415
-83.626
-88.558
-93.202
-97.552
-101.604
-105.355
-108.801
-111.942
-114.779
-117.313
-119.548
-121.487
-123.137
-124.502
-125.592
-126.413
-126.976
-127.29
-127.368
-127.22
-126.86
-126.3
-125.554
-124.636
-123.56
-122.341
-120.993
-119.53
-117.968
-116.32
-114.602
-112.827
-111.011
-109.165
-107.305
-105.443
-103.59
-101.759
-99.959
-98.203
-96.498
-94.853
-93.276
-91.775
-90.354
-89.02
-87.777
-86.629
-85.577
-84.624
-83.769
-83.014
-82.356
-81.795
-81.327
-80.949
-80.658
-80.449
-80.317
-80.258
-80.265
-80.333
-80.454
-80.623
-80.832
-81.075
-81.345
-81.634
-81.937
-82.246
-82.556
-82.861
-83.155
-83.432
-83.687
-83.915
-84.112
-84.273
-84.395
-84.473
-84.506
-84.491
-84.426
-84.309
-84.141
-83.92
-83.648
-83.323
-82.948
-82.523
-82.05
-81.531
-80.968
-80.364
-79.721
-79.043
-78.332
-77.59
-76.822
-76.029
-75.215
-74.38
-73.528
-72.659
-71.776
-70.88
-69.973
-69.057
-68.132
-67.199
-66.26
-65.316
-64.367
-63.413
-62.455
-61.492
-60.523
-59.547
-58.565
-57.573
-56.572
-55.558
-54.531
-53.487
-52.424
-51.338
-50.227
-49.087
-47.913
-46.704
-45.454
-44.161
-42.823
-41.435
-39.996
-38.503
-36.954
-35.347
-33.68
-31.95
-30.156
-28.296
-26.368
-24.37
-22.301
-20.159
-17.945
-15.657
-13.295
-10.859
-8.349
-5.767
-3.114
-0.393
2.395
5.246
8.154
11.115
14.121
17.167
20.244
23.343
26.454
29.567
32.671
35.755
38.806
41.815
44.767
47.653
50.462
53.185
55.811
58.331
60.733
63.008
65.143
67.129
68.959
70.622
72.114
73.427
74.562
75.519
76.3
76.903
77.322
77.554
77.595
77.451
77.127
76.638
76.001
75.244
74.405
73.525
72.644
71.8
71.022
70.338
69.781
69.393
69.218
69.305
69.696
70.415
71.488
72.917
74.673
76.704
78.923
81.234
83.559
85.811
87.887
89.689
91.101
91.995
92.294
91.864
90.528
88.231
84.98
80.95
76.563
72.226
68.294
65.243
63.573
63.653
65.755
69.612
74.415
79.448
84.062
87.733
90.079
90.648
89.202
86.532
84.366
84.752
89.912
101.543
121.38
151.764
194.727
251.463
320.587
397.552
477.631
556.721
633.288
710.423
788.379
861.449
918.902
941.798
912.877
827.279
688.05
507.95
309.122
108.635
-75.904
-225.006
-332.728
-397.669
-425.825
-434.336
-431.673
-420.896
-402.87
-372.641
-330.94
-283.769
-236.277
-194.406
-162.156
-139.9
-126.975
-122.043
-122.872
-126.995
-132.546
-137.599
-139.847
-138.116
-132.077
-121.777
-108.207
-92.697
-76.182
-59.859
-45.231
-33.113
-23.915
-17.815
-14.431
-13.3
-14.073
-16.206
-19.054
-22.238
-25.507
-28.684
-31.74
-34.606
-37.182
-39.436
-41.354
-42.88
-43.939
-44.475
-44.453
-43.898
-42.882
-41.475
-39.738
-37.724
-35.485
-33.076
-30.57
-28.022
-25.469
-22.952
-20.514
-18.216
-16.131
-14.303
-12.741
-11.436
-10.366
-9.507
-8.838
-8.331
-7.946
-7.65
-7.411
-7.204
-7.011
-6.807
-6.56
-6.231
-5.775
-5.157
-4.358
-3.359
-2.149
-0.718
0.941
2.828
4.937
7.263
9.805
12.563
15.539
18.731
22.13
25.729
29.517
33.484
37.619
41.91
46.343
50.907
55.588
60.374
65.254
70.213
75.238
80.312
85.417
90.536
95.652
100.745
105.797
110.787
115.699
120.513
125.211
129.776
134.19
138.435
142.494
146.352
149.992
153.399
156.557
159.454
162.075
164.41
166.446
168.176
169.588
170.677
171.436
171.859
171.942
171.682
171.076
170.125
168.828
167.187
165.204
162.884
160.233
157.257
153.965
150.365
146.47
142.289
137.837
133.127
128.174
122.993
117.603
112.019
106.26
100.347
94.297
88.131
81.869
75.531
69.137
62.709
56.264
49.825
43.409
37.037
30.726
24.495
18.362
12.343
6.456
0.715
-4.865
-10.271
-15.488
-20.507
-25.316
-29.907
-34.27
-38.4
-42.29
-45.937
-49.337
-52.489
-55.391
-58.044
-60.45
-62.612
-64.534
-66.219
-67.674
-68.906
-69.92
-70.725
-71.329
-71.74
-71.968
-72.021
-71.91
-71.644
-71.234
-70.69
-70.022
-69.242
-68.36
-67.386
-66.332
-65.208
-64.024
-62.791
-61.517
-60.213
-58.888
-57.549
-56.205
-54.863
-53.531
-52.215
-50.92
-49.654
-48.419
-47.221
-46.064
-44.95
-43.884
-42.867
-41.902
-40.991
-40.137
-39.34
-38.603
-37.926
-37.311
-36.758
-36.267
-35.839
-35.473
-35.169
-34.926
-34.742
-34.617
-34.548
-34.535
-34.576
-34.668
-34.81
-34.999
-35.234
-35.511
-35.828
-36.183
-36.573
-36.997
-37.453
-37.938
-38.45
-38.988
-39.551
-40.135
-40.741
-41.364
-42.005
-42.66
-43.327
-44.006
-44.694
-45.389
-46.091
-46.798
-47.51
-48.225
-48.944
-49.666
-50.391
-51.119
-51.85
-52.584
-53.324
-54.07
-54.822
-55.584
-56.356
-57.141
-57.94
-58.754
-59.585
-60.435
-61.304
-62.194
-63.104
-64.036
-64.989
-65.965
-66.963
-67.983
-69.024
-70.086
-71.166
-72.264
-73.376
-74.5
-75.632
-76.767
-77.903
-79.033
-80.154
-81.259
-82.344
-83.401
-84.425
-85.409
-86.344
-87.225
-88.042
-88.788
-89.455
-90.035
-90.522
-90.909
-91.188
-91.356
-91.405
-91.331
-91.131
-90.799
-90.335
-89.735
-88.999
-88.128
-87.124
-85.989
-84.73
-83.353
-81.865
-80.277
-78.598
-76.839
-75.014
-73.135
-71.217
-69.274
-67.324
-65.381
-63.463
-61.588
-59.774
-58.041
-56.407
-54.889
-53.506
-52.275
-51.214
-50.341
-49.668
-49.207
-48.966
-48.955
-49.182
-49.659
-50.388
-51.367
-52.593
-54.059
-55.759
-57.68
-59.803
-62.091
-64.511
-67.028
-69.612
-72.239
-74.882
-77.506
-80.077
-82.556
-84.91
-87.121
-89.16
-90.998
-92.618
-94.008
-95.173
-96.171
-97.064
-97.905
-98.755
-99.648
-100.604
-101.677
-102.93
-104.431
-106.262
-108.475
-111.109
-114.258
-118.054
-122.523
-127.529
-132.711
-137.503
-141.37
-143.907
-144.685
-143.16
-139.023
-132.444
-124.105
-115.278
-107.283
-100.921
-96.862
-95.973
-98.54
-103.876
-110.391
-115.301
-115.436
-108.428
-92.01
-63.508
-21.107
35.628
105.749
186.319
273.129
362.013
447.997
524.725
585.891
625.924
640.286
626.3
583.139
511.124
412.47
292.089
156.462
12.819
-130.984
-267.18
-388.982
-490.552
-567.496
-618.14
-642.709
-642.534
-620.9
-582.68
-533.048
-477.47
-421.351
-368.522
-322.101
-285.127
-258.752
-242.412
-234.882
-233.991
-237.068
-242.181
-247.181
-249.344
-247.242
-240.542
-229.398
-214.85
-198.206
-180.382
-162.635
-146.621
-133.253
-122.902
-115.639
-111.021
-108.572
-107.973
-108.717
-110.153
-111.851
-113.576
-115.221
-116.621
-117.517
-117.938
-117.836
-117.105
-116.137
-113.71
-108.641
-102.624
-96.216
-92.561
-95.418
-100.76
-105.915
-106.882
-98.152
-84.708
-70.797
-59.345
-55.156
-54.932
-55.305
-55.538
-53.546
-50.527
-48.017
-45.7
-43.743
-41.998
-40.114
-38.263
-36.582
-34.996
-33.465
-31.971
-30.468
-28.896
-27.209
-25.352
-23.268
-20.959
-18.428
-15.661
-12.659
-9.427
-5.965
-2.279
1.628
5.764
10.13
14.722
19.532
24.554
29.777
35.192
40.789
46.554
52.476
58.54
64.733
71.044
77.456
83.952
90.514
97.122
103.755
110.392
117.012
123.591
130.107
136.538
142.863
149.059
155.107
160.985
166.673
172.151
177.399
182.398
187.129
191.574
195.715
199.535
203.019
206.152
208.922
211.315
213.323
214.937
216.15
216.956
217.352
217.336
216.908
216.068
214.819
213.167
211.119
208.681
205.865
202.681
199.143
195.265
191.062
186.551
181.749
176.675
171.349
165.792
160.024
154.07
147.951
141.693
135.319
128.855
122.326
115.756
109.171
102.596
96.055
89.573
83.172
76.876
70.706
64.683
58.826
53.155
47.687
42.438
37.422
32.652
28.14
23.896
19.928
16.244
12.849
9.747
6.94
4.43
2.216
0.296
-1.332
-2.674
-3.734
-4.52
-5.04
-5.304
-5.322
-5.104
-4.664
-4.015
-3.17
-2.144
-0.951
0.392
1.87
3.468
5.169
6.956
8.815
10.729
12.683
14.662
16.651
18.636
20.604
22.542
24.437
26.279
28.057
29.761
31.381
32.91
34.341
35.666
36.879
37.976
38.952
39.804
40.529
41.126
41.593
41.931
42.141
42.224
42.182
42.02
41.739
41.346
40.844
40.24
39.539
38.749
37.876
36.927
35.909
34.83
33.697
32.519
31.301
30.053
28.781
27.493
26.195
24.895
23.599
22.315
21.048
19.805
18.591
17.413
16.276
15.184
14.142
13.154
12.224
11.356
10.551
9.813
9.144
8.544
8.015
7.558
7.171
6.855
6.609
6.432
6.321
6.275
6.292
6.368
6.502
6.69
6.929
7.216
7.546
7.917
8.323
8.762
9.229
9.719
10.23
10.757
11.295
11.841
12.391
12.94
13.485
14.023
14.549
15.06
15.554
16.028
16.479
16.906
17.307
17.681
18.027
18.345
18.636
18.9
19.137
19.351
19.544
19.717
19.875
20.02
20.155
20.286
20.417
20.55
20.692
20.846
21.018
21.212
21.433
21.687
21.977
22.309
22.688
23.117
23.601
24.144
24.749
25.42
26.159
26.967
27.847
28.797
29.819
30.909
32.066
33.285
34.56
35.885
37.252
38.652
40.076
41.512
42.95
44.379
45.787
47.165
48.5
49.78
50.996
52.133
53.182
54.13
54.963
55.671
56.241
56.664
56.935
57.049
57
56.782
56.386
55.808
55.044
54.097
52.966
51.656
50.178
48.554
46.821
45.018
43.183
41.351
39.549
37.806
36.154
34.63
33.272
32.111
31.171
30.467
30.02
29.837
29.908
30.184
30.569
30.961
31.255
31.374
31.264
30.86
30.078
28.819
26.989
24.516
21.364
17.479
12.739
7.124
0.764
-6.003
-12.566
-18.312
-22.772
-25.463
-25.817
-23.529
-18.636
-11.629
-3.751
3.772
10.105
14.397
15.925
14.548
10.741
5.917
2.852
4.332
12.696
30.787
60.903
104.378
161.991
231.414
308.457
390.604
473.579
554.464
630.828
693.007
733.109
743.352
715.659
654.735
567.961
462.784
349.404
226.836
89.556
-60.751
-218.711
-367.279
-480.668
-545.431
-559.316
-532.253
-486.991
-439.051
-395.364
-357.208
-318.883
-278.284
-238.063
-202.095
-174.738
-157.104
-147.506
-143.626
-142.725
-143.007
-143.004
-140.571
-134.492
-124.523
-110.838
-94.363
-76.271
-57.366
-38.718
-21.837
-7.619
3.534
11.468
16.552
19.238
19.816
18.781
16.793
14.256
11.467
8.657
5.848
3.105
0.559
-1.738
-3.733
-5.326
-6.467
-7.123
-7.258
-6.906
-6.122
-4.957
-3.49
-1.79
0.083
2.051
4.054
6.049
7.979
9.793
11.431
12.813
13.893
14.661
15.117
15.282
15.188
14.858
14.337
13.676
12.919
12.107
11.275
10.448
9.66
8.951
8.362
7.945
7.736
7.759
8.036
8.579
9.398
10.501
11.886
13.546
15.474
17.668
20.127
22.851
25.836
29.072
32.55
36.256
40.179
44.303
48.616
53.1
57.74
62.52
67.424
72.437
77.544
82.724
87.959
93.229
98.512
103.789
109.04
114.242
119.375
124.421
129.359
134.171
138.839
143.345
147.672
151.801
155.718
159.405
162.846
166.026
168.932
171.549
173.867
175.873
177.559
178.914
179.933
180.608
180.935
180.91
180.53
179.794
178.7
177.251
175.447
173.294
170.794
167.954
164.781
161.283
157.469
153.35
148.935
144.236
139.268
134.043
128.576
122.884
116.984
110.893
104.63
98.215
91.669
85.011
78.263
71.446
64.582
57.691
50.796
43.917
37.075
30.291
23.586
16.979
10.489
4.136
-2.063
-8.091
-13.933
-19.572
-24.997
-30.192
-35.147
-39.852
-44.295
-48.468
-52.365
-55.979
-59.306
-62.342
-65.085
-67.536
-69.696
-71.566
-73.151
-74.455
-75.484
-76.245
-76.747
-76.997
-77.006
-76.784
-76.343
-75.694
-74.852
-73.829
-72.638
-71.294
-69.811
-68.204
-66.486
-64.672
-62.776
-60.813
-58.796
-56.74
-54.658
-52.564
-50.469
-48.388
-46.33
-44.308
-42.331
-40.41
-38.552
-36.766
-35.059
-33.438
-31.909
-30.476
-29.144
-27.918
-26.799
-25.791
-24.895
-24.111
-23.44
-22.882
-22.435
-22.099
-21.87
-21.746
-21.726
-21.804
-21.979
-22.245
-22.598
-23.033
-23.547
-24.133
-24.786
-25.502
-26.275
-27.101
-27.974
-28.891
-29.847
-30.838
-31.86
-32.908
-33.98
-35.07
-36.177
-37.297
-38.427
-39.564
-40.704
-41.847
-42.988
-44.127
-45.262
-46.39
-47.51
-48.623
-49.726
-50.821
-51.908
-52.987
-54.058
-55.123
-56.182
-57.237
-58.289
-59.339
-60.388
-61.437
-62.487
-63.538
-64.592
-65.649
-66.71
-67.775
-68.844
-69.918
-70.997
-72.08
-73.167
-74.258
-75.354
-76.456
-77.563
-78.674
-79.791
-80.913
-82.037
-83.163
-84.285
-85.4
-86.504
-87.593
-88.663
-89.708
-90.725
-91.712
-92.664
-93.58
-94.456
-95.289
-96.073
-96.803
-97.474
-98.08
-98.615
-99.072
-99.445
-99.729
-99.923
-100.023
-100.025
-99.922
-99.706
-99.369
-98.911
-98.333
-97.635
-96.823
-95.909
-94.915
-93.87
-92.808
-91.755
-90.736
-89.774
-88.886
-88.089
-87.4
-86.833
-86.387
-86.05
-85.809
-85.651
-85.558
-85.5
-85.426
-85.267
-84.956
-84.44
-83.672
-82.603
-81.196
-79.437
-77.331
-74.903
-72.221
-69.368
-66.431
-63.518
-60.706
-58.056
-55.695
-53.784
-52.476
-51.932
-52.256
-53.474
-55.732
-59.281
-64.175
-70.297
-77.404
-85.045
-93.003
-101.467
-110.245
-118.57
-126.193
-133.366
-140.328
-148.155
-156.268
-161.464
-163.697
-165.129
-169.133
-182.268
-203.293
-223.299
-234.129
-225.941
-198.408
-162.107
-125.688
-98.527
-84.054
-77.081
-74.653
-74.179
-74.407
-77.459
-83.65
-91.66
-100.287
-108.29
-114.946
-120.599
-125.942
-131.681
-138.598
-147.257
-157.259
-166.763
-173.532
-174.809
-167.524
-148.93
-116.203
-67.283
-1.765
79.135
172.93
275.737
381.773
483.636
573.31
644.408
695.95
729.873
746.441
742.943
707.324
625.891
494.275
315.928
111.47
-90.004
-266.724
-402.16
-495.773
-559.728
-604.343
-636.917
-655.564
-650.75
-615.333
-552.231
-474.516
-398.727
-340.679
-304.309
-282.545
-268.63
-254.566
-238.282
-225.158
-217.237
-215.864
-220.429
-225.878
-229.024
-228.399
-223.16
-214.325
-202.999
-189.52
-174.555
-159.115
-144.22
-131.11
-120.547
-112.55
-106.914
-103.328
-101.425
-100.903
-101.386
-102.341
-103.405
-104.42
-105.297
-106.084
-106.81
-107.399
-107.802
-107.982
-107.868
-107.437
-106.684
-105.586
-104.159
-102.422
-100.383
-98.084
-95.576
-92.899
-90.096
-87.194
-84.207
-81.185
-78.187
-75.281
-72.54
-70
-67.673
-65.561
-63.656
-61.946
-60.414
-59.031
-57.753
-56.548
-55.386
-54.242
-53.096
-51.912
-50.648
-49.259
-47.695
-45.92
-43.909
-41.641
-39.098
-36.271
-33.153
-29.746
-26.055
-22.085
-17.837
-13.313
-8.512
-3.442
1.89
7.471
13.288
19.328
25.576
32.017
38.635
45.412
52.333
59.379
66.536
73.785
81.104
88.473
95.869
103.268
110.649
117.986
125.257
132.438
139.506
146.439
153.217
159.816
166.218
172.402
178.348
184.038
189.454
194.577
199.393
203.886
208.041
211.846
215.29
218.362
221.054
223.358
225.27
226.785
227.9
228.614
228.928
228.843
228.363
227.493
226.239
224.608
222.61
220.254
217.554
214.52
211.168
207.512
203.567
199.35
194.88
190.174
185.252
180.134
174.841
169.395
163.817
158.13
152.355
146.517
140.636
134.736
128.839
122.965
117.137
111.376
105.701
100.131
94.685
89.382
84.236
79.265
74.481
69.9
65.532
61.39
57.482
53.819
50.407
47.253
44.363
41.74
39.386
37.304
35.493
33.952
32.679
31.669
30.919
30.421
30.169
30.156
30.371
30.804
31.447
32.285
33.308
34.503
35.857
37.356
38.986
40.734
42.587
44.529
46.549
48.631
50.762
52.929
55.119
57.319
59.515
61.696
63.849
65.963
68.026
70.029
71.961
73.812
75.575
77.241
78.803
80.255
81.591
82.806
83.898
84.862
85.697
86.403
86.978
87.425
87.743
87.935
88.004
87.951
87.781
87.497
87.104
86.604
86.004
85.308
84.522
83.651
82.703
81.682
80.595
79.45
78.252
77.01
75.729
74.417
73.08
71.726
70.361
68.99
67.621
66.257
64.902
63.562
62.238
60.934
59.649
58.387
57.146
55.926
54.728
53.551
52.393
51.252
50.128
49.018
47.919
46.83
45.748
44.669
43.591
42.51
41.424
40.327
39.217
38.089
36.94
35.765
34.561
33.322
32.047
30.731
29.372
27.968
26.518
25.022
23.48
21.896
20.27
18.606
16.91
15.185
13.438
11.673
9.898
8.121
6.347
4.585
2.843
1.129
-0.548
-2.18
-3.758
-5.274
-6.719
-8.084
-9.362
-10.542
-11.617
-12.577
-13.415
-14.123
-14.691
-15.115
-15.388
-15.505
-15.463
-15.26
-14.895
-14.368
-13.683
-12.843
-11.853
-10.72
-9.45
-8.054
-6.541
-4.923
-3.214
-1.426
0.427
2.326
4.256
6.199
8.137
10.051
11.921
13.729
15.455
17.082
18.591
19.964
21.186
22.237
23.102
23.765
24.21
24.422
24.39
24.102
23.552
22.74
21.667
20.335
18.749
16.908
14.813
12.474
9.897
7.089
4.065
0.844
-2.541
-6.044
-9.617
-13.214
-16.792
-20.318
-23.753
-27.055
-30.182
-33.09
-35.738
-38.095
-40.126
-41.792
-43.069
-43.966
-44.532
-44.856
-45.037
-45.155
-45.271
-45.46
-45.817
-46.458
-47.499
-49.047
-51.169
-53.959
-57.585
-62.125
-67.508
-73.459
-79.404
-84.697
-88.829
-91.248
-91.32
-88.747
-83.608
-76.454
-68.682
-61.768
-56.787
-54.856
-56.853
-62.765
-71.788
-82.1
-90.315
-92.813
-86.373
-67.536
-33.561
16.914
83.94
165.613
257.785
355.288
452.237
541.561
616.369
670.378
698.342
697.167
665.557
603.876
514.562
402.166
272.661
133.223
-8.855
-146.981
-274.405
-385.301
-475.524
-542.331
-585.107
-605.033
-603.754
-583.809
-549.435
-505.101
-455.199
-404.274
-355.427
-311.014
-273.691
-244.811
-224.122
-210.88
-203.498
-199.721
-198.006
-196.663
-193.361
-186.859
-176.851
-163.382
-147.355
-130.017
-112.258
-95.259
-80.514
-68.798
-60.439
-55.504
-53.516
-53.949
-56.394
-60.226
-64.753
-69.521
-74.175
-78.471
-82.335
-85.636
-88.212
-90.008
-90.996
-91.167
-90.559
-89.197
-87.112
-84.383
-81.11
-77.401
-73.37
-69.109
-64.709
-60.273
-55.897
-51.691
-47.761
-44.176
-40.983
-38.207
-35.84
-33.869
-32.268
-30.994
-29.994
-29.216
-28.612
-28.137
-27.759
-27.433
-27.113
-26.751
-26.289
-25.689
-24.919
-23.953
-22.776
-21.375
-19.739
-17.868
-15.767
-13.436
-10.876
-8.085
-5.058
-1.794
1.703
5.429
9.377
13.539
17.909
22.48
27.24
32.181
37.291
42.561
47.981
53.538
59.215
64.998
70.867
76.803
82.786
88.798
94.815
100.817
106.782
112.69
118.519
124.248
129.856
135.321
140.621
145.737
150.646
155.33
159.769
163.944
167.838
171.434
174.718
177.675
180.292
182.557
184.459
185.991
187.144
187.912
188.291
188.277
187.87
187.069
185.877
184.296
182.332
179.992
177.282
174.213
170.795
167.041
162.963
158.578
153.9
148.949
143.741
138.297
132.638
126.784
120.757
114.58
108.275
101.865
95.373
88.822
82.234
75.633
69.04
62.479
55.97
49.535
43.194
36.967
30.871
24.925
19.145
13.548
8.146
2.955
-2.014
-6.749
-11.242
-15.484
-19.467
-23.186
-26.637
-29.817
-32.726
-35.361
-37.726
-39.821
-41.651
-43.218
-44.528
-45.587
-46.401
-46.977
-47.324
-47.449
-47.362
-47.073
-46.591
-45.928
-45.093
-44.097
-42.953
-41.67
-40.261
-38.737
-37.109
-35.389
-33.588
-31.718
-29.789
-27.813
-25.8
-23.758
-21.699
-19.629
-17.558
-15.493
-13.441
-11.409
-9.403
-7.43
-5.495
-3.603
-1.76
0.031
1.764
3.437
5.046
6.589
8.061
9.462
10.789
12.042
13.217
14.316
15.336
16.28
17.146
17.937
18.654
19.298
19.871
20.375
20.813
21.186
21.495
21.744
21.933
22.064
22.139
22.159
22.126
22.042
21.908
21.726
21.498
21.224
20.908
20.549
20.149
19.712
19.237
18.726
18.183
17.607
17.001
16.366
15.703
15.013
14.296
13.553
12.783
11.987
11.163
10.313
9.436
8.533
7.603
6.648
5.668
4.665
3.64
2.594
1.53
0.448
-0.647
-1.754
-2.871
-3.993
-5.118
-6.242
-7.363
-8.478
-9.583
-10.675
-11.752
-12.81
-13.847
-14.859
-15.843
-16.795
-17.711
-18.586
-19.417
-20.199
-20.926
-21.595
-22.2
-22.737
-23.203
-23.594
-23.906
-24.136
-24.282
-24.341
-24.313
-24.195
-23.989
-23.693
-23.31
-22.839
-22.283
-21.645
-20.927
-20.131
-19.26
-18.318
-17.308
-16.235
-15.102
-13.914
-12.676
-11.396
-10.079
-8.733
-7.365
-5.985
-4.602
-3.227
-1.873
-0.55
0.728
1.949
3.102
4.174
5.157
6.041
6.82
7.488
8.036
8.457
8.745
8.895
8.901
8.76
8.469
8.027
7.439
6.71
5.847
4.854
3.727
2.461
1.058
-0.483
-2.157
-3.957
-5.864
-7.856
-9.892
-11.93
-13.929
-15.849
-17.662
-19.338
-20.848
-22.154
-23.214
-23.985
-24.436
-24.543
-24.279
-23.643
-22.671
-21.421
-19.998
-18.51
-17.041
-15.69
-14.568
-13.789
-13.489
-13.794
-14.8
-16.641
-19.492
-23.431
-28.412
-34.204
-40.331
-46.276
-51.597
-55.798
-58.273
-58.642
-56.948
-53.702
-49.993
-47.003
-45.455
-45.952
-49.273
-55.64
-64.329
-73.745
-81.142
-83.394
-78.187
-63.316
-36.197
4.828
60.105
128.646
207.454
292.48
379.871
464.852
541.333
603.518
646.15
665.017
657.922
623.744
562.128
474.939
366.532
242.581
109.814
-24.946
-155.349
-274.722
-376.847
-457.41
-514.49
-548.173
-559.976
-551.907
-526.799
-489.107
-443.912
-395.883
-348.431
-303.667
-263.305
-229.314
-203.057
-184.346
-171.926
-164.059
-159.443
-157.321
-156.674
-155.79
-152.92
-147.24
-138.857
-128.443
-116.635
-103.831
-90.562
-77.79
-66.712
-58.064
-51.984
-48.237
-46.426
-46.233
-47.426
-49.612
-52.222
-54.826
-57.181
-59.173
-60.826
-62.124
-62.962
-63.296
-63.146
-62.538
-61.534
-60.186
-58.508
-56.541
-54.341
-51.955
-49.455
-46.909
-44.361
-41.864
-39.468
-37.224
-35.208
-33.478
-32.054
-30.94
-30.117
-29.559
-29.244
-29.142
-29.21
-29.41
-29.7
-30.047
-30.428
-30.813
-31.167
-31.452
-31.618
-31.627
-31.452
-31.074
-30.479
-29.657
-28.599
-27.304
-25.778
-24.028
-22.056
-19.863
-17.446
-14.809
-11.958
-8.901
-5.648
-2.209
1.407
5.189
9.124
13.201
17.408
21.733
26.167
30.697
35.311
39.993
44.728
49.501
54.296
59.096
63.884
68.643
73.356
78.008
82.584
87.066
91.441
95.694
99.811
103.778
107.582
111.21
114.649
117.887
120.912
123.714
126.281
128.604
130.674
132.481
134.019
135.28
136.257
136.944
137.337
137.431
137.223
136.709
135.887
134.759
133.322
131.58
129.535
127.19
124.551
121.624
118.414
114.93
111.18
107.174
102.922
98.435
93.725
88.804
83.687
78.388
72.923
67.306
61.556
55.688
49.722
43.673
37.561
31.404
25.222
19.031
12.852
6.702
0.601
-5.434
-11.386
-17.237
-22.972
-28.574
-34.03
-39.326
-44.449
-49.388
-54.133
-58.673
-63.001
-67.108
-70.989
-74.638
-78.051
-81.224
-84.155
-86.844
-89.289
-91.494
-93.459
-95.188
-96.686
-97.957
-99.009
-99.846
-100.479
-100.914
-101.161
-101.229
-101.128
-100.87
-100.464
-99.922
-99.254
-98.471
-97.585
-96.606
-95.545
-94.411
-93.216
-91.968
-90.678
-89.354
-88.005
-86.641
-85.269
-83.898
-82.534
-81.185
-79.856
-78.554
-77.283
-76.048
-74.853
-73.702
-72.598
-71.542
-70.537
-69.584
-68.685
-67.839
-67.046
-66.306
-65.618
-64.981
-64.394
-63.854
-63.36
-62.91
-62.502
-62.134
-61.803
-61.507
-61.243
-61.008
-60.799
-60.614
-60.449
-60.302
-60.169
-60.047
-59.935
-59.829
-59.728
-59.629
-59.53
-59.43
-59.327
-59.22
-59.108
-58.99
-58.866
-58.737
-58.602
-58.462
-58.319
-58.172
-58.024
-57.875
-57.728
-57.584
-57.444
-57.311
-57.187
-57.075
-56.978
-56.898
-56.839
-56.803
-56.793
-56.813
-56.865
-56.951
-57.074
-57.235
-57.438
-57.682
-57.971
-58.304
-58.681
-59.104
-59.57
-60.079
-60.628
-61.214
-61.836
-62.487
-63.165
-63.865
-64.581
-65.309
-66.041
-66.772
-67.495
-68.201
-68.883
-69.532
-70.139
-70.693
-71.187
-71.61
-71.953
-72.207
-72.363
-72.41
-72.341
-72.148
-71.821
-71.353
-70.738
-69.968
-69.039
-67.947
-66.688
-65.261
-63.664
-61.899
-59.968
-57.872
-55.618
-53.208
-50.65
-47.952
-45.122
-42.171
-39.111
-35.955
-32.717
-29.414
-26.067
-22.692
-19.311
-15.943
-12.611
-9.335
-6.136
-3.034
-0.048
2.803
5.501
8.027
10.36
12.482
14.378
16.033
17.432
18.566
19.427
20.015
20.331
20.375
20.148
19.644
18.86
17.798
16.463
14.863
13.014
10.94
8.675
6.27
3.772
1.23
-1.312
-3.817
-6.248
-8.563
-10.712
-12.642
-14.3
-15.639
-16.623
-17.213
-17.396
-17.2
-16.676
-15.92
-15.025
-14.054
-13.089
-12.227
-11.571
-11.253
-11.396
-12.071
-13.403
-15.56
-18.612
-22.549
-27.154
-31.926
-36.346
-39.977
-42.318
-42.838
-41.177
-37.18
-31.254
-24.451
-17.873
-12.405
-8.761
-7.566
-9.128
-13.236
-18.641
-22.902
-23.21
-17.022
-1.866
24.937
65.598
121.651
191.885
271.824
357.161
444.721
534.848
629.734
725.971
812.797
872.481
886.505
847.858
764.235
652.737
531.022
404.723
266.49
109.756
-62.715
-232.486
-369.878
-455.872
-488.337
-480.979
-458.101
-434.578
-414.078
-394.184
-367.821
-333.431
-294.526
-254.958
-219.431
-190.835
-169.174
-153.38
-141.97
-133.32
-126.399
-120.749
-115.356
-108.543
-99.334
-87.475
-73.192
-57.357
-40.717
-23.669
-7.028
7.985
20.579
30.321
37.121
41.374
43.459
43.636
42.354
40.171
37.479
34.574
31.667
28.803
26.046
23.494
21.192
19.184
17.549
16.366
15.684
15.528
15.878
16.674
17.867
19.413
21.268
23.376
25.673
28.093
30.588
33.125
35.659
38.132
40.472
42.605
44.492
46.129
47.523
48.692
49.658
50.441
51.075
51.601
52.057
52.476
52.884
53.303
53.765
54.308
54.978
55.82
56.866
58.138
59.65
61.415
63.437
65.722
68.262
71.048
74.072
77.331
80.82
84.536
88.473
92.619
96.963
101.49
106.188
111.043
116.041
121.165
126.403
131.74
137.16
142.652
148.2
153.785
159.391
164.996
170.58
176.123
181.604
186.999
192.289
197.451
202.465
207.311
211.97
216.422
220.65
224.633
228.356
231.801
234.951
237.791
240.307
242.484
244.31
245.773
246.863
247.571
247.889
247.809
247.327
246.437
245.136
243.422
241.295
238.756
235.809
232.458
228.711
224.575
220.062
215.183
209.952
204.384
198.495
192.303
185.826
179.084
172.097
164.888
157.479
149.894
142.156
134.291
126.324
118.28
110.185
102.063
93.942
85.845
77.799
69.828
61.957
54.209
46.608
39.177
31.936
24.905
18.103
11.547
5.251
-0.771
-6.506
-11.944
-17.078
-21.901
-26.406
-30.591
-34.454
-37.994
-41.213
-44.113
-46.698
-48.974
-50.948
-52.628
-54.022
-55.14
-55.994
-56.596
-56.958
-57.093
-57.017
-56.743
-56.288
-55.666
-54.893
-53.985
-52.958
-51.826
-50.606
-49.31
-47.954
-46.549
-45.109
-43.645
-42.168
-40.688
-39.214
-37.754
-36.317
-34.909
-33.537
-32.206
-30.92
-29.685
-28.502
-27.376
-26.308
-25.299
-24.35
-23.463
-22.635
-21.868
-21.159
-20.507
-19.911
-19.367
-18.873
-18.427
-18.026
-17.668
-17.349
-17.069
-16.824
-16.614
-16.436
-16.29
-16.175
-16.089
-16.034
-16.007
-16.01
-16.042
-16.103
-16.194
-16.314
-16.465
-16.646
-16.858
-17.102
-17.378
-17.687
-18.03
-18.407
-18.819
-19.267
-19.752
-20.273
-20.833
-21.431
-22.068
-22.744
-23.459
-24.213
-25.005
-25.833
-26.698
-27.597
-28.528
-29.49
-30.48
-31.496
-32.536
-33.596
-34.675
-35.77
-36.878
-37.997
-39.125
-40.259
-41.397
-42.537
-43.675
-44.811
-45.942
-47.065
-48.178
-49.279
-50.366
-51.436
-52.486
-53.516
-54.521
-55.501
-56.452
-57.372
-58.259
-59.111
-59.926
-60.7
-61.432
-62.12
-62.761
-63.353
-63.893
-64.38
-64.81
-65.182
-65.491
-65.736
-65.913
-66.02
-66.053
-66.01
-65.888
-65.684
-65.396
-65.022
-64.561
-64.01
-63.369
-62.636
-61.813
-60.899
-59.894
-58.802
-57.625
-56.366
-55.029
-53.621
-52.148
-50.618
-49.041
-47.424
-45.778
-44.115
-42.445
-40.782
-39.136
-37.52
-35.947
-34.429
-32.981
-31.618
-30.354
-29.201
-28.174
-27.285
-26.551
-25.984
-25.595
-25.391
-25.38
-25.568
-25.965
-26.582
-27.424
-28.49
-29.777
-31.28
-32.991
-34.897
-36.976
-39.19
-41.498
-43.86
-46.241
-48.612
-50.941
-53.19
-55.319
-57.281
-59.041
-60.579
-61.873
-62.907
-63.675
-64.182
-64.462
-64.599
-64.688
-64.824
-65.103
-65.588
-66.339
-67.436
-68.964
-71.019
-73.679
-77
-81.008
-85.746
-91.304
-97.655
-104.614
-111.803
-118.618
-124.451
-128.823
-131.217
-131.026
-127.943
-121.997
-113.624
-103.984
-94.269
-85.333
-78.136
-73.501
-71.56
-71.869
-73.196
-72.963
-68.348
-56.851
-35.587
-2.222
44.299
104.448
177.489
260.307
348.85
437.405
517.684
583.662
631.203
657.933
665.209
651.337
612.616
545.213
443.907
308.859
144.546
-38.878
-223.758
-390.297
-518.625
-596.913
-624.937
-612.369
-574.917
-527.284
-481.476
-443.455
-415.721
-396.751
-379.54
-359.647
-333.775
-302.871
-273.678
-249.723
-232.526
-221.743
-214.152
-208.205
-203.364
-198.305
-192.071
-184.099
-174.053
-162.237
-149.1
-134.876
-119.928
-105.131
-91.653
-80.265
-71.255
-64.522
-59.723
-56.596
-54.954
-54.44
-54.553
-54.919
-55.29
-55.551
-55.736
-55.845
-55.814
-55.598
-55.155
-54.423
-53.383
-52.041
-50.39
-48.464
-46.297
-43.915
-41.359
-38.681
-35.931
-33.154
-30.379
-27.618
-24.902
-22.276
-19.801
-17.545
-15.538
-13.781
-12.268
-10.98
-9.899
-9.004
-8.258
-7.618
-7.046
-6.508
-5.981
-5.444
-4.868
-4.212
-3.435
-2.487
-1.334
0.047
1.676
3.569
5.735
8.181
10.907
13.903
17.166
20.693
24.482
28.532
32.837
37.387
42.17
47.171
52.378
57.774
63.344
69.07
74.936
80.924
87.017
93.201
99.456
105.763
112.1
118.446
124.779
131.077
137.315
143.472
149.524
155.449
161.226
166.834
172.252
177.461
182.44
187.171
191.637
195.819
199.702
203.271
206.512
209.411
211.958
214.143
215.956
217.39
218.44
219.101
219.369
219.244
218.725
217.813
216.51
214.821
212.75
210.306
207.495
204.328
200.816
196.97
192.804
188.331
183.568
178.53
173.235
167.7
161.943
155.985
149.844
143.542
137.098
130.535
123.873
117.134
110.339
103.509
96.664
89.825
83.012
76.244
69.54
62.918
56.395
49.988
43.712
37.583
31.613
25.817
20.206
14.791
9.581
4.587
-0.184
-4.725
-9.029
-13.093
-16.912
-20.483
-23.805
-26.876
-29.696
-32.267
-34.591
-36.67
-38.51
-40.113
-41.487
-42.635
-43.567
-44.287
-44.804
-45.126
-45.26
-45.217
-45.003
-44.629
-44.104
-43.438
-42.639
-41.719
-40.686
-39.552
-38.326
-37.019
-35.641
-34.203
-32.714
-31.186
-29.627
-28.049
-26.462
-24.874
-23.294
-21.732
-20.196
-18.693
-17.23
-15.815
-14.453
-13.151
-11.912
-10.743
-9.648
-8.63
-7.693
-6.84
-6.073
-5.394
-4.805
-4.307
-3.899
-3.582
-3.355
-3.216
-3.165
-3.199
-3.315
-3.509
-3.779
-4.118
-4.524
-4.99
-5.511
-6.082
-6.697
-7.35
-8.035
-8.748
-9.483
-10.234
-10.997
-11.767
-12.539
-13.309
-14.072
-14.825
-15.565
-16.287
-16.99
-17.671
-18.327
-18.958
-19.56
-20.135
-20.68
-21.195
-21.68
-22.136
-22.564
-22.964
-23.338
-23.689
-24.019
-24.331
-24.627
-24.912
-25.187
-25.457
-25.724
-25.991
-26.262
-26.539
-26.824
-27.121
-27.43
-27.755
-28.096
-28.454
-28.83
-29.224
-29.635
-30.064
-30.507
-30.965
-31.435
-31.916
-32.404
-32.897
-33.392
-33.886
-34.375
-34.855
-35.321
-35.768
-36.19
-36.584
-36.944
-37.263
-37.537
-37.76
-37.927
-38.033
-38.073
-38.042
-37.935
-37.748
-37.477
-37.12
-36.673
-36.135
-35.504
-34.781
-33.968
-33.065
-32.076
-31.002
-29.849
-28.622
-27.325
-25.964
-24.547
-23.082
-21.577
-20.045
-18.498
-16.948
-15.41
-13.896
-12.421
-11
-9.645
-8.365
-7.173
-6.079
-5.095
-4.236
-3.513
-2.936
-2.517
-2.263
-2.182
-2.281
-2.56
-3.013
-3.635
-4.424
-5.382
-6.523
-7.852
-9.368
-11.069
-12.946
-14.987
-17.18
-19.497
-21.895
-24.333
-26.771
-29.177
-31.534
-33.813
-35.976
-37.974
-39.741
-41.226
-42.397
-43.221
-43.684
-43.791
-43.558
-43.034
-42.299
-41.439
-40.552
-39.745
-39.116
-38.78
-38.837
-39.441
-40.816
-43.083
-46.261
-50.21
-54.566
-58.966
-63.121
-66.617
-68.947
-69.75
-68.848
-66.65
-64.181
-62.354
-61.943
-63.556
-67.559
-74.297
-83.757
-94.659
-104.7
-111.413
-112.111
-104.57
-86.999
-57.191
-13.435
44.304
114.727
195.443
282.718
372.533
460.459
540.673
606.787
653.022
674.666
668.102
632.926
571.644
485.602
377.353
249.622
102.654
-54.851
-207.709
-341.693
-440.441
-499.114
-526.038
-529.505
-520.014
-502.793
-475.384
-438.602
-394.79
-348.111
-305.183
-269.487
-242.176
-223.422
-211.768
-205.398
-202.456
-200.442
-197.149
-191.358
-182.245
-169.566
-153.711
-135.403
-115.744
-96.263
-78.437
-63.138
-50.9
-41.899
-35.974
-32.917
-32.335
-33.599
-36.021
-39.09
-42.46
-45.934
-49.408
-52.692
-55.597
-57.989
-59.764
-60.878
-61.293
-60.971
-59.896
-58.101
-55.661
-52.68
-49.278
-45.553
-41.591
-37.466
-33.248
-29.039
-24.935
-21.032
-17.427
-14.177
-11.318
-8.876
-6.85
-5.218
-3.952
-3.005
-2.32
-1.853
-1.56
-1.406
-1.361
-1.383
-1.427
-1.446
-1.388
-1.212
-0.886
-0.382
0.321
1.235
2.373
3.738
5.326
7.139
9.178
11.447
13.95
16.689
19.662
22.865
26.292
29.937
33.793
37.851
42.103
46.539
51.147
55.917
60.84
65.903
71.09
76.387
81.775
87.236
92.752
98.302
103.866
109.422
114.951
120.432
125.843
131.165
136.376
141.458
146.39
151.153
155.728
160.099
164.249
168.16
171.819
175.211
178.323
181.143
183.659
185.863
187.746
189.3
190.519
191.399
191.936
192.126
191.969
191.465
190.613
189.417
187.88
186.007
183.804
181.277
178.436
175.29
171.85
168.127
164.133
159.882
155.388
150.665
145.729
140.594
135.277
129.795
124.164
118.401
112.524
106.548
100.493
94.373
88.208
82.013
75.805
69.6
63.415
57.265
51.167
45.135
39.184
33.327
27.579
21.951
16.456
11.105
5.907
0.872
-3.993
-8.68
-13.183
-17.497
-21.616
-25.537
-29.257
-32.773
-36.083
-39.188
-42.085
-44.776
-47.262
-49.543
-51.623
-53.503
-55.188
-56.68
-57.984
-59.105
-60.049
-60.822
-61.43
-61.881
-62.182
-62.341
-62.366
-62.265
-62.047
-61.718
-61.289
-60.767
-60.159
-59.474
-58.72
-57.903
-57.032
-56.113
-55.155
-54.163
-53.144
-52.106
-51.055
-49.997
-48.939
-47.887
-46.847
-45.823
-44.822
-43.848
-42.905
-41.998
-41.129
-40.301
-39.517
-38.777
-38.083
-37.436
-36.837
-36.284
-35.778
-35.318
-34.903
-34.533
-34.206
-33.921
-33.677
-33.473
-33.308
-33.179
-33.085
-33.025
-32.996
-32.997
-33.025
-33.077
-33.15
-33.243
-33.351
-33.473
-33.604
-33.744
-33.888
-34.036
-34.186
-34.335
-34.483
-34.63
-34.774
-34.916
-35.056
-35.194
-35.332
-35.469
-35.608
-35.748
-35.892
-36.038
-36.19
-36.346
-36.509
-36.678
-36.854
-37.037
-37.229
-37.43
-37.641
-37.863
-38.097
-38.344
-38.606
-38.884
-39.179
-39.492
-39.824
-40.174
-40.544
-40.932
-41.339
-41.762
-42.201
-42.652
-43.113
-43.581
-44.053
-44.524
-44.991
-45.45
-45.895
-46.324
-46.731
-47.111
-47.461
-47.776
-48.051
-48.282
-48.466
-48.598
-48.673
-48.687
-48.636
-48.516
-48.322
-48.049
-47.694
-47.252
-46.719
-46.093
-45.369
-44.547
-43.623
-42.597
-41.47
-40.241
-38.914
-37.491
-35.975
-34.371
-32.686
-30.925
-29.096
-27.209
-25.271
-23.296
-21.294
-19.279
-17.263
-15.261
-13.285
-11.352
-9.473
-7.663
-5.934
-4.3
-2.774
-1.371
-0.106
1.005
1.947
2.708
3.274
3.635
3.782
3.713
3.426
2.92
2.191
1.232
0.038
-1.39
-3.051
-4.938
-7.038
-9.334
-11.798
-14.39
-17.072
-19.808
-22.565
-25.321
-28.047
-30.713
-33.281
-35.701
-37.931
-39.933
-41.671
-43.118
-44.26
-45.109
-45.708
-46.131
-46.445
-46.699
-46.947
-47.25
-47.69
-48.368
-49.395
-50.857
-52.866
-55.595
-59.128
-63.456
-68.431
-73.652
-78.674
-83.108
-86.481
-88.272
-88.18
-86.055
-82.154
-77.395
-72.661
-68.764
-66.59
-66.767
-69.639
-75.285
-82.857
-90.361
-95.57
-95.849
-88.436
-71.149
-41.613
2.322
61.517
135.5
221.312
313.382
406.473
496.44
582.065
664.134
738.956
797.44
824.421
804.451
732.157
613.902
467.081
310.817
157.563
12.869
-123.212
-249.027
-359.394
-448.528
-511.549
-547.269
-557.717
-545.929
-516.287
-474.307
-425.477
-375.132
-327.368
-284.659
-249.111
-222.328
-204.472
-194.469
-190.41
-189.746
-190.524
-191.376
-190.514
-186.443
-178.581
-166.914
-152.168
-135.628
-118.225
-100.82
-84.63
-70.522
-58.914
-50.015
-43.576
-39.133
-36.379
-34.893
-34.113
-33.684
-33.363
-32.983
-32.54
-32.038
-31.454
-30.841
-30.283
-29.833
-29.552
-29.456
-29.519
-29.711
-29.972
-30.249
-30.495
-30.668
-30.748
-30.724
-30.592
-30.346
-29.972
-29.434
-28.685
-27.665
-26.292
-24.518
-22.319
-19.719
-16.795
-13.63
-10.316
-6.926
-3.505
-0.09
3.296
6.642
9.948
13.204
16.394
19.485
22.419
25.161
27.694
30.034
32.237
34.368
36.505
38.717
41.055
43.559
46.255
49.154
52.256
55.556
59.052
62.751
66.676
70.843
75.262
79.928
84.822
89.913
95.163
100.534
105.99
111.498
117.036
122.584
128.131
133.666
139.183
144.669
150.107
155.475
160.754
165.924
170.967
175.868
180.613
185.191
189.592
193.804
197.816
201.613
205.182
208.508
211.574
214.365
216.867
219.069
220.96
222.53
223.772
224.679
225.246
225.467
225.34
224.86
224.025
222.832
221.282
219.374
217.112
214.499
211.539
208.239
204.607
200.652
196.386
191.819
186.965
181.838
176.452
170.822
164.967
158.902
152.647
146.221
139.644
132.937
126.122
119.219
112.251
105.239
98.206
91.171
84.158
77.185
70.276
63.449
56.726
50.125
43.666
37.366
31.242
25.31
19.584
14.077
8.8
3.763
-1.023
-5.553
-9.82
-13.818
-17.545
-20.997
-24.174
-27.076
-29.704
-32.063
-34.155
-35.986
-37.562
-38.891
-39.981
-40.841
-41.48
-41.909
-42.14
-42.184
-42.053
-41.76
-41.319
-40.743
-40.047
-39.243
-38.344
-37.365
-36.317
-35.213
-34.065
-32.884
-31.68
-30.465
-29.248
-28.037
-26.843
-25.673
-24.533
-23.432
-22.374
-21.366
-20.411
-19.513
-18.677
-17.905
-17.199
-16.561
-15.993
-15.495
-15.067
-14.709
-14.419
-14.196
-14.038
-13.942
-13.907
-13.928
-14.003
-14.129
-14.303
-14.521
-14.781
-15.079
-15.413
-15.78
-16.176
-16.598
-17.045
-17.513
-18.001
-18.505
-19.024
-19.557
-20.102
-20.656
-21.22
-21.792
-22.37
-22.955
-23.544
-24.138
-24.737
-25.339
-25.946
-26.558
-27.176
-27.799
-28.43
-29.069
-29.717
-30.375
-31.045
-31.727
-32.424
-33.135
-33.862
-34.606
-35.368
-36.149
-36.95
-37.771
-38.613
-39.476
-40.359
-41.264
-42.189
-43.133
-44.095
-45.074
-46.069
-47.077
-48.097
-49.127
-50.163
-51.203
-52.244
-53.281
-54.312
-55.332
-56.336
-57.319
-58.276
-59.202
-60.091
-60.936
-61.732
-62.471
-63.149
-63.758
-64.291
-64.743
-65.107
-65.376
-65.545
-65.608
-65.559
-65.394
-65.107
-64.697
-64.158
-63.49
-62.69
-61.756
-60.688
-59.487
-58.152
-56.687
-55.092
-53.374
-51.535
-49.582
-47.523
-45.365
-43.117
-40.791
-38.398
-35.951
-33.466
-30.957
-28.441
-25.934
-23.453
-21.018
-18.643
-16.345
-14.142
-12.047
-10.078
-8.249
-6.577
-5.077
-3.763
-2.647
-1.741
-1.054
-0.59
-0.354
-0.346
-0.57
-1.032
-1.736
-2.684
-3.877
-5.309
-6.971
-8.845
-10.902
-13.105
-15.41
-17.772
-20.152
-22.515
-24.825
-27.048
-29.143
-31.059
-32.746
-34.16
-35.266
-36.036
-36.456
-36.538
-36.335
-35.935
-35.44
-34.949
-34.529
-34.254
-34.216
-34.514
-35.267
-36.587
-38.56
-41.303
-44.974
-49.635
-55.197
-61.382
-67.663
-73.47
-78.352
-81.82
-83.277
-82.344
-79.06
-73.922
-68.011
-62.511
-58.075
-55.21
-54.65
-56.681
-60.746
-65.469
-68.274
-66.042
-56.586
-38.131
-8.256
35.022
92.522
164.009
245.813
331.384
415.805
495.491
569.533
639.509
702.267
748.632
764.436
735.575
657.305
536.944
392.176
242.011
98.663
-33.192
-154.902
-266.988
-365.953
-446.975
-505.838
-541.505
-556.271
-553.303
-535.588
-506.45
-469.552
-428.424
-386.118
-344.728
-305.312
-269.06
-237.67
-211.794
-191.129
-175.046
-162.523
-152.795
-145.517
-139.638
-133.35
-125.636
-116.212
-105.165
-93.126
-80.598
-67.82
-55.535
-44.944
-36.777
-31.313
-28.514
-27.924
-29.15
-31.931
-35.793
-40.1
-44.35
-48.189
-51.408
-53.972
-55.819
-56.868
-57.11
-56.586
-55.366
-53.529
-51.142
-48.261
-44.958
-41.331
-37.476
-33.491
-29.47
-25.504
-21.676
-18.075
-14.788
-11.869
-9.351
-7.25
-5.546
-4.218
-3.237
-2.559
-2.134
-1.913
-1.848
-1.892
-2.008
-2.152
-2.279
-2.343
-2.289
-2.077
-1.677
-1.064
-0.222
0.862
2.199
3.793
5.64
7.74
10.095
12.705
15.576
18.709
22.1
25.746
29.637
33.768
38.129
42.714
47.509
52.504
57.688
63.047
68.572
74.248
80.059
85.986
92.01
98.112
104.271
110.467
116.678
122.881
129.056
135.182
141.238
147.202
153.054
158.772
164.337
169.726
174.922
179.903
184.652
189.15
193.38
197.326
200.973
204.308
207.317
209.989
212.314
214.282
215.887
217.12
217.978
218.456
218.553
218.268
217.602
216.558
215.138
213.348
211.194
208.684
205.826
202.63
199.106
195.268
191.127
186.699
181.999
177.043
171.849
166.435
160.818
155.019
149.056
142.95
136.721
130.388
123.972
117.495
110.975
104.434
97.892
91.368
84.881
78.448
72.089
65.818
59.652
53.606
47.693
41.927
36.319
30.882
25.624
20.555
15.683
11.015
6.557
2.314
-1.711
-5.514
-9.095
-12.452
-15.585
-18.495
-21.183
-23.652
-25.905
-27.945
-29.779
-31.41
-32.846
-34.094
-35.161
-36.056
-36.785
-37.358
-37.784
-38.071
-38.227
-38.262
-38.185
-38.005
-37.731
-37.371
-36.936
-36.433
-35.872
-35.261
-34.61
-33.925
-33.215
-32.489
-31.754
-31.018
-30.289
-29.574
-28.882
-28.218
-27.59
-27.005
-26.467
-25.982
-25.554
-25.187
-24.885
-24.65
-24.485
-24.392
-24.372
-24.427
-24.557
-24.762
-25.042
-25.396
-25.823
-26.321
-26.888
-27.522
-28.219
-28.977
-29.792
-30.66
-31.577
-32.537
-33.537
-34.569
-35.628
-36.708
-37.802
-38.902
-40.002
-41.096
-42.176
-43.236
-44.271
-45.274
-46.24
-47.164
-48.041
-48.868
-49.64
-50.355
-51.009
-51.601
-52.128
-52.591
-52.988
-53.319
-53.584
-53.785
-53.922
-53.997
-54.013
-53.97
-53.873
-53.725
-53.529
-53.289
-53.011
-52.7
-52.361
-51.999
-51.621
-51.232
-50.838
-50.445
-50.058
-49.682
-49.322
-48.981
-48.665
-48.375
-48.116
-47.889
-47.695
-47.536
-47.413
-47.324
-47.269
-47.247
-47.255
-47.29
-47.351
-47.434
-47.534
-47.648
-47.771
-47.899
-48.025
-48.146
-48.254
-48.344
-48.41
-48.444
-48.442
-48.396
-48.3
-48.15
-47.938
-47.661
-47.315
-46.895
-46.399
-45.823
-45.166
-44.428
-43.608
-42.709
-41.731
-40.679
-39.558
-38.372
-37.128
-35.835
-34.5
-33.134
-31.747
-30.353
-28.963
-27.591
-26.252
-24.958
-23.724
-22.563
-21.488
-20.512
-19.645
-18.902
-18.294
-17.834
-17.534
-17.407
-17.461
-17.705
-18.146
-18.784
-19.619
-20.65
-21.878
-23.307
-24.941
-26.776
-28.808
-31.033
-33.435
-35.996
-38.684
-41.452
-44.255
-47.05
-49.797
-52.472
-55.046
-57.482
-59.745
-61.789
-63.572
-65.071
-66.26
-67.112
-67.624
-67.82
-67.768
-67.581
-67.375
-67.236
-67.226
-67.404
-67.845
-68.652
-69.925
-71.768
-74.236
-77.393
-81.383
-86.246
-91.866
-97.939
-103.856
-108.952
-112.751
-114.768
-114.445
-111.574
-106.273
-99.077
-91.331
-84.378
-79.074
-76.249
-76.526
-79.826
-85.496
-92.046
-96.532
-95.746
-87.087
-68.072
-36.587
8.708
68.368
141.639
224.193
309.329
391.258
464.865
528.994
584.96
629.379
655.53
652.961
610.103
524.085
398.149
240.02
64.183
-115.421
-281.558
-413.308
-499.665
-538.508
-539.623
-523.976
-505.236
-488.913
-474.005
-453.235
-425.407
-394.242
-363.279
-336.98
-316.712
-301.123
-289.359
-279.726
-269.819
-258.213
-244.344
-228.118
-210.095
-190.841
-170.437
-149.602
-129.811
-112.171
-97.332
-85.515
-76.421
-69.821
-65.797
-64.13
-64.24
-65.586
-67.635
-70.018
-72.638
-75.342
-77.858
-79.929
-81.333
-81.926
-81.678
-80.586
-78.631
-75.819
-72.183
-67.803
-62.814
-57.359
-51.575
-45.582
-39.469
-33.333
-27.284
-21.451
-15.966
-10.918
-6.35
-2.28
1.287
4.35
6.916
9.022
10.731
12.101
13.185
14.026
14.655
15.114
15.454
15.729
15.997
16.302
16.675
17.143
17.73
18.458
19.344
20.396
21.612
22.996
24.554
26.295
28.228
30.357
32.684
35.211
37.935
40.856
43.973
47.282
50.78
54.46
58.318
62.349
66.546
70.903
75.41
80.054
84.823
89.704
94.682
99.742
104.867
110.041
115.246
120.466
125.683
130.878
136.034
141.131
146.151
151.074
155.884
160.561
165.087
169.447
173.622
177.598
181.359
184.89
188.177
191.208
193.97
196.452
198.644
200.536
202.119
203.387
204.332
204.949
205.233
205.18
204.789
204.057
202.984
201.572
199.822
197.739
195.326
192.589
189.537
186.177
182.518
178.571
174.348
169.861
165.123
160.149
154.952
149.549
143.957
138.191
132.269
126.209
120.029
113.748
107.385
100.958
94.487
87.99
81.487
74.997
68.539
62.132
55.793
49.54
43.39
37.361
31.466
25.721
20.14
14.735
9.518
4.499
-0.311
-4.904
-9.271
-13.407
-17.306
-20.962
-24.373
-27.536
-30.449
-33.112
-35.526
-37.692
-39.613
-41.293
-42.737
-43.95
-44.938
-45.709
-46.271
-46.633
-46.804
-46.795
-46.616
-46.278
-45.792
-45.169
-44.42
-43.557
-42.591
-41.533
-40.394
-39.186
-37.919
-36.604
-35.252
-33.872
-32.475
-31.07
-29.666
-28.272
-26.897
-25.547
-24.23
-22.953
-21.721
-20.539
-19.412
-18.344
-17.337
-16.394
-15.516
-14.704
-13.958
-13.278
-12.664
-12.113
-11.626
-11.2
-10.833
-10.524
-10.269
-10.067
-9.913
-9.806
-9.742
-9.717
-9.728
-9.77
-9.842
-9.937
-10.054
-10.187
-10.333
-10.489
-10.65
-10.814
-10.977
-11.137
-11.292
-11.439
-11.578
-11.707
-11.826
-11.935
-12.034
-12.124
-12.204
-12.276
-12.341
-12.399
-12.452
-12.502
-12.549
-12.595
-12.642
-12.691
-12.746
-12.807
-12.876
-12.957
-13.051
-13.16
-13.287
-13.434
-13.603
-13.797
-14.018
-14.268
-14.547
-14.858
-15.202
-15.578
-15.987
-16.427
-16.899
-17.4
-17.928
-18.482
-19.059
-19.656
-20.27
-20.897
-21.534
-22.176
-22.819
-23.458
-24.088
-24.704
-25.3
-25.869
-26.406
-26.905
-27.359
-27.761
-28.105
-28.385
-28.595
-28.726
-28.774
-28.733
-28.597
-28.36
-28.018
-27.566
-27.001
-26.321
-25.523
-24.606
-23.569
-22.413
-21.138
-19.747
-18.243
-16.63
-14.912
-13.095
-11.188
-9.197
-7.134
-5.008
-2.832
-0.619
1.616
3.857
6.089
8.295
10.456
12.555
14.575
16.499
18.311
19.993
21.53
22.906
24.103
25.107
25.901
26.47
26.803
26.888
26.715
26.284
25.593
24.64
23.426
21.945
20.196
18.184
15.915
13.396
10.642
7.671
4.515
1.222
-2.167
-5.607
-9.061
-12.501
-15.892
-19.198
-22.378
-25.379
-28.164
-30.698
-32.944
-34.874
-36.465
-37.716
-38.679
-39.436
-40.065
-40.636
-41.188
-41.757
-42.429
-43.294
-44.461
-46.039
-48.08
-50.682
-54.013
-58.138
-63.007
-68.362
-73.655
-78.318
-81.928
-83.977
-83.917
-81.431
-76.462
-69.574
-61.986
-54.887
-49.247
-45.961
-45.82
-49.214
-55.846
-64.139
-71.335
-74.507
-70.781
-57.101
-30.58
11.038
69.24
142.191
226.211
318.959
415.958
514.394
611.139
695.455
758.316
790.366
782.81
738.768
663.599
565.047
452.385
326.993
189.714
41.068
-112.902
-257.079
-377.274
-459.982
-502.676
-515.49
-507.953
-490.479
-468.465
-439.767
-404.925
-365.486
-323.64
-284.04
-249.574
-221.688
-200.888
-186.071
-175.881
-169.05
-164.457
-161.346
-158.566
-154.412
-147.911
-138.845
-127.428
-114.429
-100.51
-86.101
-72.057
-59.597
-49.472
-42.004
-37.185
-34.568
-33.758
-34.483
-36.264
-38.509
-40.785
-42.77
-44.299
-45.377
-45.971
-46.006
-45.436
-44.25
-42.464
-40.126
-37.286
-33.987
-30.291
-26.28
-22.051
-17.695
-13.296
-8.929
-4.644
-0.493
3.471
7.192
10.605
13.657
16.331
18.625
20.556
22.147
23.425
24.424
25.192
25.777
26.22
26.554
26.803
26.996
27.165
27.35
27.597
27.945
28.419
29.042
29.832
30.804
31.972
33.341
34.912
36.684
38.661
40.848
43.253
45.879
48.725
51.79
55.068
58.554
62.244
66.13
70.203
74.455
78.874
83.453
88.18
93.046
98.036
103.135
108.325
113.591
118.915
124.277
129.659
135.041
140.404
145.728
150.994
156.183
161.273
166.247
171.082
175.76
180.262
184.567
188.657
192.513
196.118
199.455
202.507
205.26
207.698
209.809
211.579
212.999
214.057
214.745
215.057
214.986
214.528
213.68
212.442
210.813
208.794
206.389
203.602
200.439
196.908
193.016
188.773
184.193
179.286
174.069
168.555
162.763
156.71
150.416
143.9
137.185
130.292
123.244
116.065
108.779
101.41
93.984
86.524
79.057
71.605
64.195
56.848
49.589
42.44
35.421
28.554
21.857
15.35
9.049
2.971
-2.87
-8.461
-13.79
-18.846
-23.621
-28.108
-32.3
-36.194
-39.786
-43.076
-46.063
-48.75
-51.14
-53.237
-55.048
-56.58
-57.841
-58.842
-59.594
-60.109
-60.399
-60.479
-60.363
-60.065
-59.601
-58.986
-58.236
-57.366
-56.391
-55.328
-54.191
-52.995
-51.754
-50.482
-49.191
-47.893
-46.601
-45.326
-44.076
-42.863
-41.694
-40.577
-39.52
-38.529
-37.609
-36.764
-35.999
-35.317
-34.718
-34.205
-33.777
-33.434
-33.176
-33
-32.903
-32.883
-32.936
-33.058
-33.244
-33.488
-33.787
-34.134
-34.524
-34.952
-35.412
-35.901
-36.413
-36.944
-37.49
-38.047
-38.611
-39.178
-39.746
-40.312
-40.872
-41.425
-41.969
-42.501
-43.02
-43.525
-44.014
-44.487
-44.942
-45.378
-45.795
-46.192
-46.57
-46.928
-47.268
-47.59
-47.897
-48.19
-48.473
-48.747
-49.014
-49.277
-49.538
-49.797
-50.057
-50.318
-50.582
-50.849
-51.12
-51.396
-51.679
-51.968
-52.264
-52.566
-52.874
-53.188
-53.508
-53.831
-54.158
-54.486
-54.817
-55.153
-55.496
-55.848
-56.207
-56.57
-56.935
-57.299
-57.658
-58.008
-58.342
-58.652
-58.937
-59.195
-59.431
-59.643
-59.828
-59.982
-60.098
-60.176
-60.22
-60.234
-60.219
-60.174
-60.095
-59.986
-59.851
-59.69
-59.498
-59.264
-58.967
-58.6
-58.154
-57.628
-57.029
-56.352
-55.574
-54.663
-53.584
-52.33
-50.938
-49.456
-47.927
-46.365
-44.758
-43.154
-41.667
-40.333
-39.06
-37.581
-35.593
-33.023
-30.075
-27.019
-23.951
-20.916
-18.138
-16.285
-16.146
-18.03
-21.555
-25.759
-29.925
-33.745
-36.81
-38.15
-36.619
-31.498
-22.996
-12.559
-1.47
9.655
20.205
29.219
35.58
38.248
36.846
32.381
25.92
18.008
9.191
0.058
-8.848
-16.963
-23.845
-29.882
-35.715
-41.711
-48.311
-55.989
-64.741
-74.161
-83.975
-93.574
-102.023
-108.715
-112.902
-113.521
-110.221
-103.381
-93.438
-81.345
-68.455
-55.631
-43.902
-34.751
-29.208
-27.897
-31.157
-38.374
-48.334
-60.138
-72.732
-84.839
-95.398
-103.218
-107.254
-107.45
-104.585
-99.606
-93.744
-88.139
-83.399
-80.29
-79.789
-82.058
-86.186
-90.527
-92.583
-89.732
-80.162
-62.008
-32.839
9.068
64.172
131.726
209.266
293.183
379.789
464.569
541.654
604.964
648.97
668.813
660.788
624.234
561.138
474.388
369.108
247.186
106.251
-50.193
-214.437
-370.854
-495.976
-577.625
-613.601
-611.047
-585.762
-545.249
-493.673
-436.102
-377.763
-329.671
-299.724
-287.38
-285.52
-283.946
-276.369
-263.257
-249.829
-240.1
-234.642
-231.121
-225.587
-216.37
-203.942
-189.223
-173.588
-157.991
-142.988
-129.614
-118.785
-110.777
-105.638
-103.135
-102.812
-104.32
-107.231
-110.914
-114.896
-118.895
-122.67
-126.082
-129.008
-131.258
-132.742
-133.467
-133.42
-132.611
-131.058
-128.77
-125.819
-122.318
-118.377
-114.112
-109.615
-104.96
-100.243
-95.577
-91.075
-86.847
-82.966
-79.463
-76.369
-73.694
-71.434
-69.572
-68.068
-66.866
-65.919
-65.18
-64.611
-64.179
-63.842
-63.55
-63.253
-62.897
-62.441
-61.855
-61.109
-60.179
-59.048
-57.702
-56.135
-54.347
-52.336
-50.094
-47.616
-44.894
-41.923
-38.701
-35.229
-31.507
-27.539
-23.327
-18.875
-14.19
-9.278
-4.146
1.198
6.747
12.49
18.415
24.508
30.753
37.133
43.63
50.227
56.902
63.635
70.405
77.191
83.973
90.729
97.436
104.072
110.617
117.047
123.342
129.479
135.438
141.199
146.743
152.05
157.103
161.885
166.381
170.576
174.457
178.011
181.228
184.098
186.612
188.762
190.544
191.951
192.981
193.631
193.902
193.794
193.31
192.456
191.236
189.658
187.73
185.465
182.872
179.966
176.759
173.269
169.51
165.502
161.26
156.806
152.157
147.333
142.355
137.243
132.016
126.696
121.302
115.856
110.376
104.884
99.399
93.941
88.53
83.183
77.92
72.758
67.714
62.803
58.04
53.438
49.009
44.765
40.714
36.864
33.223
29.795
26.587
23.603
20.843
18.305
15.988
13.889
12.009
10.348
8.897
7.645
6.601
5.769
5.151
4.754
4.559
4.534
4.688
5.034
5.513
6.082
6.702
7.318
7.957
8.679
9.433
10.135
10.966
12.137
13.505
15.074
16.876
18.423
21.003
25.87
31.215
36.485
38.361
32.875
24.408
15.876
11.627
17.632
28.598
40.041
48.885
50.056
47.175
43.914
41.08
40.906
42.089
42.956
43.829
44.491
45.045
45.821
46.591
47.173
47.628
47.961
48.142
48.17
48.054
47.811
47.493
47.152
46.775
46.341
45.842
45.282
44.685
44.093
43.542
43.042
42.578
42.13
41.696
41.295
40.976
40.714
40.396
39.978
39.535
39.311
39.609
40.509
41.789
43.173
44.544
45.813
46.791
46.818
44.957
40.757
34.428
26.762
18.605
10.443
2.633
-3.838
-7.547
-7.552
-3.621
3.228
11.426
20.085
28.717
36.412
41.961
44.289
42.64
37.716
31.105
23.723
16.064
8.646
1.945
-3.346
-6.423
-7.499
-7.519
-7.052
-6.458
-5.898
-5.291
-4.826
-4.909
-5.551
-6.453
-7.404
-8.214
-8.85
-9.461
-10.073
-10.612
-11.054
-11.41
-11.702
-11.984
-12.263
-12.495
-12.651
-12.711
-12.664
-12.523
-12.29
-11.961
-11.529
-10.984
-10.324
-9.552
-8.676
-7.705
-6.647
-5.507
-4.296
-3.025
-1.707
-0.356
1.015
2.403
3.798
5.193
6.577
7.939
9.266
10.548
11.771
12.923
13.991
14.964
15.83
16.576
17.191
17.665
17.99
18.157
18.157
17.979
17.608
17.035
16.261
15.287
14.12
12.769
11.25
9.582
7.803
5.944
4.04
2.122
0.213
-1.663
-3.474
-5.189
-6.774
-8.203
-9.464
-10.552
-11.46
-12.195
-12.78
-13.249
-13.677
-14.137
-14.697
-15.441
-16.436
-17.742
-19.42
-21.505
-24.028
-27.036
-30.55
-34.586
-39.18
-44.293
-49.898
-56.02
-62.503
-69.076
-75.386
-80.841
-84.881
-87.181
-87.281
-84.647
-79.226
-71.184
-61.064
-50.164
-39.526
-29.722
-21.602
-15.909
-12.558
-11.13
-10.387
-7.69
-0.73
12.209
33.134
63.963
105.82
158.999
222.69
292.799
363.253
430.577
491.769
545.08
592.226
627.456
639.64
620.938
562.948
467.718
348.206
212.536
68.312
-78.689
-224.828
-356.612
-458.701
-522.141
-546.001
-542.014
-524.094
-500.508
-474.314
-442.224
-402.157
-356.776
-310.076
-267.396
-232.839
-207.22
-189.927
-179.855
-175.433
-174.847
-176.591
-178.764
-178.857
-175.46
-168.059
-156.467
-141.361
-123.775
-104.515
-84.85
-66.478
-50.404
-37.172
-27.064
-19.787
-14.971
-12.34
-11.36
-11.394
-12.073
-13.142
-14.431
-15.921
-17.527
-19.116
-20.618
-21.955
-23.004
-23.668
-23.868
-23.552
-22.734
-21.46
-19.778
-17.733
-15.365
-12.717
-9.847
-6.82
-3.695
-0.536
2.587
5.589
8.369
10.856
13.013
14.834
16.334
17.535
18.46
19.144
19.629
19.953
20.155
20.266
20.312
20.33
20.361
20.455
20.665
21.034
21.591
22.357
23.344
24.563
26.02
27.715
29.638
31.784
34.152
36.742
39.554
42.588
45.834
49.286
52.932
56.762
60.765
64.929
69.242
73.69
78.261
82.942
87.723
92.588
97.523
102.511
107.534
112.575
117.614
122.634
127.615
132.536
137.38
142.127
146.759
151.259
155.609
159.795
163.801
167.613
171.218
174.605
177.759
180.667
183.317
185.694
187.785
189.576
191.057
192.218
193.052
193.553
193.717
193.544
193.034
192.184
190.99
189.447
187.552
185.308
182.723
179.812
176.596
173.101
169.359
165.4
161.253
156.935
152.455
147.811
142.999
138.013
132.859
127.555
122.117
116.558
110.883
105.095
99.181
93.12
86.881
80.423
73.725
66.783
59.622
52.295
44.87
37.425
30.026
22.718
15.542
8.537
1.742
-4.802
-11.041
-16.914
-22.341
-27.23
-31.508
-35.133
-38.095
-40.429
-42.193
-43.469
-44.329
-44.83
-45.021
-44.94
-44.622
-44.101
-43.415
-42.608
-41.742
-40.897
-40.141
-39.526
-39.074
-38.778
-38.61
-38.52
-38.465
-38.41
-38.328
-38.208
-38.043
-37.833
-37.58
-37.289
-36.955
-36.556
-36.077
-35.503
-34.835
-34.083
-33.269
-32.424
-31.575
-30.75
-29.969
-29.246
-28.587
-27.995
-27.468
-26.998
-26.584
-26.225
-25.926
-25.689
-25.517
-25.407
-25.358
-25.364
-25.421
-25.524
-25.666
-25.845
-26.059
-26.306
-26.587
-26.904
-27.259
-27.65
-28.078
-28.539
-29.032
-29.553
-30.098
-30.664
-31.248
-31.845
-32.454
-33.073
-33.701
-34.335
-34.974
-35.618
-36.265
-36.915
-37.568
-38.223
-38.88
-39.538
-40.197
-40.857
-41.517
-42.178
-42.838
-43.497
-44.155
-44.81
-45.462
-46.11
-46.754
-47.395
-48.031
-48.664
-49.295
-49.924
-50.554
-51.184
-51.818
-52.455
-53.098
-53.747
-54.403
-55.066
-55.736
-56.413
-57.095
-57.783
-58.475
-59.169
-59.863
-60.555
-61.243
-61.925
-62.599
-63.262
-63.913
-64.548
-65.166
-65.764
-66.34
-66.891
-67.414
-67.906
-68.366
-68.788
-69.171
-69.511
-69.804
-70.047
-70.237
-70.371
-70.443
-70.453
-70.396
-70.27
-70.072
-69.802
-69.457
-69.037
-68.542
-67.972
-67.327
-66.61
-65.82
-64.961
-64.034
-63.044
-61.993
-60.887
-59.729
-58.526
-57.285
-56.014
-54.721
-53.415
-52.102
-50.795
-49.503
-48.236
-47.004
-45.816
-44.684
-43.618
-42.629
-41.731
-40.933
-40.245
-39.679
-39.245
-38.954
-38.817
-38.839
-39.024
-39.375
-39.895
-40.588
-41.464
-42.522
-43.758
-45.167
-46.744
-48.477
-50.353
-52.348
-54.421
-56.532
-58.641
-60.715
-62.73
-64.657
-66.465
-68.121
-69.584
-70.826
-71.827
-72.565
-73.024
-73.198
-73.09
-72.739
-72.228
-71.659
-71.128
-70.732
-70.528
-70.562
-70.901
-71.619
-72.808
-74.556
-76.921
-79.929
-83.636
-88.157
-93.483
-99.432
-105.591
-111.274
-115.831
-118.812
-119.763
-118.122
-113.619
-106.325
-96.81
-86.504
-76.782
-68.466
-62.335
-59.045
-58.688
-60.838
-64.113
-65.438
-61.605
-50.228
-28.695
5.325
53.43
117.001
194.171
278.678
364.662
446.935
524.596
602.127
677.951
744.63
787.468
785.319
728.298
617.369
462.177
282.844
95.89
-84.557
-241.812
-365.348
-449.288
-494.641
-513.86
-519.282
-517.739
-510.571
-493.11
-463.088
-423.277
-378.616
-335.096
-296.065
-262.586
-235.705
-215.287
-200.518
-190.486
-183.715
-179.014
-175.85
-173.187
-169.292
-163.195
-154.716
-144.112
-132.235
-119.791
-107.076
-94.808
-84.157
-75.82
-70.099
-66.966
-65.933
-66.576
-68.634
-71.658
-75.078
-78.473
-81.495
-83.93
-85.744
-86.858
-87.2
-86.771
-85.591
-83.709
-81.189
-78.093
-74.483
-70.448
-66.087
-61.491
-56.743
-51.917
-47.104
-42.395
-37.879
-33.65
-29.76
-26.244
-23.131
-20.425
-18.109
-16.163
-14.547
-13.21
-12.112
-11.213
-10.474
-9.864
-9.345
-8.875
-8.409
-7.901
-7.309
-6.605
-5.76
-4.754
-3.573
-2.204
-0.64
1.116
3.068
5.22
7.577
10.145
12.929
15.929
19.146
22.577
26.217
30.065
34.116
38.362
42.798
47.415
52.206
57.164
62.278
67.536
72.923
78.425
84.023
89.702
95.442
101.224
107.028
112.834
118.623
124.375
130.069
135.687
141.208
146.611
151.878
156.987
161.921
166.659
171.184
175.477
179.522
183.3
186.798
189.999
192.89
195.458
197.69
199.577
201.11
202.28
203.081
203.508
203.559
203.232
202.525
201.442
199.985
198.158
195.967
193.419
190.522
187.287
183.725
179.846
175.665
171.197
166.457
161.461
156.227
150.774
145.121
139.289
133.298
127.17
120.927
114.593
108.188
101.738
95.264
88.789
82.335
75.924
69.578
63.317
57.16
51.125
45.232
39.495
33.932
28.556
23.38
18.418
13.679
9.175
4.912
0.899
-2.858
-6.354
-9.585
-12.548
-15.242
-17.665
-19.819
-21.706
-23.33
-24.694
-25.804
-26.669
-27.294
-27.689
-27.864
-27.829
-27.593
-27.168
-26.566
-25.798
-24.876
-23.812
-22.619
-21.307
-19.89
-18.379
-16.786
-15.122
-13.398
-11.624
-9.813
-7.973
-6.116
-4.252
-2.391
-0.543
1.283
3.078
4.832
6.539
8.191
9.782
11.305
12.756
14.13
15.424
16.633
17.755
18.788
19.73
20.58
21.337
22.002
22.573
23.053
23.442
23.74
23.95
24.071
24.107
24.058
23.926
23.713
23.421
23.055
22.617
22.111
21.541
20.912
20.228
19.493
18.713
17.892
17.033
16.141
15.221
14.275
13.309
12.326
11.328
10.319
9.302
8.278
7.251
6.22
5.188
4.155
3.122
2.091
1.063
0.038
-0.983
-1.997
-3.006
-4.007
-5
-5.985
-6.962
-7.931
-8.893
-9.848
-10.797
-11.74
-12.678
-13.612
-14.542
-15.468
-16.392
-17.313
-18.231
-19.147
-20.059
-20.966
-21.868
-22.761
-23.643
-24.511
-25.362
-26.191
-26.996
-27.771
-28.513
-29.217
-29.88
-30.496
-31.062
-31.573
-32.025
-32.413
-32.734
-32.984
-33.158
-33.253
-33.266
-33.194
-33.032
-32.778
-32.429
-31.984
-31.44
-30.796
-30.05
-29.204
-28.256
-27.21
-26.067
-24.831
-23.507
-22.1
-20.616
-19.064
-17.451
-15.787
-14.082
-12.348
-10.596
-8.841
-7.096
-5.375
-3.694
-2.065
-0.505
0.973
2.358
3.635
4.795
5.826
6.716
7.452
8.026
8.425
8.638
8.658
8.475
8.086
7.492
6.695
5.697
4.502
3.106
1.511
-0.276
-2.251
-4.406
-6.727
-9.198
-11.787
-14.449
-17.14
-19.819
-22.448
-24.999
-27.443
-29.743
-31.865
-33.771
-35.424
-36.802
-37.881
-38.63
-39.036
-39.114
-38.927
-38.575
-38.16
-37.765
-37.442
-37.262
-37.326
-37.74
-38.6
-39.973
-41.887
-44.423
-47.774
-52.036
-57.108
-62.716
-68.348
-73.5
-77.813
-80.799
-81.743
-80.226
-76.345
-70.607
-64.082
-57.944
-53.13
-50.796
-52.362
-57.338
-63.018
-66.745
-66.334
-63.574
-63.183
-65.27
-63.093
-42.808
9.805
99.492
218.106
346.744
466.637
565.311
637.302
683.822
704.974
699.08
665.861
604.408
515.162
398.76
255.52
90.631
-83.896
-248.493
-383.142
-476.273
-527.754
-549.497
-555.125
-552.369
-543.234
-524.67
-495.822
-460.447
-423.596
-390.374
-363.276
-342.441
-327.432
-316.863
-308.656
-300.357
-289.876
-276.295
-259.585
-239.964
-217.589
-192.899
-167.016
-141.656
-118.34
-97.892
-80.593
-66.477
-55.669
-48.234
-43.911
-42.095
-42.125
-43.535
-46.041
-49.474
-53.637
-58.26
-63.076
-67.902
-72.599
-77.025
-81.035
-84.457
-87.118
-88.935
-89.897
-90.036
-89.431
-88.16
-86.29
-83.91
-81.106
-77.965
-74.593
-71.075
-67.48
-63.886
-60.367
-57.002
-53.892
-51.094
-48.624
-46.48
-44.638
-43.068
-41.749
-40.643
-39.702
-38.883
-38.143
-37.449
-36.776
-36.088
-35.345
-34.501
-33.506
-32.322
-30.927
-29.306
-27.447
-25.346
-22.999
-20.408
-17.587
-14.542
-11.279
-7.799
-4.104
-0.197
3.913
8.214
12.698
17.351
22.164
27.126
32.224
37.446
42.782
48.221
53.753
59.365
65.043
70.773
76.536
82.316
88.095
93.855
99.575
105.237
110.822
116.312
121.688
126.932
132.027
136.954
141.696
146.235
150.554
154.636
158.464
162.024
165.299
168.277
170.944
173.289
175.299
176.967
178.281
179.235
179.822
180.036
179.871
179.325
178.396
177.084
175.39
173.316
170.867
168.049
164.869
161.337
157.461
153.252
148.723
143.887
138.759
133.354
127.69
121.785
115.658
109.331
102.824
96.16
89.36
82.446
75.442
68.369
61.25
54.108
46.967
39.847
32.773
25.766
18.847
12.037
5.357
-1.175
-7.541
-13.724
-19.708
-25.479
-31.023
-36.326
-41.378
-46.167
-50.685
-54.923
-58.875
-62.536
-65.902
-68.973
-71.747
-74.225
-76.41
-78.303
-79.91
-81.234
-82.282
-83.06
-83.576
-83.837
-83.853
-83.634
-83.192
-82.535
-81.678
-80.631
-79.406
-78.015
-76.47
-74.785
-72.971
-71.04
-69.007
-66.884
-64.685
-62.422
-60.109
-57.758
-55.381
-52.99
-50.596
-48.209
-45.839
-43.495
-41.186
-38.92
-36.707
-34.552
-32.463
-30.446
-28.508
-26.651
-24.882
-23.203
-21.617
-20.128
-18.736
-17.444
-16.254
-15.166
-14.181
-13.299
-12.52
-11.842
-11.263
-10.781
-10.391
-10.09
-9.874
-9.737
-9.675
-9.683
-9.756
-9.888
-10.073
-10.306
-10.58
-10.891
-11.232
-11.598
-11.982
-12.38
-12.788
-13.2
-13.613
-14.022
-14.423
-14.813
-15.187
-15.543
-15.876
-16.183
-16.46
-16.705
-16.915
-17.088
-17.224
-17.321
-17.378
-17.397
-17.377
-17.32
-17.226
-17.099
-16.939
-16.749
-16.532
-16.29
-16.026
-15.743
-15.444
-15.129
-14.802
-14.464
-14.114
-13.755
-13.385
-13.005
-12.616
-12.215
-11.803
-11.379
-10.943
-10.493
-10.03
-9.55
-9.053
-8.537
-7.999
-7.438
-6.85
-6.233
-5.583
-4.897
-4.17
-3.398
-2.576
-1.7
-0.764
0.236
1.304
2.445
3.661
4.956
6.33
7.785
9.319
10.931
12.619
14.38
16.209
18.1
20.049
22.048
24.09
26.167
28.269
30.385
32.503
34.612
36.699
38.751
40.754
42.694
44.56
46.338
48.017
49.583
51.023
52.321
53.463
54.435
55.225
55.823
56.219
56.407
56.389
56.165
55.738
55.109
54.274
53.231
51.98
50.525
48.869
47.024
45.006
42.84
40.561
38.203
35.799
33.377
30.958
28.564
26.225
23.978
21.866
19.935
18.227
16.776
15.627
14.799
14.277
14.024
13.974
14.064
14.264
14.529
14.787
14.958
14.93
14.585
13.846
12.576
10.574
7.751
4.129
-0.069
-4.335
-8.147
-11.107
-12.724
-12.473
-10.121
-5.755
-0.047
5.676
10.112
12.29
11.32
6.444
-2.475
-14.802
-28.747
-41.317
-49.222
-49.374
-38.744
-14.502
25.198
81.248
153.095
237.999
332.078
429.564
522.539
604.58
670.552
717.766
747.438
756.575
739.704
690.143
598.772
466.711
302.88
122.761
-50.03
-198.471
-311.834
-387.871
-436.775
-467.3
-484.493
-490.009
-477.193
-442.71
-392.846
-334.635
-279.243
-236.109
-202.531
-176.5
-155.8
-135.962
-119.988
-109.714
-104.128
-104.218
-107.683
-111.44
-114.269
-114.507
-111.512
-105.867
-97.92
-87.914
-76.418
-64.176
-52.098
-41.361
-32.689
-26.156
-21.646
-18.911
-17.635
-17.578
-18.394
-19.57
-20.763
-21.831
-22.714
-23.484
-24.199
-24.817
-25.321
-25.701
-25.907
-25.926
-25.754
-25.365
-24.766
-23.972
-22.986
-21.841
-20.582
-19.233
-17.817
-16.34
-14.796
-13.208
-11.615
-10.064
-8.613
-7.293
-6.114
-5.08
-4.186
-3.424
-2.783
-2.238
-1.755
-1.307
-0.874
-0.442
-0
0.472
1.004
1.631
2.392
3.318
4.427
5.738
7.263
9.012
10.989
13.192
15.612
18.245
21.088
24.138
27.397
30.859
34.517
38.36
42.379
46.56
50.894
55.366
59.965
64.677
69.489
74.389
79.365
84.405
89.493
94.613
99.749
104.884
110
115.08
120.105
125.058
129.921
134.676
139.306
143.795
148.126
152.281
156.245
160.002
163.535
166.829
169.871
172.645
175.139
177.339
179.236
180.817
182.074
182.999
183.584
183.824
183.714
183.251
182.432
181.258
179.728
177.844
175.609
173.027
170.105
166.848
163.265
159.366
155.162
150.665
145.889
140.848
135.558
130.038
124.304
118.377
112.275
106.02
99.634
93.138
86.554
79.906
73.216
66.506
59.8
53.12
46.486
39.92
33.443
27.074
20.832
14.735
8.801
3.046
-2.513
-7.862
-12.987
-17.875
-22.515
-26.896
-31.009
-34.845
-38.401
-41.674
-44.66
-47.359
-49.771
-51.9
-53.749
-55.324
-56.627
-57.664
-58.442
-58.969
-59.254
-59.309
-59.143
-58.767
-58.193
-57.434
-56.507
-55.423
-54.191
-52.819
-51.312
-49.686
-47.964
-46.167
-44.31
-42.411
-40.487
-38.557
-36.65
-34.777
-32.936
-31.125
-29.337
-27.578
-25.865
-24.213
-22.636
-21.135
-19.691
-18.299
-16.964
-15.675
-14.42
-13.177
-11.909
-10.615
-9.335
-8.099
-6.939
-5.87
-4.88
-3.97
-3.146
-2.417
-1.806
-1.322
-0.956
-0.72
-0.644
-0.76
-1.117
-1.714
-2.497
-3.425
-4.459
-5.576
-6.774
-8.041
-9.346
-10.672
-12.003
-13.331
-14.662
-15.979
-17.247
-18.428
-19.476
-20.383
-21.184
-21.901
-22.55
-23.144
-23.678
-24.164
-24.624
-25.066
-25.486
-25.878
-26.231
-26.548
-26.851
-27.154
-27.475
-27.819
-28.17
-28.52
-28.867
-29.207
-29.539
-29.86
-30.158
-30.431
-30.689
-30.938
-31.186
-31.436
-31.682
-31.924
-32.16
-32.393
-32.624
-32.854
-33.082
-33.308
-33.532
-33.754
-33.975
-34.192
-34.399
-34.591
-34.765
-34.914
-35.037
-35.128
-35.182
-35.195
-35.163
-35.082
-34.949
-34.758
-34.506
-34.186
-33.798
-33.336
-32.797
-32.18
-31.481
-30.699
-29.833
-28.882
-27.846
-26.726
-25.524
-24.243
-22.888
-21.463
-19.977
-18.438
-16.856
-15.242
-13.608
-11.966
-10.329
-8.711
-7.126
-5.589
-4.112
-2.71
-1.398
-0.191
0.897
1.85
2.656
3.303
3.776
4.063
4.151
4.031
3.696
3.144
2.37
1.369
0.132
-1.339
-3.04
-4.961
-7.093
-9.426
-11.945
-14.627
-17.431
-20.315
-23.234
-26.152
-29.038
-31.857
-34.57
-37.133
-39.497
-41.632
-43.519
-45.141
-46.483
-47.527
-48.264
-48.726
-48.987
-49.145
-49.295
-49.52
-49.877
-50.423
-51.243
-52.427
-54.056
-56.176
-58.819
-61.995
-65.785
-70.341
-75.657
-81.571
-87.74
-93.565
-98.43
-101.819
-103.077
-101.485
-96.779
-88.963
-78.456
-66.67
-55.295
-45.849
-40.03
-37.982
-37.802
-38.023
-37.667
-38.146
-42.555
-49.502
-51.782
-35.773
12.384
97.258
212.407
340.86
464.149
570.304
653.74
714.034
750.287
758.884
736.711
682.827
599.228
490.108
357.607
203.374
33.553
-140.628
-300.437
-426.701
-510.179
-552.622
-566.322
-565.588
-558.14
-545.001
-523.139
-491.36
-452.325
-410.404
-370.002
-333.124
-300.172
-271.877
-248.357
-229.145
-213.535
-200.502
-189.594
-180.834
-173.892
-167.675
-160.89
-152.927
-143.871
-134.144
-124.065
-113.741
-103.356
-93.597
-85.481
-79.581
-75.974
-74.453
-74.643
-76.254
-79.075
-82.688
-86.472
-89.972
-92.904
-95.109
-96.58
-97.3
-97.212
-96.335
-94.756
-92.557
-89.833
-86.67
-83.121
-79.268
-75.203
-71.011
-66.789
-62.635
-58.63
-54.862
-51.414
-48.335
-45.655
-43.39
-41.524
-40.036
-38.899
-38.068
-37.495
-37.133
-36.935
-36.859
-36.865
-36.907
-36.937
-36.908
-36.768
-36.477
-36.005
-35.325
-34.42
-33.279
-31.89
-30.25
-28.363
-26.227
-23.841
-21.205
-18.315
-15.17
-11.774
-8.132
-4.251
-0.141
4.192
8.738
13.485
18.421
23.534
28.812
34.241
39.807
45.493
51.28
57.148
63.077
69.046
75.035
81.02
86.98
92.894
98.742
104.504
110.16
115.692
121.078
126.303
131.347
136.193
140.825
145.225
149.378
153.27
156.886
160.213
163.24
165.954
168.345
170.406
172.127
173.503
174.528
175.198
175.509
175.461
175.054
174.288
173.167
171.694
169.873
167.711
165.215
162.392
159.252
155.803
152.056
148.023
143.715
139.146
134.329
129.279
124.012
118.543
112.891
107.072
101.104
95.007
88.8
82.503
76.136
69.719
63.272
56.817
50.373
43.959
37.595
31.3
25.092
18.989
13.007
7.162
1.471
-4.053
-9.396
-14.545
-19.487
-24.212
-28.71
-32.971
-36.988
-40.753
-44.26
-47.503
-50.48
-53.187
-55.621
-57.784
-59.674
-61.295
-62.65
-63.742
-64.578
-65.164
-65.507
-65.615
-65.498
-65.165
-64.625
-63.89
-62.97
-61.877
-60.623
-59.22
-57.679
-56.014
-54.236
-52.359
-50.394
-48.354
-46.25
-44.096
-41.902
-39.681
-37.444
-35.203
-32.968
-30.751
-28.561
-26.408
-24.301
-22.247
-20.253
-18.327
-16.473
-14.698
-13.006
-11.401
-9.886
-8.463
-7.136
-5.906
-4.772
-3.737
-2.799
-1.957
-1.21
-0.558
0.004
0.475
0.86
1.161
1.381
1.523
1.593
1.593
1.529
1.404
1.224
0.994
0.718
0.4
0.045
-0.343
-0.759
-1.2
-1.662
-2.141
-2.634
-3.138
-3.649
-4.165
-4.684
-5.202
-5.72
-6.234
-6.745
-7.251
-7.751
-8.246
-8.735
-9.217
-9.694
-10.165
-10.632
-11.095
-11.555
-12.013
-12.471
-12.93
-13.392
-13.857
-14.327
-14.803
-15.285
-15.774
-16.272
-16.777
-17.291
-17.813
-18.343
-18.88
-19.424
-19.973
-20.524
-21.077
-21.628
-22.176
-22.718
-23.25
-23.769
-24.271
-24.753
-25.211
-25.641
-26.037
-26.396
-26.711
-26.98
-27.196
-27.356
-27.455
-27.489
-27.455
-27.348
-27.165
-26.905
-26.563
-26.14
-25.634
-25.045
-24.374
-23.624
-22.797
-21.899
-20.936
-19.915
-18.841
-17.725
-16.574
-15.4
-14.212
-13.021
-11.838
-10.674
-9.543
-8.458
-7.434
-6.485
-5.624
-4.866
-4.225
-3.716
-3.354
-3.15
-3.111
-3.246
-3.563
-4.072
-4.785
-5.709
-6.841
-8.18
-9.722
-11.46
-13.383
-15.471
-17.689
-20
-22.374
-24.78
-27.2
-29.609
-31.975
-34.265
-36.441
-38.47
-40.336
-42.02
-43.497
-44.758
-45.804
-46.656
-47.383
-48.064
-48.764
-49.551
-50.472
-51.55
-52.848
-54.439
-56.393
-58.8
-61.713
-65.152
-69.198
-73.954
-79.418
-85.468
-91.768
-97.764
-102.946
-106.902
-109.163
-109.231
-106.771
-101.711
-94.504
-86.155
-77.747
-70.163
-64.2
-60.637
-59.882
-61.776
-65.242
-68.156
-67.901
-61.899
-47.629
-22.487
15.508
67.438
133.053
210.291
295.781
385.309
473.854
555.299
623.263
671.541
694.813
690.782
659.669
602.425
520.325
412.524
277.573
119.459
-51.197
-216.299
-355.876
-458.223
-522.99
-560.429
-582.496
-595.612
-599.307
-587.711
-558.425
-513.97
-459.262
-401.334
-344.772
-291.768
-245.091
-206.848
-177.694
-157.711
-145.922
-140.442
-139.862
-142.63
-146.202
-148.179
-147.179
-142.601
-134.712
-124.375
-112.278
-99.225
-86.574
-75.703
-67.445
-62.117
-59.537
-59.216
-60.709
-63.585
-67.226
-70.94
-74.243
-76.848
-78.629
-79.591
-79.738
-79.056
-77.598
-75.476
-72.778
-69.592
-65.999
-62.055
-57.844
-53.466
-49.005
-44.551
-40.193
-36.004
-32.067
-28.465
-25.249
-22.447
-20.075
-18.119
-16.557
-15.362
-14.49
-13.89
-13.514
-13.313
-13.243
-13.269
-13.348
-13.438
-13.494
-13.466
-13.315
-13.012
-12.528
-11.844
-10.946
-9.819
-8.456
-6.858
-5.02
-2.94
-0.613
1.968
4.808
7.905
11.259
14.865
18.718
22.813
27.144
31.7
36.472
41.449
46.621
51.977
57.504
63.187
69.009
74.951
80.996
87.123
93.311
99.538
105.782
112.022
118.234
124.396
130.487
136.483
142.362
148.102
153.68
159.076
164.267
169.235
173.957
178.416
182.593
186.471
190.035
193.27
196.162
198.7
200.873
202.671
204.087
205.113
205.744
205.977
205.808
205.237
204.265
202.893
201.126
198.969
196.429
193.514
190.234
186.6
182.624
178.32
173.702
168.787
163.593
158.137
152.439
146.52
140.4
134.101
127.646
121.056
114.355
107.566
100.711
93.814
86.898
79.984
73.096
66.255
59.483
52.8
46.226
39.78
33.481
27.344
21.387
15.623
10.066
4.728
-0.378
-5.245
-9.862
-14.223
-18.322
-22.154
-25.717
-29.009
-32.029
-34.778
-37.259
-39.474
-41.429
-43.128
-44.578
-45.785
-46.758
-47.505
-48.037
-48.362
-48.492
-48.438
-48.21
-47.822
-47.284
-46.608
-45.807
-44.892
-43.875
-42.768
-41.583
-40.331
-39.023
-37.669
-36.281
-34.869
-33.442
-32.009
-30.578
-29.158
-27.756
-26.378
-25.03
-23.717
-22.445
-21.218
-20.04
-18.914
-17.842
-16.827
-15.87
-14.973
-14.137
-13.361
-12.646
-11.992
-11.399
-10.864
-10.388
-9.969
-9.606
-9.297
-9.039
-8.832
-8.672
-8.556
-8.483
-8.449
-8.452
-8.49
-8.559
-8.658
-8.785
-8.937
-9.113
-9.311
-9.53
-9.768
-10.026
-10.301
-10.593
-10.903
-11.229
-11.571
-11.93
-12.306
-12.698
-13.107
-13.532
-13.975
-14.435
-14.913
-15.41
-15.925
-16.459
-17.014
-17.59
-18.188
-18.809
-19.455
-20.125
-20.82
-21.542
-22.291
-23.066
-23.868
-24.695
-25.548
-26.424
-27.323
-28.241
-29.176
-30.125
-31.086
-32.054
-33.026
-33.998
-34.966
-35.926
-36.873
-37.804
-38.713
-39.595
-40.447
-41.261
-42.034
-42.761
-43.435
-44.053
-44.608
-45.095
-45.51
-45.846
-46.1
-46.266
-46.339
-46.316
-46.193
-45.968
-45.637
-45.201
-44.658
-44.011
-43.259
-42.406
-41.455
-40.41
-39.275
-38.055
-36.757
-35.388
-33.953
-32.462
-30.925
-29.352
-27.755
-26.148
-24.541
-22.949
-21.385
-19.862
-18.392
-16.986
-15.654
-14.406
-13.255
-12.213
-11.292
-10.5
-9.846
-9.337
-8.98
-8.779
-8.736
-8.842
-9.094
-9.487
-10.021
-10.705
-11.544
-12.533
-13.671
-14.948
-16.355
-17.881
-19.503
-21.182
-22.882
-24.562
-26.193
-27.754
-29.215
-30.538
-31.679
-32.577
-33.187
-33.475
-33.411
-32.98
-32.179
-31.017
-29.534
-27.793
-25.874
-23.878
-21.908
-20.069
-18.477
-17.231
-16.482
-16.449
-17.249
-18.911
-21.322
-24.159
-27.132
-30.012
-32.43
-33.918
-34.107
-32.766
-30.231
-27.392
-25.028
-23.827
-24.364
-27.081
-32.5
-40.83
-51.033
-61.042
-68.536
-70.951
-66.107
-51.967
-25.983
13.938
68.209
135.622
213.723
298.881
387.12
473.635
552.243
616.27
659.813
678.481
669.012
631.181
567.761
482.294
379.998
263.062
129.18
-19.208
-174.425
-320.225
-432.424
-497.623
-514.97
-496.019
-463.269
-430.695
-403.218
-380.072
-354.469
-324.453
-292.587
-261.707
-235.542
-215.781
-201.478
-191.315
-183.753
-177.213
-170.609
-162.981
-153.571
-141.845
-127.719
-111.587
-94.123
-76.278
-59.07
-43.491
-30.256
-19.799
-12.305
-7.674
-5.631
-5.775
-7.573
-10.415
-13.847
-17.565
-21.33
-24.971
-28.317
-31.178
-33.424
-35.004
-35.876
-36.002
-35.37
-33.969
-31.841
-29.079
-25.793
-22.095
-18.088
-13.847
-9.453
-5.008
-0.614
3.627
7.613
11.285
14.603
17.535
20.074
22.231
24.027
25.502
26.711
27.7
28.511
29.181
29.742
30.233
30.697
31.179
31.727
32.378
33.157
34.089
35.189
36.469
37.935
39.589
41.425
43.441
45.638
48.016
50.579
53.327
56.259
59.371
62.659
66.116
69.739
73.521
77.457
81.539
85.759
90.112
94.591
99.188
103.892
108.693
113.575
118.528
123.536
128.586
133.663
138.749
143.831
148.892
153.918
158.891
163.797
168.618
173.337
177.937
182.403
186.717
190.862
194.823
198.581
202.123
205.433
208.496
211.298
213.826
216.068
218.013
219.649
220.968
221.961
222.62
222.939
222.913
222.537
221.81
220.729
219.294
217.507
215.369
212.884
210.056
206.892
203.4
199.587
195.463
191.041
186.332
181.35
176.111
170.631
164.927
159.017
152.921
146.657
140.248
133.712
127.073
120.351
113.567
106.744
99.903
93.065
86.252
79.484
72.781
66.163
59.649
53.257
47.005
40.91
34.988
29.253
23.719
18.4
13.308
8.451
3.841
-0.516
-4.612
-8.443
-12.004
-15.294
-18.31
-21.054
-23.527
-25.732
-27.673
-29.355
-30.784
-31.967
-32.912
-33.629
-34.125
-34.411
-34.496
-34.393
-34.112
-33.664
-33.061
-32.317
-31.442
-30.45
-29.353
-28.165
-26.897
-25.563
-24.175
-22.746
-21.287
-19.81
-18.326
-16.847
-15.381
-13.939
-12.529
-11.16
-9.838
-8.569
-7.36
-6.215
-5.139
-4.135
-3.206
-2.355
-1.584
-0.895
-0.288
0.234
0.672
1.026
1.296
1.483
1.589
1.614
1.562
1.435
1.235
0.966
0.632
0.235
-0.22
-0.728
-1.286
-1.889
-2.532
-3.212
-3.924
-4.664
-5.429
-6.215
-7.02
-7.841
-8.675
-9.52
-10.375
-11.238
-12.107
-12.98
-13.855
-14.733
-15.611
-16.488
-17.365
-18.24
-19.113
-19.984
-20.852
-21.717
-22.58
-23.44
-24.298
-25.154
-26.009
-26.863
-27.718
-28.574
-29.433
-30.296
-31.164
-32.037
-32.917
-33.802
-34.693
-35.59
-36.491
-37.394
-38.3
-39.205
-40.108
-41.007
-41.897
-42.777
-43.643
-44.49
-45.313
-46.109
-46.872
-47.597
-48.278
-48.912
-49.491
-50.013
-50.47
-50.86
-51.175
-51.412
-51.564
-51.627
-51.596
-51.466
-51.233
-50.891
-50.438
-49.871
-49.187
-48.384
-47.462
-46.419
-45.256
-43.973
-42.574
-41.061
-39.439
-37.713
-35.89
-33.979
-31.99
-29.933
-27.82
-25.666
-23.485
-21.292
-19.103
-16.934
-14.803
-12.725
-10.719
-8.798
-6.98
-5.28
-3.712
-2.294
-1.039
0.038
0.921
1.596
2.052
2.276
2.262
2.007
1.508
0.766
-0.221
-1.459
-2.949
-4.686
-6.667
-8.885
-11.325
-13.968
-16.781
-19.717
-22.733
-25.783
-28.83
-31.842
-34.784
-37.62
-40.309
-42.805
-45.066
-47.059
-48.747
-50.098
-51.097
-51.753
-52.12
-52.288
-52.345
-52.372
-52.425
-52.56
-52.866
-53.438
-54.386
-55.816
-57.788
-60.407
-63.838
-68.159
-73.318
-79.05
-84.801
-89.975
-94.107
-96.657
-97.03
-94.84
-89.969
-82.921
-74.91
-67.222
-60.917
-56.977
-56.293
-59.366
-66.068
-75.015
-83.473
-88.282
-86.376
-74.557
-49.474
-8.521
50.056
125.15
212.131
307.302
407.201
508.97
611.974
708.179
783.765
826.063
821.188
767.771
677.855
562.382
433.581
295.167
141.31
-25.776
-196.002
-350.566
-467.145
-535.451
-559.257
-553.589
-535.806
-516.246
-497.535
-476.752
-450.44
-418.567
-385.098
-353.768
-328.456
-311.095
-296.156
-279.602
-257.136
-224.501
-187.65
-151.633
-120.536
-100.159
-87.984
-81.113
-78.34
-76.12
-74.396
-73.869
-73.449
-72.86
-71.779
-69.719
-67.247
-65.452
-64.777
-65.324
-67.123
-69.849
-73.154
-76.799
-80.288
-82.997
-84.619
-85.027
-84.198
-82.296
-79.436
-75.685
-71.198
-66.154
-60.708
-55.012
-49.172
-43.273
-37.44
-31.814
-26.534
-21.71
-17.394
-13.602
-10.341
-7.6
-5.358
-3.578
-2.207
-1.194
-0.492
-0.054
0.158
0.194
0.112
-0.026
-0.155
-0.219
-0.183
-0.015
0.309
0.808
1.498
2.386
3.475
4.769
6.278
8.01
9.978
12.187
14.642
17.344
20.294
23.491
26.935
30.624
34.554
38.72
43.118
47.739
52.579
57.626
62.866
68.284
73.863
79.583
85.424
91.365
97.383
103.454
109.556
115.664
121.754
127.803
133.785
139.676
145.451
151.086
156.556
161.839
166.909
171.746
176.326
180.628
184.632
188.317
191.667
194.663
197.29
199.533
201.381
202.822
203.848
204.45
204.623
204.365
203.673
202.546
200.987
198.999
196.588
193.76
190.524
186.89
182.869
178.475
173.721
168.624
163.2
157.467
151.444
145.152
138.612
131.847
124.879
117.732
110.431
103.001
95.467
87.855
80.191
72.499
64.806
57.135
49.51
41.955
34.492
27.144
19.929
12.87
5.982
-0.715
-7.207
-13.478
-19.515
-25.307
-30.842
-36.113
-41.111
-45.83
-50.264
-54.41
-58.266
-61.831
-65.106
-68.091
-70.791
-73.211
-75.357
-77.235
-78.854
-80.223
-81.353
-82.253
-82.936
-83.412
-83.695
-83.796
-83.73
-83.508
-83.143
-82.65
-82.041
-81.328
-80.524
-79.641
-78.69
-77.684
-76.632
-75.546
-74.436
-73.311
-72.182
-71.056
-69.943
-68.849
-67.781
-66.745
-65.747
-64.79
-63.879
-63.016
-62.204
-61.445
-60.739
-60.089
-59.492
-58.951
-58.463
-58.028
-57.645
-57.312
-57.026
-56.787
-56.592
-56.439
-56.327
-56.252
-56.214
-56.209
-56.236
-56.292
-56.375
-56.48
-56.607
-56.753
-56.914
-57.089
-57.276
-57.473
-57.679
-57.892
-58.112
-58.336
-58.566
-58.799
-59.036
-59.276
-59.519
-59.766
-60.017
-60.272
-60.532
-60.796
-61.067
-61.343
-61.625
-61.913
-62.207
-62.507
-62.813
-63.125
-63.444
-63.77
-64.103
-64.444
-64.793
-65.15
-65.515
-65.889
-66.269
-66.657
-67.051
-67.45
-67.852
-68.258
-68.664
-69.069
-69.471
-69.868
-70.257
-70.634
-70.997
-71.342
-71.666
-71.965
-72.235
-72.475
-72.679
-72.846
-72.97
-73.049
-73.078
-73.053
-72.97
-72.824
-72.611
-72.326
-71.965
-71.525
-71.001
-70.391
-69.691
-68.899
-68.013
-67.029
-65.948
-64.768
-63.489
-62.111
-60.636
-59.066
-57.404
-55.653
-53.819
-51.906
-49.921
-47.868
-45.756
-43.592
-41.384
-39.14
-36.87
-34.585
-32.298
-30.023
-27.774
-25.566
-23.416
-21.339
-19.352
-17.47
-15.707
-14.074
-12.584
-11.247
-10.076
-9.082
-8.275
-7.663
-7.254
-7.051
-7.06
-7.281
-7.707
-8.332
-9.148
-10.149
-11.339
-12.719
-14.286
-16.037
-17.967
-20.061
-22.306
-24.677
-27.134
-29.636
-32.139
-34.599
-36.985
-39.26
-41.379
-43.299
-44.957
-46.299
-47.286
-47.874
-48.027
-47.747
-47.051
-45.989
-44.655
-43.124
-41.479
-39.844
-38.34
-37.097
-36.25
-35.876
-36.088
-37.086
-39.003
-41.868
-45.537
-49.643
-53.797
-57.718
-61.016
-63.09
-63.425
-61.79
-58.56
-54.596
-50.699
-47.621
-46.156
-47.398
-52.694
-61.1
-68.971
-73.199
-70.636
-62.781
-56.411
-51.695
-45.061
-27.266
19.281
101.371
217.745
362.182
514.837
658.015
776.347
850.701
872.048
838.679
754.136
634.01
495.602
350.162
206.019
65.387
-73.033
-204.984
-323.832
-423.382
-497.671
-545.328
-568.83
-570.969
-554.753
-524.358
-484.179
-438.595
-392.147
-347.831
-307.273
-272.263
-244.319
-223.54
-209.277
-200.279
-194.501
-190.559
-187.405
-183.286
-176.759
-167.266
-154.689
-139.588
-123.099
-106.021
-89.207
-73.988
-61.275
-51.519
-44.941
-41.234
-39.873
-40.468
-42.485
-45.262
-48.364
-51.46
-54.283
-56.772
-58.857
-60.435
-61.472
-61.926
-61.753
-60.953
-59.536
-57.534
-55.019
-52.079
-48.802
-45.282
-41.59
-37.802
-33.995
-30.227
-26.557
-23.042
-19.733
-16.708
-14.019
-11.688
-9.712
-8.066
-6.714
-5.627
-4.762
-4.068
-3.499
-3.013
-2.575
-2.16
-1.738
-1.274
-0.728
-0.053
0.789
1.825
3.073
4.546
6.254
8.206
10.402
12.835
15.5
18.393
21.516
24.871
28.455
32.264
36.29
40.522
44.951
49.568
54.36
59.315
64.418
69.655
75.014
80.482
86.044
91.681
97.376
103.11
108.862
114.613
120.342
126.027
131.646
137.18
142.607
147.91
153.067
158.06
162.87
167.479
171.869
176.024
179.927
183.56
186.909
189.959
192.697
195.109
197.184
198.912
200.283
201.289
201.925
202.184
202.064
201.56
200.673
199.404
197.753
195.725
193.325
190.56
187.436
183.964
180.153
176.016
171.564
166.812
161.772
156.462
150.896
145.092
139.067
132.842
126.434
119.866
113.157
106.329
99.404
92.404
85.352
78.268
71.175
64.095
57.049
50.058
43.143
36.322
29.615
23.039
16.612
10.348
4.264
-1.628
-7.316
-12.786
-18.03
-23.038
-27.802
-32.314
-36.569
-40.56
-44.286
-47.741
-50.926
-53.839
-56.482
-58.856
-60.964
-62.81
-64.4
-65.739
-66.833
-67.691
-68.321
-68.731
-68.932
-68.932
-68.743
-68.374
-67.838
-67.145
-66.306
-65.332
-64.235
-63.026
-61.716
-60.315
-58.835
-57.287
-55.681
-54.028
-52.339
-50.624
-48.893
-47.155
-45.42
-43.697
-41.993
-40.317
-38.676
-37.077
-35.527
-34.03
-32.592
-31.219
-29.914
-28.682
-27.524
-26.445
-25.447
-24.53
-23.698
-22.95
-22.288
-21.712
-21.222
-20.818
-20.499
-20.265
-20.113
-20.043
-20.052
-20.138
-20.297
-20.528
-20.826
-21.188
-21.611
-22.091
-22.625
-23.207
-23.836
-24.508
-25.217
-25.962
-26.738
-27.542
-28.37
-29.22
-30.088
-30.971
-31.867
-32.772
-33.685
-34.603
-35.523
-36.443
-37.361
-38.275
-39.182
-40.081
-40.969
-41.846
-42.71
-43.559
-44.395
-45.215
-46.019
-46.806
-47.577
-48.33
-49.066
-49.784
-50.482
-51.162
-51.821
-52.459
-53.075
-53.669
-54.238
-54.781
-55.296
-55.782
-56.235
-56.652
-57.033
-57.372
-57.669
-57.92
-58.124
-58.277
-58.377
-58.423
-58.412
-58.341
-58.208
-58.012
-57.748
-57.416
-57.012
-56.535
-55.984
-55.356
-54.651
-53.867
-53.005
-52.064
-51.045
-49.949
-48.777
-47.532
-46.218
-44.839
-43.401
-41.909
-40.372
-38.799
-37.198
-35.582
-33.959
-32.341
-30.74
-29.168
-27.636
-26.155
-24.735
-23.388
-22.126
-20.958
-19.897
-18.953
-18.139
-17.464
-16.942
-16.582
-16.394
-16.385
-16.558
-16.914
-17.456
-18.187
-19.111
-20.231
-21.542
-23.039
-24.716
-26.56
-28.556
-30.673
-32.869
-35.104
-37.339
-39.541
-41.686
-43.746
-45.69
-47.49
-49.106
-50.514
-51.692
-52.616
-53.263
-53.628
-53.712
-53.562
-53.269
-52.911
-52.572
-52.315
-52.17
-52.201
-52.484
-53.092
-54.111
-55.602
-57.595
-60.172
-63.47
-67.51
-72.176
-77.154
-81.902
-85.932
-88.893
-90.387
-89.915
-87.157
-82.172
-75.483
-68.136
-61.167
-55.132
-50.486
-47.877
-47.596
-49.207
-51.523
-52.363
-49.229
-40.322
-23.977
1.89
38.859
87.57
147.642
217.006
292.419
370.555
447.424
517.895
576.461
617.648
636.512
629.568
596.158
538.008
457.571
357.803
239.212
101.143
-51.922
-208.92
-351.642
-460.955
-527.038
-552.316
-549.957
-534.451
-514.02
-490.354
-460.053
-421.707
-378.037
-333.337
-292.712
-259.014
-232.72
-213.364
-199.591
-189.709
-182.051
-175.015
-167.162
-157.57
-145.652
-131.255
-114.76
-96.966
-78.952
-61.821
-46.667
-34.192
-24.776
-18.594
-15.494
-15.126
-17.029
-20.597
-25.135
-30.151
-35.296
-40.251
-44.829
-48.835
-52.056
-54.41
-55.886
-56.467
-56.161
-54.985
-52.948
-50.127
-46.639
-42.604
-38.159
-33.42
-28.48
-23.464
-18.495
-13.693
-9.182
-5.041
-1.306
1.992
4.847
7.269
9.274
10.903
12.214
13.26
14.092
14.759
15.297
15.754
16.182
16.634
17.164
17.813
18.608
19.573
20.726
22.079
23.641
25.414
27.39
29.569
31.953
34.541
37.339
40.346
43.56
46.976
50.589
54.393
58.383
62.553
66.895
71.4
76.06
80.867
85.814
90.889
96.079
101.371
106.75
112.199
117.703
123.244
128.805
134.367
139.913
145.425
150.886
156.277
161.58
166.777
171.849
176.778
181.546
186.135
190.528
194.707
198.656
202.361
205.806
208.977
211.863
214.452
216.734
218.698
220.338
221.645
222.614
223.241
223.52
223.45
223.029
222.257
221.134
219.663
217.848
215.694
213.205
210.39
207.257
203.816
200.078
196.055
191.762
187.212
182.421
177.408
172.188
166.782
161.208
155.486
149.636
143.677
137.631
131.517
125.355
119.165
112.968
106.782
100.628
94.524
88.488
82.54
76.695
70.973
65.388
59.957
54.695
49.613
44.725
40.043
35.575
31.331
27.319
23.543
20.009
16.72
13.677
10.882
8.333
6.029
3.966
2.141
0.548
-0.817
-1.961
-2.891
-3.614
-4.137
-4.468
-4.616
-4.59
-4.399
-4.053
-3.562
-2.936
-2.188
-1.327
-0.366
0.685
1.814
3.01
4.262
5.561
6.897
8.262
9.648
11.047
12.452
13.855
15.251
16.635
18.003
19.348
20.665
21.952
23.208
24.434
25.63
26.79
27.904
28.971
29.988
30.949
31.854
32.695
33.463
34.165
34.808
35.398
35.946
36.448
36.899
37.301
37.649
37.956
38.237
38.491
38.722
38.943
39.16
39.394
39.665
39.957
40.253
40.542
40.807
41.053
41.288
41.507
41.71
41.887
42.027
42.132
42.209
42.237
42.207
42.096
41.877
41.577
41.221
40.823
40.405
39.967
39.506
39.036
38.567
38.102
37.649
37.204
36.761
36.337
35.946
35.606
35.338
35.125
34.945
34.791
34.648
34.514
34.389
34.259
34.111
33.949
33.772
33.585
33.398
33.2
32.985
32.745
32.471
32.171
31.854
31.52
31.171
30.808
30.432
30.054
29.684
29.323
28.973
28.638
28.321
28.034
27.789
27.59
27.443
27.351
27.321
27.364
27.497
27.728
28.06
28.494
29.028
29.663
30.394
31.206
32.07
32.962
33.865
34.778
35.711
36.666
37.647
38.655
39.691
40.772
41.919
43.145
44.454
45.855
47.365
49.025
50.898
53.033
55.45
58.145
61.09
64.258
67.614
71.109
74.675
78.216
81.64
84.879
87.882
90.597
92.957
94.875
96.235
96.951
96.97
96.26
94.817
92.638
89.743
86.178
82.033
77.435
72.501
67.333
62.019
56.638
51.285
46.072
41.119
36.531
32.392
28.777
25.752
23.377
21.687
20.697
20.368
20.605
21.306
22.355
23.648
25.107
26.641
28.125
29.431
30.418
30.946
30.916
30.178
28.532
25.876
22.222
17.795
13.114
8.751
5.219
3.104
3.033
5.382
10.197
16.925
24.337
31.045
35.832
37.605
35.365
28.673
17.998
5.012
-7.358
-15.495
-15.787
-4.832
20.756
63.581
124.744
203.573
297.348
401.395
510.014
616.934
714.657
795.378
852.149
879.092
873.409
836.122
769.308
674.959
553.428
404.456
232.755
50.613
-121.402
-262.419
-360.624
-415.82
-440.166
-447.436
-444.797
-433.713
-410.812
-374.591
-328.41
-278.152
-230.132
-188.512
-155.607
-132.018
-116.765
-108.685
-106.098
-106.672
-108.724
-110.516
-109.754
-105.259
-96.772
-84.393
-69.057
-52.004
-34.105
-16.522
-0.802
12.209
22.134
28.854
32.805
34.478
34.205
32.528
30.108
27.352
24.564
21.955
19.53
17.359
15.562
14.197
13.335
13.036
13.313
14.17
15.6
17.552
19.961
22.754
25.836
29.133
32.575
36.091
39.629
43.127
46.519
49.737
52.697
55.34
57.642
59.596
61.218
62.531
63.561
64.346
64.935
65.373
65.699
65.946
66.137
66.304
66.487
66.728
67.079
67.579
68.255
69.13
70.222
71.541
73.097
74.893
76.922
79.181
81.669
84.388
87.339
90.523
93.932
97.559
101.395
105.428
109.65
114.047
118.607
123.316
128.161
133.129
138.208
143.383
148.637
153.952
159.31
164.692
170.077
175.445
180.775
186.047
191.241
196.336
201.314
206.155
210.84
215.351
219.669
223.777
227.658
231.297
234.676
237.783
240.604
243.125
245.336
247.227
248.787
250.009
250.886
251.412
251.582
251.392
250.84
249.926
248.648
247.009
245.012
242.659
239.956
236.911
233.53
229.823
225.799
221.47
216.848
211.946
206.778
201.359
195.705
189.832
183.759
177.501
171.079
164.51
157.815
151.011
144.119
137.157
130.147
123.107
116.056
109.015
102.002
95.036
88.135
81.318
74.601
68.001
61.534
55.214
49.055
43.071
37.273
31.673
26.279
21.102
16.148
11.424
6.935
2.686
-1.321
-5.083
-8.6
-11.872
-14.898
-17.681
-20.224
-22.529
-24.601
-26.446
-28.068
-29.475
-30.673
-31.672
-32.479
-33.104
-33.557
-33.847
-33.986
-33.985
-33.854
-33.605
-33.25
-32.799
-32.265
-31.659
-30.992
-30.275
-29.519
-28.734
-27.931
-27.119
-26.308
-25.506
-24.724
-23.969
-23.249
-22.573
-21.947
-21.379
-20.876
-20.442
-20.083
-19.806
-19.613
-19.508
-19.496
-19.577
-19.756
-20.033
-20.409
-20.884
-21.459
-22.132
-22.903
-23.77
-24.731
-25.784
-26.927
-28.156
-29.469
-30.862
-32.332
-33.875
-35.488
-37.166
-38.905
-40.702
-42.552
-44.451
-46.397
-48.385
-50.412
-52.474
-54.568
-56.69
-58.838
-61.009
-63.198
-65.405
-67.626
-69.86
-72.107
-74.366
-76.635
-78.914
-81.202
-83.501
-85.809
-88.126
-90.451
-92.785
-95.128
-97.482
-99.851
-102.235
-104.637
-107.053
-109.483
-111.925
-114.377
-116.835
-119.294
-121.752
-124.205
-126.655
-129.104
-131.554
-134.003
-136.451
-138.888
-141.313
-143.725
-146.129
-148.529
-150.931
-153.337
-155.749
-158.171
-160.603
-163.045
-165.49
-167.922
-170.326
-172.687
-175.001
-177.278
-179.521
-181.722
-183.855
-185.873
-187.756
-189.523
-191.212
-192.88
-194.564
-196.249
-197.97
-199.837
-201.878
-204.072
-206.253
-208.047
-209.293
-210.107
-210.644
-211.104
-211.725
-212.667
-214.427
-217.918
-223.525
-231.052
-239.948
-249.224
-258.028
-265.82
-271.63
-274.089
-272.495
-266.798
-257.636
-246.444
-234.349
-222.065
-210.608
-201.182
-194.604
-191.37
-191.376
-193.848
-198.313
-204.598
-212.469
-221.752
-232.248
-243.662
-255.809
-268.698
-282.284
-296.546
-311.409
-326.509
-341.546
-356.392
-371.149
-385.999
-400.691
-414.363
-425.904
-434.534
-439.615
-440.44
-436.033
-425.237
-407.582
-383.65
-354.689
-321.778
-285.75
-247.431
-207.883
-168.519
