Name,Criss Capps
Date of Birth,"Feb 5, 1952"
Recorded Date,2023-11-12 10:06:17 -0400
Classification,Sinus Rhythm
Symptoms,
Software Version,1.90
Device,"Watch5,4"
Sample Rate,512.844 hertz


Lead,Lead I
Unit,µV

-60.161
-63.987
-67.718
-68.721
-63.375
-54.873
-45.913
-38.304
-35.08
-34.025
-32.901
-31.239
-27.72
-23.164
-18.627
-13.978
-9.421
-4.999
-0.631
3.455
7.058
10.125
12.572
14.254
15.063
14.932
13.808
11.698
8.632
4.613
-0.338
-6.143
-12.701
-19.873
-27.491
-35.426
-43.555
-51.751
-59.887
-67.807
-75.368
-82.463
-89.009
-94.936
-100.189
-104.709
-108.446
-111.396
-113.574
-115.024
-115.812
-115.986
-115.585
-114.657
-113.247
-111.404
-109.169
-106.548
-103.529
-100.098
-96.242
-91.959
-87.264
-82.149
-76.597
-70.587
-64.086
-57.064
-49.491
-41.332
-32.549
-23.125
-13.069
-2.426
8.722
20.283
32.152
44.237
56.467
68.767
81.063
93.283
105.351
117.178
128.67
139.717
150.197
160.01
169.087
177.396
184.944
191.767
197.923
203.464
208.424
212.834
216.711
220.075
222.941
225.336
227.291
228.86
230.114
231.114
231.907
232.515
232.931
233.13
233.064
232.693
231.99
230.933
229.521
227.755
225.646
223.207
220.454
217.392
214.016
210.32
206.305
201.981
197.374
192.518
187.457
182.232
176.886
171.451
165.956
160.421
154.863
149.291
143.712
138.135
132.573
127.038
121.546
116.107
110.73
105.421
100.184
95.02
89.932
84.919
79.984
75.13
70.358
65.673
61.079
56.581
52.18
47.877
43.673
39.565
35.551
31.627
27.789
24.031
20.348
16.734
13.182
9.684
6.233
2.823
-0.556
-3.911
-7.251
-10.587
-13.93
-17.289
-20.673
-24.093
-27.56
-31.086
-34.686
-38.367
-42.137
-46.014
-50.014
-54.151
-58.444
-62.894
-67.494
-72.261
-77.212
-82.321
-87.572
-92.953
-98.44
-104.054
-109.837
-115.762
-121.778
-127.996
-134.545
-141.325
-148.327
-155.556
-162.705
-170.563
-179.899
-189.594
-199.288
-206.915
-210.018
-211.255
-212.387
-216.036
-225.815
-238.434
-251.115
-261.965
-267.87
-271.046
-273.71
-276.297
-280.114
-284.301
-287.812
-290.863
-293.316
-295.229
-296.816
-297.943
-298.574
-298.875
-298.817
-298.218
-296.921
-294.744
-291.702
-288.085
-284.017
-279.399
-274.34
-269.07
-263.871
-259.209
-255.026
-250.638
-245.613
-239.778
-232.845
-224.59
-214.654
-202.345
-187.648
-171.316
-153.861
-135.638
-117.054
-98.344
-79.948
-62.664
-46.78
-32.026
-18.317
-5.61
6.143
16.802
26.399
35.193
43.174
50.124
55.932
60.488
63.775
65.953
67.12
67.342
66.812
65.744
64.348
62.859
61.409
60.062
58.901
58
57.431
57.273
57.553
58.275
59.453
61.064
63.054
65.329
67.728
70.103
72.326
74.258
75.789
76.81
77.197
76.86
75.701
73.567
70.396
66.201
61.091
55.396
49.501
43.778
38.723
34.867
32.551
31.983
33.014
34.937
37.036
38.621
38.935
37.459
33.918
28.261
21.204
14.402
9.704
9.305
15.511
30.086
54.914
91.753
141.256
203.268
276.061
355.45
436.933
516.075
589.715
657.655
719.338
772.176
809.749
822.311
799.607
733.632
623.313
471.555
287.832
90.838
-99.538
-259.666
-368.985
-422.832
-425.045
-387.983
-330.98
-266.012
-201.716
-146.68
-103.343
-73.103
-55.863
-45.548
-36.453
-26.351
-14.5
-3.61
2.511
3.551
0.977
-2.753
-4.409
-2.502
2.87
11.19
21.557
33.181
45.488
57.724
69.012
78.548
85.937
91.197
94.532
96.264
96.7
96.106
94.813
93.205
91.523
89.894
88.421
87.133
86.089
85.405
85.132
85.276
85.846
86.819
88.16
89.853
91.853
94.101
96.559
99.181
101.927
104.767
107.644
110.499
113.269
115.873
118.252
120.372
122.21
123.767
125.06
126.105
126.928
127.568
128.051
128.407
128.662
128.831
128.942
129.028
129.128
129.29
129.559
129.965
130.54
131.305
132.28
133.482
134.924
136.609
138.545
140.742
143.212
145.97
149.028
152.394
156.073
160.068
164.382
169.017
173.972
179.246
184.834
190.734
196.942
203.452
210.258
217.351
224.717
232.343
240.211
248.306
256.606
265.092
273.74
282.527
291.428
300.419
309.472
318.561
327.658
336.731
345.753
354.692
363.517
372.197
380.701
388.997
397.055
404.844
412.335
419.5
426.312
432.744
438.773
444.375
449.529
454.217
458.419
462.121
465.31
467.974
470.104
471.694
472.739
473.238
473.193
472.604
471.479
469.825
467.653
464.974
461.804
458.161
454.063
449.534
444.596
439.275
433.599
427.596
421.296
414.73
407.93
400.928
393.758
386.453
379.044
371.567
364.052
356.532
349.038
341.6
334.248
327.008
319.909
312.974
306.227
299.691
293.384
287.325
281.53
276.012
270.784
265.853
261.229
256.915
252.914
249.226
245.85
242.781
240.014
237.541
235.352
233.435
231.776
230.363
229.177
228.202
227.42
226.812
226.357
226.037
225.829
225.714
225.671
225.678
225.716
225.763
225.799
225.807
225.766
225.659
225.469
225.181
224.779
224.252
223.586
222.77
221.797
220.656
219.343
217.852
216.18
214.324
212.285
210.063
207.661
205.084
202.335
199.423
196.355
193.139
189.785
186.304
182.707
179.006
175.213
171.342
167.406
163.418
159.393
155.345
151.288
147.234
143.199
139.194
135.233
131.328
127.49
123.731
120.06
116.488
113.024
109.675
106.449
103.352
100.39
97.566
94.882
92.342
89.946
87.693
85.582
83.612
81.778
80.078
78.507
77.059
75.728
74.508
73.392
72.37
71.436
70.58
69.794
69.068
68.393
67.76
67.16
66.583
66.021
65.465
64.905
64.333
63.741
63.121
62.465
61.767
61.021
60.221
59.363
58.442
57.458
56.407
55.289
54.104
52.852
51.536
50.156
48.718
47.224
45.679
44.09
42.462
40.804
39.122
37.426
35.725
34.028
32.346
30.688
29.066
27.491
25.975
24.53
23.168
21.903
20.745
19.71
18.808
18.052
17.454
17.025
16.774
16.711
16.844
17.181
17.729
18.492
19.477
20.686
22.123
23.789
25.684
27.808
30.157
32.728
35.516
38.513
41.713
45.107
48.684
52.431
56.338
60.389
64.569
68.86
73.244
77.7
82.207
86.742
91.283
95.804
100.28
104.688
109.003
113.199
117.252
121.137
124.83
128.305
131.539
134.506
137.181
139.539
141.558
143.215
144.489
145.362
145.816
145.838
145.413
144.532
143.185
141.366
139.07
136.294
133.037
129.3
125.088
120.41
115.273
109.69
103.675
97.241
90.401
83.166
75.542
67.536
59.159
50.422
41.335
31.917
22.185
12.173
1.922
-8.527
-19.129
-29.837
-40.616
-51.415
-62.188
-72.895
-83.481
-93.906
-104.142
-114.154
-123.914
-133.407
-142.631
-151.628
-160.484
-169.286
-178.141
-187.14
-196.378
-206.006
-216.082
-226.599
-237.504
-248.595
-259.676
-270.62
-281.217
-291.206
-300.52
-309.085
-316.977
-324.694
-332.618
-341.109
-350.639
-361.336
-373.239
-386.59
-401.183
-416.104
-429.469
-438.136
-439.35
-432.133
-418.688
-402.665
-385.564
-365.655
-335.631
-287.835
-219.436
-132.501
-36.529
57.207
137.16
191.857
213.33
193.604
131.409
31.747
-99.073
-247.3
-399.628
-544.028
-663.87
-749.33
-798.05
-811.719
-800.328
-772.434
-729.278
-672.017
-602.245
-524.913
-450.515
-386.797
-335.381
-292.808
-253.517
-214.622
-177.153
-144.959
-120.613
-104.054
-93.603
-86.182
-79.601
-72.962
-66.008
-59.204
-53.126
-48.276
-45.294
-44.919
-47.932
-55.142
-66.957
-83.354
-104.125
-128.851
-157.008
-188.057
-221.347
-256.151
-291.91
-328.217
-364.729
-401.182
-437.343
-472.981
-507.929
-542.064
-575.221
-607.208
-637.835
-666.943
-694.456
-720.364
-744.68
-767.435
-788.697
-808.555
-827.126
-844.555
-860.937
-876.328
-890.816
-904.495
-917.5
-930.024
-942.22
-954.172
-965.959
-977.639
-989.175
-1000.484
-1011.335
-1021.345
-1030.28
-1038.036
-1044.539
-1049.765
-1053.694
-1056.298
-1057.822
-1058.726
-1059.056
-1058.551
-1056.788
-1053.203
-1047.497
-1039.447
-1028.377
-1013.331
-993.842
-969.89
-941.938
-910.732
-876.526
-839.65
-801.088
-762.226
-724.424
-688.706
-655.422
-624.709
-597.231
-573.382
-552.998
-535.491
-519.756
-504.888
-490.544
-476.37
-461.699
-446.093
-429.303
-411.371
-392.881
-374.218
-355.451
-336.724
-318.194
-299.954
-282.125
-264.671
-247.33
-229.997
-212.682
-195.402
-178.266
-161.365
-144.761
-128.589
-112.998
-98.084
-83.918
-70.526
-57.897
-46.033
-34.933
-24.579
-14.956
-6.033
2.222
9.832
16.829
23.256
29.157
34.588
39.594
44.205
48.453
52.362
55.95
59.241
62.25
64.987
67.471
69.716
71.742
73.566
75.205
76.671
77.976
79.131
80.148
81.041
81.824
82.507
83.105
83.63
84.093
84.508
84.882
85.223
85.537
85.826
86.095
86.346
86.58
86.796
86.995
87.177
87.338
87.479
87.595
87.684
87.742
87.764
87.747
87.684
87.573
87.408
87.185
86.902
86.554
86.14
85.657
85.105
84.482
83.789
83.028
82.201
81.312
80.364
79.362
78.314
77.227
76.108
74.966
73.81
72.651
71.5
70.366
69.262
68.2
67.19
66.246
65.378
64.6
63.923
63.358
62.916
62.609
62.445
62.435
62.586
62.907
63.404
64.082
64.945
65.998
67.241
68.675
70.301
72.115
74.115
76.297
78.655
81.183
83.874
86.718
89.706
92.828
96.072
99.427
102.88
106.418
110.028
113.695
117.405
121.144
124.898
128.651
132.39
136.1
139.768
143.379
146.921
150.382
153.75
157.013
160.163
163.19
166.084
168.839
171.448
173.904
176.204
178.341
180.314
182.118
183.754
185.219
186.513
187.637
188.59
189.375
189.992
190.444
190.733
190.861
190.832
190.649
190.315
189.837
189.218
188.463
187.577
186.566
185.436
184.191
182.837
181.378
179.82
178.166
176.423
174.596
172.689
170.707
168.655
166.539
164.363
162.132
159.851
157.524
155.156
152.754
150.324
147.871
145.405
142.933
140.466
138.014
135.585
133.188
130.834
128.529
126.283
124.103
121.992
119.958
118.008
116.15
114.394
112.75
111.228
109.838
108.591
107.499
106.572
105.816
105.236
104.834
104.618
104.596
104.782
105.181
105.794
106.617
107.645
108.87
110.278
111.844
113.526
115.289
117.104
118.959
120.853
122.779
124.733
126.707
128.695
130.706
132.754
134.848
136.987
139.172
141.42
143.767
146.279
149.006
151.967
155.152
158.527
162.06
165.708
169.418
173.116
176.698
180.066
183.145
185.88
188.219
190.09
191.391
191.996
191.806
190.766
188.861
186.096
182.481
178.043
172.831
166.942
160.509
153.65
146.453
138.99
131.333
123.58
115.87
108.352
101.149
94.35
88.019
82.217
77.01
72.449
68.57
65.359
62.767
60.762
59.319
58.41
58.002
58.024
58.369
58.927
59.584
60.23
60.76
61.051
60.995
60.46
59.275
57.382
54.825
51.758
48.522
45.475
42.894
41.177
40.796
42.001
44.867
49.09
53.816
58.224
61.656
63.382
62.912
60.144
55.088
48.589
42.602
39.068
40.934
51.19
70.998
101.997
143.794
194.887
256.429
326.555
403.751
486.477
568.075
645.849
717.472
778.619
826.48
851.193
839.348
779.779
666.158
503.845
309.694
108.945
-72.104
-212.751
-303.096
-348.157
-360.238
-353.088
-335.784
-307.102
-264.836
-210.142
-149.192
-94.374
-53.42
-26.294
-8.057
8.764
27.607
46.359
60.8
68.202
68.321
63.204
56.35
49.86
44.663
41.557
40.405
40.826
42.818
46.028
49.765
53.561
56.784
58.711
59.232
58.54
56.822
54.433
51.703
48.848
46.244
44.315
43.245
43.087
43.796
45.227
47.298
49.96
53.09
56.536
60.141
63.74
67.23
70.56
73.677
76.528
79.051
81.188
82.913
84.233
85.158
85.7
85.861
85.649
85.092
84.238
83.138
81.854
80.429
78.892
77.276
75.61
73.921
72.235
70.565
68.919
67.307
65.743
64.246
62.835
61.524
60.324
59.246
58.301
57.502
56.863
56.395
56.112
56.025
56.149
56.496
57.082
57.917
59.009
60.365
61.989
63.883
66.049
68.486
71.191
74.159
77.385
80.863
84.585
88.541
92.721
97.111
101.698
106.466
111.401
116.482
121.691
127.008
132.412
137.88
143.388
148.913
154.43
159.913
165.336
170.674
175.899
180.986
185.908
190.639
195.153
199.426
203.434
207.153
210.562
213.64
216.367
218.725
220.698
222.271
223.429
224.16
224.455
224.304
223.701
222.64
221.119
219.136
216.694
213.795
210.445
206.65
202.421
197.767
192.703
187.243
181.404
175.203
168.66
161.796
154.633
147.194
139.504
131.585
123.464
115.167
106.718
98.144
89.471
80.724
71.929
63.11
54.292
45.499
36.754
28.081
19.5
11.033
2.699
-5.483
-13.496
-21.324
-28.951
-36.365
-43.552
-50.503
-57.206
-63.653
-69.838
-75.754
-81.397
-86.762
-91.847
-96.65
-101.17
-105.407
-109.363
-113.038
-116.434
-119.555
-122.402
-124.98
-127.292
-129.344
-131.138
-132.682
-133.98
-135.037
-135.86
-136.455
-136.829
-136.987
-136.936
-136.682
-136.233
-135.595
-134.775
-133.779
-132.616
-131.291
-129.812
-128.187
-126.422
-124.525
-122.505
-120.368
-118.123
-115.779
-113.343
-110.824
-108.232
-105.575
-102.864
-100.107
-97.315
-94.496
-91.662
-88.821
-85.983
-83.157
-80.353
-77.581
-74.848
-72.164
-69.538
-66.977
-64.489
-62.082
-59.762
-57.537
-55.412
-53.393
-51.485
-49.693
-48.02
-46.469
-45.043
-43.744
-42.574
-41.531
-40.618
-39.831
-39.17
-38.632
-38.213
-37.911
-37.721
-37.639
-37.658
-37.773
-37.98
-38.271
-38.64
-39.081
-39.588
-40.154
-40.772
-41.436
-42.139
-42.875
-43.637
-44.42
-45.217
-46.024
-46.834
-47.642
-48.445
-49.237
-50.014
-50.774
-51.512
-52.226
-52.913
-53.572
-54.201
-54.799
-55.366
-55.9
-56.403
-56.875
-57.314
-57.723
-58.102
-58.451
-58.771
-59.062
-59.324
-59.559
-59.765
-59.943
-60.093
-60.214
-60.306
-60.367
-60.398
-60.396
-60.36
-60.288
-60.178
-60.027
-59.833
-59.592
-59.302
-58.959
-58.559
-58.098
-57.571
-56.975
-56.304
-55.553
-54.719
-53.795
-52.779
-51.665
-50.45
-49.129
-47.698
-46.155
-44.498
-42.725
-40.833
-38.822
-36.692
-34.444
-32.078
-29.596
-27
-24.293
-21.479
-18.562
-15.548
-12.443
-9.253
-5.987
-2.653
0.738
4.177
7.652
11.153
14.667
18.18
21.678
25.147
28.573
31.94
35.231
38.429
41.515
44.473
47.288
49.944
52.423
54.708
56.782
58.633
60.249
61.62
62.732
63.573
64.135
64.414
64.409
64.121
63.547
62.687
61.543
60.124
58.447
56.526
54.376
52.005
49.421
46.646
43.697
40.598
37.37
34.028
30.593
27.102
23.59
20.101
16.682
13.354
10.146
7.076
4.147
1.397
-1.132
-3.41
-5.381
-7.019
-8.35
-9.36
-10.012
-10.367
-10.503
-10.619
-11.064
-12.005
-13.444
-15.355
-17.669
-20.329
-23.238
-25.962
-27.696
-27.873
-26.272
-22.953
-18.226
-12.259
-5.194
2.388
9.291
14.261
16.48
15.553
11.645
5.084
-4.14
-15.782
-28.459
-40.27
-48.58
-49.74
-42.206
-25.703
-0.683
30.062
67.009
113.125
171.107
244.869
333.044
428.908
524.931
611.645
679.767
722.872
734.435
707.478
641.1
536.612
397.373
236.522
67.315
-94.548
-229.196
-328.694
-392.441
-427.004
-445.767
-453.817
-449.691
-427.812
-384.867
-327.405
-266.292
-214.75
-178.834
-154.605
-137.543
-121.863
-105.828
-93.662
-87.152
-86.836
-91.757
-97.922
-102.622
-104.548
-103.001
-98.545
-91.899
-83.55
-74.173
-64.586
-55.675
-48.345
-43.095
-39.951
-38.683
-38.889
-40.139
-42.037
-44.147
-46.009
-47.32
-47.909
-47.718
-46.798
-45.206
-42.977
-40.174
-36.879
-33.162
-29.11
-24.821
-20.382
-15.911
-11.526
-7.317
-3.362
0.274
3.539
6.396
8.827
10.837
12.442
13.656
14.495
14.981
15.149
15.047
14.726
14.244
13.661
13.027
12.388
11.787
11.258
10.829
10.528
10.37
10.372
10.551
10.927
11.518
12.344
13.419
14.756
16.366
18.26
20.445
22.928
25.717
28.819
32.237
35.976
40.039
44.427
49.139
54.169
59.512
65.155
71.087
77.294
83.759
90.465
97.391
104.517
111.821
119.279
126.868
134.563
142.337
150.161
158.01
165.853
173.662
181.406
189.058
196.586
203.961
211.155
218.139
224.886
231.368
237.56
243.436
248.973
254.148
258.94
263.33
267.301
270.835
273.918
276.539
278.687
280.352
281.529
282.213
282.399
282.088
281.279
279.976
278.183
275.906
273.155
269.938
266.269
262.162
257.632
252.696
247.373
241.684
235.648
229.289
222.63
215.695
208.507
201.094
193.48
185.69
177.752
169.692
161.535
153.307
145.034
136.741
128.451
120.19
111.981
103.845
95.806
87.883
80.097
72.465
65.007
57.737
50.671
43.822
37.202
30.822
24.691
18.817
13.207
7.865
2.795
-1.999
-6.517
-10.758
-14.723
-18.414
-21.834
-24.987
-27.877
-30.51
-32.893
-35.031
-36.934
-38.607
-40.061
-41.305
-42.348
-43.2
-43.872
-44.376
-44.721
-44.92
-44.984
-44.925
-44.753
-44.48
-44.117
-43.676
-43.166
-42.6
-41.986
-41.335
-40.655
-39.957
-39.249
-38.538
-37.832
-37.138
-36.462
-35.812
-35.191
-34.605
-34.058
-33.554
-33.097
-32.689
-32.331
-32.026
-31.773
-31.573
-31.425
-31.326
-31.275
-31.269
-31.304
-31.376
-31.48
-31.61
-31.761
-31.927
-32.1
-32.273
-32.44
-32.592
-32.721
-32.821
-32.884
-32.902
-32.868
-32.777
-32.62
-32.393
-32.09
-31.705
-31.236
-30.677
-30.026
-29.282
-28.443
-27.508
-26.479
-25.357
-24.145
-22.846
-21.466
-20.011
-18.486
-16.901
-15.264
-13.585
-11.876
-10.149
-8.416
-6.691
-4.988
-3.323
-1.711
-0.166
1.294
2.656
3.902
5.019
5.99
6.802
7.442
7.896
8.152
8.201
8.032
7.637
7.01
6.145
5.039
3.688
2.091
0.25
-1.833
-4.155
-6.71
-9.49
-12.488
-15.693
-19.092
-22.672
-26.419
-30.315
-34.343
-38.485
-42.72
-47.029
-51.389
-55.778
-60.174
-64.554
-68.895
-73.176
-77.373
-81.467
-85.436
-89.261
-92.924
-96.409
-99.7
-102.783
-105.646
-108.279
-110.671
-112.816
-114.707
-116.342
-117.719
-118.836
-119.697
-120.303
-120.662
-120.779
-120.663
-120.324
-119.773
-119.025
-118.095
-116.998
-115.753
-114.378
-112.893
-111.318
-109.676
-107.989
-106.278
-104.564
-102.87
-101.216
-99.623
-98.111
-96.699
-95.405
-94.244
-93.236
-92.396
-91.741
-91.288
-91.05
-91.039
-91.263
-91.73
-92.442
-93.402
-94.608
-96.054
-97.737
-99.651
-101.788
-104.143
-106.707
-109.463
-112.39
-115.461
-118.645
-121.918
-125.259
-128.649
-132.079
-135.535
-139.005
-142.484
-145.963
-149.431
-152.862
-156.212
-159.435
-162.494
-165.378
-168.096
-170.644
-172.992
-175.087
-176.861
-178.257
-179.265
-179.856
-179.953
-179.551
-178.684
-177.504
-176.346
-175.432
-174.792
-174.434
-174.316
-174.31
-174.394
-174.36
-173.611
-171.88
-169.176
-165.532
-161.339
-157.014
-152.636
-148.542
-145.539
-144.023
-144.36
-147.074
-152.016
-159.092
-168.532
-180.091
-193.164
-207.208
-221.034
-232.832
-241.143
-244.22
-240.193
-227.564
-204.55
-169.736
-122.892
-65.419
0.012
70.325
143.058
217.145
290.639
360.183
420.028
461.11
476.258
460.583
412.721
336.94
237.52
118.247
-17.316
-164.801
-315.259
-455.392
-569.74
-649.551
-695.151
-712.558
-712.22
-697.622
-665.846
-616.429
-551.342
-481.278
-421.145
-379.026
-355.901
-344.836
-336.728
-327.333
-317.232
-310.372
-309.606
-314.368
-321.68
-327.599
-329.631
-327.323
-321.21
-312.23
-301.181
-288.698
-275.665
-263.13
-252.065
-243.026
-236.08
-231.074
-227.732
-225.759
-224.909
-224.855
-225.222
-225.79
-226.463
-227.217
-228.114
-229.191
-230.44
-231.861
-233.46
-235.204
-237.04
-238.923
-240.802
-242.649
-244.447
-246.165
-247.773
-249.239
-250.541
-251.662
-252.584
-253.289
-253.751
-253.959
-253.908
-253.604
-253.075
-252.358
-251.482
-250.465
-249.32
-248.049
-246.655
-245.181
-243.669
-242.16
-240.703
-239.314
-237.977
-236.709
-235.555
-234.485
-233.416
-232.112
-230.173
-227.365
-223.631
-218.957
-213.377
-206.917
-199.558
-191.632
-183.83
-176.535
-169.806
-163.3
-156.212
-147.834
-137.668
-124.859
-108.283
-87.111
-60.771
-29.603
5.038
41.764
79.237
115.956
150.483
181.399
207.247
227.591
243.034
254.424
262.902
269.457
274.743
279.617
285.101
291.635
299.151
307.29
315.331
322.884
329.916
336.28
341.813
346.46
350.237
353.353
356.21
359.012
361.776
364.483
367.037
369.386
371.514
373.338
374.722
375.544
375.721
375.22
374.043
372.19
369.649
366.411
362.475
357.869
352.63
346.802
340.435
333.57
326.252
318.537
310.483
302.156
293.613
284.897
276.046
267.095
258.079
249.033
239.992
230.976
222.01
213.117
204.32
195.646
187.117
178.751
170.567
162.579
154.804
147.261
139.968
132.941
126.195
119.744
113.604
107.786
102.303
97.161
92.367
87.922
83.828
80.086
76.693
73.646
70.939
68.567
66.523
64.799
63.385
62.271
61.446
60.896
60.607
60.566
60.756
61.161
61.765
62.551
63.501
64.597
65.822
67.155
68.579
70.075
71.623
73.205
74.803
76.397
77.971
79.508
80.992
82.409
83.745
84.986
86.121
87.138
88.029
88.783
89.392
89.849
90.148
90.282
90.249
90.044
89.666
89.114
88.386
87.485
86.412
85.169
83.761
82.191
80.464
78.588
76.569
74.416
72.136
69.74
67.237
64.637
61.951
59.19
56.364
53.484
50.56
47.604
44.625
41.633
38.639
35.653
32.684
29.74
26.832
23.966
21.151
18.394
15.701
13.078
10.532
8.066
5.686
3.395
1.197
-0.905
-2.91
-4.817
-6.625
-8.334
-9.945
-11.46
-12.88
-14.208
-15.447
-16.599
-17.669
-18.66
-19.576
-20.421
-21.2
-21.916
-22.576
-23.184
-23.745
-24.263
-24.743
-25.191
-25.609
-26.003
-26.377
-26.734
-27.077
-27.411
-27.738
-28.062
-28.383
-28.706
-29.03
-29.358
-29.689
-30.023
-30.36
-30.698
-31.037
-31.374
-31.708
-32.035
-32.354
-32.661
-32.952
-33.223
-33.47
-33.687
-33.871
-34.014
-34.113
-34.16
-34.152
-34.082
-33.945
-33.735
-33.448
-33.077
-32.619
-32.068
-31.42
-30.669
-29.813
-28.847
-27.769
-26.577
-25.27
-23.846
-22.306
-20.65
-18.88
-16.997
-15.004
-12.904
-10.699
-8.397
-6.001
-3.519
-0.958
1.674
4.368
7.114
9.902
12.72
15.558
18.404
21.245
24.069
26.863
29.614
32.309
34.932
37.469
39.903
42.218
44.4
46.434
48.306
50.001
51.508
52.817
53.92
54.812
55.485
55.932
56.149
56.13
55.875
55.384
54.658
53.699
52.514
51.115
49.515
47.727
45.761
43.619
41.302
38.822
36.188
33.414
30.52
27.528
24.47
21.391
18.339
15.361
12.499
9.782
7.245
4.928
2.872
1.137
-0.233
-1.205
-1.747
-1.843
-1.506
-0.763
0.319
1.634
3.093
4.6
6.045
7.329
8.321
8.894
8.972
8.442
7.169
5.094
2.203
-1.358
-5.178
-8.851
-12.029
-14.279
-15.185
-14.43
-11.795
-7.585
-2.731
1.856
5.503
7.546
7.433
4.717
-1.034
-8.121
-12.521
-10.83
-0.033
19.065
41.2
65.083
92.152
128.057
184.501
265.467
368.64
487.544
607.128
715.644
802.87
856.248
866.138
823.402
724.297
574.429
389.033
190.013
-0.377
-161.975
-284.336
-366.256
-411.904
-430.487
-427.948
-406.677
-368.819
-317.659
-261.73
-211.041
-172.528
-147.296
-129.595
-113.493
-96.259
-78.723
-65.329
-58.71
-58.297
-62.031
-66.406
-68.891
-68.553
-65.181
-59.308
-51.616
-42.718
-33.32
-24.19
-16.169
-10.091
-6.388
-5.069
-5.916
-8.523
-12.459
-17.334
-22.67
-27.929
-32.737
-36.857
-40.163
-42.664
-44.363
-45.247
-45.349
-44.731
-43.461
-41.628
-39.316
-36.591
-33.551
-30.305
-26.969
-23.679
-20.544
-17.649
-15.06
-12.816
-10.938
-9.44
-8.322
-7.567
-7.152
-7.041
-7.197
-7.588
-8.173
-8.907
-9.74
-10.611
-11.47
-12.282
-13.012
-13.639
-14.14
-14.496
-14.693
-14.724
-14.579
-14.251
-13.728
-12.998
-12.05
-10.875
-9.469
-7.826
-5.943
-3.812
-1.427
1.216
4.122
7.294
10.734
14.446
18.429
22.679
27.192
31.957
36.965
42.206
47.666
53.33
59.181
65.203
71.376
77.682
84.1
90.606
97.178
103.793
110.425
117.051
123.644
130.181
136.637
142.989
149.21
155.277
161.164
166.84
172.284
177.473
182.373
186.955
191.191
195.051
198.524
201.604
204.264
206.479
208.266
209.634
210.591
211.156
211.301
210.982
210.221
209.06
207.389
205.079
202.211
198.787
194.79
190.514
185.205
178.123
170.336
162.176
155.602
152.957
151.686
150.098
145.677
134.963
121.122
106.837
93.963
85.532
79.437
73.526
67.339
59.581
51.058
42.849
34.843
27.215
19.98
13.007
6.416
0.294
-5.48
-11.148
-16.853
-22.616
-28.531
-34.699
-40.92
-46.884
-52.441
-57.015
-60.976
-66.369
-73.385
-81.179
-88.021
-87.983
-79.411
-67.227
-57.149
-61.513
-88.809
-134.011
-188.483
-233.726
-248.542
-225.679
-165.934
-83.161
-1.559
60.545
93.236
98.842
88.601
73.811
60.764
47.308
31.307
13.136
-4.82
-15.092
-15.54
-10.334
-3.578
-1.342
-5.535
-12.644
-20.409
-27.002
-31.954
-37.039
-42.901
-49.199
-55.561
-61.308
-66.183
-70.354
-73.879
-76.713
-78.803
-80.148
-80.781
-80.785
-80.266
-79.281
-77.913
-76.304
-74.56
-72.776
-71.038
-69.381
-67.82
-66.386
-65.103
-64.011
-63.186
-62.669
-62.486
-62.649
-63.125
-63.88
-64.865
-65.996
-67.199
-68.424
-69.628
-70.795
-71.927
-73.012
-74.044
-75.017
-75.908
-76.699
-77.384
-77.949
-78.396
-78.738
-78.995
-79.201
-79.389
-79.579
-79.785
-80.013
-80.259
-80.522
-80.799
-81.081
-81.364
-81.648
-81.931
-82.22
-82.517
-82.819
-83.123
-83.424
-83.715
-83.994
-84.258
-84.506
-84.741
-84.964
-85.18
-85.395
-85.615
-85.844
-86.085
-86.341
-86.612
-86.902
-87.211
-87.541
-87.895
-88.273
-88.678
-89.113
-89.58
-90.082
-90.619
-91.192
-91.803
-92.449
-93.132
-93.849
-94.596
-95.371
-96.171
-96.989
-97.82
-98.659
-99.498
-100.329
-101.144
-101.934
-102.69
-103.402
-104.06
-104.655
-105.176
-105.615
-105.961
-106.207
-106.342
-106.36
-106.251
-106.008
-105.623
-105.088
-104.399
-103.547
-102.529
-101.339
-99.975
-98.434
-96.714
-94.814
-92.737
-90.483
-88.056
-85.461
-82.705
-79.794
-76.739
-73.548
-70.235
-66.812
-63.292
-59.691
-56.023
-52.306
-48.555
-44.788
-41.023
-37.279
-33.574
-29.93
-26.368
-22.907
-19.569
-16.373
-13.341
-10.49
-7.839
-5.401
-3.192
-1.225
0.488
1.933
3.097
3.974
4.554
4.835
4.812
4.484
3.855
2.937
1.737
0.267
-1.467
-3.467
-5.73
-8.245
-10.999
-13.974
-17.148
-20.497
-23.987
-27.567
-31.19
-34.806
-38.374
-41.867
-45.249
-48.475
-51.497
-54.249
-56.676
-58.743
-60.417
-61.676
-62.52
-62.961
-63.04
-62.833
-62.42
-61.888
-61.335
-60.846
-60.521
-60.455
-60.766
-61.628
-63.142
-65.325
-68.1
-71.215
-74.377
-77.319
-79.667
-80.943
-80.829
-79.142
-75.999
-72.051
-67.953
-64.315
-61.846
-61.077
-62.314
-65.663
-70.529
-75.408
-78.594
-78.021
-71.41
-56.949
-32.717
3.084
51.213
111.75
183.196
261.361
341.626
419.227
490.705
557.282
619.66
675.494
719.068
736.113
711.662
637.537
511.187
343.535
155.378
-31.81
-194.349
-316.144
-393.191
-428.385
-432.23
-415.357
-383.368
-339.918
-288.467
-235.518
-189.502
-156.332
-136.245
-123.444
-111.533
-97.373
-82.168
-70.741
-66.122
-68.104
-74.817
-82.931
-90.52
-97.263
-102.555
-106.003
-107.313
-106.241
-102.922
-97.679
-90.456
-81.099
-70.087
-58.218
-46.39
-35.231
-24.941
-15.639
-7.687
-1.601
2.486
4.874
6.163
6.837
7.05
6.847
6.348
5.836
5.544
5.502
5.527
5.445
5.227
4.948
4.727
4.616
4.614
4.744
5.067
5.652
6.543
7.74
9.194
10.842
12.625
14.48
16.366
18.254
20.109
21.898
23.598
25.193
26.685
28.091
29.421
30.684
31.891
33.055
34.204
35.372
36.599
37.923
39.377
40.981
42.761
44.734
46.916
49.318
51.942
54.784
57.843
61.12
64.616
68.333
72.268
76.416
80.772
85.33
90.083
95.025
100.149
105.447
110.912
116.535
122.308
128.224
134.272
140.441
146.717
153.085
159.529
166.032
172.576
179.142
185.709
192.257
198.766
205.213
211.578
217.839
223.971
229.952
235.758
241.365
246.749
251.886
256.752
261.323
265.575
269.485
273.033
276.197
278.957
281.294
283.192
284.635
285.609
286.102
286.102
285.603
284.597
283.081
281.052
278.511
275.459
271.904
267.85
263.309
258.291
252.811
246.885
240.53
233.767
226.618
219.106
211.258
203.101
194.662
185.974
177.066
167.97
158.718
149.345
139.881
130.361
120.816
111.279
101.781
92.354
83.026
73.826
64.782
55.92
47.264
38.838
30.661
22.753
15.13
7.809
0.8
-5.884
-12.236
-18.248
-23.916
-29.239
-34.215
-38.846
-43.136
-47.089
-50.714
-54.019
-57.014
-59.71
-62.12
-64.258
-66.138
-67.774
-69.183
-70.379
-71.379
-72.2
-72.857
-73.367
-73.745
-74.007
-74.169
-74.245
-74.248
-74.192
-74.088
-73.949
-73.784
-73.603
-73.415
-73.226
-73.043
-72.871
-72.715
-72.579
-72.464
-72.372
-72.304
-72.259
-72.236
-72.234
-72.25
-72.283
-72.329
-72.385
-72.448
-72.514
-72.579
-72.64
-72.693
-72.733
-72.757
-72.762
-72.742
-72.697
-72.621
-72.513
-72.37
-72.191
-71.973
-71.716
-71.418
-71.08
-70.701
-70.283
-69.826
-69.332
-68.802
-68.24
-67.647
-67.027
-66.382
-65.715
-65.031
-64.331
-63.619
-62.899
-62.172
-61.443
-60.714
-59.987
-59.266
-58.553
-57.851
-57.161
-56.486
-55.828
-55.187
-54.568
-53.969
-53.393
-52.842
-52.315
-51.813
-51.337
-50.887
-50.462
-50.061
-49.685
-49.332
-49.002
-48.694
-48.407
-48.141
-47.896
-47.671
-47.467
-47.282
-47.117
-46.972
-46.847
-46.743
-46.66
-46.599
-46.561
-46.546
-46.558
-46.596
-46.662
-46.758
-46.883
-47.041
-47.231
-47.454
-47.712
-48.005
-48.334
-48.702
-49.108
-49.554
-50.039
-50.565
-51.129
-51.731
-52.368
-53.037
-53.733
-54.451
-55.189
-55.943
-56.706
-57.475
-58.245
-59.013
-59.776
-60.528
-61.262
-61.968
-62.637
-63.26
-63.825
-64.323
-64.74
-65.064
-65.287
-65.405
-65.41
-65.294
-65.047
-64.652
-64.099
-63.387
-62.513
-61.479
-60.287
-58.944
-57.471
-55.901
-54.263
-52.58
-50.858
-49.092
-47.284
-45.435
-43.547
-41.624
-39.649
-37.607
-35.486
-33.286
-31.003
-28.62
-26.097
-23.37
-20.391
-17.14
-13.629
-9.887
-5.947
-1.851
2.344
6.563
10.702
14.663
18.373
21.775
24.812
27.409
29.46
30.834
31.43
31.183
30.059
28.054
25.172
21.437
16.907
11.674
5.859
-0.433
-7.119
-14.14
-21.432
-28.911
-36.461
-43.94
-51.222
-58.206
-64.807
-70.962
-76.615
-81.727
-86.285
-90.315
-93.85
-96.918
-99.533
-101.688
-103.377
-104.636
-105.532
-106.166
-106.666
-107.135
-107.651
-108.311
-109.2
-110.414
-112.052
-114.163
-116.75
-119.829
-123.462
-127.67
-132.418
-137.485
-142.411
-146.733
-150.075
-152.07
-152.303
-150.469
-146.41
-140.384
-133.312
-126.098
-119.309
-113.563
-109.515
-107.593
-108.035
-109.388
-108.154
-101.347
-87.4
-67.581
-45.139
-20.532
9.705
52.401
113.955
194.641
288.586
385.812
477.05
556.764
619.915
660.867
670.044
635.519
551.197
417.2
244.26
52.814
-135.344
-298.327
-421.291
-499.287
-535.529
-538.768
-517.093
-479.182
-430.978
-379.474
-336.003
-305.182
-287.75
-278.963
-266.59
-245.057
-214.884
-179.659
-147.343
-122.026
-103.359
-90.437
-81.5
-75.702
-73.052
-73.188
-75.328
-78.348
-81.546
-84.51
-86.798
-88.263
-89.012
-89.259
-89.578
-90.69
-92.822
-95.923
-99.876
-104.399
-109.22
-114.116
-118.711
-122.554
-125.414
-127.204
-127.918
-127.666
-126.535
-124.583
-121.937
-118.755
-115.179
-111.362
-107.443
-103.528
-99.73
-96.135
-92.78
-89.693
-86.903
-84.469
-82.476
-80.986
-80.023
-79.56
-79.582
-80.132
-81.208
-82.676
-84.261
-85.608
-86.469
-86.862
-86.9
-86.589
-85.924
-84.944
-83.932
-83.398
-83.638
-84.476
-85.349
-85.651
-84.866
-82.627
-78.353
-71.182
-60.449
-46.012
-28.486
-8.875
11.79
32.71
53.047
71.7
87.548
99.805
108.517
114.365
118.289
121.008
123.026
124.998
127.716
131.915
137.837
145.148
153.185
161.479
169.873
178.264
186.522
194.411
201.78
208.777
215.723
222.838
230.156
237.568
244.887
252.034
258.995
265.709
272.093
278.06
283.543
288.544
293.103
297.236
300.926
304.131
306.798
308.911
310.478
311.521
312.075
312.158
311.785
310.974
309.743
308.101
306.057
303.604
300.728
297.429
293.712
289.595
285.101
280.25
275.057
269.541
263.719
257.608
251.228
244.597
237.732
230.655
223.39
215.964
208.406
200.745
193.007
185.22
177.409
169.598
161.812
154.073
146.402
138.821
131.35
124.01
116.82
109.798
102.963
96.331
89.917
83.733
77.791
72.102
66.672
61.508
56.615
51.995
47.649
43.579
39.782
36.256
32.998
30.002
27.262
24.771
22.52
20.5
18.701
17.112
15.721
14.519
13.493
12.632
11.925
11.361
10.928
10.615
10.41
10.303
10.282
10.337
10.457
10.633
10.856
11.117
11.408
11.722
12.053
12.393
12.738
13.082
13.422
13.753
14.072
14.377
14.666
14.938
15.192
15.427
15.644
15.843
16.023
16.186
16.332
16.461
16.574
16.671
16.753
16.82
16.872
16.91
16.934
16.944
16.939
16.919
16.885
16.835
16.769
16.687
16.587
16.47
16.335
16.18
16.005
15.808
15.589
15.346
15.077
14.781
14.456
14.1
13.711
13.288
12.829
12.332
11.796
11.221
10.604
9.946
9.246
8.503
7.719
6.893
6.027
5.121
4.176
3.195
2.177
1.125
0.041
-1.074
-2.22
-3.393
-4.593
-5.819
-7.068
-8.339
-9.63
-10.94
-12.267
-13.61
-14.965
-16.332
-17.709
-19.093
-20.484
-21.878
-23.275
-24.673
-26.07
-27.466
-28.858
-30.247
-31.632
-33.013
-34.39
-35.763
-37.133
-38.499
-39.863
-41.225
-42.584
-43.941
-45.296
-46.648
-47.998
-49.344
-50.685
-52.021
-53.351
-54.672
-55.983
-57.282
-58.567
-59.834
-61.081
-62.305
-63.504
-64.674
-65.812
-66.915
-67.98
-69.001
-69.977
-70.901
-71.77
-72.577
-73.317
-73.986
-74.577
-75.086
-75.506
-75.835
-76.066
-76.195
-76.219
-76.134
-75.937
-75.624
-75.195
-74.647
-73.98
-73.195
-72.294
-71.277
-70.149
-68.915
-67.579
-66.146
-64.624
-63.019
-61.339
-59.593
-57.79
-55.94
-54.054
-52.144
-50.224
-48.309
-46.416
-44.56
-42.757
-41.024
-39.377
-37.833
-36.406
-35.107
-33.948
-32.941
-32.1
-31.437
-30.964
-30.69
-30.62
-30.762
-31.12
-31.696
-32.486
-33.479
-34.669
-36.047
-37.614
-39.373
-41.324
-43.461
-45.775
-48.251
-50.874
-53.622
-56.464
-59.356
-62.256
-65.126
-67.939
-70.673
-73.299
-75.787
-78.091
-80.16
-81.956
-83.442
-84.59
-85.395
-85.864
-86.016
-85.904
-85.589
-85.134
-84.627
-84.143
-83.762
-83.582
-83.669
-84.125
-85.106
-86.684
-88.854
-91.49
-94.259
-96.782
-98.764
-99.852
-99.637
-97.882
-94.536
-89.961
-85.028
-80.727
-77.897
-77.097
-78.751
-83.198
-90.237
-98.793
-107.187
-112.203
-110.646
-101.513
-83.039
-55.395
-19.882
26.557
84.139
151.533
227.966
305.451
377.506
442.506
497.379
542.128
574.387
582.727
555.536
484.802
367.374
212.915
39.23
-135.333
-290.777
-413.032
-497.057
-542.886
-556.818
-546.622
-517.621
-474.354
-422.254
-369.253
-323.297
-289.487
-266.848
-248.39
-228.169
-203.931
-177.536
-154.553
-138.453
-129.258
-125.607
-124.582
-123.851
-122.571
-120.004
-115.946
-110.674
-104.343
-97.131
-89.461
-81.863
-74.977
-69.631
-66.239
-64.72
-64.876
-66.37
-68.848
-72.019
-75.444
-78.56
-81.012
-82.638
-83.392
-83.357
-82.581
-81.058
-78.85
-76.063
-72.805
-69.189
-65.297
-61.192
-56.956
-52.698
-48.549
-44.631
-41.028
-37.789
-34.937
-32.481
-30.43
-28.784
-27.518
-26.599
-25.988
-25.647
-25.548
-25.657
-25.933
-26.325
-26.776
-27.235
-27.667
-28.044
-28.344
-28.55
-28.643
-28.61
-28.448
-28.154
-27.719
-27.133
-26.382
-25.455
-24.345
-23.045
-21.55
-19.854
-17.947
-15.824
-13.477
-10.903
-8.095
-5.047
-1.755
1.786
5.576
9.613
13.893
18.413
23.166
28.144
33.338
38.738
44.332
50.109
56.055
62.155
68.395
74.756
81.223
87.775
94.393
101.056
107.743
114.43
121.096
127.716
134.267
140.725
147.065
153.263
159.294
165.135
170.76
176.148
181.274
186.116
190.655
194.868
198.738
202.247
205.378
208.117
210.452
212.369
213.861
214.919
215.536
215.709
215.436
214.715
213.55
211.944
209.902
207.434
204.548
201.258
197.576
193.518
189.101
184.344
179.266
173.89
168.236
162.33
156.196
149.858
143.344
136.681
129.894
123.011
116.06
109.066
102.058
95.06
88.098
81.197
74.38
67.671
61.091
54.661
48.401
42.326
36.455
30.802
25.379
20.198
15.268
10.599
6.197
2.067
-1.788
-5.364
-8.662
-11.681
-14.423
-16.892
-19.092
-21.029
-22.709
-24.139
-25.329
-26.287
-27.024
-27.551
-27.878
-28.018
-27.983
-27.784
-27.436
-26.95
-26.34
-25.617
-24.796
-23.888
-22.904
-21.856
-20.755
-19.612
-18.435
-17.235
-16.02
-14.797
-13.576
-12.362
-11.162
-9.983
-8.829
-7.705
-6.615
-5.562
-4.551
-3.583
-2.66
-1.784
-0.957
-0.178
0.552
1.233
1.866
2.453
2.993
3.491
3.946
4.363
4.742
5.087
5.398
5.68
5.933
6.159
6.36
6.538
6.694
6.829
6.945
7.042
7.12
7.18
7.223
7.247
7.254
7.242
7.212
7.163
7.094
7.005
6.895
6.764
6.61
6.434
6.233
6.008
5.756
5.477
5.169
4.833
4.466
4.069
3.641
3.183
2.693
2.174
1.625
1.047
0.443
-0.188
-0.842
-1.517
-2.212
-2.923
-3.647
-4.381
-5.122
-5.867
-6.612
-7.355
-8.092
-8.82
-9.536
-10.238
-10.923
-11.588
-12.232
-12.851
-13.444
-14.01
-14.547
-15.053
-15.529
-15.974
-16.387
-16.77
-17.122
-17.444
-17.737
-18.003
-18.242
-18.457
-18.65
-18.822
-18.977
-19.116
-19.243
-19.36
-19.469
-19.572
-19.67
-19.767
-19.863
-19.958
-20.054
-20.151
-20.247
-20.344
-20.44
-20.533
-20.621
-20.702
-20.772
-20.827
-20.863
-20.876
-20.86
-20.81
-20.722
-20.59
-20.409
-20.174
-19.878
-19.517
-19.085
-18.578
-17.989
-17.315
-16.551
-15.694
-14.741
-13.689
-12.538
-11.285
-9.933
-8.481
-6.932
-5.289
-3.557
-1.739
0.157
2.124
4.152
6.231
8.349
10.495
12.652
14.804
16.936
19.029
21.067
23.033
24.908
26.675
28.319
29.824
31.176
32.359
33.357
34.154
34.737
35.09
35.204
35.066
34.668
34.001
33.066
31.863
30.394
28.658
26.648
24.359
21.798
18.972
15.892
12.577
9.051
5.347
1.517
-2.391
-6.327
-10.25
-14.128
-17.929
-21.612
-25.128
-28.429
-31.464
-34.206
-36.634
-38.718
-40.453
-41.867
-43.017
-44.004
-44.926
-45.847
-46.835
-47.968
-49.322
-51.004
-53.114
-55.703
-58.859
-62.683
-67.202
-72.392
-78.077
-83.856
-89.295
-93.985
-97.444
-99.204
-98.928
-96.426
-91.949
-86.197
-79.948
-73.909
-68.711
-64.94
-63.013
-62.952
-63.963
-64.447
-62.36
-55.601
-42.371
-20.69
11.418
55.295
111.512
178.623
252.788
329.671
404.59
474.296
538.846
598.014
650.65
691.842
709.783
691.417
625.398
507.445
346.252
158.949
-32.1
-204.352
-343.823
-443.114
-500.504
-520.468
-506.101
-462.497
-399.644
-327.399
-259.516
-208.054
-175.435
-159.438
-152.146
-143.9
-132.052
-117.588
-104.117
-96.632
-95.952
-100.226
-106.647
-111.712
-113.603
-112.195
-107.933
-101.636
-94.025
-85.639
-77.179
-69.48
-63.369
-59.275
-57.161
-56.771
-57.67
-59.396
-61.604
-63.924
-65.948
-67.45
-68.305
-68.431
-67.87
-66.675
-64.856
-62.474
-59.598
-56.267
-52.569
-48.612
-44.504
-40.389
-36.371
-32.508
-28.859
-25.465
-22.361
-19.596
-17.184
-15.112
-13.377
-11.973
-10.894
-10.14
-9.68
-9.463
-9.434
-9.533
-9.712
-9.941
-10.188
-10.424
-10.628
-10.777
-10.86
-10.876
-10.813
-10.657
-10.392
-10
-9.469
-8.795
-7.969
-6.987
-5.841
-4.525
-3.034
-1.363
0.494
2.544
4.795
7.254
9.925
12.81
15.909
19.221
22.742
26.469
30.396
34.516
38.822
43.304
47.955
52.764
57.722
62.817
68.035
73.365
78.792
84.3
89.874
95.496
101.15
106.816
112.477
118.113
123.703
129.23
134.672
140.008
145.219
150.283
155.18
159.888
164.388
168.66
172.684
176.442
179.917
183.09
185.946
188.471
190.65
192.47
193.919
194.987
195.664
195.943
195.817
195.282
194.334
192.974
191.201
189.018
186.43
183.443
180.065
176.307
172.179
167.697
162.874
157.727
152.275
146.537
140.534
134.288
127.822
121.159
114.324
107.342
100.238
93.038
85.767
78.451
71.116
63.787
56.488
49.245
42.079
35.015
28.073
21.273
14.636
8.179
1.917
-4.133
-9.959
-15.55
-20.894
-25.984
-30.814
-35.377
-39.671
-43.693
-47.444
-50.923
-54.134
-57.081
-59.767
-62.2
-64.386
-66.332
-68.048
-69.542
-70.825
-71.906
-72.798
-73.51
-74.054
-74.441
-74.683
-74.791
-74.775
-74.647
-74.417
-74.093
-73.685
-73.203
-72.652
-72.041
-71.377
-70.664
-69.907
-69.112
-68.282
-67.419
-66.526
-65.605
-64.657
-63.683
-62.683
-61.657
-60.606
-59.528
-58.423
-57.291
-56.131
-54.942
-53.723
-52.473
-51.192
-49.879
-48.534
-47.157
-45.748
-44.307
-42.836
-41.335
-39.806
-38.251
-36.673
-35.075
-33.458
-31.828
-30.187
-28.541
-26.893
-25.248
-23.611
-21.987
-20.382
-18.799
-17.246
-15.725
-14.243
-12.803
-11.411
-10.069
-8.783
-7.554
-6.387
-5.283
-4.246
-3.277
-2.378
-1.549
-0.792
-0.106
0.508
1.052
1.527
1.933
2.273
2.549
2.764
2.92
3.02
3.069
3.07
3.027
2.944
2.825
2.674
2.495
2.293
2.072
1.834
1.585
1.327
1.063
0.795
0.527
0.258
-0.008
-0.271
-0.53
-0.785
-1.037
-1.285
-1.53
-1.774
-2.018
-2.262
-2.51
-2.763
-3.024
-3.294
-3.577
-3.876
-4.191
-4.528
-4.887
-5.272
-5.685
-6.128
-6.604
-7.114
-7.661
-8.246
-8.868
-9.53
-10.231
-10.97
-11.745
-12.555
-13.397
-14.269
-15.165
-16.083
-17.017
-17.962
-18.914
-19.864
-20.809
-21.739
-22.65
-23.532
-24.379
-25.183
-25.937
-26.632
-27.261
-27.817
-28.292
-28.68
-28.974
-29.167
-29.254
-29.229
-29.087
-28.825
-28.438
-27.924
-27.28
-26.507
-25.604
-24.574
-23.418
-22.139
-20.743
-19.235
-17.621
-15.91
-14.11
-12.231
-10.282
-8.278
-6.23
-4.152
-2.058
0.036
2.112
4.152
6.14
8.054
9.878
11.593
13.18
14.621
15.9
17.003
17.915
18.622
19.11
19.363
19.371
19.123
18.611
17.829
16.77
15.432
13.82
11.941
9.799
7.399
4.739
1.815
-1.362
-4.783
-8.434
-12.294
-16.34
-20.542
-24.852
-29.221
-33.605
-37.962
-42.263
-46.481
-50.571
-54.485
-58.169
-61.563
-64.638
-67.367
-69.719
-71.69
-73.298
-74.588
-75.648
-76.557
-77.378
-78.186
-79.056
-80.072
-81.353
-82.991
-85.094
-87.822
-91.244
-95.359
-100.084
-105.113
-110.066
-114.59
-118.212
-120.408
-120.863
-119.38
-116.093
-111.723
-107.029
-102.734
-99.655
-98.415
-99.427
-102.89
-108.215
-113.78
-117.65
-117.614
-111.348
-96.75
-71.574
-33.808
17.674
82.074
156.52
237.111
319.214
399.896
478.648
554.736
626.283
686.904
724.931
727.053
681.856
585.263
441.446
263.09
68.881
-121.364
-287.936
-417.261
-502.999
-546.185
-554.482
-535.108
-495.614
-442.237
-380.422
-319.835
-269.341
-234.24
-215.769
-208.08
-202.967
-195.825
-185.361
-174.318
-166.949
-164.079
-164.172
-164.298
-161.465
-155.044
-145.718
-134.426
-122.365
-110.363
-99.171
-89.916
-83.277
-79.391
-78.175
-79.209
-82.002
-86.145
-91.097
-96.215
-101.037
-105.271
-108.723
-111.35
-113.118
-113.972
-113.929
-113.036
-111.336
-108.89
-105.772
-102.055
-97.842
-93.274
-88.493
-83.647
-78.885
-74.321
-70.053
-66.158
-62.683
-59.657
-57.096
-55.001
-53.361
-52.158
-51.361
-50.934
-50.841
-51.037
-51.47
-52.083
-52.815
-53.615
-54.446
-55.275
-56.077
-56.832
-57.521
-58.129
-58.648
-59.069
-59.379
-59.566
-59.614
-59.51
-59.243
-58.805
-58.189
-57.386
-56.385
-55.176
-53.75
-52.1
-50.217
-48.093
-45.72
-43.094
-40.214
-37.078
-33.692
-30.058
-26.183
-22.072
-17.736
-13.186
-8.431
-3.484
1.641
6.931
12.37
17.942
23.628
29.412
35.273
41.193
47.15
53.125
59.094
65.037
70.931
76.754
82.483
88.095
93.566
98.876
104.001
108.92
113.613
118.059
122.241
126.138
129.737
133.02
135.974
138.587
140.848
142.747
144.278
145.433
146.208
146.602
146.612
146.239
145.486
144.356
142.855
140.991
138.77
136.206
133.309
130.093
126.573
122.767
118.693
114.37
109.819
105.062
100.122
95.021
89.785
84.436
79.001
73.503
67.968
62.419
56.881
51.378
45.93
40.562
35.292
30.141
25.128
20.269
15.582
11.081
6.78
2.691
-1.173
-4.804
-8.193
-11.332
-14.217
-16.844
-19.211
-21.317
-23.163
-24.751
-26.086
-27.172
-28.016
-28.627
-29.013
-29.183
-29.15
-28.925
-28.52
-27.948
-27.222
-26.355
-25.362
-24.254
-23.045
-21.749
-20.378
-18.944
-17.46
-15.938
-14.389
-12.824
-11.255
-9.691
-8.143
-6.618
-5.125
-3.672
-2.265
-0.911
0.386
1.622
2.792
3.896
4.931
5.896
6.792
7.62
8.381
9.078
9.713
10.289
10.81
11.278
11.698
12.072
12.404
12.697
12.956
13.183
13.382
13.555
13.707
13.84
13.958
14.062
14.156
14.242
14.322
14.398
14.473
14.547
14.622
14.699
14.777
14.857
14.938
15.02
15.1
15.177
15.25
15.315
15.371
15.415
15.446
15.461
15.458
15.437
15.395
15.331
15.246
15.137
15.005
14.85
14.672
14.471
14.25
14.008
13.747
13.468
13.173
12.864
12.543
12.21
11.869
11.522
11.171
10.818
10.468
10.123
9.786
9.461
9.151
8.86
8.59
8.345
8.127
7.938
7.78
7.654
7.563
7.505
7.482
7.494
7.539
7.617
7.725
7.862
8.024
8.21
8.415
8.637
8.873
9.118
9.369
9.624
9.878
10.128
10.37
10.602
10.818
11.017
11.195
11.348
11.475
11.573
11.641
11.677
11.681
11.653
11.593
11.504
11.386
11.242
11.074
10.888
10.687
10.476
10.262
10.05
9.848
9.662
9.502
9.374
9.286
9.246
9.262
9.341
9.49
9.718
10.031
10.435
10.936
11.541
12.255
13.082
14.026
15.089
16.273
17.579
19.005
20.552
22.215
23.99
25.873
27.857
29.934
32.097
34.334
36.635
38.986
41.373
43.783
46.197
48.596
50.964
53.279
55.523
57.678
59.722
61.637
63.407
65.014
66.442
67.676
68.699
69.493
70.044
70.341
70.372
70.129
69.603
68.79
67.692
66.314
64.66
62.731
60.525
58.039
55.28
52.259
48.986
45.481
41.766
37.869
33.834
29.705
25.522
21.325
17.14
12.993
8.928
4.989
1.226
-2.306
-5.575
-8.553
-11.207
-13.529
-15.53
-17.245
-18.74
-20.079
-21.309
-22.494
-23.704
-25.013
-26.529
-28.334
-30.524
-33.254
-36.587
-40.519
-44.965
-49.634
-54.185
-58.313
-61.608
-63.611
-64.066
-62.836
-60.081
-56.492
-52.748
-49.485
-47.423
-47.087
-48.778
-52.599
-57.949
-63.351
-67.15
-67.331
-61.716
-48.609
-26.114
7.588
53.309
111.26
179.748
254.102
329.658
401.928
468.791
533.526
597.204
656.485
702.708
717.455
684.783
597.973
458.194
281.499
90.027
-96.126
-256.332
-378.524
-459.446
-500.589
-510.243
-496.473
-464.492
-418.687
-363.452
-306.337
-255.632
-216.864
-190.482
-170.907
-152.463
-132.678
-112.372
-95.78
-85.642
-81.594
-81.733
-82.73
-82.172
-79.196
-73.708
-66.297
-57.573
-47.996
-38.125
-28.627
-20.268
-13.86
-9.796
-8.026
-8.305
-10.232
-13.399
-17.457
-21.962
-26.356
-30.238
-33.384
-35.692
-37.199
-37.939
-37.898
-37.106
-35.638
-33.578
-31.031
-28.091
-24.82
-21.305
-17.645
-13.953
-10.37
-7.013
-3.957
-1.252
1.078
3.025
4.578
5.741
6.541
7.017
7.212
7.167
6.914
6.492
5.945
5.33
4.708
4.132
3.636
3.249
2.994
2.89
2.955
3.202
3.633
4.25
5.058
6.066
7.285
8.723
10.383
12.267
14.376
16.714
19.282
22.085
25.121
28.393
31.9
35.642
39.62
43.832
48.273
52.935
57.811
62.89
68.162
73.615
79.234
85.005
90.914
96.944
103.079
109.303
115.598
121.944
128.324
134.718
141.106
147.466
153.779
160.023
166.175
172.214
178.117
183.863
189.427
194.788
199.924
204.811
209.43
213.758
217.775
221.463
224.802
227.776
230.368
232.564
234.351
235.715
236.648
237.141
237.187
236.78
235.917
234.595
232.814
230.576
227.884
224.743
221.16
217.143
212.704
207.856
202.612
196.991
191.009
184.689
178.051
171.12
163.919
156.476
148.817
140.971
132.965
124.831
116.597
108.292
99.947
91.59
83.25
74.955
66.732
58.608
50.607
42.753
35.069
27.576
20.296
13.246
6.444
-0.094
-6.354
-12.325
-17.995
-23.357
-28.403
-33.13
-37.535
-41.617
-45.377
-48.82
-51.95
-54.775
-57.302
-59.542
-61.506
-63.207
-64.659
-65.875
-66.87
-67.66
-68.26
-68.686
-68.954
-69.078
-69.075
-68.96
-68.746
-68.45
-68.085
-67.665
-67.203
-66.712
-66.205
-65.693
-65.185
-64.694
-64.226
-63.79
-63.394
-63.043
-62.742
-62.494
-62.303
-62.17
-62.095
-62.078
-62.118
-62.212
-62.357
-62.552
-62.791
-63.071
-63.388
-63.739
-64.118
-64.523
-64.949
-65.392
-65.85
-66.317
-66.792
-67.27
-67.748
-68.223
-68.693
-69.155
-69.605
-70.043
-70.466
-70.871
-71.258
-71.626
-71.973
-72.3
-72.607
-72.895
-73.164
-73.418
-73.658
-73.887
-74.108
-74.325
-74.54
-74.756
-74.977
-75.206
-75.446
-75.698
-75.966
-76.252
-76.557
-76.882
-77.231
-77.602
-77.998
-78.417
-78.862
-79.331
-79.825
-80.344
-80.887
-81.455
-82.046
-82.66
-83.297
-83.955
-84.633
-85.33
-86.044
-86.772
-87.512
-88.262
-89.019
-89.781
-90.543
-91.305
-92.062
-92.813
-93.556
-94.288
-95.008
-95.714
-96.404
-97.079
-97.736
-98.377
-99.002
-99.61
-100.203
-100.781
-101.345
-101.897
-102.436
-102.964
-103.481
-103.989
-104.487
-104.977
-105.457
-105.929
-106.393
-106.849
-107.295
-107.732
-108.159
-108.574
-108.976
-109.364
-109.734
-110.084
-110.412
-110.713
-110.983
-111.219
-111.414
-111.564
-111.662
-111.703
-111.678
-111.583
-111.409
-111.149
-110.797
-110.345
-109.786
-109.115
-108.326
-107.412
-106.369
-105.192
-103.879
-102.426
-100.832
-99.096
-97.218
-95.2
-93.044
-90.755
-88.337
-85.797
-83.141
-80.38
-77.524
-74.584
-71.574
-68.508
-65.403
-62.275
-59.145
-56.032
-52.957
-49.94
-47.003
-44.168
-41.456
-38.887
-36.48
-34.255
-32.232
-30.429
-28.866
-27.56
-26.527
-25.782
-25.336
-25.2
-25.382
-25.881
-26.698
-27.832
-29.283
-31.054
-33.146
-35.549
-38.252
-41.24
-44.49
-47.974
-51.656
-55.486
-59.416
-63.401
-67.401
-71.385
-75.318
-79.158
-82.86
-86.37
-89.642
-92.642
-95.341
-97.708
-99.737
-101.446
-102.876
-104.109
-105.213
-106.231
-107.214
-108.21
-109.273
-110.483
-111.914
-113.615
-115.653
-118.118
-121.038
-124.386
-128.015
-131.596
-134.762
-137.171
-138.428
-138.121
-135.992
-131.923
-126.07
-119.016
-111.418
-103.833
-96.909
-91.272
-87.255
-84.958
-83.989
-83.147
-80.885
-75.602
-65.496
-48.612
-23.186
12.266
58.838
115.664
179.627
247.062
313.69
376.846
437.429
495.859
549.862
592.931
613.283
597.676
537.245
430.673
283.111
108.615
-73.252
-243.369
-381.717
-476.241
-526.651
-538.195
-522.083
-489.025
-444.457
-394.037
-344.21
-300.689
-268.241
-246.84
-230.974
-215.557
-198.51
-181.056
-167.63
-161.005
-160.695
-164.528
-169.057
-171.685
-171.28
-167.511
-160.72
-151.406
-140.109
-127.528
-114.492
-101.969
-90.936
-81.956
-75.187
-70.536
-67.712
-66.397
-66.295
-67.051
-68.256
-69.63
-71.02
-72.328
-73.537
-74.612
-75.468
-76.021
-76.236
-76.083
-75.55
-74.659
-73.419
-71.852
-70.004
-67.91
-65.606
-63.131
-60.518
-57.797
-55.012
-52.207
-49.438
-46.785
-44.306
-42.033
-39.982
-38.143
-36.5
-35.04
-33.739
-32.563
-31.484
-30.474
-29.51
-28.581
-27.663
-26.729
-25.741
-24.653
-23.427
-22.035
-20.455
-18.67
-16.668
-14.437
-11.971
-9.274
-6.348
-3.189
0.207
3.846
7.734
11.87
16.251
20.873
25.73
30.819
36.134
41.666
47.409
53.353
59.492
65.819
72.325
78.997
85.822
92.787
99.873
107.065
114.344
121.69
129.083
136.502
143.925
151.333
158.702
166.009
173.233
180.349
187.335
194.168
200.823
207.278
213.509
219.494
225.211
230.639
235.756
240.545
244.985
249.06
252.753
256.05
258.937
261.402
263.434
265.024
266.166
266.855
267.086
266.861
266.178
265.043
263.459
261.434
258.978
256.1
252.815
249.135
245.078
240.661
235.905
230.829
225.456
219.809
213.913
207.793
201.474
194.983
188.347
181.591
174.743
167.83
160.879
153.915
146.965
140.054
133.205
126.443
119.789
113.265
106.889
100.68
94.655
88.827
83.211
77.818
72.658
67.738
63.067
58.647
54.482
50.574
46.922
43.524
40.378
37.479
34.822
32.401
30.207
28.233
26.469
24.906
23.534
22.341
21.316
20.448
19.725
19.136
18.667
18.308
18.048
17.876
17.78
17.752
17.78
17.858
17.975
18.125
18.3
18.494
18.703
18.921
19.144
19.37
19.595
19.819
20.04
20.256
20.468
20.676
20.88
21.081
21.279
21.477
21.675
21.875
22.078
22.288
22.504
22.73
22.966
23.215
23.476
23.752
24.044
24.351
24.675
25.015
25.373
25.746
26.136
26.54
26.958
27.387
27.827
28.274
28.727
29.183
29.639
30.093
30.543
30.985
31.416
31.835
32.238
32.623
32.987
33.327
33.642
33.93
34.187
34.414
34.608
34.768
34.893
34.983
35.037
35.055
35.036
34.981
34.889
34.761
34.598
34.402
34.172
33.91
33.618
33.297
32.949
32.574
32.176
31.755
31.313
30.851
30.372
29.876
29.366
28.842
28.307
27.761
27.205
26.641
26.069
25.489
24.902
24.308
23.707
23.099
22.485
21.864
21.236
20.602
19.96
19.311
18.655
17.991
17.318
16.638
15.95
15.255
14.553
13.845
13.131
12.413
11.692
10.97
10.246
9.524
8.804
8.09
7.384
6.688
6.005
5.341
4.697
4.08
3.493
2.941
2.429
1.962
1.547
1.187
0.889
0.659
0.502
0.425
0.432
0.53
0.723
1.016
1.414
1.919
2.536
3.267
4.114
5.08
6.166
7.374
8.703
10.154
11.727
13.42
15.231
17.155
19.188
21.326
23.56
25.885
28.292
30.771
33.313
35.908
38.542
41.201
43.873
46.541
49.189
51.8
54.355
56.836
59.226
61.508
63.663
65.672
67.516
69.176
70.634
71.877
72.888
73.651
74.153
74.38
74.326
73.984
73.349
72.414
71.173
69.624
67.775
65.641
63.235
60.573
57.663
54.515
51.148
47.579
43.829
39.919
35.863
31.685
27.424
23.123
18.832
14.595
10.427
6.338
2.324
-1.611
-5.426
-9.074
-12.513
-15.685
-18.576
-21.173
-23.408
-25.311
-27.003
-28.639
-30.529
-32.947
-35.898
-39.381
-43.383
-47.604
-51.796
-55.667
-58.465
-59.607
-58.948
-56.288
-51.718
-45.847
-38.978
-31.461
-24.311
-18.308
-13.999
-12.234
-13.332
-17.036
-23.385
-32.158
-42.628
-54.207
-65.694
-75.169
-80.14
-77.306
-64.68
-41.359
-7.98
32.452
80.039
136.748
204.274
285.708
379.127
477.626
573.71
657.979
720.207
752.376
747.98
701.025
612.598
487.888
332.153
157.952
-21.247
-190.946
-331.749
-432.042
-488.449
-504.259
-490.479
-455.669
-404.961
-342.916
-274.803
-210.526
-159.247
-125.648
-108.453
-99.629
-92.868
-85.76
-79.422
-78.318
-83.643
-93.354
-103.977
-111.082
-112.779
-109.314
-101.381
-90.277
-77.239
-63.243
-49.701
-38.008
-28.835
-22.421
-18.652
-17.113
-17.397
-19.092
-21.659
-24.59
-27.6
-30.527
-33.285
-35.821
-38.028
-39.822
-41.173
-42.082
-42.552
-42.569
-42.13
-41.261
-40.027
-38.51
-36.775
-34.862
-32.799
-30.63
-28.419
-26.259
-24.247
-22.444
-20.893
-19.63
-18.668
-18.018
-17.677
-17.607
-17.765
-18.109
-18.601
-19.218
-19.94
-20.738
-21.577
-22.414
-23.201
-23.899
-24.476
-24.903
-25.152
-25.202
-25.032
-24.635
-24.008
-23.145
-22.037
-20.673
-19.042
-17.133
-14.941
-12.461
-9.688
-6.622
-3.261
0.396
4.344
8.58
13.1
17.899
22.972
28.31
33.905
39.742
45.809
52.088
58.564
65.219
72.031
78.979
86.043
93.198
100.421
107.687
114.971
122.247
129.486
136.661
143.744
150.706
157.518
164.152
170.577
176.767
182.691
188.324
193.639
198.611
203.215
207.43
211.233
214.607
217.533
219.995
221.979
223.472
224.464
224.945
224.91
224.354
223.274
221.671
219.548
216.907
213.756
210.104
205.962
201.343
196.261
190.735
184.783
178.427
171.69
164.598
157.175
149.449
141.45
133.206
124.747
116.103
107.306
98.385
89.372
80.296
71.188
62.077
52.992
43.962
35.013
26.173
17.465
8.914
0.541
-7.631
-15.584
-23.301
-30.765
-37.963
-44.882
-51.51
-57.841
-63.867
-69.582
-74.984
-80.072
-84.846
-89.308
-93.461
-97.31
-100.862
-104.124
-107.104
-109.811
-112.256
-114.449
-116.402
-118.126
-119.635
-120.939
-122.054
-122.992
-123.765
-124.388
-124.873
-125.232
-125.48
-125.626
-125.684
-125.665
-125.578
-125.436
-125.247
-125.02
-124.764
-124.486
-124.195
-123.896
-123.595
-123.297
-123.007
-122.729
-122.466
-122.222
-121.999
-121.799
-121.624
-121.476
-121.356
-121.264
-121.202
-121.169
-121.167
-121.195
-121.253
-121.34
-121.458
-121.606
-121.783
-121.989
-122.225
-122.489
-122.782
-123.104
-123.453
-123.831
-124.236
-124.669
-125.129
-125.616
-126.129
-126.669
-127.235
-127.827
-128.444
-129.086
-129.752
-130.441
-131.154
-131.888
-132.644
-133.421
-134.216
-135.03
-135.86
-136.706
-137.564
-138.434
-139.314
-140.201
-141.092
-141.986
-142.879
-143.77
-144.654
-145.529
-146.392
-147.24
-148.07
-148.879
-149.664
-150.423
-151.153
-151.852
-152.518
-153.149
-153.742
-154.297
-154.811
-155.284
-155.714
-156.101
-156.443
-156.74
-156.993
-157.201
-157.366
-157.487
-157.566
-157.604
-157.604
-157.567
-157.495
-157.391
-157.259
-157.101
-156.921
-156.723
-156.511
-156.289
-156.061
-155.831
-155.603
-155.382
-155.169
-154.97
-154.786
-154.622
-154.478
-154.359
-154.266
-154.201
-154.166
-154.161
-154.187
-154.244
-154.331
-154.448
-154.592
-154.761
-154.952
-155.163
-155.388
-155.624
-155.866
-156.108
-156.344
-156.567
-156.77
-156.944
-157.082
-157.174
-157.211
-157.184
-157.085
-156.905
-156.635
-156.266
-155.792
-155.203
-154.493
-153.654
-152.68
-151.565
-150.303
-148.89
-147.323
-145.6
-143.72
-141.681
-139.486
-137.137
-134.637
-131.991
-129.205
-126.286
-123.241
-120.081
-116.817
-113.462
-110.029
-106.534
-102.995
-99.431
-95.862
-92.308
-88.792
-85.334
-81.957
-78.683
-75.533
-72.526
-69.682
-67.02
-64.558
-62.316
-60.315
-58.57
-57.098
-55.911
-55.023
-54.444
-54.179
-54.228
-54.591
-55.267
-56.256
-57.567
-59.204
-61.162
-63.436
-66.014
-68.878
-72.004
-75.358
-78.892
-82.556
-86.305
-90.094
-93.894
-97.671
-101.382
-104.983
-108.415
-111.623
-114.573
-117.226
-119.555
-121.561
-123.262
-124.704
-125.979
-127.166
-128.341
-129.596
-131.005
-132.652
-134.641
-137.051
-139.977
-143.546
-147.789
-152.683
-158.118
-163.785
-169.312
-174.334
-178.368
-180.944
-181.79
-180.748
-177.963
-174.058
-169.745
-165.798
-162.992
-161.787
-162.445
-165.124
-169.354
-173.886
-176.097
-172.116
-158.9
-134.947
-102.188
-64.605
-23.856
21.059
76.037
147.54
236.961
340.779
447.377
543.437
617.175
657.36
660.055
622.009
541.478
422.745
267.942
86.24
-104.897
-287.566
-438.77
-542.546
-597.576
-609.649
-592.042
-557.768
-512.319
-460.321
-407.414
-358.803
-320.48
-294.138
-274.961
-258.346
-241.639
-225.043
-212.805
-207.374
-208.071
-212.834
-217.969
-220.752
-220.169
-215.979
-208.703
-199.088
-187.829
-175.712
-163.622
-152.478
-143.147
-136.106
-131.401
-128.827
-127.994
-128.494
-129.934
-131.885
-133.871
-135.531
-136.66
-137.127
-136.913
-136.025
-134.447
-132.193
-129.31
-125.839
-121.834
-117.374
-112.52
-107.345
-101.95
-96.42
-90.858
-85.384
-80.09
-75.055
-70.34
-65.969
-61.964
-58.342
-55.104
-52.237
-49.719
-47.515
-45.591
-43.921
-42.471
-41.202
-40.068
-39.015
-37.999
-36.985
-35.945
-34.857
-33.701
-32.454
-31.102
-29.637
-28.051
-26.332
-24.468
-22.443
-20.241
-17.854
-15.272
-12.487
-9.491
-6.273
-2.826
0.859
4.788
8.965
13.397
18.09
23.046
28.265
33.745
39.48
45.465
51.692
58.151
64.831
71.718
78.799
86.06
93.484
101.055
108.753
116.56
124.455
132.414
140.415
148.434
156.446
164.423
172.341
180.172
187.889
195.465
202.874
210.088
217.08
223.825
230.298
236.475
242.33
247.843
252.992
257.758
262.122
266.068
269.581
272.648
275.257
277.4
279.069
280.258
280.964
281.184
280.92
280.174
278.952
277.261
275.109
272.51
269.476
266.024
262.172
257.939
253.346
248.416
243.173
237.641
231.848
225.82
219.585
213.171
206.606
199.921
193.143
186.301
179.424
172.54
165.677
158.862
152.12
145.478
138.958
132.585
126.38
120.364
114.554
108.969
103.624
98.533
93.708
89.159
84.895
80.922
77.244
73.866
70.789
68.013
65.536
63.356
61.469
59.87
58.551
57.507
56.729
56.208
55.934
55.896
56.085
56.487
57.091
57.885
58.856
59.992
61.279
62.704
64.256
65.921
67.687
69.543
71.476
73.475
75.531
77.634
79.773
81.941
84.13
86.332
88.54
90.749
92.953
95.146
97.324
99.481
101.615
103.721
105.797
107.838
109.843
111.808
113.733
115.616
117.455
119.249
120.999
122.703
124.362
125.977
127.548
129.076
130.563
132.01
133.418
134.79
136.127
137.43
138.701
139.943
141.156
142.343
143.505
144.644
145.761
146.86
147.941
149.007
150.061
151.105
152.141
153.173
154.202
155.233
156.267
157.306
158.354
159.413
160.484
161.569
162.669
163.786
164.919
166.07
167.237
168.421
169.62
170.834
172.062
173.302
174.552
175.812
177.079
178.351
179.626
180.903
182.179
183.451
184.717
185.974
187.22
188.451
189.664
190.855
192.023
193.163
194.273
195.348
196.388
197.389
198.349
199.267
200.143
200.974
201.762
202.507
203.211
203.874
204.499
205.088
205.645
206.173
206.675
207.156
207.619
208.071
208.515
208.956
209.4
209.853
210.319
210.804
211.315
211.857
212.437
213.062
213.738
214.471
215.269
216.138
217.084
218.115
219.236
220.452
221.769
223.192
224.724
226.371
228.136
230.023
232.032
234.169
236.433
238.828
241.352
244.008
246.793
249.709
252.753
255.924
259.221
262.642
266.183
269.842
273.614
277.497
281.485
285.572
289.752
294.018
298.363
302.778
307.256
311.786
316.358
320.964
325.591
330.229
334.865
339.486
344.08
348.632
353.127
357.551
361.886
366.117
370.228
374.203
378.027
381.683
385.156
388.433
391.5
394.344
396.952
399.312
401.412
403.242
404.792
406.054
407.022
407.693
408.066
408.147
407.94
407.454
406.696
405.668
404.381
402.848
401.083
399.105
396.938
394.609
392.159
389.64
387.098
384.58
382.129
379.777
377.563
375.531
373.72
372.186
370.972
370.114
369.656
369.627
370.045
370.912
372.183
373.784
375.645
377.698
379.887
382.164
384.439
386.615
388.588
390.227
391.452
392.164
392.195
391.48
390.041
388.018
385.816
383.895
382.581
382.268
383.378
386.111
390.605
396.641
403.36
409.907
415.588
419.801
422.114
422.169
419.75
415.33
411.183
410.596
416.378
430.173
450.449
474.417
502.137
536.64
584.973
653.534
740.743
838.695
934.171
1014.968
1078.044
1124.441
1154.916
1166.662
1148.778
1088.685
981.136
827.31
635.441
421.739
202.01
-6.161
-182.86
-317.176
-405.568
-452.015
-468.837
-465.771
-448.578
-423.418
-396.323
-373.672
-361.405
-359.302
-360.637
-359.686
-353.684
-343.929
-336.393
-334.751
-338.793
-347.207
-357.293
-366.918
-375.635
-382.963
-388.227
-391.378
-392.705
-392.411
-390.926
-388.806
-386.408
-384.362
-383.519
-384.209
-386.426
-390.063
-394.773
-400.24
-406.29
-412.614
-418.83
-424.726
-430.162
-435.082
-439.551
-443.603
-447.234
-450.465
-453.308
-455.752
-457.787
-459.418
-460.662
-461.553
-462.128
-462.41
-462.425
-462.204
-461.791
-461.22
-460.513
-459.681
-458.732
-457.699
-456.624
-455.561
-454.565
-453.67
-452.885
-452.216
-451.66
-451.21
-450.856
-450.578
-450.344
-450.127
-449.908
-449.667
-449.391
-449.051
-448.609
-448.026
-447.254
-446.256
-445.004
-443.473
-441.643
-439.502
-437.037
-434.244
-431.125
-427.681
-423.909
-419.808
-415.374
-410.607
-405.514
-400.101
-394.379
-388.358
-382.049
-375.465
-368.62
-361.529
-354.208
-346.672
-338.937
-331.022
-322.949
-314.743
-306.428
-298.029
-289.573
-281.086
-272.596
-264.132
-255.722
-247.392
-239.17
-231.084
-223.166
-215.447
-207.954
-200.716
-193.759
-187.107
-180.786
-174.821
-169.231
-164.035
-159.25
-154.895
-150.996
-147.577
-144.651
-142.222
-140.285
-138.837
-137.877
-137.398
-137.386
-137.821
-138.691
-139.995
-141.745
-143.951
-146.608
-149.699
-153.201
-157.077
-161.296
-165.841
-170.699
-175.856
-181.319
-187.081
-193.128
-199.495
-206.221
-213.297
-220.681
-228.295
-236.016
-243.783
-251.64
-259.486
-267.029
-274.158
-280.898
-287.182
-293.231
-298.522
-301.448
-302.22
-302.204
-303.688
-311.06
-324.192
-338.737
-350.38
-352.977
-346.042
-335.444
-325.728
-321.75
-324.45
-329.485
-334.186
-336.807
-336.828
-336.06
-335.326
-334.526
-333.698
-332.568
-331.065
-329.43
-327.73
-325.914
-323.996
-322.01
-319.975
-317.894
-315.747
-313.477
-311.055
-308.503
-305.843
-303.101
-300.303
-297.461
-294.59
-291.711
-288.847
-286.009
-283.2
-280.414
-277.642
-274.885
-272.146
-269.432
-266.748
-264.094
-261.469
-258.872
-256.301
-253.755
-251.232
-248.728
-246.237
-243.757
-241.286
-238.827
-236.382
-233.951
-231.533
-229.128
-226.736
-224.359
-221.996
-219.646
-217.307
-214.981
-212.668
-210.369
-208.086
-205.821
-203.575
-201.351
-199.151
-196.977
-194.831
-192.714
-190.629
-188.576
-186.557
-184.573
-182.624
-180.711
-178.834
-176.994
-175.19
-173.422
-171.689
-169.991
-168.327
-166.695
-165.094
-163.522
-161.979
-160.462
-158.97
-157.5
-156.052
-154.623
-153.211
-151.813
-150.428
-149.052
-147.682
-146.317
-144.953
-143.589
-142.221
-140.849
-139.47
-138.084
-136.689
-135.284
-133.87
-132.446
-131.013
-129.571
-128.121
-126.663
-125.2
-123.733
-122.263
-120.793
-119.323
-117.856
-116.394
-114.939
-113.492
-112.057
-110.634
-109.226
-107.836
-106.463
-105.112
-103.782
-102.477
-101.196
-99.94
-98.711
-97.507
-96.33
-95.177
-94.046
-92.937
-91.846
-90.769
-89.704
-88.647
-87.592
-86.534
-85.47
-84.393
-83.297
-82.176
-81.025
-79.837
-78.605
-77.324
-75.985
-74.583
-73.112
-71.566
-69.939
-68.225
-66.419
-64.517
-62.513
-60.405
-58.189
-55.862
-53.423
-50.871
-48.205
-45.429
-42.543
-39.551
-36.458
-33.27
-29.993
-26.634
-23.204
-19.71
-16.164
-12.576
-8.96
-5.328
-1.694
1.927
5.52
9.066
12.548
15.948
19.248
22.43
25.475
28.366
31.085
33.618
35.952
38.072
39.965
41.617
43.015
44.149
45.01
45.591
45.887
45.894
45.612
45.049
44.212
43.108
41.743
40.113
38.221
36.076
33.689
31.076
28.26
25.265
22.126
18.892
15.612
12.33
9.089
5.917
2.846
-0.081
-2.822
-5.321
-7.527
-9.409
-10.936
-12.083
-12.858
-13.282
-13.406
-13.325
-13.116
-12.855
-12.639
-12.541
-12.657
-13.099
-13.934
-15.253
-17.179
-19.738
-22.911
-26.596
-30.464
-34.145
-37.337
-39.618
-40.56
-39.941
-37.591
-33.62
-28.691
-23.53
-18.707
-14.795
-12.313
-11.485
-12.459
-15.09
-17.342
-16.025
-8.763
6.973
30.744
58.597
90.053
125.549
167.946
225.467
300.088
390.164
492.14
594.961
689.485
766
811.796
817.164
773.685
679.178
538.512
363.707
174.465
-9.412
-166.424
-281.32
-353.232
-386.905
-394.841
-389.527
-371.906
-341.947
-300.451
-250.498
-202.56
-164.479
-136.747
-115.292
-94.036
-70.093
-45.615
-25.265
-11.972
-5.716
-4.89
-6.674
-8.855
-10.372
-10.25
-8.155
-4.359
0.874
7.238
14.249
21.358
27.889
32.972
36.156
37.512
37.292
35.903
33.745
31.104
28.343
25.939
24.218
23.335
23.336
24.132
25.644
27.849
30.682
34.049
37.847
41.951
46.24
50.605
54.933
59.131
63.125
66.841
70.217
73.21
75.799
77.989
79.795
81.228
82.298
83.025
83.439
83.588
83.524
83.301
82.974
82.59
82.188
81.806
81.475
81.219
81.056
80.998
81.052
81.231
81.549
82.022
82.663
83.483
84.491
85.696
87.106
88.729
90.572
92.641
94.944
97.489
100.282
103.33
106.637
110.206
114.038
118.13
122.477
127.073
131.911
136.982
142.274
147.775
153.474
159.356
165.407
171.612
177.954
184.417
190.981
197.627
204.335
211.085
217.853
224.618
231.356
238.044
244.657
251.17
257.561
263.803
269.871
275.742
281.392
286.795
291.931
296.777
301.312
305.515
309.369
312.856
315.96
318.666
320.962
322.834
324.274
325.271
325.819
325.912
325.545
324.717
323.426
321.674
319.464
316.801
313.691
310.144
306.171
301.784
296.997
291.828
286.293
280.413
274.207
267.7
260.913
253.871
246.6
239.126
231.474
223.672
215.747
207.725
199.634
191.501
183.351
175.211
167.105
159.059
151.097
143.24
135.512
127.933
120.523
113.301
106.284
99.488
92.927
86.614
80.561
74.777
69.269
64.045
59.109
54.464
50.112
46.054
42.286
38.807
35.613
32.697
30.054
27.675
25.552
23.676
22.036
20.623
19.424
18.428
17.623
16.998
16.539
16.235
16.073
16.04
16.125
16.314
16.596
16.96
17.393
17.886
18.427
19.008
19.617
20.247
20.889
21.535
22.179
22.813
23.433
24.033
24.609
25.157
25.674
26.158
26.608
27.02
27.396
27.734
28.033
28.295
28.519
28.705
28.856
28.97
29.05
29.097
29.112
29.095
29.049
28.975
28.874
28.748
28.597
28.424
28.231
28.018
27.787
27.54
27.278
27.002
26.715
26.417
26.109
25.792
25.466
25.133
24.792
24.444
24.089
23.728
23.36
22.985
22.604
22.217
21.824
21.426
21.023
20.615
20.203
19.788
19.37
18.951
18.53
18.11
17.69
17.271
16.854
16.439
16.027
15.617
15.21
14.804
14.402
14
13.6
13.201
12.803
12.404
12.005
11.604
11.202
10.797
10.389
9.977
9.56
9.137
8.706
8.267
7.817
7.356
6.881
6.391
5.883
5.356
4.808
4.236
3.639
3.016
2.364
1.684
0.973
0.233
-0.538
-1.339
-2.17
-3.028
-3.914
-4.826
-5.761
-6.718
-7.693
-8.685
-9.691
-10.706
-11.727
-12.75
-13.772
-14.786
-15.789
-16.775
-17.739
-18.674
-19.573
-20.431
-21.239
-21.991
-22.678
-23.293
-23.829
-24.278
-24.634
-24.889
-25.039
-25.076
-24.995
-24.793
-24.464
-24.006
-23.414
-22.686
-21.821
-20.818
-19.676
-18.396
-16.979
-15.427
-13.743
-11.929
-9.991
-7.933
-5.761
-3.484
-1.11
1.351
3.888
6.488
9.136
11.815
14.51
17.204
19.878
22.515
25.095
27.599
30.01
32.309
34.479
36.501
38.357
40.027
41.495
42.746
43.763
44.533
45.039
45.268
45.212
44.863
44.216
43.265
42.005
40.426
38.529
36.319
33.803
30.993
27.904
24.552
20.966
17.187
13.257
9.218
5.107
0.95
-3.219
-7.362
-11.44
-15.406
-19.224
-22.872
-26.325
-29.563
-32.575
-35.354
-37.923
-40.346
-42.692
-45.027
-47.416
-49.896
-52.498
-55.27
-58.266
-61.551
-65.181
-69.201
-73.616
-78.448
-83.753
-89.499
-95.548
-101.588
-107.104
-111.559
-114.542
-115.662
-114.5
-110.842
-104.666
-96.34
-86.874
-77.41
-68.846
-61.895
-57.167
-55.001
-55.367
-57.511
-58.721
-55.054
-43.36
-21.701
8.653
44.389
84.229
129.187
184.098
254.203
340.328
438.414
537.775
626.334
692.865
727.67
725.312
680.822
592.912
464.62
302.86
122.016
-60.955
-227.584
-361.479
-454.713
-505.92
-520.935
-509.889
-480.37
-439.254
-392.715
-344.072
-298.206
-257.731
-220.605
-186.427
-154.217
-124.584
-101.849
-87.822
-82.397
-84.15
-89.723
-96.491
-102.846
-107.44
-109.418
-108.53
-104.994
-99.386
-92.441
-84.962
-77.665
-71.301
-66.682
-64.108
-63.442
-64.359
-66.338
-68.934
-71.835
-74.651
-76.945
-78.46
-79.082
-78.803
-77.742
-75.981
-73.561
-70.562
-67.079
-63.226
-59.132
-54.92
-50.71
-46.598
-42.658
-38.961
-35.572
-32.541
-29.899
-27.655
-25.791
-24.297
-23.165
-22.381
-21.927
-21.765
-21.847
-22.119
-22.522
-23.012
-23.55
-24.101
-24.633
-25.122
-25.546
-25.893
-26.159
-26.334
-26.403
-26.349
-26.157
-25.816
-25.314
-24.644
-23.795
-22.759
-21.527
-20.089
-18.438
-16.565
-14.459
-12.111
-9.512
-6.655
-3.536
-0.152
3.496
7.408
11.581
16.01
20.69
25.612
30.77
36.155
41.756
47.562
53.561
59.738
66.079
72.567
79.184
85.911
92.728
99.614
106.546
113.502
120.457
127.387
134.266
141.07
147.77
154.342
160.757
166.99
173.014
178.803
184.331
189.574
194.508
199.11
203.359
207.233
210.713
213.782
216.423
218.621
220.363
221.637
222.434
222.746
222.568
221.897
220.731
219.072
216.923
214.291
211.183
207.61
203.585
199.122
194.239
188.955
183.29
177.268
170.912
164.249
157.305
150.108
142.686
135.07
127.288
119.372
111.352
103.258
95.119
86.966
78.828
70.732
62.706
54.777
46.969
39.306
31.81
24.502
17.402
10.526
3.891
-2.49
-8.606
-14.446
-20.002
-25.27
-30.243
-34.921
-39.304
-43.391
-47.187
-50.697
-53.925
-56.88
-59.571
-62.006
-64.197
-66.155
-67.893
-69.424
-70.761
-71.917
-72.906
-73.742
-74.438
-75.009
-75.466
-75.824
-76.094
-76.289
-76.419
-76.496
-76.529
-76.528
-76.502
-76.457
-76.401
-76.34
-76.279
-76.223
-76.174
-76.136
-76.111
-76.1
-76.103
-76.122
-76.154
-76.199
-76.254
-76.319
-76.389
-76.463
-76.538
-76.609
-76.675
-76.731
-76.776
-76.806
-76.818
-76.81
-76.779
-76.724
-76.642
-76.532
-76.392
-76.222
-76.02
-75.787
-75.523
-75.227
-74.9
-74.542
-74.156
-73.741
-73.3
-72.834
-72.345
-71.835
-71.307
-70.763
-70.206
-69.639
-69.065
-68.487
-67.909
-67.333
-66.761
-66.198
-65.645
-65.105
-64.58
-64.072
-63.583
-63.115
-62.669
-62.246
-61.848
-61.475
-61.128
-60.808
-60.514
-60.249
-60.011
-59.8
-59.618
-59.464
-59.339
-59.242
-59.173
-59.132
-59.12
-59.135
-59.178
-59.248
-59.345
-59.469
-59.619
-59.794
-59.995
-60.222
-60.473
-60.749
-61.051
-61.377
-61.728
-62.104
-62.505
-62.932
-63.383
-63.86
-64.361
-64.887
-65.437
-66.011
-66.606
-67.223
-67.86
-68.514
-69.184
-69.867
-70.561
-71.262
-71.968
-72.673
-73.375
-74.069
-74.75
-75.414
-76.055
-76.668
-77.248
-77.788
-78.283
-78.727
-79.113
-79.434
-79.685
-79.858
-79.947
-79.946
-79.848
-79.647
-79.338
-78.915
-78.374
-77.71
-76.919
-75.999
-74.947
-73.761
-72.44
-70.984
-69.394
-67.671
-65.817
-63.837
-61.734
-59.514
-57.184
-54.75
-52.22
-49.605
-46.914
-44.157
-41.347
-38.496
-35.618
-32.728
-29.84
-26.97
-24.135
-21.352
-18.641
-16.018
-13.504
-11.115
-8.87
-6.786
-4.88
-3.166
-1.657
-0.365
0.697
1.517
2.086
2.391
2.427
2.186
1.665
0.862
-0.223
-1.582
-3.206
-5.087
-7.217
-9.595
-12.216
-15.069
-18.143
-21.421
-24.88
-28.493
-32.223
-36.02
-39.838
-43.631
-47.361
-50.997
-54.508
-57.857
-61.007
-63.91
-66.52
-68.807
-70.742
-72.295
-73.469
-74.292
-74.814
-75.125
-75.307
-75.418
-75.53
-75.716
-76.052
-76.637
-77.559
-78.884
-80.705
-83.134
-86.203
-89.868
-93.915
-97.936
-101.51
-104.247
-105.742
-105.613
-103.617
-99.732
-94.361
-88.333
-82.509
-77.623
-74.181
-72.454
-72.655
-74.705
-77.592
-79.685
-78.366
-70.163
-53.548
-27.976
5.942
45.187
89.731
141.354
200.999
270.941
349.14
429.566
507.078
574.774
625.557
652.931
647.458
600.748
510.276
378.565
216.583
40.946
-132.991
-289.533
-418.146
-513.29
-570.783
-591.563
-576.975
-532.058
-467.353
-395.032
-330.695
-283.611
-254.341
-237.419
-221.115
-198.934
-171.063
-141.303
-117.2
-102.049
-94.837
-93.583
-94.498
-95.292
-95.362
-93.817
-90.502
-85.697
-79.479
-72.224
-64.599
-57.136
-50.486
-45.464
-42.386
-41.192
-41.69
-43.465
-46.084
-49.187
-52.308
-54.95
-56.833
-57.831
-57.923
-57.199
-55.717
-53.515
-50.687
-47.351
-43.617
-39.584
-35.34
-30.969
-26.578
-22.298
-18.246
-14.511
-11.149
-8.191
-5.65
-3.528
-1.82
-0.5
0.466
1.112
1.476
1.59
1.492
1.227
0.85
0.42
-0.012
-0.404
-0.725
-0.948
-1.051
-1.016
-0.831
-0.491
0.008
0.675
1.516
2.542
3.759
5.172
6.784
8.599
10.624
12.863
15.324
18.013
20.934
24.093
27.493
31.135
35.016
39.135
43.488
48.075
52.898
57.955
63.235
68.731
74.425
80.295
86.315
92.445
98.641
104.872
111.111
117.344
123.568
129.778
135.969
142.143
148.286
154.389
160.446
166.443
172.37
178.237
184.061
189.884
195.761
201.713
207.744
213.843
219.962
226.048
232.038
237.836
243.372
248.585
253.412
257.817
261.759
265.175
267.993
270.123
271.451
271.907
271.445
270.033
267.691
264.456
260.391
255.606
250.195
244.231
237.785
230.9
223.619
216.01
208.139
200.086
191.956
183.828
175.767
167.837
160.065
152.459
145.008
137.662
130.382
123.15
115.957
108.814
101.736
94.73
87.805
80.974
74.234
67.585
61.03
54.568
48.209
41.978
35.902
30.028
24.398
19.037
13.967
9.201
4.741
0.592
-3.248
-6.791
-10.042
-13.006
-15.688
-18.092
-20.224
-22.095
-23.719
-25.112
-26.292
-27.278
-28.083
-28.725
-29.217
-29.573
-29.804
-29.919
-29.929
-29.843
-29.672
-29.429
-29.124
-28.767
-28.368
-27.937
-27.482
-27.011
-26.53
-26.043
-25.556
-25.073
-24.596
-24.128
-23.671
-23.228
-22.798
-22.385
-21.987
-21.606
-21.242
-20.894
-20.561
-20.245
-19.942
-19.654
-19.378
-19.114
-18.861
-18.62
-18.389
-18.169
-17.96
-17.761
-17.575
-17.399
-17.237
-17.087
-16.952
-16.833
-16.73
-16.646
-16.582
-16.539
-16.52
-16.525
-16.557
-16.615
-16.701
-16.816
-16.959
-17.133
-17.336
-17.569
-17.832
-18.124
-18.445
-18.795
-19.172
-19.576
-20.004
-20.456
-20.93
-21.423
-21.935
-22.461
-23
-23.549
-24.106
-24.666
-25.227
-25.786
-26.339
-26.885
-27.421
-27.945
-28.455
-28.951
-29.432
-29.898
-30.348
-30.784
-31.205
-31.612
-32.005
-32.386
-32.754
-33.113
-33.463
-33.806
-34.144
-34.479
-34.814
-35.15
-35.491
-35.837
-36.191
-36.555
-36.932
-37.324
-37.733
-38.162
-38.614
-39.091
-39.595
-40.126
-40.684
-41.27
-41.881
-42.514
-43.167
-43.833
-44.508
-45.188
-45.867
-46.542
-47.209
-47.863
-48.501
-49.12
-49.714
-50.279
-50.805
-51.284
-51.707
-52.064
-52.346
-52.546
-52.656
-52.669
-52.582
-52.391
-52.093
-51.681
-51.148
-50.48
-49.668
-48.709
-47.606
-46.367
-45.007
-43.547
-42.011
-40.428
-38.819
-37.198
-35.568
-33.92
-32.242
-30.525
-28.767
-26.982
-25.181
-23.371
-21.553
-19.728
-17.88
-15.983
-14
-11.889
-9.622
-7.196
-4.632
-1.981
0.693
3.311
5.81
8.144
10.27
12.153
13.754
15.035
15.945
16.422
16.395
15.782
14.522
12.581
9.962
6.7
2.86
-1.458
-6.174
-11.213
-16.508
-21.997
-27.609
-33.265
-38.883
-44.381
-49.667
-54.64
-59.208
-63.289
-66.836
-69.819
-72.245
-74.155
-75.572
-76.514
-77.025
-77.157
-76.99
-76.638
-76.188
-75.694
-75.243
-74.924
-74.846
-75.135
-75.872
-77.082
-78.795
-81.074
-83.937
-87.338
-91.044
-94.577
-97.459
-99.316
-99.797
-98.516
-95.21
-89.78
-82.58
-74.64
-66.983
-60.282
-55.207
-52.417
-52.316
-55.042
-59.054
-60.861
-57.347
-46.638
-29.538
-8.611
15.934
46.987
90.336
151.373
230.136
321.811
418.081
510.328
592.224
656.683
695.491
698.645
656.344
565.615
430.009
261.118
77.076
-103.709
-262.47
-385.386
-466.795
-507.582
-515.286
-498.3
-463.156
-414.933
-358.437
-301.639
-252.934
-218.017
-197.562
-185.703
-175.908
-164.64
-151.963
-141.575
-135.731
-133.539
-132.495
-129.192
-121.981
-111.212
-97.77
-82.937
-67.831
-53.387
-40.741
-30.763
-23.795
-19.849
-18.655
-19.771
-22.754
-27.068
-32.054
-37.215
-42.22
-46.803
-50.813
-54.133
-56.642
-58.304
-59.142
-59.159
-58.369
-56.803
-54.5
-51.553
-48.082
-44.202
-40.046
-35.735
-31.389
-27.151
-23.142
-19.449
-16.133
-13.226
-10.74
-8.691
-7.076
-5.872
-5.044
-4.548
-4.341
-4.388
-4.644
-5.06
-5.586
-6.16
-6.735
-7.277
-7.759
-8.158
-8.457
-8.636
-8.684
-8.598
-8.372
-7.998
-7.468
-6.768
-5.886
-4.816
-3.552
-2.088
-0.419
1.465
3.571
5.905
8.471
11.275
14.324
17.622
21.173
24.978
29.033
33.336
37.882
42.664
47.676
52.907
58.346
63.981
69.8
75.789
81.933
88.213
94.614
101.114
107.693
114.331
121.003
127.688
134.359
140.992
147.563
154.045
160.412
166.638
172.697
178.562
184.208
189.611
194.744
199.584
204.108
208.293
212.118
215.564
218.611
221.243
223.444
225.202
226.503
227.339
227.702
227.586
226.988
225.907
224.344
222.301
219.786
216.805
213.369
209.49
205.183
200.464
195.351
189.863
184.023
177.853
171.378
164.622
157.612
150.376
142.941
135.336
127.59
119.733
111.793
103.8
95.783
87.77
79.789
71.866
64.028
56.299
48.702
41.259
33.99
26.913
20.046
13.404
6.999
0.844
-5.053
-10.682
-16.04
-21.119
-25.919
-30.438
-34.677
-38.636
-42.319
-45.73
-48.876
-51.762
-54.397
-56.789
-58.948
-60.883
-62.607
-64.13
-65.464
-66.621
-67.614
-68.454
-69.153
-69.724
-70.176
-70.522
-70.771
-70.934
-71.019
-71.035
-70.99
-70.891
-70.744
-70.555
-70.329
-70.072
-69.785
-69.474
-69.141
-68.789
-68.419
-68.033
-67.632
-67.218
-66.79
-66.348
-65.893
-65.424
-64.94
-64.441
-63.925
-63.391
-62.839
-62.268
-61.677
-61.065
-60.432
-59.778
-59.102
-58.407
-57.691
-56.957
-56.206
-55.439
-54.658
-53.865
-53.063
-52.252
-51.437
-50.618
-49.799
-48.981
-48.167
-47.358
-46.557
-45.765
-44.986
-44.219
-43.468
-42.733
-42.018
-41.322
-40.647
-39.996
-39.369
-38.767
-38.19
-37.641
-37.118
-36.622
-36.153
-35.711
-35.294
-34.902
-34.535
-34.19
-33.866
-33.562
-33.277
-33.008
-32.756
-32.519
-32.296
-32.086
-31.889
-31.704
-31.531
-31.372
-31.225
-31.091
-30.971
-30.866
-30.776
-30.702
-30.645
-30.606
-30.586
-30.585
-30.605
-30.646
-30.71
-30.797
-30.909
-31.047
-31.212
-31.404
-31.625
-31.877
-32.159
-32.472
-32.816
-33.193
-33.6
-34.039
-34.506
-35.001
-35.52
-36.061
-36.62
-37.193
-37.776
-38.362
-38.948
-39.526
-40.091
-40.636
-41.155
-41.641
-42.086
-42.483
-42.826
-43.107
-43.319
-43.455
-43.507
-43.469
-43.334
-43.097
-42.75
-42.289
-41.708
-41.003
-40.168
-39.201
-38.098
-36.858
-35.48
-33.964
-32.311
-30.525
-28.609
-26.567
-24.405
-22.132
-19.756
-17.285
-14.731
-12.106
-9.421
-6.692
-3.932
-1.158
1.615
4.368
7.082
9.739
12.319
14.802
17.17
19.402
21.48
23.388
25.108
26.625
27.925
28.991
29.809
30.365
30.647
30.646
30.353
29.763
28.871
27.683
26.201
24.433
22.381
20.044
17.425
14.53
11.371
7.961
4.323
0.48
-3.529
-7.656
-11.852
-16.07
-20.267
-24.41
-28.465
-32.391
-36.145
-39.671
-42.917
-45.849
-48.436
-50.647
-52.48
-53.958
-55.129
-56.09
-56.934
-57.721
-58.526
-59.42
-60.476
-61.805
-63.512
-65.657
-68.333
-71.653
-75.646
-80.277
-85.359
-90.455
-95.084
-98.845
-101.304
-102.001
-100.652
-97.169
-91.878
-85.668
-79.55
-74.227
-70.147
-67.938
-68.075
-70.383
-74.064
-76.518
-73.642
-63.462
-45.259
-19.16
11.99
49.799
98.633
160.358
238.269
328.54
421.363
510.373
587.723
649.179
693.787
715.371
706.194
658.157
565.442
428.51
257.485
71.243
-109.605
-262.179
-371.788
-439.022
-469.083
-474.103
-465.966
-444.689
-411.693
-370.017
-321.362
-274.983
-235.872
-201.821
-172.364
-144.27
-116.984
-94.855
-79.443
-71.136
-68.964
-69.621
-70.884
-71.468
-70.211
-66.919
-61.827
-55.236
-47.776
-40.136
-32.943
-26.904
-22.769
-20.906
-21.259
-23.554
-27.317
-32.029
-37.258
-42.53
-47.302
-51.225
-54.124
-55.914
-56.643
-56.37
-55.117
-52.963
-50.036
-46.449
-42.322
-37.786
-32.953
-27.97
-23.002
-18.175
-13.608
-9.388
-5.567
-2.187
0.728
3.177
5.172
6.73
7.88
8.654
9.084
9.217
9.103
8.801
8.375
7.877
7.349
6.828
6.339
5.904
5.541
5.262
5.074
4.988
5.015
5.169
5.469
5.926
6.553
7.361
8.361
9.561
10.975
12.614
14.488
16.61
18.988
21.632
24.552
27.755
31.242
35.015
39.072
43.407
48.017
52.893
58.027
63.408
69.023
74.861
80.908
87.147
93.562
100.134
106.843
113.668
120.587
127.576
134.611
141.667
148.716
155.734
162.692
169.563
176.321
182.936
189.383
195.635
201.664
207.447
212.957
218.172
223.07
227.629
231.83
235.655
239.088
242.112
244.716
246.886
248.613
249.888
250.705
251.058
250.944
250.363
249.315
247.804
245.833
243.411
240.546
237.25
233.533
229.412
224.901
220.019
214.783
209.215
203.336
197.168
190.733
184.056
177.162
170.074
162.818
155.418
147.9
140.288
132.608
124.883
117.139
109.397
101.682
94.016
86.42
78.915
71.521
64.255
57.136
50.18
43.401
36.813
30.428
24.258
18.31
12.595
7.118
1.886
-3.099
-7.832
-12.312
-16.538
-20.511
-24.232
-27.704
-30.931
-33.916
-36.664
-39.181
-41.473
-43.548
-45.413
-47.077
-48.549
-49.838
-50.953
-51.905
-52.705
-53.362
-53.887
-54.29
-54.582
-54.773
-54.874
-54.893
-54.841
-54.726
-54.558
-54.346
-54.098
-53.821
-53.522
-53.21
-52.889
-52.567
-52.248
-51.937
-51.64
-51.36
-51.101
-50.866
-50.658
-50.479
-50.331
-50.214
-50.13
-50.078
-50.057
-50.067
-50.106
-50.173
-50.267
-50.384
-50.523
-50.682
-50.859
-51.051
-51.255
-51.47
-51.693
-51.921
-52.153
-52.386
-52.619
-52.85
-53.077
-53.299
-53.515
-53.723
-53.923
-54.114
-54.295
-54.466
-54.625
-54.774
-54.912
-55.041
-55.159
-55.27
-55.374
-55.473
-55.567
-55.66
-55.751
-55.844
-55.938
-56.036
-56.138
-56.247
-56.362
-56.485
-56.616
-56.756
-56.905
-57.064
-57.231
-57.407
-57.59
-57.781
-57.979
-58.183
-58.393
-58.607
-58.827
-59.05
-59.278
-59.508
-59.741
-59.976
-60.211
-60.447
-60.681
-60.914
-61.144
-61.37
-61.593
-61.811
-62.025
-62.234
-62.438
-62.637
-62.831
-63.021
-63.207
-63.39
-63.57
-63.749
-63.926
-64.104
-64.282
-64.462
-64.642
-64.824
-65.005
-65.186
-65.365
-65.539
-65.707
-65.866
-66.014
-66.149
-66.266
-66.362
-66.434
-66.478
-66.49
-66.464
-66.397
-66.284
-66.119
-65.9
-65.62
-65.276
-64.862
-64.375
-63.811
-63.164
-62.432
-61.61
-60.696
-59.687
-58.58
-57.376
-56.074
-54.675
-53.181
-51.595
-49.92
-48.162
-46.326
-44.419
-42.449
-40.424
-38.355
-36.252
-34.127
-31.992
-29.862
-27.752
-25.677
-23.654
-21.699
-19.829
-18.06
-16.409
-14.892
-13.523
-12.317
-11.286
-10.443
-9.802
-9.376
-9.177
-9.214
-9.496
-10.029
-10.82
-11.869
-13.173
-14.726
-16.521
-18.554
-20.827
-23.336
-26.073
-29.028
-32.187
-35.529
-39.029
-42.654
-46.353
-50.079
-53.789
-57.442
-61.01
-64.463
-67.762
-70.872
-73.745
-76.337
-78.622
-80.571
-82.157
-83.381
-84.271
-84.879
-85.303
-85.631
-85.924
-86.257
-86.699
-87.325
-88.232
-89.503
-91.192
-93.388
-96.199
-99.671
-103.785
-108.347
-112.945
-117.138
-120.503
-122.567
-122.846
-120.989
-116.861
-110.801
-103.655
-96.372
-89.798
-84.714
-81.831
-81.601
-83.999
-88.111
-92.037
-93.463
-90.093
-79.613
-59.647
-28.16
16.524
74.067
141.283
214.332
288.935
362.526
436.334
509.916
578.614
633.807
660.279
644.035
580.907
473.24
331.797
172.761
6.939
-154.564
-299.837
-421.069
-508.666
-557.84
-570.961
-552.74
-512.84
-461.377
-408.354
-361.967
-324.44
-294.627
-266.6
-234.933
-199.675
-163.485
-131.725
-108.618
-94.414
-87.394
-85.098
-85.636
-87.718
-90.468
-93.106
-94.578
-94.473
-92.95
-90.057
-86.08
-81.578
-76.987
-72.956
-70.202
-68.857
-68.737
-69.614
-71.131
-72.97
-74.871
-76.456
-77.322
-77.284
-76.308
-74.447
-71.835
-68.566
-64.709
-60.378
-55.725
-50.896
-46.03
-41.251
-36.629
-32.227
-28.119
-24.361
-20.995
-18.045
-15.501
-13.34
-11.547
-10.103
-8.982
-8.156
-7.582
-7.209
-6.985
-6.852
-6.765
-6.685
-6.577
-6.411
-6.163
-5.812
-5.348
-4.765
-4.053
-3.201
-2.197
-1.027
0.318
1.846
3.566
5.482
7.601
9.93
12.475
15.242
18.238
21.468
24.938
28.655
32.622
36.839
41.307
46.023
50.981
56.178
61.606
67.258
73.125
79.195
85.46
91.907
98.524
105.297
112.209
119.246
126.39
133.624
140.928
148.283
155.669
163.065
170.45
177.801
185.096
192.313
199.428
206.418
213.259
219.929
226.403
232.661
238.678
244.434
249.907
255.075
259.919
264.42
268.558
272.318
275.682
278.635
281.164
283.256
284.902
286.092
286.819
287.078
286.864
286.177
285.017
283.385
281.285
278.725
275.711
272.254
268.366
264.061
259.354
254.262
248.804
243
236.87
230.438
223.727
216.762
209.568
202.172
194.601
186.883
179.047
171.12
163.131
155.108
147.079
139.071
131.11
123.223
115.433
107.766
100.244
92.887
85.716
78.75
72.005
65.497
59.238
53.241
47.515
42.068
36.908
32.039
27.465
23.187
19.206
15.521
12.129
9.027
6.208
3.666
1.393
-0.62
-2.384
-3.91
-5.209
-6.295
-7.18
-7.878
-8.403
-8.768
-8.988
-9.077
-9.048
-8.915
-8.692
-8.392
-8.025
-7.604
-7.14
-6.642
-6.12
-5.583
-5.037
-4.49
-3.95
-3.421
-2.909
-2.418
-1.953
-1.517
-1.112
-0.739
-0.402
-0.099
0.169
0.401
0.6
0.764
0.897
0.999
1.072
1.119
1.14
1.139
1.117
1.077
1.02
0.947
0.86
0.76
0.648
0.523
0.387
0.237
0.075
-0.1
-0.29
-0.496
-0.717
-0.956
-1.213
-1.49
-1.789
-2.109
-2.454
-2.823
-3.219
-3.641
-4.092
-4.571
-5.081
-5.62
-6.19
-6.791
-7.423
-8.086
-8.78
-9.503
-10.255
-11.035
-11.842
-12.672
-13.526
-14.399
-15.29
-16.197
-17.115
-18.043
-18.978
-19.916
-20.855
-21.791
-22.723
-23.648
-24.562
-25.464
-26.353
-27.225
-28.079
-28.914
-29.729
-30.522
-31.293
-32.041
-32.767
-33.469
-34.148
-34.805
-35.438
-36.049
-36.638
-37.206
-37.753
-38.281
-38.789
-39.279
-39.75
-40.204
-40.64
-41.059
-41.46
-41.842
-42.205
-42.547
-42.867
-43.162
-43.432
-43.673
-43.882
-44.057
-44.195
-44.292
-44.344
-44.347
-44.298
-44.191
-44.022
-43.788
-43.484
-43.106
-42.65
-42.113
-41.491
-40.782
-39.984
-39.094
-38.111
-37.033
-35.862
-34.598
-33.242
-31.798
-30.268
-28.657
-26.972
-25.218
-23.404
-21.538
-19.629
-17.687
-15.724
-13.75
-11.777
-9.819
-7.889
-6.002
-4.175
-2.425
-0.769
0.778
2.198
3.474
4.589
5.53
6.285
6.844
7.196
7.33
7.235
6.903
6.329
5.508
4.436
3.113
1.538
-0.282
-2.336
-4.612
-7.101
-9.797
-12.699
-15.803
-19.098
-22.57
-26.204
-29.981
-33.879
-37.862
-41.887
-45.907
-49.876
-53.76
-57.528
-61.141
-64.56
-67.735
-70.61
-73.146
-75.307
-77.066
-78.416
-79.364
-79.93
-80.167
-80.137
-79.915
-79.604
-79.292
-79.082
-79.083
-79.374
-80.087
-81.383
-83.33
-85.932
-89.061
-92.401
-95.643
-98.53
-100.685
-101.717
-101.374
-99.52
-96.461
-92.934
-89.672
-87.332
-86.5
-87.532
-90.578
-95.697
-102.082
-108.042
-111.75
-110.235
-100.913
-82.977
-54.855
-17.235
28.303
83.144
144.876
211.985
284.216
356.148
427.183
495.451
552.875
592.852
602.858
570.507
494.118
376.581
227.126
61.409
-107.715
-266.701
-399.689
-497.037
-554.221
-572.532
-561.225
-529.454
-483.587
-430.561
-377.065
-328.683
-290.405
-262.308
-238.815
-215.714
-191.342
-166.785
-146.872
-134.524
-129.265
-129.385
-131.693
-133.283
-132.794
-129.769
-124.328
-116.917
-108.098
-98.379
-88.401
-79.183
-71.717
-66.531
-63.782
-63.254
-64.478
-67.045
-70.555
-74.467
-78.234
-81.455
-83.889
-85.47
-86.246
-86.249
-85.497
-84.031
-81.925
-79.27
-76.158
-72.672
-68.898
-64.939
-60.917
-56.967
-53.206
-49.726
-46.594
-43.847
-41.505
-39.576
-38.055
-36.929
-36.175
-35.76
-35.647
-35.8
-36.175
-36.721
-37.386
-38.102
-38.816
-39.486
-40.077
-40.564
-40.927
-41.147
-41.209
-41.107
-40.832
-40.375
-39.725
-38.868
-37.794
-36.496
-34.966
-33.203
-31.202
-28.955
-26.458
-23.705
-20.691
-17.414
-13.87
-10.054
-5.965
-1.606
3.019
7.905
13.045
18.431
24.053
29.901
35.961
42.221
48.665
55.278
62.045
68.947
75.962
83.069
90.245
97.467
104.714
111.967
119.199
126.384
133.508
140.557
147.511
154.356
161.058
167.575
173.892
179.996
185.83
191.347
196.505
201.256
205.602
209.573
213.127
216.199
218.889
221.319
223.384
225.082
226.433
227.13
228.009
229.889
231.642
232.941
231.697
225.394
216.83
207.859
201.247
200.793
203.13
205.415
205.704
200.776
192.95
184.577
176.166
169.127
162.605
155.498
147.991
139.955
131.491
122.879
114.053
104.993
95.815
86.583
77.342
68.142
59.044
50.105
41.412
33.065
25.144
17.745
10.954
4.826
-0.622
-5.408
-9.586
-13.238
-16.427
-19.206
-21.618
-23.695
-25.469
-26.97
-28.235
-29.305
-30.241
-31.122
-32.016
-32.977
-34.028
-35.167
-36.366
-37.575
-38.752
-39.864
-40.887
-41.811
-42.633
-43.354
-43.981
-44.52
-44.968
-45.307
-45.522
-45.6
-45.541
-45.358
-45.072
-44.716
-44.319
-43.911
-43.512
-43.136
-42.791
-42.481
-42.203
-41.949
-41.717
-41.507
-41.321
-41.163
-41.033
-40.929
-40.848
-40.783
-40.73
-40.68
-40.627
-40.568
-40.499
-40.418
-40.327
-40.227
-40.121
-40.011
-39.897
-39.78
-39.66
-39.537
-39.411
-39.281
-39.146
-39.009
-38.869
-38.728
-38.588
-38.45
-38.317
-38.191
-38.072
-37.964
-37.868
-37.786
-37.72
-37.67
-37.638
-37.625
-37.633
-37.661
-37.711
-37.783
-37.877
-37.993
-38.13
-38.287
-38.463
-38.658
-38.868
-39.094
-39.332
-39.582
-39.843
-40.113
-40.391
-40.675
-40.965
-41.259
-41.555
-41.853
-42.15
-42.446
-42.74
-43.031
-43.318
-43.602
-43.882
-44.157
-44.429
-44.698
-44.965
-45.23
-45.493
-45.757
-46.023
-46.292
-46.565
-46.844
-47.131
-47.427
-47.734
-48.054
-48.387
-48.735
-49.098
-49.478
-49.874
-50.288
-50.718
-51.164
-51.625
-52.099
-52.585
-53.081
-53.583
-54.088
-54.592
-55.09
-55.579
-56.052
-56.505
-56.932
-57.326
-57.68
-57.988
-58.243
-58.438
-58.565
-58.616
-58.585
-58.464
-58.248
-57.928
-57.5
-56.957
-56.294
-55.506
-54.59
-53.541
-52.357
-51.035
-49.575
-47.976
-46.241
-44.369
-42.366
-40.236
-37.984
-35.617
-33.145
-30.574
-27.916
-25.182
-22.385
-19.538
-16.656
-13.753
-10.847
-7.957
-5.101
-2.3
0.426
3.058
5.576
7.958
10.188
12.247
14.121
15.796
17.255
18.483
19.465
20.189
20.644
20.823
20.717
20.321
19.635
18.665
17.418
15.902
14.121
12.072
9.755
7.178
4.351
1.285
-1.996
-5.471
-9.107
-12.855
-16.667
-20.499
-24.306
-28.059
-31.724
-35.258
-38.619
-41.746
-44.584
-47.096
-49.241
-50.987
-52.338
-53.311
-53.947
-54.329
-54.522
-54.597
-54.653
-54.77
-55.048
-55.601
-56.506
-57.881
-59.883
-62.578
-65.954
-69.86
-73.914
-77.707
-80.881
-82.993
-83.604
-82.435
-79.367
-74.782
-69.58
-64.728
-61.14
-59.486
-60.123
-63.37
-69.266
-76.68
-83.692
-87.209
-83.067
-69.151
-44.455
-9.218
33.985
85.215
145.477
215.322
296.655
387.105
482.377
577.349
661.634
725.23
756.413
742.437
679.978
571.057
423.538
254.216
78.201
-89.873
-233.533
-343.605
-417.399
-456.782
-470.541
-468.375
-453.173
-425.433
-387.267
-338.839
-285.854
-237.005
-193.861
-158.86
-132.803
-112.524
-99.285
-93.608
-93.745
-98.91
-106.384
-112.881
-116.579
-116.484
-112.559
-105.443
-95.975
-85.087
-73.724
-63.1
-54.426
-48.282
-44.831
-43.912
-45.035
-47.725
-51.529
-55.856
-60.084
-63.819
-66.805
-68.921
-70.199
-70.642
-70.24
-69.044
-67.115
-64.516
-61.331
-57.633
-53.49
-49.007
-44.308
-39.517
-34.774
-30.188
-25.841
-21.804
-18.117
-14.806
-11.885
-9.355
-7.207
-5.424
-3.976
-2.831
-1.959
-1.318
-0.864
-0.546
-0.305
-0.096
0.117
0.361
0.659
1.026
1.481
2.033
2.69
3.459
4.348
5.37
6.539
7.865
9.358
11.027
12.875
14.912
17.146
19.585
22.236
25.107
28.202
31.529
35.094
38.901
42.949
47.238
51.765
56.525
61.513
66.722
72.143
77.767
83.585
89.585
95.755
102.083
108.555
115.155
121.866
128.671
135.55
142.485
149.452
156.431
163.398
170.329
177.199
183.986
190.662
197.202
203.582
209.776
215.758
221.505
226.992
232.196
237.095
241.666
245.888
249.744
253.213
256.278
258.925
261.138
262.905
264.214
265.055
265.421
265.306
264.705
263.617
262.043
259.984
257.445
254.434
250.96
247.034
242.671
237.885
232.695
227.121
221.183
214.904
208.309
201.422
194.271
186.883
179.286
171.51
163.582
155.533
147.393
139.19
130.956
122.718
114.506
106.346
98.266
90.293
82.45
74.762
67.25
59.935
52.837
45.972
39.357
33.004
26.926
21.132
15.63
10.426
5.523
0.924
-3.37
-7.362
-11.053
-14.449
-17.555
-20.379
-22.929
-25.214
-27.246
-29.035
-30.596
-31.939
-33.08
-34.032
-34.809
-35.427
-35.898
-36.238
-36.461
-36.581
-36.612
-36.565
-36.455
-36.293
-36.09
-35.856
-35.6
-35.332
-35.058
-34.785
-34.52
-34.266
-34.029
-33.812
-33.618
-33.447
-33.303
-33.184
-33.092
-33.026
-32.984
-32.964
-32.965
-32.985
-33.021
-33.07
-33.129
-33.196
-33.267
-33.34
-33.411
-33.477
-33.537
-33.588
-33.629
-33.657
-33.671
-33.672
-33.658
-33.631
-33.59
-33.537
-33.473
-33.4
-33.319
-33.233
-33.143
-33.053
-32.964
-32.88
-32.802
-32.734
-32.678
-32.637
-32.613
-32.608
-32.624
-32.665
-32.73
-32.823
-32.944
-33.095
-33.277
-33.49
-33.735
-34.011
-34.319
-34.656
-35.022
-35.416
-35.834
-36.274
-36.734
-37.211
-37.701
-38.202
-38.71
-39.222
-39.735
-40.246
-40.752
-41.25
-41.739
-42.217
-42.681
-43.132
-43.567
-43.987
-44.392
-44.781
-45.154
-45.513
-45.857
-46.188
-46.506
-46.814
-47.112
-47.404
-47.69
-47.974
-48.258
-48.544
-48.835
-49.135
-49.446
-49.77
-50.11
-50.466
-50.844
-51.244
-51.67
-52.123
-52.601
-53.102
-53.628
-54.181
-54.75
-55.325
-55.898
-56.456
-57
-57.54
-58.058
-58.536
-58.995
-59.45
-59.908
-60.39
-60.865
-61.285
-61.664
-62.037
-62.287
-62.275
-62.071
-61.663
-61.019
-60.418
-59.088
-56.282
-53.057
-49.735
-48.266
-50.99
-55.318
-59.527
-61.048
-56.356
-48.58
-40.374
-33.558
-31.141
-30.99
-30.944
-30.533
-28.448
-25.472
-22.609
-19.686
-16.849
-14.05
-11.109
-8.177
-5.379
-2.7
-0.154
2.226
4.426
6.436
8.243
9.851
11.268
12.467
13.426
14.134
14.581
14.758
14.659
14.276
13.603
12.646
11.412
9.905
8.129
6.08
3.758
1.168
-1.679
-4.77
-8.083
-11.595
-15.276
-19.078
-22.954
-26.859
-30.749
-34.593
-38.361
-42.01
-45.495
-48.758
-51.741
-54.412
-56.742
-58.707
-60.314
-61.583
-62.56
-63.335
-63.99
-64.606
-65.282
-66.098
-67.147
-68.542
-70.363
-72.729
-75.81
-79.649
-84.223
-89.419
-94.9
-100.328
-105.418
-109.704
-112.662
-114.006
-113.537
-111.41
-108.325
-104.867
-101.515
-98.932
-97.667
-97.955
-99.85
-102.881
-105.569
-106.25
-103.403
-94.309
-76.384
-48.717
-9.802
39.443
95.843
159.368
228.235
300.798
378.121
457.106
534.907
607.901
666.63
701.34
700.121
651.864
553.999
408.935
228.703
34.528
-152.721
-309.746
-421.042
-486.716
-512.618
-512.176
-497.831
-470.589
-430.68
-379.243
-319.944
-263.527
-218.404
-186.378
-164.682
-147.825
-132.201
-118.304
-109.415
-107.477
-111.753
-119.784
-127.502
-131.983
-132.519
-129.214
-122.777
-114.148
-104.063
-93.348
-83.249
-74.934
-68.954
-65.47
-64.292
-64.959
-67.038
-70.094
-73.554
-76.861
-79.688
-81.84
-83.237
-83.903
-83.841
-83.048
-81.575
-79.487
-76.842
-73.696
-70.115
-66.171
-61.971
-57.646
-53.32
-49.093
-45.038
-41.216
-37.679
-34.471
-31.617
-29.122
-26.978
-25.178
-23.713
-22.567
-21.713
-21.109
-20.709
-20.46
-20.307
-20.205
-20.118
-20.013
-19.865
-19.655
-19.364
-18.981
-18.501
-17.913
-17.204
-16.36
-15.368
-14.218
-12.901
-11.408
-9.733
-7.868
-5.806
-3.538
-1.055
1.65
4.586
7.76
11.18
14.851
18.775
22.953
27.381
32.057
36.975
42.129
47.508
53.103
58.903
64.897
71.071
77.411
83.903
90.531
97.277
104.122
111.048
118.033
125.057
132.096
139.127
146.126
153.068
159.929
166.683
173.304
179.767
186.045
192.114
197.947
203.52
208.81
213.792
218.445
222.749
226.683
230.23
233.373
236.099
238.393
240.244
241.642
242.579
243.048
243.044
242.565
241.61
240.179
238.277
235.909
233.083
229.807
226.094
221.958
217.415
212.481
207.176
201.52
195.537
189.25
182.684
175.864
168.818
161.572
154.156
146.598
138.924
131.165
123.347
115.498
107.646
99.816
92.034
84.325
76.713
69.221
61.87
54.681
47.673
40.864
34.269
27.904
21.78
15.909
10.3
4.961
-0.102
-4.886
-9.387
-13.604
-17.539
-21.193
-24.569
-27.673
-30.51
-33.088
-35.415
-37.498
-39.349
-40.977
-42.392
-43.606
-44.629
-45.474
-46.152
-46.675
-47.055
-47.303
-47.432
-47.452
-47.376
-47.214
-46.976
-46.674
-46.316
-45.911
-45.468
-44.995
-44.498
-43.985
-43.46
-42.931
-42.4
-41.873
-41.354
-40.844
-40.347
-39.865
-39.399
-38.951
-38.523
-38.116
-37.729
-37.365
-37.024
-36.706
-36.411
-36.14
-35.893
-35.67
-35.47
-35.294
-35.14
-35.009
-34.899
-34.812
-34.746
-34.701
-34.678
-34.675
-34.693
-34.733
-34.793
-34.874
-34.976
-35.1
-35.244
-35.41
-35.597
-35.805
-36.035
-36.286
-36.557
-36.848
-37.158
-37.486
-37.831
-38.191
-38.565
-38.952
-39.349
-39.755
-40.169
-40.59
-41.015
-41.444
-41.874
-42.305
-42.734
-43.16
-43.582
-43.998
-44.406
-44.806
-45.197
-45.577
-45.945
-46.302
-46.645
-46.976
-47.293
-47.596
-47.886
-48.162
-48.427
-48.68
-48.924
-49.16
-49.391
-49.618
-49.844
-50.071
-50.302
-50.54
-50.785
-51.042
-51.311
-51.595
-51.897
-52.218
-52.561
-52.928
-53.319
-53.737
-54.181
-54.655
-55.156
-55.686
-56.245
-56.831
-57.444
-58.083
-58.745
-59.429
-60.132
-60.85
-61.578
-62.312
-63.047
-63.775
-64.491
-65.189
-65.86
-66.498
-67.095
-67.645
-68.139
-68.57
-68.931
-69.215
-69.413
-69.519
-69.525
-69.425
-69.213
-68.882
-68.429
-67.847
-67.133
-66.284
-65.297
-64.169
-62.899
-61.487
-59.933
-58.24
-56.409
-54.445
-52.355
-50.143
-47.82
-45.396
-42.88
-40.284
-37.621
-34.903
-32.145
-29.363
-26.57
-23.782
-21.017
-18.291
-15.624
-13.037
-10.547
-8.174
-5.938
-3.856
-1.948
-0.23
1.286
2.588
3.663
4.497
5.079
5.397
5.445
5.218
4.711
3.922
2.851
1.506
-0.102
-1.958
-4.054
-6.383
-8.945
-11.737
-14.746
-17.961
-21.362
-24.931
-28.643
-32.463
-36.342
-40.235
-44.094
-47.885
-51.578
-55.136
-58.518
-61.669
-64.529
-67.054
-69.2
-70.936
-72.254
-73.155
-73.661
-73.826
-73.712
-73.396
-72.981
-72.563
-72.245
-72.143
-72.34
-72.971
-74.205
-76.104
-78.654
-81.698
-84.866
-87.796
-90.198
-91.679
-91.836
-90.472
-87.544
-83.482
-79.226
-75.68
-73.614
-73.627
-76.014
-80.832
-87.884
-96.122
-103.617
-107.425
-103.811
-89.763
-63.78
-27.507
15.536
62.186
111.125
166.294
232.471
312.666
406.866
506.009
597.533
667.234
699.96
687.558
626.929
520.62
376.949
206.386
22.522
-158.251
-317.994
-441.393
-518.894
-550.842
-545.434
-512.021
-462.349
-404.824
-346.518
-297.485
-261.273
-238.027
-224.092
-210.081
-192.215
-170.735
-148.049
-129.862
-117.795
-110.746
-107.434
-104.971
-101.922
-98.164
-93.112
-86.928
-80.128
-72.73
-64.958
-57.294
-50.007
-43.591
-38.754
-35.682
-34.257
-34.328
-35.545
-37.586
-40.226
-43.058
-45.584
-47.518
-48.7
-49.086
-48.761
-47.754
-46.068
-43.768
-40.952
-37.726
-34.198
-30.443
-26.52
-22.506
-18.497
-14.614
-10.97
-7.636
-4.658
-2.056
0.17
2.009
3.469
4.576
5.367
5.884
6.165
6.24
6.143
5.914
5.603
5.267
4.956
4.705
4.545
4.497
4.582
4.821
5.228
5.807
6.566
7.512
8.656
10.013
11.596
13.412
15.466
17.765
20.314
23.119
26.186
29.518
33.119
36.99
41.134
45.555
50.25
55.219
60.455
65.95
71.697
77.686
83.906
90.341
96.978
103.802
110.796
117.942
125.223
132.618
140.107
147.666
155.275
162.908
170.541
178.148
185.703
193.18
200.552
207.794
214.878
221.776
228.463
234.913
241.1
246.999
252.585
257.835
262.727
267.24
271.354
275.05
278.313
281.126
283.477
285.355
286.75
287.654
288.061
287.969
287.374
286.278
284.683
282.595
280.022
276.971
273.457
269.491
265.091
260.274
255.058
249.466
243.519
237.241
230.658
223.796
216.683
209.346
201.815
194.119
186.288
178.351
170.339
162.281
154.205
146.141
138.115
130.155
122.287
114.536
106.925
99.478
92.214
85.153
78.312
71.708
65.353
59.261
53.44
47.9
42.648
37.687
33.023
28.656
24.586
20.812
17.332
14.14
11.23
8.596
6.228
4.118
2.255
0.627
-0.776
-1.967
-2.96
-3.766
-4.4
-4.876
-5.207
-5.408
-5.492
-5.473
-5.365
-5.18
-4.93
-4.628
-4.284
-3.908
-3.511
-3.101
-2.687
-2.278
-1.88
-1.5
-1.144
-0.818
-0.525
-0.269
-0.055
0.117
0.245
0.326
0.361
0.348
0.288
0.18
0.025
-0.175
-0.421
-0.71
-1.04
-1.408
-1.814
-2.254
-2.725
-3.226
-3.754
-4.306
-4.881
-5.476
-6.088
-6.715
-7.356
-8.007
-8.665
-9.329
-9.997
-10.665
-11.333
-11.998
-12.66
-13.316
-13.965
-14.605
-15.235
-15.854
-16.459
-17.05
-17.624
-18.18
-18.717
-19.233
-19.728
-20.2
-20.65
-21.075
-21.477
-21.854
-22.205
-22.532
-22.833
-23.109
-23.361
-23.59
-23.796
-23.982
-24.15
-24.3
-24.437
-24.561
-24.676
-24.784
-24.886
-24.987
-25.088
-25.193
-25.305
-25.426
-25.561
-25.714
-25.886
-26.082
-26.306
-26.56
-26.847
-27.169
-27.53
-27.931
-28.373
-28.859
-29.39
-29.966
-30.587
-31.252
-31.961
-32.712
-33.501
-34.325
-35.18
-36.061
-36.963
-37.881
-38.807
-39.737
-40.661
-41.575
-42.469
-43.336
-44.167
-44.954
-45.688
-46.36
-46.961
-47.481
-47.912
-48.245
-48.471
-48.584
-48.576
-48.44
-48.17
-47.76
-47.205
-46.501
-45.646
-44.636
-43.472
-42.152
-40.68
-39.058
-37.29
-35.382
-33.34
-31.173
-28.888
-26.496
-24.009
-21.437
-18.793
-16.093
-13.35
-10.583
-7.807
-5.041
-2.302
0.387
3.008
5.54
7.961
10.253
12.395
14.366
16.149
17.726
19.082
20.202
21.071
21.677
22.006
22.046
21.789
21.227
20.357
19.174
17.679
15.878
13.779
11.389
8.718
5.767
2.542
-0.946
-4.682
-8.649
-12.823
-17.176
-21.669
-26.256
-30.888
-35.52
-40.111
-44.631
-49.048
-53.324
-57.418
-61.284
-64.875
-68.158
-71.104
-73.683
-75.893
-77.756
-79.315
-80.653
-81.845
-82.942
-84.005
-85.097
-86.28
-87.648
-89.283
-91.237
-93.604
-96.504
-99.991
-104.054
-108.521
-113.009
-117.118
-120.488
-122.713
-123.38
-122.184
-118.996
-114.128
-108.352
-102.524
-97.362
-93.44
-91.258
-91.162
-93.154
-96.464
-99.488
-100.134
-96.303
-86.287
-68.249
-40.36
-1.308
49.547
110.843
178.881
249.683
319.242
384.875
446.376
502.582
550.708
584.678
594.827
571.551
507.468
401.338
257.893
87.836
-92.972
-267.295
-417.551
-530.438
-599.069
-624.051
-612.023
-571.779
-514.615
-450.475
-388.465
-336.481
-296.479
-266.88
-242.985
-220.06
-197.43
-176.811
-161.816
-154.549
-153.692
-156.563
-159.35
-159.088
-154.997
-147.232
-136.455
-123.622
-109.626
-95.343
-81.986
-70.805
-62.44
-57.103
-54.695
-54.758
-56.805
-60.395
-64.953
-69.869
-74.729
-79.199
-83.037
-86.178
-88.561
-90.138
-90.93
-90.955
-90.233
-88.81
-86.752
-84.124
-81.027
-77.56
-73.807
-69.87
-65.858
-61.897
-58.122
-54.626
-51.467
-48.679
-46.283
-44.294
-42.719
-41.535
-40.697
-40.163
-39.889
-39.838
-39.983
-40.28
-40.682
-41.138
-41.592
-42.005
-42.349
-42.598
-42.73
-42.729
-42.577
-42.269
-41.807
-41.185
-40.398
-39.435
-38.284
-36.937
-35.39
-33.635
-31.668
-29.482
-27.072
-24.431
-21.557
-18.445
-15.091
-11.49
-7.64
-3.538
0.815
5.415
10.259
15.34
20.652
26.186
31.931
37.877
44.011
50.322
56.795
63.415
70.166
77.03
83.987
91.019
98.104
105.219
112.341
119.445
126.509
133.505
140.408
147.193
153.831
160.298
166.567
172.612
178.407
183.927
189.147
194.043
198.593
202.776
206.57
209.957
212.918
215.439
217.504
219.101
220.22
220.851
220.988
220.625
219.761
218.395
216.53
214.169
211.319
207.99
204.193
199.942
195.251
190.138
184.624
178.729
172.476
165.89
158.997
151.824
144.4
136.753
128.915
120.914
112.783
104.552
96.252
87.914
79.569
71.247
62.978
54.789
46.709
38.764
30.979
23.378
15.983
8.814
1.89
-4.771
-11.155
-17.248
-23.039
-28.517
-33.676
-38.51
-43.013
-47.185
-51.024
-54.533
-57.715
-60.573
-63.114
-65.346
-67.278
-68.919
-70.281
-71.376
-72.216
-72.816
-73.19
-73.352
-73.319
-73.107
-72.729
-72.203
-71.544
-70.767
-69.887
-68.919
-67.876
-66.772
-65.621
-64.434
-63.225
-62.003
-60.78
-59.565
-58.367
-57.195
-56.055
-54.955
-53.899
-52.892
-51.94
-51.044
-50.209
-49.435
-48.725
-48.078
-47.494
-46.973
-46.513
-46.112
-45.767
-45.477
-45.237
-45.046
-44.899
-44.794
-44.726
-44.693
-44.692
-44.717
-44.766
-44.836
-44.922
-45.02
-45.129
-45.244
-45.363
-45.481
-45.598
-45.709
-45.813
-45.907
-45.988
-46.056
-46.108
-46.142
-46.159
-46.156
-46.134
-46.094
-46.034
-45.956
-45.86
-45.747
-45.618
-45.474
-45.316
-45.144
-44.96
-44.765
-44.561
-44.347
-44.127
-43.9
-43.67
-43.436
-43.201
-42.966
-42.732
-42.501
-42.276
-42.058
-41.849
-41.65
-41.465
-41.295
-41.142
-41.008
-40.893
-40.8
-40.729
-40.68
-40.656
-40.655
-40.678
-40.726
-40.798
-40.895
-41.017
-41.163
-41.333
-41.527
-41.744
-41.984
-42.245
-42.526
-42.826
-43.144
-43.477
-43.825
-44.184
-44.552
-44.925
-45.299
-45.671
-46.036
-46.389
-46.724
-47.037
-47.323
-47.577
-47.793
-47.966
-48.091
-48.162
-48.175
-48.123
-48.002
-47.805
-47.528
-47.164
-46.71
-46.161
-45.512
-44.758
-43.897
-42.923
-41.836
-40.631
-39.307
-37.861
-36.294
-34.606
-32.798
-30.872
-28.833
-26.683
-24.429
-22.077
-19.635
-17.111
-14.513
-11.85
-9.135
-6.377
-3.589
-0.784
2.024
4.822
7.591
10.316
12.978
15.56
18.044
20.411
22.643
24.724
26.637
28.368
29.903
31.229
32.332
33.197
33.813
34.169
34.257
34.07
33.601
32.848
31.817
30.511
28.937
27.099
24.995
22.624
19.995
17.114
13.996
10.659
7.129
3.439
-0.359
-4.215
-8.08
-11.905
-15.657
-19.295
-22.775
-26.05
-29.067
-31.773
-34.136
-36.127
-37.717
-38.908
-39.731
-40.242
-40.55
-40.757
-40.942
-41.2
-41.624
-42.313
-43.397
-44.978
-47.112
-49.88
-53.383
-57.647
-62.638
-68.145
-73.71
-78.887
-83.307
-86.554
-88.175
-87.826
-85.318
-80.91
-75.427
-69.642
-63.99
-58.924
-55.038
-52.775
-52.315
-52.271
-49.522
-41.437
-26.795
-6.914
15.681
40.98
72.648
117.223
179.636
259.594
350.515
442.237
527.61
602.472
664.703
711.193
732.575
717.665
658.413
553.104
408.582
238.101
57.312
-117.745
-270.947
-389.961
-468.337
-507.444
-514.771
-499.402
-469.066
-425.453
-370.71
-309.514
-246.274
-189.836
-144.903
-110.061
-84.679
-65.244
-49.932
-41.073
-38.857
-42.948
-52.007
-62.147
-70.612
-75.987
-77.965
-77.778
-76.471
-74.524
-72.354
-70.251
-68.656
-68.157
-68.503
-68.612
-67.689
-65.278
-61.433
-56.793
-51.678
-46.02
-40.125
-34.641
-30.029
-26.589
-24.168
-22.087
-19.948
-17.687
-15.204
-12.396
-9.194
-5.522
-1.501
2.509
6.276
9.698
12.711
15.337
17.584
19.418
20.853
21.951
22.76
23.325
23.696
23.883
23.903
23.789
23.566
23.267
22.922
22.55
22.163
21.773
21.395
21.046
20.749
20.527
20.396
20.372
20.469
20.702
21.09
21.646
22.384
23.311
24.436
25.773
27.337
29.141
31.194
33.505
36.078
38.917
42.027
45.408
49.057
52.97
57.144
61.571
66.246
71.16
76.305
81.667
87.235
92.995
98.931
105.028
111.265
117.625
124.088
130.631
137.233
143.871
150.52
157.157
163.755
170.288
176.732
183.057
189.239
195.247
201.057
206.64
211.971
217.023
221.772
226.194
230.266
233.967
237.278
240.179
242.654
244.687
246.266
247.377
248.013
248.164
247.826
246.994
245.668
243.847
241.534
238.734
235.454
231.704
227.498
222.847
217.769
212.281
206.404
200.16
193.571
186.663
179.461
171.991
164.283
156.368
148.277
140.043
131.694
123.257
114.764
106.242
97.721
89.23
80.793
72.437
64.192
56.08
48.129
40.365
32.805
25.467
18.369
11.514
4.924
-1.375
-7.356
-12.992
-18.278
-23.227
-27.846
-32.124
-36.045
-39.619
-42.911
-45.991
-48.817
-51.329
-53.436
-55.079
-56.416
-57.493
-58.14
-58.421
-58.51
-58.48
-58.835
-59.095
-58.273
-57.142
-56.04
-56.851
-61.731
-68.046
-73.759
-75.938
-71.411
-63.644
-55.349
-48.522
-46.264
-46.446
-47.216
-48.42
-48.502
-48.008
-47.844
-47.652
-47.565
-47.577
-47.336
-46.834
-46.276
-45.704
-45.163
-44.761
-44.456
-44.192
-44
-43.875
-43.782
-43.728
-43.701
-43.675
-43.665
-43.683
-43.729
-43.814
-43.932
-44.077
-44.247
-44.438
-44.649
-44.881
-45.129
-45.392
-45.667
-45.952
-46.243
-46.54
-46.84
-47.138
-47.433
-47.72
-47.998
-48.268
-48.528
-48.778
-49.018
-49.245
-49.46
-49.662
-49.852
-50.029
-50.193
-50.343
-50.48
-50.602
-50.711
-50.805
-50.883
-50.947
-50.994
-51.026
-51.043
-51.045
-51.032
-51.007
-50.969
-50.921
-50.864
-50.799
-50.73
-50.659
-50.587
-50.519
-50.457
-50.404
-50.363
-50.337
-50.33
-50.342
-50.378
-50.438
-50.524
-50.639
-50.785
-50.961
-51.171
-51.416
-51.697
-52.014
-52.369
-52.762
-53.194
-53.664
-54.172
-54.717
-55.297
-55.91
-56.554
-57.226
-57.921
-58.636
-59.366
-60.104
-60.844
-61.578
-62.301
-63.003
-63.676
-64.312
-64.903
-65.441
-65.916
-66.321
-66.648
-66.887
-67.033
-67.076
-67.011
-66.831
-66.529
-66.098
-65.534
-64.832
-63.987
-62.996
-61.854
-60.561
-59.114
-57.514
-55.76
-53.856
-51.802
-49.604
-47.268
-44.8
-42.21
-39.505
-36.698
-33.8
-30.824
-27.786
-24.699
-21.58
-18.445
-15.315
-12.207
-9.14
-6.136
-3.212
-0.388
2.316
4.881
7.293
9.533
11.588
13.441
15.076
16.476
17.628
18.519
19.14
19.481
19.536
19.299
18.774
17.965
16.876
15.511
13.865
11.938
9.739
7.281
4.578
1.654
-1.471
-4.764
-8.182
-11.681
-15.221
-18.765
-22.29
-25.773
-29.173
-32.447
-35.543
-38.409
-41.017
-43.344
-45.359
-47.06
-48.458
-49.586
-50.512
-51.297
-51.986
-52.637
-53.309
-54.064
-54.999
-56.186
-57.726
-59.761
-62.333
-65.424
-68.944
-72.614
-76.132
-79.231
-81.492
-82.488
-82.027
-79.98
-76.504
-72.269
-67.849
-63.802
-60.903
-59.605
-59.989
-62.258
-66.08
-70.051
-72.842
-72.037
-63.979
-47.191
-21.085
13.849
54.364
100.244
153.459
215.297
288.325
371.146
458.319
543.821
619.317
675.222
702.344
692.984
642.222
552.286
430.505
284.155
123.807
-40.454
-197.428
-329.903
-424.881
-476.9
-488.859
-474.926
-449.804
-421.274
-392.123
-359.509
-319.823
-274.518
-226.726
-180.361
-139.994
-107.693
-84.016
-68.856
-60.751
-58.237
-60.626
-66.895
-75.655
-85.176
-93.184
-98.374
-100.71
-100.316
-97.308
-91.898
-84.208
-75.209
-66.786
-60.015
-55.171
-52.352
-51.3
-51.943
-54.564
-58.712
-63.267
-67.525
-71.062
-73.676
-75.538
-76.606
-76.577
-75.471
-73.572
-71.106
-68.313
-65.312
-62.057
-58.604
-55.104
-51.684
-48.446
-45.444
-42.685
-40.185
-37.984
-36.113
-34.59
-33.401
-32.514
-31.895
-31.514
-31.351
-31.381
-31.569
-31.865
-32.214
-32.565
-32.884
-33.144
-33.323
-33.401
-33.358
-33.176
-32.852
-32.383
-31.761
-30.979
-30.022
-28.875
-27.532
-25.987
-24.233
-22.266
-20.077
-17.659
-15.005
-12.113
-8.975
-5.588
-1.945
1.959
6.123
10.548
15.229
20.163
25.344
30.765
36.415
42.285
48.363
54.636
61.093
67.718
74.496
81.41
88.441
95.571
102.779
110.044
117.343
124.653
131.948
139.206
146.399
153.503
160.491
167.337
174.014
180.496
186.756
192.769
198.507
203.947
209.063
213.834
218.236
222.249
225.854
229.033
231.769
234.049
235.86
237.192
238.034
238.38
238.226
237.57
236.411
234.751
232.595
229.95
226.826
223.234
219.188
214.703
209.799
204.494
198.81
192.77
186.4
179.724
172.772
165.571
158.151
150.542
142.775
134.88
126.889
118.832
110.741
102.644
94.571
86.551
78.612
70.78
63.08
55.537
48.173
41.009
34.063
27.353
20.895
14.701
8.783
3.151
-2.188
-7.227
-11.964
-16.395
-20.52
-24.34
-27.859
-31.081
-34.011
-36.656
-39.026
-41.129
-42.975
-44.577
-45.946
-47.093
-48.033
-48.779
-49.343
-49.741
-49.984
-50.089
-50.067
-49.932
-49.697
-49.375
-48.977
-48.515
-48.001
-47.443
-46.853
-46.237
-45.606
-44.965
-44.323
-43.684
-43.055
-42.441
-41.845
-41.271
-40.722
-40.201
-39.709
-39.25
-38.823
-38.43
-38.072
-37.748
-37.46
-37.206
-36.987
-36.802
-36.65
-36.531
-36.444
-36.386
-36.359
-36.359
-36.385
-36.437
-36.513
-36.612
-36.732
-36.871
-37.029
-37.205
-37.396
-37.601
-37.82
-38.05
-38.291
-38.54
-38.796
-39.057
-39.322
-39.588
-39.854
-40.118
-40.378
-40.631
-40.875
-41.108
-41.328
-41.532
-41.718
-41.885
-42.03
-42.152
-42.25
-42.321
-42.366
-42.382
-42.37
-42.33
-42.26
-42.161
-42.033
-41.877
-41.694
-41.485
-41.252
-40.996
-40.719
-40.424
-40.113
-39.789
-39.455
-39.115
-38.771
-38.428
-38.09
-37.76
-37.443
-37.143
-36.865
-36.612
-36.389
-36.199
-36.046
-35.933
-35.863
-35.838
-35.86
-35.931
-36.052
-36.224
-36.447
-36.72
-37.042
-37.412
-37.826
-38.283
-38.778
-39.306
-39.864
-40.446
-41.045
-41.656
-42.271
-42.883
-43.483
-44.064
-44.615
-45.129
-45.594
-46.001
-46.34
-46.602
-46.776
-46.854
-46.826
-46.684
-46.421
-46.027
-45.497
-44.823
-44.001
-43.025
-41.891
-40.596
-39.14
-37.521
-35.74
-33.799
-31.701
-29.45
-27.053
-24.516
-21.847
-19.054
-16.15
-13.146
-10.057
-6.896
-3.681
-0.428
2.842
6.108
9.351
12.549
15.68
18.723
21.657
24.46
27.114
29.598
31.896
33.987
35.852
37.474
38.836
39.923
40.721
41.22
41.408
41.281
40.838
40.08
39.009
37.623
35.92
33.899
31.569
28.94
26.026
22.849
19.433
15.815
12.043
8.162
4.216
0.241
-3.735
-7.68
-11.556
-15.324
-18.934
-22.342
-25.523
-28.447
-31.087
-33.441
-35.529
-37.395
-39.124
-40.79
-42.439
-44.125
-45.899
-47.818
-49.964
-52.409
-55.199
-58.401
-62.104
-66.335
-71.069
-76.156
-81.255
-85.984
-89.972
-92.791
-93.988
-93.266
-90.478
-85.766
-79.736
-73.107
-66.532
-60.782
-56.619
-54.494
-54.576
-56.505
-59.004
-60.339
-58.657
-51.844
-37.569
-13.725
21.42
69.239
128.753
196.25
267.734
338.464
405.658
471.604
536.654
597.038
644.708
662.586
634.837
554.87
423.283
253.562
66.182
-120.009
-285.477
-416.166
-505.705
-553.236
-564.95
-549.452
-514.59
-466.208
-409.156
-350.209
-295.702
-250.839
-217.246
-190.795
-167.533
-145.517
-124.969
-109.559
-101.366
-99.585
-102.226
-105.748
-107.457
-106.328
-102.11
-95.309
-86.617
-76.639
-66.084
-55.791
-46.627
-39.39
-34.453
-31.751
-30.996
-31.742
-33.53
-35.933
-38.501
-40.761
-42.386
-43.228
-43.234
-42.449
-40.938
-38.73
-35.888
-32.513
-28.701
-24.55
-20.17
-15.656
-11.122
-6.701
-2.496
1.406
4.927
8.021
10.657
12.815
14.503
15.739
16.537
16.926
16.94
16.617
16.004
15.157
14.128
12.981
11.768
10.533
9.315
8.145
7.047
6.044
5.152
4.38
3.745
3.262
2.945
2.811
2.874
3.146
3.639
4.361
5.321
6.529
7.993
9.723
11.727
14.011
16.582
19.446
22.607
26.066
29.819
33.864
38.195
42.805
47.686
52.828
58.218
63.846
69.698
75.759
82.015
88.448
95.039
101.77
108.62
115.566
122.587
129.658
136.755
143.853
150.926
157.949
164.894
171.737
178.449
185.005
191.379
197.545
203.48
209.157
214.555
219.651
224.424
228.854
232.921
236.608
239.899
242.778
245.231
247.246
248.813
249.923
250.567
250.742
250.444
249.672
248.425
246.708
244.524
241.881
238.788
235.255
231.295
226.924
222.157
217.012
211.509
205.669
199.514
193.066
186.35
179.389
172.209
164.835
157.293
149.61
141.811
133.923
125.973
117.986
109.987
102.002
94.056
86.171
78.37
70.675
63.107
55.684
48.424
41.345
34.462
27.787
21.334
15.114
9.133
3.402
-2.076
-7.295
-12.252
-16.946
-21.376
-25.543
-29.449
-33.096
-36.489
-39.632
-42.531
-45.193
-47.624
-49.833
-51.827
-53.617
-55.211
-56.619
-57.85
-58.914
-59.822
-60.583
-61.207
-61.705
-62.085
-62.357
-62.531
-62.615
-62.617
-62.546
-62.408
-62.212
-61.962
-61.667
-61.33
-60.957
-60.554
-60.124
-59.671
-59.2
-58.713
-58.215
-57.706
-57.19
-56.669
-56.143
-55.616
-55.089
-54.561
-54.036
-53.513
-52.993
-52.478
-51.969
-51.466
-50.969
-50.48
-49.999
-49.527
-49.064
-48.611
-48.169
-47.738
-47.319
-46.913
-46.52
-46.141
-45.778
-45.43
-45.098
-44.784
-44.487
-44.208
-43.947
-43.706
-43.484
-43.283
-43.102
-42.943
-42.804
-42.688
-42.592
-42.518
-42.465
-42.433
-42.42
-42.427
-42.452
-42.495
-42.556
-42.632
-42.724
-42.831
-42.952
-43.087
-43.234
-43.394
-43.565
-43.747
-43.94
-44.144
-44.359
-44.584
-44.82
-45.067
-45.324
-45.593
-45.873
-46.164
-46.466
-46.78
-47.105
-47.442
-47.792
-48.154
-48.53
-48.92
-49.324
-49.743
-50.177
-50.626
-51.091
-51.571
-52.064
-52.572
-53.092
-53.623
-54.162
-54.709
-55.26
-55.811
-56.36
-56.902
-57.433
-57.947
-58.44
-58.907
-59.341
-59.737
-60.089
-60.392
-60.64
-60.825
-60.943
-60.986
-60.947
-60.821
-60.602
-60.282
-59.857
-59.32
-58.667
-57.894
-56.997
-55.972
-54.816
-53.528
-52.106
-50.55
-48.862
-47.043
-45.096
-43.025
-40.837
-38.538
-36.136
-33.64
-31.061
-28.407
-25.692
-22.927
-20.127
-17.305
-14.475
-11.655
-8.863
-6.119
-3.44
-0.847
1.64
4.003
6.223
8.281
10.164
11.858
13.349
14.622
15.662
16.457
16.996
17.271
17.274
17
16.446
15.613
14.51
13.145
11.523
9.649
7.516
5.125
2.486
-0.392
-3.489
-6.787
-10.261
-13.876
-17.579
-21.322
-25.056
-28.739
-32.345
-35.834
-39.164
-42.284
-45.127
-47.645
-49.807
-51.584
-52.969
-53.971
-54.611
-54.948
-55.075
-55.08
-55.071
-55.15
-55.402
-55.941
-56.86
-58.275
-60.344
-63.121
-66.575
-70.59
-74.871
-79.096
-82.987
-86.146
-88.129
-88.693
-87.687
-85.285
-82.151
-78.86
-75.993
-74.13
-73.501
-74.292
-76.725
-80.301
-83.772
-84.88
-80.09
-66.662
-43.657
-13.143
20.958
56.664
95.206
143.289
207.957
291.428
390.662
493.908
588.299
663.157
708.168
718.804
689.991
617.449
503.417
351.364
172.542
-15.519
-195.343
-347.403
-458.642
-524.417
-546.943
-534.823
-497.11
-443.422
-382.453
-322.791
-272.764
-235.456
-209.723
-190.214
-171.253
-151.604
-133.011
-119.443
-113.316
-113.637
-117.851
-122.385
-124.625
-123.45
-118.6
-110.625
-100.285
-88.372
-75.769
-63.365
-52.081
-42.804
-36.005
-31.745
-29.846
-29.908
-31.52
-34.304
-37.836
-41.674
-45.492
-49.052
-52.186
-54.805
-56.843
-58.252
-59.023
-59.18
-58.747
-57.754
-56.246
-54.274
-51.903
-49.206
-46.244
-43.071
-39.759
-36.396
-33.08
-29.914
-26.97
-24.286
-21.893
-19.804
-18.024
-16.543
-15.333
-14.353
-13.567
-12.945
-12.463
-12.098
-11.82
-11.592
-11.371
-11.11
-10.771
-10.325
-9.745
-9.012
-8.109
-7.025
-5.756
-4.308
-2.677
-0.861
1.146
3.354
5.77
8.4
11.253
14.332
17.639
21.177
24.947
28.948
33.18
37.637
42.317
47.221
52.349
57.705
63.29
69.091
75.092
81.27
87.593
94.033
100.557
107.127
113.711
120.287
126.84
133.373
139.89
146.382
152.832
159.206
165.472
171.62
177.638
183.52
189.277
194.913
200.441
205.896
211.292
216.615
221.827
226.855
231.608
236.023
240.051
243.657
246.818
249.489
251.628
253.203
254.164
254.464
254.046
252.82
250.722
247.738
243.885
239.228
233.866
227.867
221.292
214.199
206.63
198.642
190.29
181.612
172.653
163.475
154.15
144.784
135.469
126.256
117.176
108.224
99.37
90.606
81.93
73.333
64.824
56.41
48.102
39.93
31.925
24.102
16.467
9.007
1.711
-5.415
-12.355
-19.086
-25.571
-31.785
-37.706
-43.307
-48.574
-53.497
-58.073
-62.309
-66.221
-69.818
-73.106
-76.092
-78.779
-81.175
-83.293
-85.147
-86.752
-88.124
-89.281
-90.242
-91.026
-91.648
-92.124
-92.465
-92.683
-92.787
-92.79
-92.702
-92.535
-92.298
-92.002
-91.659
-91.278
-90.869
-90.439
-89.996
-89.546
-89.095
-88.645
-88.202
-87.768
-87.346
-86.936
-86.539
-86.158
-85.791
-85.438
-85.1
-84.774
-84.46
-84.156
-83.861
-83.574
-83.292
-83.014
-82.739
-82.467
-82.195
-81.923
-81.651
-81.379
-81.105
-80.83
-80.554
-80.276
-79.996
-79.714
-79.43
-79.146
-78.861
-78.576
-78.293
-78.013
-77.736
-77.465
-77.199
-76.941
-76.692
-76.452
-76.223
-76.005
-75.799
-75.606
-75.425
-75.257
-75.102
-74.959
-74.828
-74.707
-74.596
-74.494
-74.4
-74.311
-74.226
-74.144
-74.063
-73.981
-73.896
-73.807
-73.712
-73.61
-73.5
-73.38
-73.251
-73.11
-72.957
-72.792
-72.615
-72.426
-72.225
-72.012
-71.789
-71.556
-71.314
-71.065
-70.812
-70.556
-70.299
-70.043
-69.791
-69.545
-69.308
-69.082
-68.868
-68.67
-68.49
-68.329
-68.19
-68.073
-67.981
-67.913
-67.869
-67.849
-67.852
-67.877
-67.92
-67.978
-68.05
-68.13
-68.215
-68.301
-68.38
-68.449
-68.5
-68.527
-68.524
-68.481
-68.392
-68.249
-68.043
-67.767
-67.414
-66.975
-66.444
-65.814
-65.077
-64.229
-63.263
-62.173
-60.955
-59.605
-58.121
-56.5
-54.742
-52.848
-50.819
-48.658
-46.37
-43.96
-41.435
-38.803
-36.071
-33.25
-30.351
-27.387
-24.372
-21.318
-18.244
-15.167
-12.105
-9.078
-6.105
-3.207
-0.403
2.286
4.842
7.247
9.485
11.541
13.397
15.038
16.447
17.61
18.515
19.152
19.514
19.593
19.384
18.892
18.121
17.073
15.753
14.154
12.273
10.115
7.691
5.011
2.097
-1.03
-4.339
-7.785
-11.323
-14.907
-18.495
-22.058
-25.564
-28.969
-32.225
-35.272
-38.05
-40.522
-42.657
-44.429
-45.841
-46.912
-47.683
-48.236
-48.644
-48.976
-49.321
-49.756
-50.371
-51.282
-52.572
-54.365
-56.838
-60.049
-63.982
-68.505
-73.259
-77.878
-82.067
-85.39
-87.356
-87.682
-86.211
-83.197
-79.45
-75.665
-72.387
-70.197
-69.534
-70.689
-73.709
-77.795
-81.208
-82.12
-78.661
-68.982
-51.331
-23.725
15.463
66.883
129.32
200.022
275.836
352.928
428.726
501.9
569.975
630.251
676.924
701.001
693.94
647.809
559.881
432.795
274.034
97.68
-79.675
-239.248
-364.885
-448.912
-491.271
-499.007
-480.912
-443.572
-392.064
-332.005
-271.833
-220.181
-182.876
-159.998
-145.363
-132.832
-119.168
-104.851
-94.413
-90.674
-93.093
-99.384
-105.322
-107.899
-106.577
-101.647
-93.978
-84.505
-73.87
-62.821
-52.512
-44.06
-38.002
-34.463
-33.239
-33.884
-35.976
-39.106
-42.739
-46.307
-49.458
-51.982
-53.761
-54.813
-55.139
-54.721
-53.594
-51.814
-49.423
-46.483
-43.065
-39.232
-35.084
-30.742
-26.315
-21.929
-17.682
-13.648
-9.9
-6.484
-3.423
-0.737
1.57
3.507
5.083
6.316
7.243
7.892
8.305
8.528
8.607
8.597
8.545
8.485
8.447
8.454
8.526
8.679
8.927
9.279
9.744
10.335
11.063
11.941
12.983
14.197
15.592
17.175
18.954
20.939
23.139
25.563
28.22
31.117
34.262
37.664
41.327
45.254
49.445
53.898
58.608
63.573
68.785
74.235
79.914
85.811
91.914
98.211
104.687
111.327
118.113
125.027
132.051
139.162
146.339
153.559
160.799
168.032
175.234
182.378
189.437
196.385
203.194
209.835
216.282
222.505
228.479
234.177
239.571
244.637
249.352
253.693
257.638
261.168
264.264
266.91
269.092
270.796
272.012
272.731
272.945
272.65
271.844
270.527
268.702
266.373
263.547
260.235
256.447
252.2
247.508
242.391
236.869
230.964
224.702
218.107
211.208
204.033
196.612
188.976
181.156
173.185
165.093
156.913
148.677
140.417
132.163
123.945
115.794
107.737
99.801
92.013
84.396
76.974
69.767
62.794
56.072
49.617
43.441
37.556
31.97
26.691
21.724
17.071
12.734
8.711
5
1.596
-1.507
-4.317
-6.843
-9.095
-11.086
-12.828
-14.333
-15.616
-16.692
-17.576
-18.282
-18.826
-19.224
-19.491
-19.643
-19.693
-19.658
-19.549
-19.381
-19.166
-18.915
-18.639
-18.348
-18.052
-17.758
-17.473
-17.204
-16.957
-16.736
-16.544
-16.385
-16.261
-16.171
-16.118
-16.1
-16.117
-16.168
-16.251
-16.363
-16.504
-16.669
-16.856
-17.061
-17.282
-17.515
-17.756
-18.003
-18.251
-18.497
-18.74
-18.976
-19.202
-19.418
-19.62
-19.808
-19.98
-20.135
-20.273
-20.393
-20.494
-20.577
-20.642
-20.689
-20.72
-20.736
-20.737
-20.725
-20.701
-20.666
-20.622
-20.57
-20.511
-20.447
-20.38
-20.312
-20.243
-20.177
-20.114
-20.058
-20.008
-19.967
-19.936
-19.917
-19.911
-19.919
-19.942
-19.982
-20.039
-20.115
-20.211
-20.328
-20.467
-20.629
-20.815
-21.026
-21.263
-21.527
-21.82
-22.141
-22.494
-22.877
-23.294
-23.745
-24.23
-24.751
-25.308
-25.901
-26.531
-27.197
-27.899
-28.636
-29.409
-30.216
-31.055
-31.926
-32.827
-33.756
-34.711
-35.69
-36.689
-37.705
-38.735
-39.775
-40.82
-41.866
-42.908
-43.94
-44.957
-45.952
-46.919
-47.851
-48.741
-49.582
-50.368
-51.09
-51.742
-52.316
-52.806
-53.206
-53.508
-53.706
-53.795
-53.768
-53.622
-53.352
-52.954
-52.423
-51.759
-50.957
-50.018
-48.94
-47.723
-46.368
-44.877
-43.253
-41.499
-39.62
-37.622
-35.512
-33.297
-30.988
-28.594
-26.126
-23.595
-21.015
-18.398
-15.76
-13.114
-10.476
-7.861
-5.287
-2.773
-0.336
2.005
4.231
6.324
8.266
10.039
11.628
13.019
14.2
15.159
15.883
16.36
16.58
16.534
16.217
15.625
14.755
13.604
12.178
10.486
8.539
6.345
3.91
1.229
-1.693
-4.846
-8.217
-11.789
-15.541
-19.454
-23.491
-27.605
-31.749
-35.876
-39.949
-43.943
-47.82
-51.54
-55.052
-58.288
-61.202
-63.763
-65.941
-67.724
-69.117
-70.134
-70.826
-71.276
-71.563
-71.784
-72.033
-72.394
-72.979
-73.877
-75.216
-77.185
-79.87
-83.271
-87.287
-91.615
-95.925
-99.957
-103.297
-105.419
-105.995
-104.811
-102.04
-98.455
-94.778
-91.645
-89.805
-89.865
-92.265
-97.239
-104.159
-111.334
-116.829
-118.443
-113.859
-100.926
-77.283
-40.862
9.456
72.709
145.813
224.796
305.028
383.665
460.261
533.508
600.446
653.867
682.065
673.175
618.257
515.29
368.261
188.345
-6.379
-196.637
-360.038
-479.771
-551.389
-577.628
-571.15
-546.088
-510.786
-472.085
-432.173
-392.005
-353.073
-314.015
-274.865
-236.137
-199.501
-169.374
-147.79
-135.009
-129.884
-129.217
-130.791
-133.084
-134.519
-134.111
-131.363
-126.207
-119.093
-110.72
-101.756
-92.93
-85.121
-79.237
-75.739
-74.612
-75.598
-78.224
-82.026
-86.601
-91.41
-95.846
-99.527
-102.26
-103.982
-104.763
-104.649
-103.646
-101.825
-99.302
-96.187
-92.593
-88.614
-84.329
-79.852
-75.318
-70.875
-66.66
-62.764
-59.247
-56.146
-53.481
-51.262
-49.489
-48.139
-47.18
-46.576
-46.29
-46.287
-46.529
-46.965
-47.537
-48.182
-48.843
-49.481
-50.063
-50.564
-50.963
-51.24
-51.381
-51.38
-51.229
-50.918
-50.434
-49.761
-48.884
-47.794
-46.483
-44.945
-43.17
-41.15
-38.877
-36.344
-33.543
-30.47
-27.118
-23.48
-19.554
-15.339
-10.837
-6.053
-0.994
4.335
9.924
15.761
21.834
28.128
34.63
41.324
48.192
55.215
62.373
69.644
77.007
84.438
91.912
99.403
106.885
114.331
121.713
129.005
136.178
143.204
150.055
156.703
163.12
169.279
175.153
180.714
185.936
190.795
195.267
199.329
202.961
206.142
208.854
211.083
212.813
214.034
214.734
214.905
214.541
213.639
212.197
210.216
207.7
204.654
201.087
197.01
192.435
187.379
181.858
175.892
169.502
162.711
155.547
148.035
140.206
132.092
123.726
115.144
106.383
97.481
88.475
79.404
70.307
61.219
52.175
43.209
34.355
25.647
17.121
8.807
0.734
-7.06
-14.537
-21.665
-28.408
-34.747
-40.675
-46.164
-51.184
-55.751
-59.871
-63.545
-66.788
-69.578
-71.877
-73.718
-75.162
-76.112
-76.465
-76.343
-75.784
