Name,Criss Capps
Date of Birth,"Feb 5, 1952"
Recorded Date,2025-04-19 17:59:30 -0400
Classification,Sinus Rhythm
Symptoms,
Software Version,1.90
Device,"Watch5,4"
Sample Rate,512.844 hertz


Lead,Lead I
Unit,µV

23.296
28.7
34.363
40.283
46.427
52.771
59.295
65.94
72.645
79.342
85.944
92.416
98.758
104.947
110.952
116.719
122.186
127.331
132.147
136.621
140.751
144.545
148.047
151.384
154.703
158.132
161.801
165.789
170.191
175.1
180.518
186.345
192.383
198.375
204.111
209.415
214.006
217.701
220.602
223.027
225.502
228.622
232.862
238.498
245.775
254.702
263.675
270.548
274.089
272.169
264.69
252.135
230.656
198.159
152.989
93.59
25.501
-45.492
-114.737
-176.512
-229.453
-273.227
-307.079
-331.842
-347.704
-355.528
-357.255
-354.769
-350.39
-345.815
-341.79
-338.68
-336.302
-333.885
-330.374
-324.796
-316.488
-305.516
-292.712
-279.24
-266.212
-254.901
-246.932
-243.541
-245.313
-252.155
-262.859
-275.573
-288.857
-301.53
-312.258
-320.793
-328.301
-336.004
-344.986
-354.795
-361.37
-360.516
-353.591
-347.945
-356.116
-391.521
-455.048
-532.881
-602.795
-636.94
-618.707
-549.903
-442.839
-321.849
-210.705
-120.967
-58.512
-17.082
18.908
61.364
124.623
216.854
333.69
469.527
610.368
738.92
842.534
904.242
909.969
850.854
722.809
535.751
311.294
78.837
-131.685
-298.913
-412.811
-477.194
-501.732
-497.002
-474.638
-441.193
-402.99
-366.083
-331.063
-296.681
-258.429
-211.956
-157.816
-99.982
-45.385
0.778
36.971
63.708
83.576
98.482
108.987
115.947
120.219
122.743
124.833
127.485
130.939
135.166
140.024
145.028
149.616
153.246
155.236
155.039
152.585
148.075
141.832
134.361
126.197
117.849
109.874
102.765
96.768
91.966
88.355
85.844
84.341
83.76
83.956
84.76
86.04
87.672
89.547
91.563
93.578
95.43
97.001
98.208
99.003
99.376
99.318
98.825
97.927
96.666
95.09
93.249
91.186
88.935
86.541
84.057
81.54
79.053
76.643
74.341
72.171
70.148
68.282
66.584
65.05
63.672
62.447
61.371
60.449
59.685
59.081
58.635
58.346
58.21
58.229
58.401
58.726
59.203
59.832
60.611
61.542
62.624
63.856
65.232
66.747
68.393
70.162
72.045
74.034
76.117
78.283
80.524
82.827
85.184
87.582
90.012
92.461
94.917
97.37
99.806
102.213
104.579
106.889
109.132
111.294
113.362
115.323
117.162
118.869
120.428
121.83
123.06
124.109
124.964
125.617
126.058
126.278
126.27
126.027
125.542
124.811
123.83
122.594
121.101
119.35
117.338
115.067
112.536
109.747
106.703
103.407
99.864
96.08
92.061
87.815
83.351
78.681
73.814
68.764
63.543
58.167
52.65
47.008
41.257
35.413
29.494
23.517
17.499
11.457
5.41
-0.627
-6.636
-12.601
-18.505
-24.332
-30.068
-35.698
-41.208
-46.584
-51.813
-56.885
-61.786
-66.508
-71.04
-75.374
-79.503
-83.42
-87.122
-90.604
-93.864
-96.901
-99.717
-102.311
-104.687
-106.849
-108.8
-110.548
-112.098
-113.458
-114.637
-115.642
-116.483
-117.171
-117.715
-118.125
-118.413
-118.589
-118.665
-118.649
-118.555
-118.392
-118.17
-117.902
-117.596
-117.263
-116.913
-116.554
-116.195
-115.843
-115.506
-115.188
-114.896
-114.634
-114.405
-114.212
-114.056
-113.94
-113.862
-113.824
-113.823
-113.857
-113.926
-114.025
-114.151
-114.302
-114.472
-114.659
-114.858
-115.066
-115.278
-115.489
-115.697
-115.897
-116.085
-116.257
-116.41
-116.54
-116.644
-116.72
-116.766
-116.779
-116.759
-116.706
-116.618
-116.496
-116.341
-116.154
-115.937
-115.692
-115.421
-115.126
-114.812
-114.481
-114.136
-113.779
-113.415
-113.046
-112.674
-112.3
-111.927
-111.555
-111.186
-110.818
-110.452
-110.086
-109.719
-109.347
-108.968
-108.578
-108.171
-107.743
-107.287
-106.798
-106.266
-105.686
-105.049
-104.346
-103.569
-102.709
-101.756
-100.701
-99.535
-98.248
-96.832
-95.276
-93.573
-91.717
-89.7
-87.516
-85.16
-82.629
-79.921
-77.033
-73.967
-70.724
-67.307
-63.722
-59.975
-56.075
-52.033
-47.862
-43.576
-39.191
-34.727
-30.202
-25.638
-21.057
-16.481
-11.936
-7.445
-3.031
1.28
5.465
9.498
13.355
17.011
20.442
23.625
26.536
29.156
31.465
33.449
35.097
36.399
37.348
37.938
38.157
37.999
37.466
36.559
35.285
33.659
31.699
29.439
26.922
24.195
21.301
18.281
15.165
11.99
8.796
5.628
2.541
-0.415
-3.199
-5.771
-8.094
-10.146
-11.924
-13.47
-14.862
-16.18
-17.496
-18.853
-20.289
-21.865
-23.652
-25.748
-28.238
-31.161
-34.585
-38.611
-43.289
-48.581
-54.252
-59.793
-64.656
-68.408
-70.595
-70.773
-68.603
-63.907
-57.081
-49.145
-41.168
-33.978
-28.286
-24.74
-23.876
-26.092
-29.807
-31.429
-27.76
-15.752
4.323
28.73
57.142
90.945
135.031
199.319
286.486
393.842
514.693
633.535
739.594
825.55
882.665
908.433
896.351
837.612
730.582
574.191
377.693
162.686
-48.589
-229.782
-362.13
-444.562
-484.31
-496.837
-496.892
-485.821
-459.247
-412.836
-346.039
-269.824
-199.116
-143.668
-106.987
-84.105
-67.668
-53.847
-42.289
-35.748
-35.95
-41.83
-50.476
-57.91
-61.493
-60.615
-55.685
-47.707
-37.729
-26.593
-15.326
-5.15
2.853
8.151
10.762
11.012
9.437
6.554
2.852
-1.06
-4.574
-7.292
-9.01
-9.678
-9.366
-8.124
-5.976
-2.987
0.745
5.118
10.026
15.376
21.08
27.025
33.083
39.11
44.982
50.597
55.883
60.796
65.308
69.404
73.08
76.345
79.218
81.728
83.911
85.797
87.427
88.845
90.101
91.256
92.36
93.451
94.557
95.698
96.891
98.148
99.48
100.887
102.373
103.942
105.601
107.359
109.223
111.198
113.287
115.49
117.809
120.25
122.816
125.511
128.339
131.303
134.406
137.653
141.047
144.587
148.27
152.092
156.047
160.131
164.336
168.654
173.076
177.593
182.199
186.883
191.638
196.453
201.319
206.226
211.164
216.123
221.09
226.056
231.006
235.93
240.815
245.649
250.419
255.111
259.711
264.207
268.584
272.83
276.929
280.869
284.638
288.221
291.609
294.789
297.752
300.488
302.988
305.244
307.248
308.994
310.475
311.686
312.622
313.278
313.653
313.743
313.548
313.067
312.302
311.254
309.928
308.328
306.46
304.331
301.95
299.326
296.472
293.398
290.12
286.651
283.008
279.205
275.262
271.194
267.019
262.756
258.422
254.035
249.613
245.173
240.733
236.311
231.921
227.582
223.307
219.113
215.014
211.022
207.151
203.411
199.814
196.369
193.084
189.966
187.02
184.251
181.662
179.254
177.027
174.978
173.106
171.404
169.868
168.49
167.262
166.174
165.218
164.382
163.655
163.024
162.479
162.007
161.595
161.23
160.9
160.591
160.291
159.989
159.67
159.324
158.939
158.503
158.006
157.437
156.787
156.048
155.211
154.269
153.215
152.046
150.756
149.344
147.806
146.143
144.355
142.442
140.409
138.257
135.991
133.615
131.133
128.552
125.877
123.114
120.268
117.344
114.349
111.289
108.17
104.998
101.779
98.519
95.225
91.902
88.556
85.194
81.821
78.443
75.064
71.69
68.325
64.973
61.637
58.321
55.025
51.754
48.506
45.283
42.085
38.911
35.761
32.636
29.534
26.456
23.404
20.378
17.385
14.426
11.505
8.628
5.798
3.02
0.299
-2.36
-4.956
-7.484
-9.94
-12.318
-14.61
-16.809
-18.909
-20.901
-22.774
-24.519
-26.124
-27.579
-28.876
-30.005
-30.953
-31.706
-32.244
-32.554
-32.631
-32.469
-32.069
-31.439
-30.586
-29.532
-28.31
-26.946
-25.466
-23.889
-22.227
-20.5
-18.726
-16.916
-15.089
-13.25
-11.386
-9.482
-7.52
-5.458
-3.255
-0.858
1.81
4.796
8.135
11.854
15.951
20.427
25.271
30.439
35.88
41.527
47.277
53.024
58.641
63.965
68.84
73.111
76.605
79.193
80.765
81.219
80.488
78.522
75.297
70.836
65.184
58.405
50.607
41.927
32.541
22.672
12.522
2.285
-7.849
-17.714
-27.155
-36.021
-44.179
-51.529
-57.998
-63.543
-68.15
-71.828
-74.632
-76.659
-78.06
-79.023
-79.729
-80.355
-81.074
-82.049
-83.43
-85.384
-88.113
-91.711
-96.177
-101.401
-107.097
-112.944
-118.65
-123.769
-127.73
-130.155
-130.853
-129.941
-128.043
-125.784
-123.691
-122.505
-122.897
-125.142
-129.303
-134.916
-140.642
-144.95
-145.377
-138.323
-120.751
-90.925
-50.136
-1.84
51.306
109.096
176.154
257.192
353.246
461.015
568.956
664.61
737.666
777.669
780.044
740.178
651.968
515.439
333.397
117.037
-110.068
-322.103
-494.593
-612.1
-676.025
-697.797
-691.36
-666.87
-627.539
-573.865
-510.302
-446.911
-393.124
-353.936
-326.672
-302.359
-275.411
-245.232
-215.484
-192.727
-179.345
-174.076
-174.428
-176.476
-178.025
-178.402
-176.792
-173.151
-167.84
-161.06
-153.341
-145.536
-138.305
-132.348
-128.416
-126.681
-126.938
-128.893
-132.07
-135.982
-140.205
-144.218
-147.494
-149.762
-150.928
-150.999
-150.077
-148.224
-145.49
-141.993
-137.891
-133.332
-128.446
-123.35
-118.135
-112.919
-107.85
-103.059
-98.645
-94.67
-91.158
-88.116
-85.551
-83.46
-81.815
-80.575
-79.692
-79.113
-78.798
-78.7
-78.765
-78.936
-79.144
-79.335
-79.468
-79.51
-79.441
-79.241
-78.896
-78.392
-77.731
-76.91
-75.926
-74.773
-73.444
-71.931
-70.235
-68.355
-66.293
-64.051
-61.628
-59.025
-56.242
-53.285
-50.154
-46.853
-43.383
-39.75
-35.963
-32.03
-27.963
-23.774
-19.474
-15.077
-10.598
-6.05
-1.447
3.198
7.871
12.56
17.252
21.932
26.589
31.209
35.781
40.291
44.727
49.078
53.332
57.478
61.505
65.403
69.161
72.77
76.222
79.506
82.616
85.543
88.281
90.822
93.161
95.294
97.215
98.922
100.411
101.679
102.725
103.548
104.146
104.518
104.664
104.585
104.28
103.752
103.001
102.03
100.843
99.443
97.833
96.02
94.008
91.804
89.414
86.846
84.108
81.209
78.157
74.964
71.639
68.193
64.637
60.984
57.244
53.43
49.554
45.627
41.663
37.674
33.671
29.668
25.675
21.705
17.771
13.882
10.051
6.289
2.606
-0.988
-4.484
-7.871
-11.142
-14.289
-17.303
-20.177
-22.907
-25.485
-27.907
-30.169
-32.267
-34.199
-35.963
-37.557
-38.982
-40.237
-41.323
-42.241
-42.994
-43.583
-44.013
-44.285
-44.405
-44.377
-44.205
-43.894
-43.451
-42.88
-42.187
-41.378
-40.461
-39.441
-38.324
-37.119
-35.832
-34.47
-33.04
-31.55
-30.007
-28.419
-26.793
-25.135
-23.454
-21.756
-20.047
-18.336
-16.627
-14.928
-13.246
-11.585
-9.952
-8.352
-6.792
-5.276
-3.81
-2.398
-1.046
0.241
1.46
2.605
3.672
4.658
5.558
6.368
7.086
7.709
8.233
8.657
8.978
9.195
9.307
9.313
9.213
9.006
8.694
8.278
7.758
7.136
6.415
5.597
4.686
3.685
2.599
1.432
0.19
-1.122
-2.497
-3.928
-5.407
-6.926
-8.477
-10.051
-11.638
-13.226
-14.807
-16.368
-17.899
-19.388
-20.823
-22.192
-23.482
-24.684
-25.784
-26.771
-27.635
-28.364
-28.948
-29.377
-29.641
-29.733
-29.643
-29.364
-28.889
-28.213
-27.332
-26.242
-24.94
-23.426
-21.7
-19.764
-17.62
-15.275
-12.733
-10.003
-7.093
-4.015
-0.782
2.593
6.095
9.704
13.403
17.169
20.981
24.816
28.65
32.46
36.22
39.906
43.496
46.965
50.291
53.452
56.422
59.18
61.702
63.968
65.957
67.653
69.04
70.103
70.836
71.235
71.295
71.01
70.37
69.37
68.008
66.289
64.219
61.811
59.086
56.073
52.818
49.365
45.759
42.041
38.246
34.41
30.575
26.791
23.114
19.594
16.271
13.181
10.359
7.82
5.551
3.505
1.598
-0.259
-2.134
-4.103
-6.252
-8.675
-11.49
-14.808
-18.692
-23.223
-28.502
-34.554
-41.361
-48.767
-56.384
-63.799
-70.649
-76.491
-80.871
-83.494
-84.12
-82.853
-80.374
-77.331
-74.201
-71.643
-70.272
-70.451
-72.672
-76.129
-77.885
-75.152
-65.278
-47.349
-24.792
-0.627
24.677
53.502
95.217
159.389
249.793
365.576
495.162
621.907
731.077
806.79
839.776
824.974
758.509
643.92
486.478
296.992
93.284
-106.529
-281.947
-418.461
-512.146
-565.93
-589.887
-593.154
-579.733
-551.358
-509.503
-459.481
-409.085
-364.856
-328.875
-297.365
-266.293
-234.105
-202.294
-175.544
-156.773
-145.697
-140.626
-138.785
-137.823
-136.687
-134.6
-130.817
-125.163
-117.874
-109.299
-99.984
-90.644
-81.856
-74.284
-68.721
-65.397
-64.157
-64.753
-66.735
-69.676
-73.244
-76.939
-80.188
-82.67
-84.224
-84.809
-84.526
-83.418
-81.498
-78.856
-75.605
-71.865
-67.76
-63.375
-58.767
-54.024
-49.248
-44.566
-40.124
-36.016
-32.296
-28.996
-26.122
-23.681
-21.673
-20.068
-18.821
-17.885
-17.21
-16.76
-16.505
-16.401
-16.402
-16.45
-16.484
-16.457
-16.338
-16.1
-15.724
-15.193
-14.491
-13.616
-12.572
-11.36
-9.978
-8.422
-6.685
-4.765
-2.665
-0.387
2.065
4.687
7.475
10.426
13.532
16.788
20.188
23.727
27.4
31.2
35.118
39.144
43.267
47.473
51.752
56.091
60.476
64.893
69.331
73.777
78.219
82.647
87.048
91.412
95.728
99.985
104.174
108.285
112.308
116.235
120.056
123.763
127.349
130.804
134.123
137.298
140.322
143.189
145.892
148.425
150.782
152.958
154.949
156.748
158.353
159.759
160.962
161.96
162.75
163.329
163.697
163.85
163.787
163.507
163.011
162.297
161.366
160.219
158.857
157.284
155.501
153.513
151.324
148.939
146.363
143.605
140.671
137.569
134.309
130.901
127.354
123.681
119.892
116
112.017
107.957
103.833
99.658
95.445
91.209
86.963
82.721
78.497
74.304
70.156
66.066
62.048
58.113
54.274
50.542
46.929
43.445
40.098
36.897
33.85
30.965
28.245
25.696
23.321
21.123
19.107
17.27
15.611
14.125
12.809
11.66
10.676
9.853
9.176
8.643
8.262
8.035
7.969
8.056
8.262
8.578
9.016
9.549
10.115
10.666
11.146
11.541
11.907
12.251
12.494
12.702
13.118
13.785
14.621
15.652
16.594
17.969
21.342
26.329
31.501
34.442
30.666
20.555
8.578
-0.773
-1.124
7.776
19.932
30.717
35.09
32.291
26.811
21.371
17.874
16.846
16.45
15.886
15.209
14.365
13.634
13.083
12.466
11.714
10.873
9.936
8.896
7.763
6.55
5.282
4.001
2.721
1.423
0.101
-1.243
-2.609
-3.995
-5.401
-6.832
-8.287
-9.761
-11.25
-12.746
-14.246
-15.745
-17.239
-18.723
-20.193
-21.645
-23.076
-24.486
-25.871
-27.229
-28.555
-29.842
-31.084
-32.273
-33.402
-34.461
-35.441
-36.329
-37.116
-37.798
-38.368
-38.816
-39.129
-39.29
-39.287
-39.115
-38.773
-38.262
-37.588
-36.755
-35.785
-34.708
-33.555
-32.353
-31.117
-29.843
-28.531
-27.185
-25.808
-24.409
-22.982
-21.497
-19.938
-18.293
-16.548
-14.691
-12.681
-10.45
-7.944
-5.125
-1.985
1.443
5.128
9.039
13.122
17.316
21.528
25.629
29.518
33.119
36.353
39.154
41.421
43.011
43.81
43.727
42.708
40.75
37.853
34.021
29.308
23.794
17.607
10.931
3.912
-3.338
-10.706
-18.099
-25.389
-32.405
-39.006
-45.068
-50.485
-55.203
-59.169
-62.335
-64.716
-66.367
-67.398
-67.979
-68.264
-68.38
-68.464
-68.638
-69.047
-69.862
-71.243
-73.369
-76.353
-80.2
-84.84
-90.07
-95.585
-101.067
-106.092
-110.106
-112.729
-113.776
-113.277
-111.693
-109.623
-107.657
-106.456
-106.579
-108.404
-112.091
-117.314
-123.198
-127.455
-126.566
-117.803
-98.702
-69.886
-35.479
3.713
48.064
101.144
171.799
261.703
367.972
484.554
596.374
692.312
763.432
798.883
796.182
752.515
665.782
541.066
380.631
192.15
-8.292
-204.328
-373.37
-497.788
-575.086
-609.067
-612.776
-600.668
-575.832
-540.705
-497.225
-445.512
-393.326
-345.866
-302.628
-264.9
-230.871
-200.14
-176.569
-161.408
-154.494
-154.645
-158.644
-163.79
-168.383
-170.998
-170.693
-167.266
-161.035
-152.579
-142.681
-132.299
-122.272
-113.487
-106.855
-102.686
-100.868
-101.13
-102.995
-106.02
-109.858
-114.028
-117.99
-121.407
-124.065
-125.881
-126.918
-127.203
-126.743
-125.599
-123.848
-121.577
-118.887
-115.851
-112.525
-108.966
-105.226
-101.383
-97.541
-93.798
-90.258
-86.986
-84.015
-81.371
-79.066
-77.098
-75.454
-74.099
-72.983
-72.064
-71.308
-70.685
-70.171
-69.731
-69.322
-68.899
-68.414
-67.829
-67.121
-66.265
-65.241
-64.036
-62.641
-61.055
-59.285
-57.333
-55.2
-52.883
-50.38
-47.691
-44.821
-41.773
-38.554
-35.17
-31.629
-27.938
-24.105
-20.14
-16.052
-11.849
-7.538
-3.128
1.369
5.943
10.58
15.268
19.993
24.742
29.501
34.256
38.992
43.698
48.361
52.969
57.508
61.968
66.338
70.605
74.761
78.794
82.696
86.457
90.07
93.525
96.816
99.936
102.88
105.642
108.217
110.601
112.791
114.782
116.571
118.157
119.536
120.708
121.669
122.42
122.96
123.289
123.408
123.317
123.02
122.516
121.811
120.905
119.804
118.512
117.033
115.373
113.537
111.533
109.368
107.049
104.584
101.981
99.249
96.397
93.434
90.371
87.215
83.979
80.673
77.307
73.893
70.442
66.966
63.477
59.987
56.508
53.052
49.632
46.257
42.941
39.694
36.527
33.45
30.472
27.604
24.853
22.227
19.733
17.378
15.166
13.103
11.193
9.439
7.843
6.409
5.136
4.027
3.08
2.295
1.671
1.205
0.894
0.734
0.721
0.85
1.114
1.507
2.022
2.652
3.388
4.222
5.145
6.149
7.224
8.362
9.553
10.788
12.059
13.358
14.677
16.007
17.342
18.674
19.997
21.305
22.591
23.851
25.079
26.27
27.42
28.527
29.585
30.594
31.55
32.452
33.298
34.089
34.822
35.499
36.12
36.685
37.197
37.656
38.063
38.422
38.734
39.001
39.226
39.409
39.554
39.662
39.735
39.774
39.781
39.757
39.703
39.621
39.51
39.373
39.21
39.02
38.805
38.565
38.299
38.009
37.693
37.354
36.992
36.606
36.199
35.771
35.324
34.859
34.378
33.884
33.379
32.866
32.35
31.834
31.324
30.825
30.343
29.883
29.454
29.062
28.715
28.42
28.184
28.017
27.926
27.919
28.005
28.192
28.489
28.904
29.445
30.119
30.934
31.894
33.005
34.273
35.7
37.29
39.044
40.963
43.046
45.289
47.691
50.244
52.942
55.775
58.733
61.802
64.968
68.214
71.522
74.872
78.246
81.62
84.974
88.283
91.526
94.68
97.722
100.628
103.375
105.94
108.297
110.425
112.299
113.899
115.204
116.197
116.861
117.187
117.166
116.79
116.051
114.936
113.438
111.558
109.301
106.674
103.693
100.378
96.765
92.901
88.833
84.607
80.262
75.83
71.346
66.85
62.391
58.025
53.8
49.756
45.927
42.34
39.013
35.939
33.068
30.311
27.581
24.798
21.91
18.871
15.61
12.052
8.102
3.664
-1.313
-6.887
-13.148
-20.101
-27.663
-35.624
-43.529
-50.846
-57.149
-61.954
-64.77
-65.327
-63.478
-59.4
-53.835
-47.65
-41.541
-36.171
-32.241
-30.215
-30.348
-32.482
-34.388
-32.235
-22.823
-3.301
25.231
57.364
90.45
124.202
165.224
226.838
316.179
433.672
567.959
697.025
802.952
872.128
899.069
885.727
830.722
731.281
585.366
394.574
171.561
-59.929
-271.989
-440.438
-552.038
-609.096
-624.437
-611.701
-580.125
-533.219
-471.415
-399.302
-327.679
-266.208
-220.729
-190.489
-167.341
-145.877
-124.841
-105.882
-93.858
-90.273
-93.509
-100.807
-108.297
-113.712
-116.154
-115.398
-112.094
-106.938
-100.503
-93.652
-87.196
-81.91
-78.675
-77.805
-79.12
-82.289
-86.757
-91.966
-97.491
-102.828
-107.442
-111.045
-113.516
-114.841
-115.152
-114.546
-113.081
-110.88
-108.08
-104.804
-101.196
-97.378
-93.465
-89.597
-85.892
-82.45
-79.363
-76.678
-74.428
-72.628
-71.266
-70.323
-69.776
-69.59
-69.729
-70.158
-70.826
-71.681
-72.668
-73.723
-74.794
-75.841
-76.826
-77.724
-78.515
-79.184
-79.722
-80.13
-80.401
-80.532
-80.515
-80.341
-80.008
-79.511
-78.848
-78.021
-77.03
-75.872
-74.548
-73.059
-71.403
-69.582
-67.597
-65.447
-63.135
-60.666
-58.046
-55.284
-52.389
-49.37
-46.237
-43.001
-39.675
-36.268
-32.793
-29.26
-25.68
-22.065
-18.427
-14.777
-11.125
-7.485
-3.866
-0.281
3.26
6.745
10.163
13.503
16.756
19.91
22.955
25.882
28.681
31.343
33.859
36.221
38.42
40.449
42.301
43.969
45.448
46.731
47.814
48.692
49.36
49.815
50.053
50.071
49.866
49.437
48.781
47.898
46.788
45.45
43.886
42.098
40.089
37.861
35.421
32.772
29.921
26.876
23.643
20.232
16.652
12.914
9.027
5.005
0.859
-3.399
-7.755
-12.196
-16.707
-21.275
-25.885
-30.524
-35.175
-39.824
-44.458
-49.061
-53.618
-58.116
-62.541
-66.879
-71.116
-75.241
-79.242
-83.106
-86.824
-90.385
-93.781
-97.003
-100.045
-102.902
-105.566
-108.036
-110.308
-112.381
-114.253
-115.924
-117.397
-118.673
-119.755
-120.649
-121.357
-121.887
-122.244
-122.436
-122.471
-122.356
-122.102
-121.716
-121.208
-120.59
-119.871
-119.062
-118.173
-117.217
-116.203
-115.144
-114.05
-112.931
-111.799
-110.664
-109.534
-108.419
-107.328
-106.268
-105.248
-104.274
-103.353
-102.49
-101.689
-100.956
-100.293
-99.703
-99.189
-98.751
-98.391
-98.109
-97.904
-97.777
-97.726
-97.749
-97.846
-98.013
-98.247
-98.546
-98.906
-99.321
-99.788
-100.301
-100.855
-101.445
-102.067
-102.715
-103.383
-104.068
-104.763
-105.465
-106.168
-106.867
-107.559
-108.238
-108.902
-109.546
-110.167
-110.764
-111.331
-111.868
-112.372
-112.84
-113.27
-113.657
-114
-114.296
-114.54
-114.731
-114.864
-114.936
-114.944
-114.887
-114.763
-114.571
-114.308
-113.971
-113.56
-113.072
-112.506
-111.855
-111.115
-110.281
-109.349
-108.316
-107.18
-105.936
-104.579
-103.107
-101.517
-99.81
-97.983
-96.028
-93.937
-91.702
-89.322
-86.81
-84.175
-81.419
-78.551
-75.579
-72.514
-69.379
-66.179
-62.907
-59.556
-56.116
-52.591
-49.004
-45.371
-41.714
-38.043
-34.347
-30.63
-26.911
-23.195
-19.48
-15.761
-12.013
-8.252
-4.534
-0.909
2.57
5.867
8.979
11.888
14.572
17.006
19.152
20.988
22.515
23.715
24.552
24.989
24.962
24.455
23.517
22.188
20.508
18.507
16.193
13.588
10.746
7.722
4.572
1.34
-1.945
-5.245
-8.487
-11.589
-14.456
-17.012
-19.243
-21.136
-22.677
-23.857
-24.673
-25.147
-25.342
-25.344
-25.234
-25.101
-25.04
-25.149
-25.565
-26.418
-27.863
-30.082
-33.156
-37.069
-41.72
-46.852
-52.161
-57.367
-62.084
-65.827
-68.301
-69.396
-69.254
-68.448
-67.574
-67.137
-67.668
-69.57
-73.03
-77.994
-83.911
-89.701
-93.25
-91.516
-82.034
-62.594
-33.618
1.258
40.693
84.294
134.719
199.393
280.162
374.893
478.23
578
665.594
734.26
775.173
782.865
749.908
669.289
541.882
373.227
176.452
-27.085
-216.262
-372.05
-481.995
-546.171
-571.82
-569.053
-548.042
-513.729
-469.345
-420.382
-371.93
-328.933
-293.134
-260.485
-227.424
-192.883
-158.598
-129.718
-109.484
-97.641
-92.361
-90.703
-90.241
-89.916
-88.928
-86.414
-82.049
-75.971
-68.499
-60.169
-51.683
-43.596
-36.575
-31.451
-28.498
-27.595
-28.518
-30.802
-34.014
-37.8
-41.63
-44.939
-47.417
-48.909
-49.392
-48.969
-47.686
-45.57
-42.73
-39.291
-35.381
-31.122
-26.591
-21.862
-17.033
-12.222
-7.578
-3.219
0.785
4.39
7.579
10.349
12.695
14.63
16.2
17.446
18.418
19.158
19.699
20.081
20.355
20.576
20.806
21.097
21.481
21.989
22.639
23.448
24.433
25.599
26.943
28.464
30.165
32.049
34.125
36.394
38.856
41.509
44.349
47.374
50.582
53.97
57.532
61.264
65.161
69.219
73.432
77.794
82.296
86.926
91.674
96.526
101.47
106.492
111.579
116.715
121.887
127.082
132.286
137.485
142.666
147.815
152.92
157.966
162.943
167.835
172.632
177.321
181.891
186.33
190.627
194.771
198.752
202.56
206.186
209.62
212.856
215.885
218.7
221.294
223.663
225.802
227.705
229.37
230.792
231.97
232.902
233.587
234.024
234.213
234.155
233.85
233.302
232.513
231.486
230.226
228.737
227.025
225.096
222.959
220.621
218.092
215.38
212.497
209.454
206.262
202.935
199.484
195.924
192.268
188.53
184.724
180.865
176.967
173.044
169.111
165.182
161.272
157.394
153.561
149.787
146.085
142.466
138.942
135.524
132.223
129.047
126.006
123.107
120.357
117.763
115.329
113.061
110.959
109.028
107.267
105.677
104.256
103.003
101.914
100.985
100.213
99.59
99.112
98.772
98.561
98.472
98.497
98.626
98.85
99.159
99.544
99.994
100.5
101.051
101.637
102.248
102.874
103.506
104.134
104.749
105.342
105.904
106.428
106.906
107.331
107.697
107.997
108.228
108.384
108.461
108.456
108.366
108.188
107.921
107.563
107.113
106.571
105.937
105.211
104.393
103.485
102.488
101.403
100.233
98.978
97.641
96.224
94.728
93.156
91.509
89.79
88.001
86.144
84.22
82.231
80.179
78.065
75.891
73.657
71.366
69.016
66.611
64.151
61.636
59.068
56.448
53.778
51.058
48.291
45.477
42.619
39.719
36.779
33.803
30.793
27.753
24.689
21.603
18.503
15.394
12.283
9.176
6.081
3.007
-0.039
-3.047
-6.007
-8.91
-11.744
-14.499
-17.163
-19.724
-22.172
-24.494
-26.681
-28.719
-30.6
-32.311
-33.844
-35.188
-36.334
-37.273
-37.998
-38.502
-38.778
-38.822
-38.63
-38.201
-37.532
-36.625
-35.482
-34.107
-32.505
-30.684
-28.651
-26.418
-23.996
-21.4
-18.644
-15.747
-12.727
-9.606
-6.408
-3.156
0.125
3.409
6.669
9.88
13.013
16.044
18.95
21.704
24.284
26.663
28.816
30.721
32.358
33.706
34.749
35.472
35.862
35.915
35.631
35.007
34.043
32.729
31.062
29.044
26.683
23.986
20.97
17.654
14.068
10.256
6.266
2.141
-2.075
-6.351
-10.652
-14.934
-19.144
-23.224
-27.113
-30.766
-34.143
-37.199
-39.912
-42.281
-44.337
-46.147
-47.777
-49.286
-50.742
-52.22
-53.815
-55.633
-57.756
-60.278
-63.335
-67.009
-71.347
-76.29
-81.545
-86.771
-91.639
-95.715
-98.537
-99.736
-98.966
-96.28
-92.413
-88.103
-84.035
-81.122
-80.11
-81.638
-86.567
-93.95
-100.486
-103.456
-100.034
-89.553
-75.733
-59.609
-39.257
-10.186
38.262
113.782
217.115
344.572
482.755
614.864
727.645
808.247
850.125
852.423
813.317
734.541
619.215
469.111
292.787
102.294
-89.335
-263.192
-406.002
-511.993
-577.443
-608.501
-610.898
-585.23
-538.089
-474.621
-403.902
-343.443
-301.101
-279.363
-274.237
-269.463
-256.621
-232.845
-198.385
-164.481
-137.258
-118.179
-109.021
-104.786
-102.054
-100.577
-98.669
-96.62
-95.149
-93.631
-91.988
-90.369
-88.732
-87.364
-86.805
-87.537
-89.713
-93.255
-97.951
-103.37
-109.098
-114.794
-120.011
-124.305
-127.453
-129.36
-130.02
-129.55
-128.054
-125.612
-122.379
-118.526
-114.196
-109.549
-104.716
-99.813
-94.999
-90.409
-86.135
-82.254
-78.799
-75.775
-73.193
-71.04
-69.279
-67.876
-66.785
-65.963
-65.376
-64.98
-64.721
-64.544
-64.385
-64.191
-63.927
-63.563
-63.078
-62.458
-61.691
-60.773
-59.711
-58.506
-57.158
-55.664
-54.017
-52.214
-50.259
-48.153
-45.899
-43.499
-40.955
-38.27
-35.445
-32.485
-29.39
-26.163
-22.804
-19.317
-15.708
-11.985
-8.155
-4.227
-0.211
3.882
8.042
12.257
16.516
20.808
25.123
29.449
33.775
38.089
42.381
46.638
50.849
55.004
59.091
63.099
67.018
70.836
74.544
78.132
81.589
84.906
88.073
91.082
93.923
96.588
99.069
101.357
103.446
105.328
106.996
108.444
109.666
110.658
111.414
111.931
112.206
112.236
112.019
111.555
110.842
109.882
108.676
107.225
105.534
103.605
101.443
99.054
96.445
93.622
90.594
87.37
83.96
80.374
76.624
72.722
68.681
64.514
60.236
55.86
51.403
46.88
42.306
37.699
33.074
28.447
23.835
19.254
14.719
10.245
5.847
1.538
-2.667
-6.757
-10.719
-14.542
-18.216
-21.732
-25.08
-28.254
-31.248
-34.054
-36.67
-39.091
-41.315
-43.341
-45.168
-46.797
-48.228
-49.465
-50.51
-51.369
-52.045
-52.546
-52.877
-53.048
-53.065
-52.938
-52.675
-52.287
-51.783
-51.174
-50.468
-49.677
-48.811
-47.879
-46.892
-45.859
-44.79
-43.695
-42.581
-41.458
-40.334
-39.216
-38.111
-37.025
-35.965
-34.936
-33.943
-32.99
-32.083
-31.223
-30.416
-29.662
-28.963
-28.322
-27.738
-27.213
-26.745
-26.335
-25.98
-25.68
-25.432
-25.236
-25.087
-24.984
-24.923
-24.902
-24.917
-24.966
-25.044
-25.148
-25.276
-25.424
-25.59
-25.772
-25.967
-26.175
-26.394
-26.622
-26.86
-27.106
-27.36
-27.62
-27.887
-28.16
-28.44
-28.725
-29.016
-29.313
-29.618
-29.93
-30.251
-30.582
-30.924
-31.277
-31.643
-32.025
-32.422
-32.837
-33.272
-33.728
-34.206
-34.708
-35.234
-35.785
-36.361
-36.959
-37.577
-38.212
-38.859
-39.513
-40.169
-40.821
-41.465
-42.095
-42.706
-43.294
-43.855
-44.385
-44.88
-45.334
-45.739
-46.088
-46.372
-46.583
-46.711
-46.746
-46.678
-46.497
-46.2
-45.78
-45.23
-44.542
-43.699
-42.693
-41.524
-40.191
-38.702
-37.064
-35.287
-33.395
-31.422
-29.402
-27.368
-25.339
-23.316
-21.304
-19.312
-17.349
-15.43
-13.551
-11.688
-9.829
-7.965
-6.084
-4.174
-2.196
-0.079
2.229
4.768
7.544
10.527
13.687
16.995
20.402
23.851
27.252
30.486
33.463
36.119
38.384
40.193
41.44
41.982
41.714
40.563
38.488
35.497
31.608
26.848
21.298
15.071
8.311
1.194
-6.142
-13.599
-21.063
-28.419
-35.524
-42.205
-48.33
-53.806
-58.55
-62.52
-65.709
-68.139
-69.911
-71.16
-72.021
-72.651
-73.193
-73.776
-74.545
-75.64
-77.167
-79.256
-82.06
-85.667
-90.089
-95.18
-100.582
-105.872
-110.644
-114.433
-116.692
-116.971
-115.021
-111.05
-105.767
-99.929
-94.319
-89.783
-87.122
-87.206
-89.92
-93.27
-94.779
-91.902
-83.441
-71.457
-57.195
-38.962
-12.907
29.336
95.907
187.806
301.968
429.79
556.438
671.536
766.007
829.577
858.838
848.131
790.987
688.564
541.474
357.007
152.285
-54.611
-241.556
-390.237
-493.701
-552.957
-576.733
-574.84
-553.038
-514.329
-461.922
-402.663
-345.199
-296.978
-260.087
-230.356
-203.44
-177.312
-153.36
-136.128
-127.795
-127.406
-132.694
-139.842
-146.062
-150.098
-150.862
-148.221
-142.712
-134.905
-125.574
-115.675
-106.035
-97.502
-91.002
-86.935
-85.209
-85.543
-87.441
-90.399
-94.005
-97.768
-101.145
-103.784
-105.509
-106.267
-106.128
-105.152
-103.364
-100.829
-97.645
-93.914
-89.739
-85.206
-80.396
-75.402
-70.339
-65.335
-60.504
-55.938
-51.702
-47.834
-44.353
-41.272
-38.589
-36.289
-34.35
-32.735
-31.407
-30.335
-29.48
-28.801
-28.252
-27.773
-27.318
-26.852
-26.345
-25.778
-25.135
-24.4
-23.564
-22.626
-21.581
-20.428
-19.16
-17.77
-16.25
-14.599
-12.814
-10.895
-8.843
-6.654
-4.326
-1.859
0.751
3.501
6.395
9.433
12.615
15.938
19.398
22.989
26.703
30.535
34.477
38.519
42.652
46.868
51.157
55.512
59.922
64.379
68.873
73.394
77.933
82.479
87.023
91.554
96.062
100.537
104.969
109.347
113.659
117.896
122.046
126.097
130.038
133.859
137.547
141.092
144.484
147.711
150.764
153.633
156.308
158.781
161.044
163.087
164.905
166.489
167.832
168.93
169.777
170.367
170.698
170.765
170.566
170.1
169.366
168.363
167.093
165.558
163.761
161.706
159.398
156.844
154.052
151.031
147.79
144.341
140.695
136.865
132.865
128.71
124.413
119.991
115.46
110.835
106.135
101.374
96.57
91.741
86.901
82.068
77.258
72.486
67.767
63.116
58.546
54.071
49.704
45.456
41.34
37.365
33.541
29.877
26.379
23.054
19.908
16.943
14.164
11.571
9.165
6.946
4.912
3.061
1.388
-0.111
-1.44
-2.608
-3.62
-4.484
-5.208
-5.801
-6.272
-6.628
-6.881
-7.037
-7.106
-7.098
-7.02
-6.881
-6.691
-6.457
-6.187
-5.889
-5.571
-5.239
-4.901
-4.561
-4.227
-3.903
-3.594
-3.305
-3.04
-2.801
-2.591
-2.412
-2.267
-2.155
-2.078
-2.035
-2.025
-2.047
-2.1
-2.182
-2.29
-2.424
-2.58
-2.756
-2.951
-3.162
-3.387
-3.626
-3.875
-4.135
-4.403
-4.681
-4.967
-5.263
-5.568
-5.882
-6.207
-6.542
-6.889
-7.247
-7.618
-8.003
-8.402
-8.817
-9.248
-9.699
-10.17
-10.664
-11.183
-11.729
-12.307
-12.918
-13.565
-14.252
-14.981
-15.757
-16.583
-17.46
-18.39
-19.373
-20.412
-21.504
-22.649
-23.843
-25.08
-26.357
-27.669
-29.013
-30.383
-31.773
-33.178
-34.591
-36.009
-37.43
-38.85
-40.265
-41.669
-43.054
-44.413
-45.737
-47.02
-48.246
-49.404
-50.477
-51.454
-52.327
-53.084
-53.715
-54.208
-54.538
-54.694
-54.664
-54.434
-54.021
-53.448
-52.731
-51.901
-50.987
-49.993
-48.983
-48.013
-47.024
-45.977
-44.823
-43.487
-42.066
-40.68
-39.257
-37.738
-36.244
-34.818
-33.606
-32.793
-32.067
-31.091
-29.834
-28.219
-26.076
-23.37
-19.823
-15.113
-9.632
-3.817
2.146
7.956
13.39
18.341
22.396
25.094
26.522
26.789
25.894
23.939
20.877
16.642
11.392
5.335
-1.483
-9.004
-17.144
-25.699
-34.338
-42.937
-51.358
-59.412
-67.177
-73.808
-78.495
-82.081
-84.792
-88.322
-94.755
-101.828
-108.092
-111.412
-108.801
-103.206
-97.173
-92.477
-91.963
-93.91
-96.508
-99.48
-101.846
-104.394
-108.019
-112.405
-117.266
-122.113
-126.404
-129.781
-131.784
-131.928
-129.99
-126.372
-121.987
-117.775
-114.631
-113.318
-114.586
-119.295
-127.063
-135.395
-141.279
-141.319
-133.837
-121.288
-105.176
-84.945
-57.926
-14.982
52.616
147.993
270.428
408.803
545.137
663.417
747.805
789.216
787.582
744.109
663.1
549.588
405.075
234.027
44.906
-150.111
-332.153
-483.014
-591.144
-653.369
-676.208
-669.719
-642.433
-599.679
-545.479
-485.926
-427.793
-377.331
-336.625
-302.156
-270.492
-240.061
-211.984
-190.481
-177.624
-172.553
-173.298
-176.278
-178.751
-179.456
-177.343
-172.239
-164.634
-155.054
-144.182
-132.945
-122.195
-112.796
-105.698
-101.285
-99.418
-99.774
-101.855
-105.143
-109.226
-113.577
-117.55
-120.745
-122.976
-124.175
-124.438
-123.823
-122.329
-120.024
-117.023
-113.437
-109.4
-105.015
-100.349
-95.491
-90.55
-85.654
-80.967
-76.606
-72.639
-69.112
-66.036
-63.425
-61.292
-59.626
-58.385
-57.523
-56.991
-56.749
-56.769
-57.011
-57.426
-57.959
-58.545
-59.135
-59.697
-60.206
-60.642
-60.985
-61.216
-61.328
-61.323
-61.198
-60.95
-60.569
-60.042
-59.363
-58.528
-57.533
-56.377
-55.055
-53.562
-51.895
-50.053
-48.032
-45.831
-43.447
-40.877
-38.12
-35.177
-32.052
-28.747
-25.268
-21.621
-17.81
-13.844
-9.73
-5.476
-1.09
3.421
8.047
12.78
17.609
22.525
27.517
32.573
37.682
42.831
48.007
53.199
58.393
63.576
68.733
73.852
78.917
83.917
88.836
93.662
98.381
102.979
107.443
111.762
115.922
119.911
123.717
127.329
130.737
133.93
136.9
139.637
142.133
144.38
146.373
148.105
149.573
150.772
151.699
152.354
152.737
152.848
152.69
152.266
151.581
150.641
149.453
148.024
146.365
144.485
142.395
140.108
137.636
134.994
132.195
129.255
126.189
123.014
119.744
116.399
112.993
109.544
106.068
102.583
99.104
95.648
92.231
88.867
85.572
82.359
79.241
76.232
73.344
70.586
67.97
65.503
63.195
61.052
59.079
57.283
55.665
54.229
52.977
51.908
51.021
50.316
49.789
49.435
49.251
49.231
49.367
49.652
50.079
50.638
51.32
52.116
53.014
54.006
55.079
56.223
57.427
58.679
59.967
61.282
62.61
63.943
65.268
66.575
67.854
69.096
70.291
71.43
72.505
73.508
74.432
75.27
76.017
76.667
77.216
77.661
78
78.23
78.35
78.361
78.261
78.053
77.738
77.317
76.795
76.173
75.456
74.649
73.757
72.784
71.735
70.616
69.432
68.188
66.891
65.544
64.154
62.725
61.263
59.774
58.263
56.735
55.196
53.649
52.101
50.554
49.011
47.477
45.952
44.439
42.941
41.457
39.99
38.539
37.105
35.687
34.286
32.899
31.526
30.165
28.813
27.47
26.136
24.808
23.488
22.175
20.873
19.583
18.31
17.054
15.819
14.607
13.421
12.264
11.137
10.041
8.978
7.954
6.973
6.043
5.173
4.371
3.646
3.009
2.472
2.044
1.733
1.543
1.48
1.555
1.778
2.168
2.733
3.477
4.402
5.51
6.793
8.242
9.831
11.522
13.287
15.113
16.989
18.922
20.911
22.953
25.047
27.194
29.397
31.664
33.992
36.371
38.807
41.321
43.953
46.773
49.818
53.088
56.572
60.232
64.02
67.886
71.752
75.518
79.099
82.418
85.418
88.064
90.295
92.027
93.162
93.578
93.191
91.963
89.876
86.937
83.189
78.706
73.599
68.026
62.112
55.956
49.647
43.245
36.838
30.538
24.455
18.7
13.373
8.535
4.237
0.513
-2.666
-5.389
-7.774
-9.979
-12.129
-14.291
-16.55
-18.983
-21.673
-24.738
-28.256
-32.256
-36.802
-41.976
-47.803
-54.241
-61.032
-67.661
-73.619
-78.445
-81.673
-82.862
-81.624
-77.75
-71.579
-64.003
-56.021
-48.505
-42.275
-38.101
-36.643
-38.351
-41.798
-43.785
-41.467
-31.92
-15.058
6.197
32.242
64.538
107.024
167.894
248.595
346.649
456.908
566.945
667.554
748.947
799.246
811.237
776.671
694.106
569.583
409.922
229.172
41.266
-140.634
-298.036
-418.421
-496.641
-533.466
-540.476
-530.632
-510.425
-482.91
-446.927
-399.864
-344.326
-285.422
-228.25
-178.31
-138.491
-109.246
-90.076
-79.421
-75.212
-75.458
-78.24
-81.446
-83.151
-81.953
-77.256
-69.298
-58.822
-46.758
-34.029
-21.648
-10.683
-2.1
3.614
6.521
6.964
5.452
2.502
-1.418
-5.759
-9.897
-13.387
-16.001
-17.642
-18.347
-18.166
-17.099
-15.191
-12.539
-9.234
-5.385
-1.097
3.557
8.487
13.578
18.718
23.762
28.563
33.027
37.084
40.694
43.841
46.51
48.692
50.409
51.701
52.608
53.176
53.44
53.429
53.188
52.764
52.213
51.594
50.949
50.308
49.696
49.131
48.631
48.211
47.876
47.622
47.452
47.37
47.384
47.502
47.731
48.073
48.528
49.099
49.786
50.592
51.517
52.562
53.727
55.011
56.415
57.939
59.582
61.339
63.206
65.175
67.239
69.391
71.621
73.919
76.276
78.682
81.128
83.604
86.099
88.604
91.107
93.598
96.066
98.501
100.89
103.223
105.489
107.677
109.776
111.776
113.667
115.439
117.083
118.589
119.948
121.154
122.197
123.07
123.767
124.281
124.607
124.74
124.675
124.409
123.939
123.261
122.375
121.279
119.972
118.455
116.727
114.791
112.649
110.303
107.758
105.019
102.09
98.979
95.692
92.237
88.623
84.859
80.954
76.919
72.765
68.504
64.147
59.707
55.196
50.628
46.016
41.373
36.714
32.051
27.399
22.771
18.18
13.64
9.164
4.764
0.453
-3.757
-7.856
-11.831
-15.674
-19.375
-22.925
-26.316
-29.542
-32.597
-35.474
-38.171
-40.683
-43.008
-45.144
-47.09
-48.847
-50.415
-51.797
-52.994
-54.012
-54.854
-55.525
-56.032
-56.382
-56.581
-56.639
-56.563
-56.364
-56.05
-55.632
-55.12
-54.525
-53.858
-53.131
-52.354
-51.54
-50.698
-49.841
-48.978
-48.122
-47.281
-46.466
-45.687
-44.952
-44.271
-43.651
-43.1
-42.625
-42.234
-41.931
-41.721
-41.61
-41.6
-41.695
-41.897
-42.206
-42.624
-43.151
-43.785
-44.526
-45.37
-46.316
-47.359
-48.495
-49.719
-51.026
-52.409
-53.863
-55.381
-56.955
-58.58
-60.246
-61.948
-63.678
-65.427
-67.189
-68.957
-70.722
-72.477
-74.215
-75.93
-77.615
-79.263
-80.87
-82.429
-83.936
-85.386
-86.776
-88.102
-89.36
-90.547
-91.663
-92.704
-93.67
-94.56
-95.373
-96.111
-96.773
-97.36
-97.874
-98.315
-98.686
-98.988
-99.221
-99.388
-99.489
-99.527
-99.503
-99.417
-99.27
-99.065
-98.8
-98.478
-98.096
-97.655
-97.155
-96.593
-95.969
-95.28
-94.524
-93.699
-92.802
-91.83
-90.78
-89.651
-88.437
-87.136
-85.744
-84.258
-82.676
-80.994
-79.21
-77.321
-75.327
-73.225
-71.017
-68.703
-66.283
-63.76
-61.137
-58.417
-55.605
-52.708
-49.73
-46.682
-43.571
-40.408
-37.203
-33.971
-30.725
-27.482
-24.26
-21.076
-17.95
-14.901
-11.951
-9.118
-6.422
-3.88
-1.509
0.675
2.653
4.409
5.925
7.188
8.183
8.9
9.329
9.461
9.293
8.825
8.062
7.004
5.65
3.99
2.018
-0.264
-2.849
-5.726
-8.875
-12.28
-15.907
-19.71
-23.638
-27.64
-31.67
-35.696
-39.677
-43.563
-47.297
-50.805
-54.018
-56.892
-59.391
-61.491
-63.19
-64.499
-65.456
-66.14
-66.647
-67.081
-67.556
-68.176
-69.054
-70.308
-72.088
-74.596
-77.951
-82.156
-87.094
-92.48
-97.991
-103.333
-108.082
-111.695
-113.819
-114.314
-113.363
-111.624
-109.764
-108.353
-108.104
-109.599
-112.962
-118.059
-124.227
-130.005
-133.807
-133.036
-124.078
-104.293
-72.289
-29.529
20.251
75.488
136.94
207.745
291.58
386.749
487.633
587.096
677.108
751.791
804.477
825.807
805.633
735.864
615.21
449.344
251.792
40.875
-164.325
-343.922
-483.735
-576.857
-624.125
-633.426
-612.604
-569.348
-509.428
-438.517
-367.043
-304.536
-257.299
-227.212
-208.411
-193.53
-179.21
-164.815
-153.223
-148.231
-149.761
-155.472
-162.258
-166.575
-166.688
-162.681
-155.143
-145.048
-133.471
-121.332
-109.551
-99.138
-90.971
-85.399
-82.374
-81.628
-82.679
-85.042
-88.323
-92.065
-95.78
-99.152
-101.969
-104.089
-105.504
-106.224
-106.233
-105.572
-104.3
-102.464
-100.135
-97.391
-94.293
-90.915
-87.326
-83.575
-79.741
-75.91
-72.173
-68.633
-65.356
-62.377
-59.724
-57.408
-55.43
-53.781
-52.429
-51.329
-50.442
-49.737
-49.187
-48.772
-48.463
-48.224
-48.017
-47.797
-47.533
-47.202
-46.782
-46.255
-45.61
-44.838
-43.937
-42.916
-41.775
-40.514
-39.131
-37.621
-35.982
-34.216
-32.324
-30.309
-28.173
-25.92
-23.552
-21.075
-18.492
-15.806
-13.021
-10.138
-7.161
-4.093
-0.94
2.292
5.597
8.967
12.398
15.88
19.408
22.973
26.571
30.193
33.834
37.487
41.145
44.802
48.45
52.083
55.692
59.27
62.811
66.306
69.747
73.126
76.435
79.667
82.812
85.865
88.815
91.656
94.38
96.978
99.442
101.765
103.94
105.957
107.812
109.496
111.003
112.327
113.462
114.405
115.149
115.691
116.029
116.159
116.08
115.791
115.292
114.586
113.673
112.557
111.242
109.735
108.04
106.166
104.12
101.912
99.55
97.046
94.411
91.657
88.796
85.841
82.807
79.706
76.554
73.365
70.154
66.936
63.724
60.534
57.38
54.276
51.235
48.269
45.392
42.614
39.946
37.399
34.981
32.7
30.563
28.576
26.744
25.071
23.559
22.211
21.026
20.004
19.145
18.446
17.904
17.515
17.273
17.173
17.208
17.371
17.653
18.047
18.542
19.13
19.8
20.543
21.348
22.205
23.104
24.034
24.987
25.952
26.919
27.881
28.828
29.753
30.649
31.509
32.327
33.097
33.814
34.475
35.076
35.614
36.086
36.492
36.831
37.102
37.305
37.442
37.515
37.525
37.475
37.368
37.207
36.997
36.742
36.445
36.113
35.749
35.357
34.944
34.513
34.068
33.615
33.156
32.695
32.235
31.778
31.328
30.887
30.456
30.038
29.633
29.241
28.862
28.496
28.141
27.793
27.451
27.11
26.769
26.427
26.08
25.728
25.365
24.985
24.585
24.158
23.7
23.206
22.672
22.09
21.462
20.784
20.059
19.287
18.467
17.596
16.67
15.684
14.647
13.567
12.457
11.334
10.192
9.026
7.848
6.665
5.49
4.351
3.221
2.062
0.954
-0.048
-0.881
-1.45
-1.847
-2.197
-2.445
-2.552
-2.663
-2.843
-3.277
-4.203
-5.362
-6.461
-7.493
-8.378
-8.939
-9.107
-8.568
-6.953
-4.562
-1.712
1.531
4.995
8.576
12.26
15.743
18.692
21.287
23.703
25.993
28.306
30.636
32.924
35.306
37.91
40.639
43.418
46.201
48.893
51.514
54.118
56.696
59.275
61.941
64.737
67.687
70.808
74.056
77.372
80.708
83.98
87.099
90.001
92.624
94.922
96.868
98.398
99.431
99.877
99.614
98.562
96.688
93.967
90.418
86.108
81.122
75.593
69.698
63.554
57.259
50.905
44.552
38.321
32.37
26.825
21.819
17.451
13.749
10.763
8.569
7.07
6.047
5.247
4.326
3.122
1.707
0.017
-2.183
-4.991
-8.317
-11.91
-15.227
-17.988
-20.394
-22.443
-23.825
-24.282
-23.751
-22.517
-21.472
-21.396
-22.411
-24.788
-28.947
-35.053
-43.16
-52.811
-62.59
-70.978
-75.946
-74.211
-63.126
-40.687
-7.454
32.573
77.36
127.281
186.293
261.218
353.056
456.76
563.49
662.281
746.793
813.935
858.555
873.546
848.502
773.586
646.88
473.458
266.428
45.049
-170.403
-359.462
-506.504
-602.543
-647.482
-647.975
-611.969
-551.685
-477.174
-398.644
-329.889
-276.166
-238.576
-213.459
-190.064
-164.321
-137.161
-111.838
-95.072
-88.738
-90.51
-97.438
-105.437
-112.124
-116.83
-118.839
-118.117
-115.098
-110.208
-104.18
-97.849
-91.852
-86.874
-83.634
-82.351
-82.847
-84.774
-87.6
-90.874
-94.268
-97.368
-99.736
-101.136
-101.484
-100.813
-99.265
-96.936
-93.895
-90.254
-86.145
-81.706
-77.081
-72.394
-67.75
-63.239
-58.942
-54.938
-51.288
-48.03
-45.184
-42.741
-40.683
-38.997
-37.664
-36.654
-35.937
-35.468
-35.196
-35.07
-35.033
-35.039
-35.052
-35.04
-34.976
-34.84
-34.617
-34.298
-33.882
-33.363
-32.735
-31.991
-31.122
-30.123
-28.993
-27.737
-26.358
-24.861
-23.245
-21.505
-19.643
-17.66
-15.563
-13.36
-11.051
-8.638
-6.124
-3.52
-0.837
1.914
4.732
7.624
10.594
13.648
16.781
19.975
23.23
26.55
29.949
33.476
37.148
40.955
44.888
48.909
52.997
57.201
61.515
65.826
70.081
74.241
78.4
82.862
87.785
93.063
98.513
104.013
109.472
114.69
119.199
122.185
122.829
121.635
119.57
116.403
112.551
106.63
97.286
88.299
82.405
82.997
93.445
109.532
127.508
144.508
156.375
164.039
168.409
168.674
165.871
160.059
151.298
141.006
130.087
119.252
109.516
101.722
96.126
92.537
90.428
88.919
87.459
85.889
83.949
81.351
77.962
73.733
68.824
63.618
58.323
52.968
47.576
42.13
36.642
31.18
25.749
20.305
14.835
9.349
3.881
-1.505
-6.765
-11.884
-16.848
-21.65
-26.278
-30.714
-34.941
-38.95
-42.735
-46.296
-49.634
-52.746
-55.633
-58.296
-60.739
-62.973
-65.004
-66.835
-68.47
-69.91
-71.16
-72.227
-73.119
-73.845
-74.414
-74.836
-75.12
-75.279
-75.324
-75.267
-75.118
-74.89
-74.593
-74.239
-73.84
-73.407
-72.952
-72.486
-72.018
-71.558
-71.115
-70.698
-70.314
-69.971
-69.675
-69.432
-69.245
-69.121
-69.062
-69.073
-69.154
-69.308
-69.537
-69.841
-70.22
-70.673
-71.198
-71.793
-72.455
-73.179
-73.962
-74.798
-75.682
-76.608
-77.57
-78.562
-79.577
-80.609
-81.65
-82.694
-83.735
-84.766
-85.78
-86.772
-87.735
-88.667
-89.563
-90.419
-91.233
-92.003
-92.725
-93.398
-94.021
-94.594
-95.116
-95.588
-96.009
-96.382
-96.709
-96.994
-97.241
-97.453
-97.632
-97.783
-97.907
-98.012
-98.105
-98.191
-98.278
-98.369
-98.472
-98.593
-98.738
-98.91
-99.111
-99.341
-99.598
-99.885
-100.203
-100.556
-100.948
-101.366
-101.802
-102.24
-102.663
-103.074
-103.478
-103.861
-104.219
-104.54
-104.796
-105.016
-105.237
-105.379
-105.39
-105.205
-104.728
-104.047
-103.288
-102.396
-101.335
-100.255
-99.225
-98.435
-98.129
-98.058
-97.937
-97.766
-97.471
-96.878
-95.926
-94.309
-91.672
-88.335
-84.629
-80.627
-76.511
-72.394
-68.29
-64.5
-61.34
-58.603
-56.093
-53.752
-51.432
-49.153
-46.987
-44.808
-42.503
-40.182
-37.934
-35.824
-33.954
-32.304
-30.841
-29.603
-28.611
-27.858
-27.351
-27.089
-27.064
-27.294
-27.795
-28.567
-29.608
-30.902
-32.421
-34.128
-35.982
-37.947
-39.985
-42.072
-44.181
-46.272
-48.305
-50.226
-51.978
-53.533
-54.859
-55.93
-56.75
-57.337
-57.734
-58.03
-58.306
-58.639
-59.126
-59.845
-60.885
-62.36
-64.352
-66.977
-70.39
-74.631
-79.675
-85.401
-91.468
-97.516
-103.204
-108.04
-111.51
-113.305
-113.196
-111.344
-108.472
-105.242
-102.363
-100.617
-100.447
-102.221
-106.292
-112.19
-118.463
-122.764
-121.569
-111.544
-91.01
-61.018
-24.08
17.572
63.894
120.647
193.516
285.004
393.567
506.663
609.889
690.606
736.402
744.822
714.63
643.478
533.826
383.894
198.504
-5.379
-208.118
-381.891
-505.191
-575.733
-600.285
-596.089
-579.645
-553.482
-516.815
-468.509
-410.288
-351.987
-301.86
-261.913
-229.654
-199.834
-169.635
-140.604
-116.487
-99.563
-89.62
-84.901
-82.442
-80.294
-77.665
-73.736
-68.399
-62.001
-54.77
-47.129
-39.74
-33.097
-27.806
-24.659
-23.907
-25.389
-28.844
-33.825
-39.884
-46.65
-53.579
-60.019
-65.577
-70.052
-73.373
-75.615
-76.809
-76.952
-76.131
-74.483
-72.145
-69.259
-65.928
-62.211
-58.199
-54.012
-49.796
-45.712
-41.864
-38.311
-35.086
-32.206
-29.686
-27.531
-25.713
-24.183
-22.891
-21.793
-20.851
-20.04
-19.322
-18.649
-17.97
-17.229
-16.39
-15.431
-14.337
-13.096
-11.7
-10.144
-8.434
-6.584
-4.604
-2.497
-0.266
2.091
4.569
7.163
9.867
12.676
15.585
18.593
21.694
24.886
28.164
31.526
34.971
38.497
42.102
45.781
49.529
53.34
57.207
61.126
65.089
69.089
73.12
77.175
81.248
85.334
89.424
93.514
97.596
101.662
105.707
109.722
113.7
117.632
121.511
125.329
129.076
132.744
136.324
139.807
143.185
146.448
149.589
152.597
155.465
158.184
160.745
163.142
165.365
167.408
169.262
170.922
172.381
173.633
174.673
175.497
176.1
176.48
176.634
176.561
176.26
175.733
174.98
174.005
172.811
171.403
169.788
167.971
165.962
163.768
161.4
158.868
156.184
153.359
150.407
147.34
144.173
140.92
137.597
134.217
130.797
127.353
123.9
120.454
117.032
113.647
110.314
107.05
103.866
100.776
97.792
94.927
92.188
89.588
87.132
84.829
82.684
80.702
78.886
77.24
75.765
74.461
73.329
72.365
71.569
70.937
70.465
70.148
69.98
69.955
70.065
70.302
70.658
71.123
71.688
72.343
73.076
73.878
74.737
75.643
76.585
77.551
78.532
79.518
80.499
81.466
82.411
83.325
84.202
85.035
85.817
86.544
87.21
87.811
88.343
88.802
89.185
89.49
89.715
89.858
89.917
89.892
89.783
89.589
89.311
88.951
88.509
87.987
87.389
86.715
85.97
85.156
84.276
83.336
82.337
81.284
80.181
79.03
77.836
76.601
75.328
74.021
72.682
71.313
69.918
68.498
67.056
65.595
64.116
62.623
61.117
59.6
58.076
56.547
55.014
53.481
51.95
50.422
48.901
47.388
45.886
44.396
42.92
41.459
40.016
38.591
37.186
35.802
34.441
33.104
31.792
30.508
29.253
28.03
26.841
25.69
24.577
23.508
22.485
21.511
20.589
19.725
18.92
18.178
17.505
16.903
16.376
15.929
15.565
15.288
15.104
15.014
15.024
15.136
15.354
15.683
16.125
16.683
17.362
18.162
19.088
20.142
21.325
22.637
24.08
25.651
27.35
29.175
31.122
33.186
35.362
37.644
40.023
42.492
45.041
47.658
50.33
53.046
55.791
58.548
61.3
64.027
66.711
69.331
71.868
74.299
76.605
78.765
80.76
82.572
84.184
85.576
86.729
87.623
88.243
88.573
88.599
88.31
87.696
86.75
85.473
83.867
81.936
79.677
77.085
74.156
70.894
67.31
63.415
59.232
54.784
50.105
45.248
40.262
35.195
30.094
24.988
19.915
14.921
10.056
5.384
0.97
-3.145
-6.922
-10.324
-13.354
-16.022
-18.37
-20.488
-22.451
-24.332
-26.226
-28.206
-30.365
-32.823
-35.654
-38.969
-42.925
-47.56
-52.861
-58.722
-64.782
-70.638
-75.951
-80.243
-83.02
-84.029
-83.08
-80.311
-76.498
-72.48
-68.953
-66.62
-66.033
-67.427
-70.96
-76.4
-81.522
-82.797
-77.256
-61.869
-36.945
-6.749
27.489
65.788
111.6
174.635
258.259
360.966
477.393
592.655
695.369
776.113
823.712
834.136
801.549
721.32
596.967
431.01
233.791
23.993
-180.407
-355.724
-484.024
-562.272
-594.722
-596.129
-583.457
-563.441
-538.03
-505.267
-461.208
-408.227
-351.771
-296.821
-248.847
-210.522
-181.984
-162.981
-152.262
-147.864
-148.055
-151.358
-156.011
-160.53
-163.777
-164.612
-162.731
-158.64
-152.93
-146.258
-139.447
-133.134
-127.978
-124.775
-123.75
-124.682
-127.237
-130.871
-135.056
-139.41
-143.458
-146.692
-148.852
-149.82
-149.584
-148.272
-145.97
-142.741
-138.714
-134.025
-128.802
-123.19
-117.315
-111.298
-105.284
-99.396
-93.74
-88.408
-83.452
-78.904
-74.788
-71.096
-67.813
-64.92
-62.385
-60.176
-58.262
-56.599
-55.138
-53.827
-52.605
-51.423
-50.245
-49.035
-47.77
-46.433
-45.01
-43.495
-41.888
-40.185
-38.382
-36.473
-34.449
-32.305
-30.036
-27.64
-25.115
-22.46
-19.671
-16.746
-13.681
-10.475
-7.124
-3.627
0.02
3.819
7.767
11.861
16.096
20.466
24.964
29.583
34.313
39.144
44.068
49.073
54.151
59.29
64.479
69.707
74.961
80.229
85.499
90.756
95.987
101.179
106.316
111.384
116.369
121.256
126.029
130.674
135.176
139.519
143.689
147.671
151.451
155.014
158.349
161.44
164.277
166.848
169.142
171.15
172.862
174.271
175.368
176.148
176.606
176.735
176.533
175.998
175.128
173.924
172.386
170.518
168.325
165.81
162.983
159.85
156.423
152.711
148.728
144.488
140.006
135.298
130.382
125.276
120.001
114.575
109.021
103.358
97.609
91.795
85.938
80.06
74.183
68.328
62.517
56.769
51.105
45.545
40.106
34.808
29.665
24.695
19.912
15.328
10.956
6.806
2.888
-0.79
-4.223
-7.406
-10.335
-13.01
-15.43
-17.596
-19.512
-21.181
-22.61
-23.804
-24.772
-25.522
-26.064
-26.408
-26.566
-26.549
-26.369
-26.04
-25.574
-24.985
-24.286
-23.49
-22.611
-21.662
-20.655
-19.605
-18.524
-17.422
-16.313
-15.207
-14.114
-13.045
-12.008
-11.011
-10.062
-9.167
-8.332
-7.561
-6.859
-6.23
-5.675
-5.198
-4.799
-4.479
-4.239
-4.079
-3.997
-3.992
-4.064
-4.21
-4.428
-4.715
-5.07
-5.488
-5.969
-6.507
-7.101
-7.746
-8.44
-9.179
-9.96
-10.779
-11.634
-12.521
-13.437
-14.381
-15.35
-16.343
-17.358
-18.392
-19.446
-20.519
-21.608
-22.714
-23.835
-24.973
-26.125
-27.292
-28.473
-29.67
-30.88
-32.104
-33.342
-34.593
-35.855
-37.129
-38.414
-39.708
-41.011
-42.322
-43.64
-44.964
-46.293
-47.626
-48.961
-50.296
-51.63
-52.958
-54.28
-55.591
-56.888
-58.168
-59.427
-60.659
-61.862
-63.028
-64.154
-65.234
-66.261
-67.229
-68.131
-68.961
-69.713
-70.38
-70.957
-71.437
-71.815
-72.085
-72.242
-72.28
-72.196
-71.983
-71.638
-71.155
-70.531
-69.762
-68.845
-67.78
-66.563
-65.195
-63.675
-62.004
-60.185
-58.219
-56.111
-53.864
-51.485
-48.982
-46.363
-43.639
-40.821
-37.923
-34.963
-31.955
-28.917
-25.867
-22.825
-19.809
-16.839
-13.932
-11.107
-8.384
-5.786
-3.337
-1.06
1.023
2.89
4.519
5.889
6.979
7.773
8.263
8.441
8.298
7.824
7.003
5.825
4.284
2.392
0.16
-2.401
-5.273
-8.432
-11.845
-15.461
-19.237
-23.143
-27.155
-31.256
-35.422
-39.611
-43.77
-47.854
-51.828
-55.686
-59.435
-63.056
-66.533
-69.852
-73.007
-76.055
-79.074
-82.087
-85.068
-88.025
-91.001
-94.18
-97.889
-102.287
-107.359
-113.013
-119.123
-125.587
-132.258
-138.636
-143.786
-146.929
-147.655
-145.883
-141.843
-135.668
-127.443
-117.715
-107.743
-98.889
-92.16
-88.167
-86.856
-88.019
-91.782
-97.864
-104.842
-110.801
-112.957
-107.537
-92.925
-68.676
-34.833
6.299
55.681
117.046
192.199
282.044
381.61
479.963
569.065
645.29
708.094
758.969
793.493
797.551
756.963
663.147
516.314
332.875
135.21
-56.95
-224.582
-359.388
-459.047
-520.902
-547.594
-540.008
-501.68
-442.857
-374.978
-312.854
-266.059
-235.387
-216.414
-199.507
-179.258
-156.317
-134.172
-118.86
-112.586
-113.814
-120.275
-128.561
-136.877
-144.551
-150.357
-153.679
-154.206
-151.66
-146.307
-138.411
-127.774
-114.773
-100.421
-85.677
-71.633
-59.026
-47.988
-38.821
-32.101
-27.988
-26.311
-26.666
-28.252
-30.566
-33.469
-36.681
-39.892
-42.913
-45.566
-47.877
-50.086
-52.253
-54.336
-56.318
-58.12
-59.703
-61.07
-62.15
-62.849
-63.125
-62.964
-62.397
-61.492
-60.287
-58.828
-57.174
-55.386
-53.552
-51.733
-49.955
-48.239
-46.595
-45.026
-43.546
-42.151
-40.824
-39.55
-38.313
-37.094
-35.884
-34.661
-33.394
-32.051
-30.593
-28.991
-27.23
-25.3
-23.197
-20.921
-18.472
-15.859
-13.099
-10.205
-7.184
-4.044
-0.79
2.569
6.022
9.556
13.157
16.814
20.516
24.253
28.014
31.791
35.577
39.366
43.154
46.937
50.709
54.462
58.19
61.885
65.541
69.15
72.706
76.2
79.626
82.978
86.252
89.44
92.537
95.537
98.434
101.221
103.89
106.436
108.851
111.127
113.258
115.235
117.053
118.702
120.177
121.47
122.574
123.482
124.187
124.682
124.961
125.018
124.848
124.445
123.805
122.925
121.802
120.435
118.822
116.965
114.865
112.522
109.942
107.127
104.084
100.819
97.339
93.653
89.771
85.703
81.462
77.06
72.51
67.827
63.026
58.123
53.134
48.076
42.965
37.82
32.658
27.497
22.356
17.252
12.203
7.227
2.342
-2.437
-7.093
-11.611
-15.977
-20.178
-24.201
-28.034
-31.669
-35.096
-38.308
-41.297
-44.059
-46.589
-48.885
-50.945
-52.768
-54.356
-55.709
-56.832
-57.727
-58.399
-58.855
-59.1
-59.142
-58.988
-58.649
-58.133
-57.451
-56.614
-55.633
-54.52
-53.287
-51.946
-50.509
-48.988
-47.395
-45.742
-44.04
-42.3
-40.532
-38.747
-36.955
-35.164
-33.384
-31.622
-29.886
-28.183
-26.519
-24.901
-23.333
-21.822
-20.371
-18.985
-17.669
-16.424
-15.255
-14.163
-13.152
-12.222
-11.374
-10.609
-9.928
-9.33
-8.814
-8.381
-8.03
-7.759
-7.569
-7.458
-7.426
-7.472
-7.596
-7.798
-8.077
-8.434
-8.869
-9.384
-9.978
-10.653
-11.409
-12.249
-13.173
-14.182
-15.278
-16.462
-17.734
-19.095
-20.548
-22.091
-23.727
-25.456
-27.278
-29.195
-31.207
-33.313
-35.515
-37.812
-40.204
-42.689
-45.267
-47.936
-50.694
-53.537
-56.462
-59.465
-62.541
-65.684
-68.888
-72.146
-75.449
-78.79
-82.159
-85.548
-88.945
-92.34
-95.723
-99.083
-102.407
-105.685
-108.903
-112.05
-115.114
-118.082
-120.944
-123.686
-126.299
-128.769
-131.087
-133.242
-135.224
-137.024
-138.633
-140.043
-141.248
-142.242
-143.022
-143.583
-143.925
-144.046
-143.949
-143.635
-143.11
-142.379
-141.448
-140.327
-139.027
-137.559
-135.936
-134.175
-132.291
-130.304
-128.234
-126.103
-123.932
-121.745
-119.564
-117.414
-115.318
-113.297
-111.373
-109.566
-107.897
-106.389
-105.062
-103.936
-103.031
-102.364
-101.951
-101.805
-101.937
-102.351
-103.048
-104.029
-105.297
-106.861
-108.725
-110.888
-113.346
-116.092
-119.109
-122.375
-125.854
-129.496
-133.251
-137.068
-140.902
-144.72
-148.484
-152.153
-155.684
-159.02
-162.11
-164.917
-167.407
-169.545
-171.325
-172.772
-173.94
-174.941
-175.874
-176.814
-177.845
-179.047
-180.505
-182.335
-184.63
-187.448
-190.87
-195.002
-199.888
-205.506
-211.643
-217.812
-223.486
-228.18
-231.371
-232.535
-231.313
-227.542
-221.564
-214.43
-207.256
-200.926
-196.337
-194.226
-194.977
-198.734
-203.869
-206.686
-203.68
-191.578
-170.034
-142.006
-108.682
-70
-21.337
46.007
135.936
248.179
374.019
496.505
601.29
675.394
711.485
710.394
671.215
594.387
481.788
332.26
152.848
-41.103
-231.853
-395.407
-514.944
-588.915
-622.52
-629.02
-620.236
-596.909
-558.248
-504.908
-441.394
-378.887
-326.511
-286.359
-254.791
-225.975
-196.526
-167.519
-143.203
-126.076
-115.866
-110.759
-107.284
-103.097
-97.348
-89.298
-79.026
-67.08
-53.86
-39.95
-26.183
-13.205
-1.681
7.603
14.401
18.872
21.285
22.102
21.789
20.699
19.309
18.21
17.753
18.121
19.387
21.468
24.32
27.95
32.287
37.226
42.652
48.436
54.479
60.716
67.059
73.404
79.626
85.569
91.123
96.226
100.837
104.949
108.553
111.641
114.235
116.382
118.134
119.544
120.661
121.517
122.159
122.643
123.029
123.387
123.771
124.215
124.751
125.403
126.193
127.142
128.261
129.548
131.005
132.639
134.457
136.471
138.686
141.104
143.723
146.545
149.567
152.791
156.214
159.832
163.643
167.641
171.821
176.181
180.713
185.406
190.25
195.232
200.338
205.554
210.864
216.253
221.704
227.202
232.729
238.27
243.811
249.333
254.821
260.259
265.631
270.923
276.117
281.2
286.155
290.969
295.629
300.119
304.428
308.543
312.451
316.143
319.606
322.832
325.812
328.537
330.999
333.192
335.11
336.748
338.102
339.167
339.941
340.422
340.61
340.502
340.101
339.405
338.418
337.142
335.579
333.733
331.61
329.215
326.553
323.633
320.462
317.048
313.4
309.53
305.446
301.162
296.687
292.036
287.219
282.252
277.146
271.917
266.578
261.144
255.63
250.05
244.419
238.751
233.063
227.368
221.679
216.012
210.379
204.794
199.269
193.817
188.448
183.175
178.006
172.952
168.022
163.223
158.564
154.05
149.686
145.478
141.429
137.543
133.82
130.262
126.87
123.643
120.579
117.675
114.929
112.336
109.891
107.588
105.421
103.382
101.464
99.66
97.96
96.355
94.837
93.396
92.023
90.708
89.442
88.215
87.017
85.839
84.672
83.507
82.336
81.15
79.943
78.706
77.435
76.122
74.762
73.351
71.884
70.358
68.771
67.12
65.405
63.626
61.783
59.879
57.914
55.892
53.816
51.691
49.52
47.31
45.064
42.79
40.493
38.179
35.857
33.531
31.21
28.9
26.608
24.341
22.104
19.904
17.745
15.634
13.575
11.572
9.628
7.747
5.931
4.182
2.501
0.887
-0.659
-2.139
-3.556
-4.913
-6.213
-7.46
-8.661
-9.82
-10.943
-12.037
-13.109
-14.166
-15.216
-16.267
-17.327
-18.406
-19.51
-20.648
-21.829
-23.059
-24.347
-25.697
-27.117
-28.611
-30.184
-31.84
-33.581
-35.411
-37.329
-39.336
-41.43
-43.611
-45.873
-48.213
-50.625
-53.102
-55.636
-58.218
-60.839
-63.489
-66.155
-68.828
-71.495
-74.142
-76.756
-79.324
-81.83
-84.261
-86.602
-88.838
-90.955
-92.94
-94.779
-96.462
-97.976
-99.311
-100.458
-101.408
-102.156
-102.695
-103.023
-103.136
-103.034
-102.72
-102.197
-101.47
-100.547
-99.437
-98.153
-96.71
-95.122
-93.407
-91.583
-89.668
-87.685
-85.653
-83.592
-81.523
-79.466
-77.446
-75.484
-73.608
-71.839
-70.2
-68.712
-67.397
-66.273
-65.356
-64.655
-64.178
-63.933
-63.932
-64.192
-64.727
-65.544
-66.643
-68.023
-69.674
-71.582
-73.723
-76.056
-78.539
-81.134
-83.808
-86.536
-89.296
-92.05
-94.754
-97.355
-99.798
-102.046
-104.069
-105.831
-107.328
-108.57
-109.602
-110.504
-111.352
-112.216
-113.168
-114.282
-115.638
-117.34
-119.478
-122.153
-125.51
-129.607
-134.437
-139.906
-145.706
-151.469
-156.817
-161.253
-164.277
-165.579
-164.952
-162.53
-159.012
-155.135
-151.704
-149.588
-149.276
-151.096
-155.316
-161.423
-167.915
-172.337
-171.112
-160.979
-140.243
-109.649
-71.296
-26.592
24.768
87.145
164.581
257.71
364.161
474.356
577.339
663.12
720.213
741.583
721.359
655.876
548.689
405.292
235.714
53.402
-128.852
-295.071
-431.224
-528.792
-584.96
-605.827
-601.435
-579.372
-543.852
-496.851
-439.736
-378.958
-325.613
-286.474
-265.15
-258.938
-256.652
-251.852
-241.263
-223.96
-207.129
-194.815
-187.866
-187.294
-188.843
-189.364
-188.186
-184.256
-178.824
-173.105
-167.189
-161.587
-156.558
-152.379
-149.678
-148.665
-149.163
-150.919
-153.592
-156.848
-160.384
-163.806
-166.643
-168.6
-169.572
-169.544
-168.584
-166.744
-164.048
-160.57
-156.447
-151.807
-146.764
-141.434
-135.887
-130.218
-124.555
-119.006
-113.671
-108.624
-103.893
-99.493
-95.441
-91.737
-88.369
-85.319
-82.546
-80.011
-77.686
-75.531
-73.51
-71.579
-69.683
-67.777
-65.827
-63.806
-61.697
-59.487
-57.163
-54.717
-52.149
-49.458
-46.642
-43.701
-40.625
-37.412
-34.059
-30.569
-26.943
-23.184
-19.29
-15.263
-11.102
-6.81
-2.388
2.162
6.841
11.644
16.567
21.601
26.738
31.969
37.282
42.668
48.113
53.605
59.131
64.679
70.236
75.789
81.325
86.83
92.289
97.688
103.014
108.25
113.383
118.398
123.28
128.015
132.59
136.99
141.201
145.209
149.002
152.566
155.889
158.959
161.765
164.296
166.543
168.498
170.152
171.499
172.532
173.248
173.642
173.711
173.454
172.87
171.96
170.723
169.165
167.288
165.099
162.602
159.808
156.723
153.36
149.729
145.842
141.714
137.359
132.791
128.029
123.09
117.991
112.751
107.391
101.931
96.391
90.791
85.153
79.498
73.846
68.218
62.634
57.114
51.678
46.345
41.132
36.058
31.137
26.386
21.818
17.446
13.283
9.337
5.618
2.135
-1.108
-4.104
-6.849
-9.342
-11.58
-13.563
-15.293
-16.772
-18.005
-18.994
-19.748
-20.271
-20.573
-20.661
-20.546
-20.235
-19.741
-19.074
-18.246
-17.268
-16.152
-14.91
-13.553
-12.095
-10.545
-8.915
-7.215
-5.456
-3.646
-1.795
0.09
2.001
3.931
5.873
7.823
9.776
11.727
13.674
15.614
17.546
19.468
21.382
23.286
25.183
27.073
28.959
30.843
32.728
34.617
36.514
38.423
40.347
42.292
44.261
46.257
48.286
50.349
52.452
54.595
56.783
59.016
61.295
63.623
65.999
68.422
70.892
73.407
75.964
78.56
81.189
83.847
86.527
89.222
91.925
94.629
97.325
100.003
102.656
105.274
107.846
110.362
112.813
115.188
117.475
119.664
121.745
123.707
125.54
127.234
128.779
130.167
131.388
132.436
133.3
133.976
134.456
134.735
134.81
134.678
134.338
133.791
133.04
132.089
130.943
129.607
128.09
126.399
124.542
122.528
120.364
118.061
115.628
113.08
110.429
107.692
104.882
102.019
99.12
96.204
93.291
90.399
87.545
84.748
82.025
79.398
76.893
74.529
72.321
70.278
68.409
66.715
65.193
63.834
62.616
61.52
60.527
59.623
58.801
58.056
57.385
56.783
56.242
55.762
55.361
55.061
54.889
54.877
55.058
55.476
56.192
57.258
58.715
60.584
62.868
65.552
68.606
71.989
75.654
79.524
83.498
87.461
91.281
94.831
97.998
100.654
102.654
103.868
104.181
103.507
101.796
99.024
95.189
90.318
84.459
77.708
70.197
62.086
53.551
44.756
35.84
26.956
18.265
9.923
2.079
-5.149
-11.678
-17.447
-22.413
-26.565
-29.932
-32.597
-34.699
-36.398
-37.859
-39.228
-40.637
-42.225
-44.139
-46.537
-49.531
-53.231
-57.754
-63.122
-69.314
-76.206
-83.45
-90.63
-97.342
-103.095
-107.387
-109.917
-110.423
-108.922
-105.995
-102.248
-98.238
-94.548
-91.639
-89.874
-89.63
-90.906
-91.82
-89.306
-80.807
-63.865
-39.523
-12.272
16.797
48.317
87.125
144.337
224.056
324.529
439.195
551.581
649.816
726.447
773.275
788.76
768.486
705.86
600.78
453.706
272.454
73.644
-124.943
-301.835
-440.318
-534.287
-585.088
-602.081
-594.57
-566.433
-520.138
-458.137
-387.767
-322.642
-273.115
-243.561
-230.797
-224.307
-217.17
-207.558
-197.469
-192.543
-194.862
-202.684
-212.812
-220.991
-224.843
-224.211
-219.669
-212.175
-202.629
-191.779
-180.583
-170.142
-161.464
-155.061
-150.933
-148.865
-148.47
-149.344
-151.157
-153.503
-155.94
-158.217
-160.185
-161.734
-162.847
-163.464
-163.507
-162.968
-161.862
-160.205
-158.033
-155.387
-152.305
-148.853
-145.084
-141.033
-136.741
-132.234
-127.56
-122.792
-118.005
-113.282
-108.694
-104.286
-100.092
-96.13
-92.399
-88.886
-85.569
-82.414
-79.396
-76.502
-73.715
-71.031
-68.435
-65.904
-63.412
-60.923
-58.408
-55.845
-53.215
-50.507
-47.712
-44.829
-41.859
-38.812
-35.696
-32.512
-29.262
-25.944
-22.557
-19.103
-15.586
-12.009
-8.378
-4.696
-0.969
2.8
6.605
10.442
14.309
18.205
22.128
26.074
30.039
34.018
38.006
41.997
45.987
49.968
53.934
57.879
61.797
65.682
69.53
73.334
77.086
80.781
84.412
87.972
91.452
94.846
98.145
101.34
104.423
107.384
110.215
112.906
115.448
117.831
120.047
122.084
123.934
125.587
127.032
128.261
129.264
130.031
130.555
130.826
130.838
130.583
130.055
129.248
128.157
126.779
125.11
123.149
120.894
118.346
115.506
112.377
108.964
105.271
101.304
97.072
92.584
87.849
82.878
77.683
72.278
66.676
60.893
54.945
48.848
42.62
36.28
29.846
23.338
16.776
10.179
3.568
-3.037
-9.617
-16.151
-22.619
-29.004
-35.287
-41.451
-47.478
-53.353
-59.061
-64.589
-69.924
-75.054
-79.97
-84.661
-89.12
-93.34
-97.315
-101.04
-104.513
-107.731
-110.694
-113.402
-115.855
-118.058
-120.015
-121.729
-123.208
-124.458
-125.488
-126.308
-126.926
-127.354
-127.604
-127.687
-127.615
-127.401
-127.058
-126.599
-126.036
-125.382
-124.649
-123.851
-122.999
-122.105
-121.18
-120.237
-119.286
-118.337
-117.4
-116.486
-115.602
-114.757
-113.96
-113.217
-112.535
-111.921
-111.379
-110.914
-110.53
-110.23
-110.015
-109.889
-109.85
-109.899
-110.036
-110.258
-110.565
-110.954
-111.422
-111.967
-112.584
-113.271
-114.024
-114.839
-115.711
-116.637
-117.612
-118.631
-119.691
-120.786
-121.913
-123.065
-124.24
-125.431
-126.635
-127.847
-129.061
-130.274
-131.481
-132.678
-133.86
-135.024
-136.166
-137.283
-138.37
-139.426
-140.448
-141.431
-142.375
-143.275
-144.13
-144.937
-145.693
-146.395
-147.041
-147.626
-148.149
-148.605
-148.991
-149.302
-149.535
-149.686
-149.749
-149.721
-149.596
-149.37
-149.036
-148.59
-148.027
-147.341
-146.526
-145.576
-144.487
-143.252
-141.867
-140.326
-138.625
-136.758
-134.72
-132.509
-130.119
-127.548
-124.792
-121.849
-118.719
-115.399
-111.891
-108.196
-104.315
-100.252
-96.013
-91.601
-87.025
-82.29
-77.407
-72.386
-67.238
-61.977
-56.618
-51.176
-45.669
-40.117
-34.543
-28.967
-23.411
-17.897
-12.449
-7.093
-1.853
3.246
8.183
12.933
17.474
21.781
25.831
29.602
33.077
36.242
39.082
41.583
43.729
45.515
46.936
47.995
48.694
49.025
48.985
48.576
47.806
46.687
45.239
43.479
41.429
39.125
36.607
33.918
31.106
28.214
25.274
22.318
19.372
16.469
13.656
10.987
8.52
6.299
4.331
2.591
1.053
-0.292
-1.498
-2.716
-4.206
-6.24
-8.97
-12.362
-16.316
-20.888
-26.156
-31.961
-37.855
-43.196
-47.444
-50.516
-52.614
-53.622
-53.285
-51.615
-48.98
-46.273
-44.57
-44.361
-45.606
-48.453
-53.206
-60.029
-68.829
-78.833
-87.588
-91.774
-88.766
-75.763
-53.018
-24.486
8.569
45.87
91.449
156.304
245.3
358.402
490.163
623.858
746.371
846.916
913.197
940.806
923.435
855.318
739.466
579.559
386.29
177.236
-30.753
-217.672
-367.348
-472.582
-533.506
-559.246
-562.1
-551.406
-531.375
-501.533
-460.255
-407.475
-346.94
-284.264
-224.451
-171.933
-128.968
-96.109
-73.421
-59.921
-53.841
-53.44
-56.954
-62.246
-67.514
-71.277
-72.195
-69.906
-64.827
-57.514
-48.717
-39.421
-30.474
-22.743
-17.112
-13.818
-12.653
-13.277
-15.176
-17.836
-20.799
-23.513
-25.426
-26.256
-25.922
-24.446
-21.949
-18.512
-14.196
-9.127
-3.462
2.657
9.11
15.791
22.62
29.492
36.263
42.809
49.034
54.879
60.319
65.347
69.952
74.136
77.925
81.356
84.472
87.32
89.933
92.351
94.619
96.792
98.929
101.082
103.289
105.578
107.969
110.478
113.122
115.909
118.841
121.918
125.144
128.523
132.066
135.778
139.662
143.718
147.945
152.342
156.911
161.652
166.564
171.645
176.892
182.305
187.881
193.617
199.507
205.541
211.71
218.003
224.409
230.916
237.511
244.179
250.906
257.68
264.486
271.311
278.139
284.954
291.743
298.489
305.177
311.791
318.315
324.732
331.027
337.185
343.188
349.022
354.67
360.118
365.35
370.351
375.108
379.607
383.834
387.777
391.425
394.766
397.79
400.487
402.849
404.869
406.538
407.852
408.804
409.392
409.611
409.46
408.938
408.045
406.782
405.152
403.158
400.806
398.103
395.055
391.674
387.969
383.952
379.637
375.039
370.173
365.056
359.706
354.143
348.385
342.453
336.369
330.154
323.83
317.419
310.943
304.424
297.885
291.348
284.833
278.362
271.955
265.631
259.41
253.309
247.345
241.534
235.891
230.43
225.163
220.101
215.252
210.626
206.227
202.06
198.128
194.431
190.969
187.739
184.737
181.956
179.39
177.029
174.863
172.881
171.068
169.412
167.897
166.508
165.227
164.039
162.926
161.87
160.855
159.861
158.873
157.871
156.839
155.76
154.617
153.394
152.075
150.646
149.092
147.402
145.563
143.566
141.401
139.06
136.538
133.83
130.934
127.847
124.569
121.102
117.45
113.616
109.607
105.429
101.091
96.602
91.973
87.215
82.339
77.358
72.285
67.132
61.914
56.643
51.335
46.002
40.661
35.324
30.005
24.72
19.481
14.301
9.191
4.163
-0.772
-5.608
-10.334
-14.946
-19.437
-23.804
-28.044
-32.154
-36.134
-39.985
-43.708
-47.305
-50.782
-54.142
-57.391
-60.536
-63.584
-66.542
-69.418
-72.221
-74.958
-77.637
-80.268
-82.86
-85.42
-87.958
-90.483
-93.003
-95.527
-98.061
-100.612
-103.185
-105.783
-108.41
-111.066
-113.751
-116.462
-119.196
-121.951
-124.721
-127.502
-130.288
-133.073
-135.851
-138.616
-141.358
-144.068
-146.733
-149.339
-151.873
-154.318
-156.66
-158.886
-160.982
-162.936
-164.737
-166.377
-167.848
-169.139
-170.236
-171.122
-171.785
-172.22
-172.426
-172.408
-172.181
-171.767
-171.192
-170.487
-169.674
-168.772
-167.787
-166.717
-165.558
-164.304
-162.963
-161.555
-160.101
-158.616
-157.111
-155.59
-154.043
-152.449
-150.776
-148.986
-147.057
-144.992
-142.819
-140.598
-138.402
-136.32
-134.42
-132.749
-131.346
-130.248
-129.49
-129.116
-129.179
-129.738
-130.868
-132.657
-135.162
-138.413
-142.383
-146.995
-152.148
-157.709
-163.567
-169.634
-175.824
-182.065
-188.283
-194.398
-200.331
-206.003
-211.32
-216.17
-220.466
-224.16
-227.276
-229.907
-232.17
-234.204
-236.107
-237.971
-239.906
-242.019
-244.426
-247.222
-250.453
-254.19
-258.572
-263.705
-269.587
-276.001
-282.482
-288.524
-293.693
-297.526
-299.52
-299.224
-296.433
-291.591
-285.622
-279.473
-274.111
-270.359
-268.953
-270.846
-275.728
-281.04
-284.056
-282.01
-273.817
-262.215
-248.276
-229.476
-201.17
-155.082
-84.687
8.822
120.774
243.284
364.227
474.678
564.571
620.713
635.131
600.649
514.916
384.711
216.968
22.847
-182.862
-385.879
-568.025
-713.869
-816.061
-875.691
-901.379
-903.719
-890.238
-861.599
-818.282
-763.553
-701.851
-642.706
-591.676
-547.88
-510.846
-477.501
-447.179
-423.68
-408.206
-400.732
-400.066
-402.666
-406.016
-408.824
-409.835
-408.38
-404.43
-398.217
-390.317
-381.601
-372.871
-364.797
-358.148
-353.635
-351.48
-351.543
-353.468
-356.741
-360.912
-365.565
-370.205
-374.305
-377.507
-379.648
-380.7
-380.735
-379.821
-378.006
-375.37
-372.042
-368.149
-363.804
-359.114
-354.148
-348.976
-343.708
-338.458
-333.346
-328.496
-323.984
-319.851
-316.129
-312.83
-309.947
-307.472
-305.372
-303.596
-302.102
-300.849
-299.801
-298.929
-298.194
-297.547
-296.941
-296.321
-295.647
-294.894
-294.035
-293.051
-291.928
-290.653
-289.221
-287.634
-285.889
-283.979
-281.896
-279.63
-277.173
-274.52
-271.668
-268.612
-265.351
-261.881
-258.199
-254.305
-250.196
-245.872
-241.333
-236.577
-231.604
-226.42
-221.028
-215.436
-209.653
-203.685
-197.544
-191.24
-184.785
-178.19
-171.468
-164.632
-157.695
-150.671
-143.577
-136.428
-129.24
-122.03
-114.818
-107.62
-100.455
-93.343
-86.303
-79.353
-72.513
-65.803
-59.239
-52.842
-46.628
-40.616
-34.821
-29.258
-23.943
-18.888
-14.107
-9.61
-5.407
-1.508
2.082
5.355
8.306
10.933
13.233
15.207
16.855
18.182
19.19
19.888
20.282
20.384
20.205
19.757
19.055
18.115
16.952
15.586
14.036
12.321
10.462
8.479
6.395
4.229
2.003
-0.263
-2.549
-4.835
-7.104
-9.339
-11.522
-13.64
-15.677
-17.621
-19.456
-21.174
-22.764
-24.218
-25.53
-26.693
-27.704
-28.566
-29.279
-29.849
-30.279
-30.575
-30.742
-30.788
-30.724
-30.56
-30.303
-29.962
-29.549
-29.08
-28.573
-28.048
-27.517
-26.977
-26.432
-25.891
-25.357
-24.834
-24.321
-23.808
-23.3
-22.815
-22.369
-21.983
-21.662
-21.394
-21.17
-20.977
-20.818
-20.711
-20.661
-20.659
-20.707
-20.816
-20.998
-21.286
-21.667
-22.089
-22.505
-22.867
-23.146
-23.34
-23.437
-23.415
-23.25
-22.905
-22.358
-21.607
-20.627
-19.376
-17.81
-15.867
-13.539
-10.881
-7.934
-4.735
-1.308
2.348
6.219
10.269
14.476
18.818
23.282
27.868
32.548
37.274
41.998
46.658
51.235
55.759
60.243
64.694
69.116
73.496
77.832
82.142
86.423
90.662
94.845
98.951
102.979
106.945
110.861
114.743
118.591
122.385
126.115
129.776
133.361
136.872
140.304
143.648
146.906
150.093
153.223
156.314
159.377
162.418
165.445
168.469
171.5
174.552
177.638
180.766
183.944
187.184
190.498
193.901
197.404
201.016
204.745
208.6
212.592
216.73
221.021
225.469
230.073
234.837
239.766
244.866
250.148
255.615
261.263
267.088
273.083
279.234
285.522
291.915
298.366
304.842
311.32
317.784
324.234
330.665
337.068
343.441
349.779
356.078
362.343
368.568
374.739
380.859
386.948
393.043
399.218
405.512
411.93
418.466
425.083
431.734
438.37
444.915
451.272
457.356
463.089
468.414
473.303
477.701
481.534
484.707
487.086
488.579
489.143
488.749
487.4
485.131
481.996
478.105
473.62
468.683
463.41
457.897
452.2
446.4
440.599
434.917
429.491
424.438
419.835
415.746
412.225
409.276
406.861
404.875
403.138
401.489
399.811
397.998
395.957
393.588
390.758
387.331
383.22
378.318
372.499
365.731
358.019
349.498
340.566
331.69
323.308
315.927
310.032
305.914
303.835
303.727
304.887
306.566
308.086
308.802
308.207
305.904
301.496
295.002
288.566
285.632
288.898
301.085
321.218
344.578
370.523
399.64
436.243
491.574
569.242
667.923
782.688
897.234
998.878
1077.21
1119.589
1122.395
1081.548
993.657
863.356
692.952
490.601
273.28
57.737
-132.574
-277.411
-370.733
-412.844
-414.955
-394.241
-361.063
-324.54
-289.842
-255.362
-220.325
-182.161
-138.482
-91.899
-46.87
-9.1
17.214
31.667
36.391
34.811
29.386
21.933
14.119
7.267
2.894
1.801
3.712
8.052
14.136
21.028
27.849
33.632
37.302
38.446
37.185
33.819
28.879
22.876
16.267
9.671
3.71
-1.277
-5.137
-7.868
-9.588
-10.354
-10.211
-9.276
-7.681
-5.563
-3.049
-0.225
2.815
5.955
9.059
11.959
14.524
16.675
18.355
19.54
20.22
20.382
20.036
19.221
17.976
16.344
14.371
12.092
9.551
6.808
3.925
0.973
-1.988
-4.917
-7.778
-10.544
-13.191
-15.697
-18.046
-20.236
-22.258
-24.101
-25.751
-27.191
-28.413
-29.412
-30.183
-30.722
-31.02
-31.074
-30.888
-30.456
-29.764
-28.8
-27.551
-26.017
-24.225
-22.183
-19.875
-17.332
-14.615
-11.775
-8.868
-5.914
-2.863
0.281
3.431
6.653
10.171
14.004
18.067
22.377
26.629
31.372
38.092
46.308
54.674
60.765
60.241
53.731
45.462
39.781
42.846
54.516
69.049
82.042
88.58
88.21
85.24
82.18
80.894
81.766
83.015
83.933
84.555
84.834
85.047
85.236
85.169
84.789
84.138
83.215
82.016
80.556
78.854
76.941
74.866
72.649
70.282
67.769
65.124
62.356
59.478
56.5
53.429
50.273
47.048
43.765
40.436
37.072
33.684
30.281
26.875
23.474
20.089
16.728
13.398
10.109
6.866
3.676
0.545
-2.521
-5.518
-8.443
-11.292
-14.062
-16.751
-19.359
-21.883
-24.324
-26.681
-28.955
-31.145
-33.253
-35.279
-37.225
-39.092
-40.881
-42.596
-44.238
-45.81
-47.314
-48.753
-50.13
-51.447
-52.708
-53.915
-55.071
-56.18
-57.243
-58.264
-59.246
-60.19
-61.1
-61.977
-62.822
-63.639
-64.428
-65.189
-65.925
-66.636
-67.323
-67.986
-68.626
-69.245
-69.844
-70.422
-70.982
-71.524
-72.05
-72.559
-73.055
-73.537
-74.006
-74.465
-74.914
-75.355
-75.788
-76.216
-76.639
-77.059
-77.477
-77.895
-78.313
-78.734
-79.16
-79.591
-80.031
-80.481
-80.944
-81.422
-81.919
-82.436
-82.977
-83.545
-84.141
-84.769
-85.431
-86.129
-86.866
-87.644
-88.465
-89.33
-90.241
-91.199
-92.205
-93.26
-94.364
-95.516
-96.718
-97.968
-99.265
-100.609
-101.998
-103.431
-104.905
-106.418
-107.966
-109.547
-111.156
-112.789
-114.44
-116.104
-117.774
-119.443
-121.104
-122.75
-124.373
-125.964
-127.514
-129.013
-130.453
-131.824
-133.115
-134.315
-135.416
-136.407
-137.279
-138.023
-138.629
-139.089
-139.394
-139.537
-139.51
-139.307
-138.921
-138.346
-137.578
-136.613
-135.447
-134.081
-132.512
-130.742
-128.772
-126.606
-124.248
-121.705
-118.984
-116.093
-113.043
-109.847
-106.517
-103.071
-99.524
-95.896
-92.208
-88.482
-84.741
-81.01
-77.312
-73.672
-70.116
-66.669
-63.353
-60.192
-57.208
-54.426
-51.868
-49.559
-47.52
-45.774
-44.339
-43.233
-42.473
-42.072
-42.033
-42.363
-43.064
-44.143
-45.609
-47.469
-49.72
-52.359
-55.376
-58.755
-62.471
-66.49
-70.759
-75.228
-79.85
-84.58
-89.385
-94.228
-99.066
-103.847
-108.516
-113.019
-117.316
-121.371
-125.146
-128.627
-131.832
-134.809
-137.65
-140.444
-143.254
-146.148
-149.196
-152.476
-156.09
-160.15
-164.716
-169.871
-175.725
-182.299
-189.566
-197.373
-205.308
-212.893
-219.697
-225.223
-228.978
-230.694
-230.199
-227.646
-223.791
-219.503
-215.504
-212.487
-211.08
-211.59
-214.106
-218.311
-221.89
-221.219
-213.518
-196.054
-169.11
-136.658
-99.476
-57.141
-6.409
61.475
148.827
253.302
368.775
479.833
574.842
644.455
678.669
676.088
633.412
547.492
422.176
258.62
65.851
-137.338
-332.713
-496.798
-613.123
-681.67
-708.72
-708.068
-692.21
-662.439
-618.599
-561.877
-497.348
-436.615
-388.693
-355.875
-334.425
-317.786
-301.969
-287.042
-276.035
-270.857
-270.442
-271.993
-271.787
-267.412
-258.563
-245.87
-230.401
-213.312
-195.692
-178.644
-163.352
-150.838
-141.52
-135.378
-132.149
-131.354
-132.495
-135.099
-138.616
-142.515
-146.44
-150.122
-153.374
-156.08
-158.097
-159.313
-159.684
-159.195
-157.861
-155.715
-152.797
-149.17
-144.925
-140.16
-134.971
-129.448
-123.674
-117.756
-111.808
-105.945
-100.286
-94.912
-89.877
-85.222
-80.96
-77.085
-73.583
-70.419
-67.547
-64.932
-62.538
-60.332
-58.29
-56.377
-54.552
-52.774
-50.995
-49.178
-47.3
-45.338
-43.279
-41.116
-38.844
-36.466
-33.991
-31.422
-28.762
-26.01
-23.162
-20.219
-17.18
-14.05
-10.831
-7.526
-4.14
-0.673
2.87
6.487
10.174
13.929
17.751
21.638
25.584
29.584
33.632
37.719
41.84
45.987
50.152
54.327
58.504
62.678
66.84
70.984
75.103
79.19
83.237
87.237
91.182
95.066
98.881
102.618
106.271
109.831
113.29
116.643
119.882
122.998
125.987
128.842
131.557
134.126
136.544
138.807
140.908
142.845
144.612
146.208
147.628
148.869
149.931
150.81
151.506
152.016
152.342
152.482
152.438
152.209
151.798
151.207
150.439
149.497
148.385
147.109
145.673
144.084
142.348
140.473
138.465
136.333
134.085
131.729
129.273
126.728
124.101
121.402
118.641
115.827
112.971
110.081
107.167
104.24
101.309
98.384
95.473
92.587
89.733
86.921
84.159
81.455
78.818
76.253
73.77
71.373
69.069
66.864
64.763
62.771
60.89
59.126
57.481
55.957
54.557
53.283
52.136
51.117
50.225
49.461
48.824
48.313
47.925
47.659
47.511
47.479
47.559
47.747
48.04
48.432
48.92
49.497
50.16
50.902
51.718
52.602
53.548
54.55
55.602
56.699
57.833
59
60.193
61.407
62.635
63.874
65.116
66.358
67.593
68.818
70.028
71.219
72.387
73.531
74.646
75.731
76.784
77.804
78.788
79.737
80.648
81.522
82.359
83.158
83.92
84.645
85.333
85.986
86.604
87.188
87.739
88.257
88.744
89.2
89.626
90.022
90.39
90.729
91.041
91.326
91.583
91.814
92.017
92.192
92.337
92.452
92.535
92.583
92.596
92.571
92.505
92.398
92.247
92.049
91.804
91.509
91.162
90.764
90.312
89.806
89.247
88.635
87.971
87.257
86.496
85.69
84.842
83.958
83.04
82.095
81.127
80.141
79.143
78.14
77.14
76.149
75.175
74.227
73.313
72.442
71.622
70.863
70.172
69.558
69.029
68.593
68.256
68.025
67.906
67.903
68.02
68.26
68.622
69.107
69.712
70.433
71.263
72.197
73.224
74.333
75.512
76.749
78.029
79.336
80.655
81.968
83.26
84.513
85.709
86.831
87.857
88.771
89.551
90.178
90.634
90.901
90.962
90.804
90.418
89.794
88.926
87.805
86.42
84.763
82.835
80.636
78.172
75.454
72.496
69.33
65.996
62.533
58.98
55.369
51.722
48.069
44.439
40.872
37.411
34.096
30.955
28.02
25.317
22.862
20.652
18.64
16.744
14.887
12.998
11.041
8.984
6.771
4.339
1.6
-1.522
-5.056
-9.059
-13.62
-18.789
-24.533
-30.626
-36.583
-41.87
-46.055
-48.703
-49.397
-47.795
-43.729
-37.598
-30.404
-23.254
-17.066
-12.598
-10.529
-11.487
-15.928
-22.321
-27.135
-26.981
-18.356
-1.237
20.489
46.04
75.68
113.345
169.857
249.624
352.735
475.386
601.136
715.387
805.168
855.781
863.817
827.933
747.984
631.266
481.08
303.129
110.4
-83.659
-258.53
-394.553
-485.215
-532.639
-549.181
-550.414
-540.799
-518.171
-478.673
-420.545
-353.033
-289.82
-240.103
-207.127
-185.587
-167.986
-150.708
-133.912
-120.955
-114.099
-113.031
-115.522
-118.21
-118.974
-116.911
-111.937
-104.824
-96.297
-86.884
-77.385
-68.578
-61.19
-56.039
-53.422
-53.151
-54.914
-58.246
-62.661
-67.76
-73.043
-77.896
-81.939
-84.985
-86.96
-87.946
-87.99
-87.09
-85.312
-82.763
-79.559
-75.83
-71.687
-67.197
-62.457
-57.577
-52.69
-47.964
-43.523
-39.439
-35.764
-32.515
-29.711
-27.37
-25.484
-24.015
-22.921
-22.159
-21.692
-21.494
-21.53
-21.754
-22.112
-22.543
-22.999
-23.453
-23.879
-24.258
-24.576
-24.813
-24.966
-25.038
-25.029
-24.936
-24.752
-24.466
-24.071
-23.565
-22.945
-22.21
-21.355
-20.376
-19.27
-18.035
-16.669
-15.17
-13.535
-11.76
-9.847
-7.796
-5.611
-3.298
-0.863
1.689
4.348
7.105
9.951
12.877
15.871
18.925
22.028
25.169
28.335
31.515
34.698
37.87
41.017
44.127
47.184
50.175
53.086
55.902
58.607
61.188
63.63
65.918
68.038
69.978
71.723
73.261
74.579
75.667
76.514
77.109
77.444
77.511
77.303
76.814
76.038
74.971
73.609
71.95
69.992
67.734
65.176
62.319
59.165
55.717
51.981
47.961
43.665
39.1
34.276
29.201
23.887
18.345
12.588
6.63
0.483
-5.838
-12.318
-18.941
-25.692
-32.556
-39.516
-46.556
-53.662
-60.817
-68.007
-75.217
-82.432
-89.639
-96.824
-103.973
-111.074
-118.116
-125.087
-131.975
-138.773
-145.469
-152.057
-158.528
-164.877
-171.097
-177.184
-183.135
-188.945
-194.613
-200.136
-205.514
-210.748
-215.836
-220.781
-225.585
-230.249
-234.778
-239.173
-243.439
-247.58
-251.6
-255.504
-259.296
-262.982
-266.566
-270.053
-273.449
-276.759
-279.987
-283.139
-286.219
-289.231
-292.179
-295.066
-297.896
-300.671
-303.393
-306.064
-308.685
-311.257
-313.782
-316.261
-318.693
-321.078
-323.418
-325.712
-327.958
-330.156
-332.305
-334.405
-336.454
-338.45
-340.391
-342.276
-344.102
-345.867
-347.571
-349.209
-350.781
-352.284
-353.717
-355.081
-356.375
-357.6
-358.756
-359.847
-360.878
-361.853
-362.779
-363.659
-364.501
-365.312
-366.098
-366.865
-367.62
-368.367
-369.114
-369.868
-370.64
-371.438
-372.273
-373.153
-374.091
-375.097
-376.187
-377.372
-378.659
-380.062
-381.593
-383.268
-385.11
-387.129
-389.331
-391.717
-394.285
-397.029
-399.936
-402.984
-406.138
-409.368
-412.647
-415.956
-419.282
-422.603
-425.893
-429.119
-432.249
-435.27
-438.184
-440.992
-443.705
-446.351
-448.972
-451.636
-454.425
-457.391
-460.567
-463.971
-467.603
-471.469
-475.581
-479.941
-484.542
-489.355
-494.323
-499.383
-504.441
-509.361
-513.979
-518.086
-521.469
-523.967
-525.441
-525.768
-524.846
-522.573
-518.844
-513.575
-506.689
-498.106
-487.794
-475.752
-462.033
-446.766
-430.125
-412.33
-393.612
-374.162
-354.166
-333.816
-313.292
-292.772
-272.458
-252.54
-233.233
-214.796
-197.436
-181.312
-166.529
-153.107
-141.027
-130.235
-120.657
-112.227
-104.875
-98.516
-93.068
-88.447
-84.531
-81.191
-78.243
-75.441
-72.572
-69.453
-65.932
-61.921
-57.354
-52.179
-46.368
-39.903
-32.757
-24.907
-16.331
-7.012
3.023
13.727
25.004
36.703
48.683
60.786
72.843
84.714
96.26
107.339
117.863
127.723
136.748
144.842
151.978
158.233
163.916
169.388
174.94
180.96
187.913
196.088
205.633
216.33
227.341
237.67
246.5
253.063
256.619
256.772
253.451
247.147
240.413
237.219
240.985
254.96
279.016
309.461
344.645
384.1
432.575
499.79
590.732
706.101
836.461
963.592
1071.222
1143.255
1171.867
1156.943
1098.101
1000.176
867.007
702.33
516.974
324.364
143.045
-7.071
-113.797
-173.765
-193.834
-185.727
-158.415
-117.484
-65.378
-5.926
52.343
101.932
138.671
163.588
183.509
202.823
222.214
239.844
251.469
255.928
254.77
250.516
246.592
245.032
246.649
251.622
259.324
269.027
280.109
291.74
303.084
313.308
321.515
327.283
330.653
331.861
331.328
329.483
326.679
323.344
319.982
316.971
314.562
312.881
311.911
311.627
312.027
313.078
314.725
316.903
319.524
322.507
325.785
329.291
332.964
336.723
340.47
344.083
347.437
350.448
353.064
355.256
357.005
358.299
359.135
359.537
359.551
359.218
358.577
357.656
356.479
355.083
353.513
351.823
350.067
348.289
346.52
344.79
343.126
341.551
340.085
338.737
337.509
336.408
335.445
334.632
333.983
333.509
333.215
333.108
333.193
333.475
333.958
334.645
335.535
336.63
337.93
339.433
341.141
343.048
345.15
347.438
349.902
352.532
355.314
358.235
361.278
364.428
367.667
370.978
374.344
377.747
381.166
384.583
387.978
391.332
394.625
397.836
400.946
403.936
406.786
409.477
411.992
414.312
416.422
418.305
419.947
421.334
422.452
423.29
423.838
424.087
424.028
423.655
422.964
421.95
420.613
418.952
416.969
414.666
412.047
409.119
405.888
402.363
398.554
394.47
390.126
385.532
380.705
375.659
370.409
364.974
359.37
353.614
347.725
341.722
335.624
329.448
323.213
316.94
310.645
304.348
298.065
291.815
285.614
279.477
273.42
267.456
261.599
255.861
250.251
244.779
239.453
234.28
229.266
224.414
219.728
215.208
210.855
206.668
202.645
198.781
195.074
191.517
188.105
184.831
181.686
178.663
175.753
172.945
170.231
167.599
165.04
162.542
160.095
157.688
155.309
152.948
150.595
148.24
145.872
143.484
141.065
138.609
136.109
133.558
130.951
128.284
125.552
122.755
119.889
116.954
113.95
110.879
107.742
104.541
101.28
97.962
94.593
91.176
87.718
84.225
80.702
77.156
73.594
70.024
66.451
62.885
59.332
55.799
52.294
48.824
45.395
42.015
38.69
35.424
32.223
29.092
26.035
23.054
20.152
17.33
14.59
11.931
9.352
6.852
4.428
2.078
-0.201
-2.415
-4.568
-6.665
-8.712
-10.715
-12.68
-14.613
-16.523
-18.415
-20.296
-22.173
-24.055
-25.946
-27.855
-29.787
-31.749
-33.748
-35.788
-37.876
-40.014
-42.208
-44.459
-46.771
-49.144
-51.578
-54.074
-56.628
-59.24
-61.905
-64.619
-67.376
-70.171
-72.995
-75.841
-78.7
-81.561
-84.416
-87.251
-90.057
-92.821
-95.532
-98.177
-100.745
-103.222
-105.598
-107.859
-109.993
-111.989
-113.835
-115.52
-117.033
-118.366
-119.508
-120.453
-121.194
-121.725
-122.042
-122.142
-122.025
-121.69
-121.139
-120.375
-119.402
-118.228
-116.861
-115.312
-113.591
-111.714
-109.698
-107.56
-105.319
-102.998
-100.617
-98.2
-95.768
-93.345
-90.953
-88.613
-86.348
-84.18
-82.133
-80.23
-78.495
-76.947
-75.609
-74.498
-73.633
-73.027
-72.688
-72.623
-72.839
-73.343
-74.153
-75.28
-76.728
-78.5
-80.591
-82.99
-85.68
-88.637
-91.816
-95.171
-98.657
-102.229
-105.854
-109.5
-113.121
-116.664
-120.067
-123.268
-126.224
-128.898
-131.26
-133.303
-135.037
-136.509
-137.809
-139.026
-140.253
-141.592
-143.137
-144.999
-147.306
-150.162
-153.688
-158.04
-163.271
-169.366
-176.222
-183.523
-190.903
-198.012
-204.371
-209.437
-212.838
-214.326
-213.943
-212.256
-209.916
-207.464
-205.486
-204.614
-205.324
-207.855
-212.064
-216.212
-217.244
-212.464
-199.057
-176.033
-146.039
-110.798
-70.893
-25.26
33.576
112.398
213.547
336.525
470.434
599.602
709.418
783.153
811.118
789.061
714.889
593.867
431.821
238.48
29.898
-176.8
-360.181
-503.493
-600.608
-652.574
-669.629
-663.469
-640.1
-604.332
-559.943
-509.633
-459.737
-414.526
-373.414
-336.849
-304.019
-275.458
-255.208
-244.739
-243.547
-249.87
-260.142
-271.447
-281.824
-289.551
-293.43
-293.101
-288.879
-281.523
-272.006
-261.416
-250.759
-241.08
-233.459
-228.385
-225.837
-225.581
-227.165
-230.15
-234.191
-238.843
-243.597
-248.125
-252.233
-255.817
-258.863
-261.307
-263.069
-264.13
-264.507
-264.236
-263.355
-261.888
-259.856
-257.297
-254.261
-250.8
-246.975
-242.845
-238.477
-233.945
-229.332
-224.737
-220.233
-215.87
-211.679
-207.661
-203.81
-200.12
-196.57
-193.133
-189.784
-186.497
-183.251
-180.031
-176.815
-173.572
-170.268
-166.857
-163.304
-159.586
-155.685
-151.589
-147.293
-142.792
-138.089
-133.193
-128.112
-122.85
-117.411
-111.793
-105.999
-100.036
-93.914
-87.643
-81.236
-74.701
-68.051
-61.3
-54.461
-47.546
-40.569
-33.541
-26.476
-19.392
-12.305
-5.233
1.803
8.785
15.695
22.511
29.214
35.786
42.208
48.463
54.535
60.406
66.06
71.482
76.658
81.573
86.213
90.568
94.624
98.371
101.8
104.901
107.668
110.094
112.173
113.901
115.276
116.295
116.958
117.267
117.225
116.838
116.112
115.054
113.667
111.958
109.938
107.612
104.987
102.072
98.867
95.391
91.685
87.775
83.688
79.47
75.141
70.719
66.26
61.756
57.14
52.378
47.458
42.272
36.771
31.093
25.21
19.168
13.492
7.694
1.151
-5.198
-11.331
-14.939
-12.341
-5.383
3.373
7.956
-0.289
-20.472
-47.166
-71.106
-80.615
-74.179
-57.371
-39.089
-28.807
-28.987
-36.411
-45.86
-53.015
-56.656
-57.807
-58.154
-58.465
-58.691
-58.662
-58.208
-57.444
-56.612
-55.779
-54.951
-54.169
-53.441
-52.758
-52.105
-51.442
-50.747
-50.038
-49.34
-48.668
-48.033
-47.445
-46.912
-46.448
-46.065
-45.767
-45.558
-45.439
-45.413
-45.481
-45.646
-45.908
-46.265
-46.714
-47.253
-47.879
-48.585
-49.366
-50.216
-51.127
-52.091
-53.1
-54.145
-55.217
-56.308
-57.406
-58.504
-59.592
-60.659
-61.697
-62.696
-63.648
-64.544
-65.377
-66.139
-66.827
-67.433
-67.956
-68.391
-68.738
-68.996
-69.164
-69.242
-69.232
-69.135
-68.954
-68.693
-68.355
-67.945
-67.469
-66.933
-66.345
-65.712
-65.042
-64.343
-63.623
-62.89
-62.154
-61.424
-60.707
-60.013
-59.35
-58.726
-58.151
-57.632
-57.174
-56.784
-56.464
-56.217
-56.046
-55.949
-55.923
-55.965
-56.073
-56.243
-56.469
-56.748
-57.074
-57.441
-57.844
-58.279
-58.736
-59.205
-59.674
-60.13
-60.56
-60.951
-61.285
-61.547
-61.721
-61.792
-61.752
-61.589
-61.288
-60.834
-60.205
-59.387
-58.373
-57.162
-55.749
-54.138
-52.335
-50.361
-48.249
-46.033
-43.735
-41.363
-38.914
-36.39
-33.794
-31.133
-28.41
-25.616
-22.737
-19.767
-16.709
-13.565
-10.324
-6.948
-3.376
0.443
4.526
8.862
13.417
18.154
23.029
27.978
32.921
37.744
42.34
46.632
50.557
54.061
57.072
59.487
61.177
62.037
61.993
61.008
59.075
56.193
52.385
47.72
42.305
36.297
29.85
23.082
16.09
8.968
1.811
-5.251
-12.068
-18.514
-24.475
-29.854
-34.591
-38.619
-41.905
-44.481
-46.428
-47.888
-49.025
-49.961
-50.802
-51.668
-52.672
-53.962
-55.698
-57.979
-60.921
-64.682
-69.33
-74.888
-81.241
-88.014
-94.778
-101.142
-106.612
-110.683
-112.993
-113.281
-111.71
-109.024
-105.977
-103.17
-101.291
-100.964
-102.675
-106.887
-112.404
-116.108
-115.242
-107.001
-91.328
-71.681
-48.597
-21.267
14.681
69.478
147.495
248.754
368.839
492.489
605.881
697.711
756.283
778.486
764.894
714.772
630.361
513.434
362.608
183.262
-11.104
-203.719
-370.621
-493.221
-568.656
-601.849
-606.419
-595.837
-572.318
-535.551
-485.857
-426.531
-367.67
-317.668
-278.654
-248.112
-221.192
-195.457
-172.576
-156.269
-148.598
-149.173
-156.1
-166.051
-176.405
-185.334
-191.029
-192.951
-191.244
-185.976
-177.331
-165.629
-151.479
-136.25
-121.746
-108.958
-98.217
-89.62
-83.171
-79.129
-77.593
-78.021
-79.434
-81.097
-82.646
-83.961
-85.028
-85.617
-85.47
-84.57
-83.128
-81.383
-79.472
-77.432
-75.214
-72.813
-70.278
-67.639
-64.902
-62.07
-59.145
-56.138
-53.099
-50.092
-47.184
-44.455
-41.945
-39.66
-37.601
-35.761
-34.132
-32.712
-31.484
-30.412
-29.468
-28.627
-27.871
-27.192
-26.569
-25.967
-25.345
-24.657
-23.869
-22.962
-21.918
-20.72
-19.352
-17.804
-16.072
-14.162
-12.073
-9.802
-7.344
-4.69
-1.838
1.21
4.452
7.885
11.504
15.307
19.288
23.443
27.766
32.252
36.897
41.698
46.65
51.745
56.974
62.329
67.798
73.372
79.038
84.783
90.593
96.456
102.358
108.285
114.223
120.156
126.069
131.946
137.77
143.524
149.189
154.747
160.18
165.47
170.597
175.543
180.289
184.817
189.109
193.147
196.914
200.392
203.566
206.421
208.943
211.117
212.932
214.377
215.442
216.119
216.402
216.285
215.766
214.841
213.512
211.779
209.647
207.12
204.207
200.916
197.258
193.248
188.899
184.23
179.258
174.005
168.491
162.741
156.777
150.627
144.317
137.873
131.325
124.699
118.025
111.331
104.646
97.998
91.415
84.924
78.552
72.324
66.264
60.396
54.742
49.322
44.155
39.259
34.647
30.335
26.332
22.649
19.293
16.268
13.578
11.223
9.202
7.512
6.148
5.102
4.365
3.927
3.775
3.896
4.275
4.896
5.74
6.792
8.03
9.437
10.993
12.677
14.47
16.351
18.301
20.3
22.328
24.368
26.401
28.411
30.381
32.296
34.142
35.908
37.58
39.149
40.606
41.943
43.153
44.232
45.174
45.979
46.643
47.167
47.551
47.797
47.908
47.887
47.739
47.468
47.079
46.579
45.973
45.27
44.474
43.593
42.635
41.606
40.513
39.362
38.159
36.909
35.616
34.286
32.921
31.523
30.096
28.642
27.161
25.654
24.123
22.568
20.987
19.38
17.746
16.084
14.39
12.663
10.9
9.098
7.256
5.371
3.44
1.462
-0.565
-2.644
-4.776
-6.961
-9.201
-11.495
-13.843
-16.241
-18.687
-21.177
-23.705
-26.263
-28.842
-31.435
-34.029
-36.615
-39.182
-41.718
-44.214
-46.658
-49.04
-51.349
-53.572
-55.696
-57.706
-59.587
-61.322
-62.894
-64.288
-65.487
-66.478
-67.248
-67.786
-68.085
-68.136
-67.927
-67.449
-66.685
-65.625
-64.266
-62.609
-60.663
-58.444
-55.976
-53.287
-50.408
-47.366
-44.18
-40.86
-37.404
-33.812
-30.081
-26.223
-22.259
-18.213
-14.102
-9.942
-5.741
-1.493
2.818
7.219
11.745
16.412
21.214
26.117
31.058
35.961
40.736
45.308
49.625
53.638
57.311
60.606
63.484
65.891
67.756
68.998
69.524
69.268
68.195
66.313
63.675
60.373
56.534
52.277
47.702
42.898
37.934
32.878
27.799
22.781
17.92
13.327
9.127
5.417
2.282
-0.246
-2.193
-3.632
-4.701
-5.531
-6.23
-6.904
-7.653
-8.572
-9.776
-11.384
-13.472
-16.153
-19.586
-23.824
-28.871
-34.596
-40.616
-46.488
-51.813
-56.096
-58.831
-59.743
-58.635
-55.61
-51.387
-46.749
-42.336
-38.827
-36.794
-36.483
-38.059
-41.325
-44.099
-43.008
-35.316
-18.052
8.487
40.106
75.731
115.149
161.448
224.359
307.421
409.851
527.118
643.922
747.603
827.042
869.621
872.198
831.942
747.486
624.771
466.019
278.381
77.193
-121.461
-294.137
-421.392
-499.289
-533.155
-538.306
-530.99
-514.864
-487.019
-443.552
-383.231
-315.659
-254.315
-207.907
-179.511
-163.852
-153.324
-143.9
-134.967
-129.263
-128.848
-133.036
-139.343
-144.334
-145.827
-143.523
-138.009
-130.289
-121.259
-111.61
-102.238
-94.138
-88.17
-84.71
-83.625
-84.562
-87.038
-90.566
-94.691
-98.867
-102.544
-105.365
-107.162
-107.888
-107.597
-106.336
-104.123
-101.022
-97.134
-92.561
-87.415
-81.796
-75.802
-69.552
-63.182
-56.839
-50.651
-44.722
-39.128
-33.916
-29.117
-24.752
-20.826
-17.334
-14.259
-11.574
-9.249
-7.254
-5.554
-4.106
-2.862
-1.765
-0.765
0.171
1.074
1.964
2.856
3.767
4.708
5.682
6.697
7.759
8.88
10.073
11.35
12.719
14.19
15.769
17.461
19.279
21.231
23.326
25.573
27.981
30.558
33.315
36.258
39.392
42.72
46.243
49.959
53.869
57.969
62.255
66.721
71.363
76.172
81.144
86.268
91.537
96.938
102.462
108.095
113.824
119.635
125.513
131.443
137.406
143.387
149.369
155.333
161.26
167.133
172.933
178.64
184.235
189.701
195.017
200.167
205.131
209.892
214.434
218.74
222.795
226.585
230.095
233.312
236.226
238.825
241.099
243.04
244.641
245.895
246.797
247.346
247.538
247.374
246.855
245.983
244.763
243.199
241.299
239.069
236.521
233.663
230.507
227.067
223.357
219.389
215.182
210.751
206.113
201.286
196.288
191.139
185.857
180.461
174.97
169.405
163.783
158.124
152.447
146.77
141.11
135.485
129.911
124.404
118.979
113.649
108.429
103.331
98.366
93.545
88.878
84.373
80.039
75.883
71.909
68.123
64.529
61.129
57.925
54.917
52.105
49.487
47.061
44.823
42.77
40.896
39.195
37.661
36.287
35.064
33.984
33.039
32.22
31.516
30.919
30.419
30.006
29.669
29.399
29.186
29.02
28.891
28.788
28.702
28.624
28.543
28.451
28.34
28.2
28.025
27.807
27.539
27.214
26.828
26.376
25.853
25.256
24.582
23.828
22.995
22.081
21.085
20.01
18.856
17.625
16.318
14.938
13.489
11.972
10.392
8.751
7.054
5.305
3.507
1.666
-0.214
-2.129
-4.074
-6.045
-8.037
-10.046
-12.068
-14.097
-16.131
-18.165
-20.196
-22.22
-24.233
-26.234
-28.219
-30.187
-32.136
-34.064
-35.971
-37.856
-39.719
-41.558
-43.374
-45.165
-46.931
-48.671
-50.384
-52.068
-53.722
-55.343
-56.929
-58.478
-59.987
-61.45
-62.864
-64.225
-65.526
-66.762
-67.926
-69.013
-70.016
-70.928
-71.742
-72.452
-73.049
-73.527
-73.877
-74.093
-74.166
-74.088
-73.851
-73.448
-72.87
-72.112
-71.167
-70.029
-68.694
-67.159
-65.419
-63.474
-61.324
-58.968
-56.411
-53.655
-50.707
-47.575
-44.269
-40.8
-37.184
-33.435
-29.571
-25.611
-21.575
-17.482
-13.356
-9.22
-5.097
-1.011
3.015
6.956
10.785
14.477
18.007
21.348
24.477
27.37
30.001
32.348
34.39
36.11
37.496
38.537
39.22
39.538
39.479
39.039
38.222
37.033
35.479
33.572
31.328
28.778
25.965
22.931
19.712
16.344
12.853
9.272
5.64
1.996
-1.613
-5.149
-8.585
-11.881
-15.002
-17.924
-20.628
-23.132
-25.501
-27.787
-30.04
-32.304
-34.582
-36.906
-39.335
-41.919
-44.741
-47.871
-51.327
-55.184
-59.562
-64.486
-69.895
-75.533
-80.859
-85.332
-88.532
-90.011
-89.351
-86.294
-80.783
-73.31
-64.992
-57.104
-50.702
-46.529
-45.214
-47.194
-52.405
-59.845
-66.715
-68.904
-62.962
-46.839
-20.845
12.975
54.354
104.91
168.042
246.947
339.848
441.065
542.13
633.987
710.513
765.412
791.203
779.341
721.238
614.617
463.678
279.806
79.662
-121.542
-306.657
-461.771
-578.897
-651.127
-681.359
-675.833
-638.875
-581.105
-510.514
-435.947
-371.598
-323.002
-291.098
-272.834
-257.798
-241.314
-223.672
-206.863
-196.19
-193.232
-196.051
-201.909
-207.167
-209.752
-209.069
-205.156
-198.722
-190.422
-180.818
-170.755
-161.031
-152.469
-145.939
-141.738
-139.759
-139.748
-141.276
-143.956
-147.496
-151.507
-155.519
-159.245
-162.546
-165.38
-167.811
-169.846
-171.42
-172.489
-173.06
-173.171
-172.876
-172.232
-171.26
-169.982
-168.432
-166.659
-164.728
-162.691
-160.577
-158.395
-156.157
-153.896
-151.664
-149.527
-147.519
-145.643
-143.891
-142.245
-140.693
-139.227
-137.826
-136.455
-135.085
-133.694
-132.271
-130.817
-129.321
-127.763
-126.116
-124.346
-122.43
-120.357
-118.119
-115.711
-113.128
-110.371
-107.447
-104.372
-101.157
-97.809
-94.334
-90.733
-87.013
-83.185
-79.259
-75.247
-71.161
-67.011
-62.81
-58.567
-54.294
-50.001
-45.693
-41.378
-37.06
-32.748
-28.449
-24.17
-19.92
-15.704
-11.531
-7.409
-3.345
0.656
4.588
8.445
12.221
15.913
19.514
23.022
26.43
29.734
32.929
36.01
38.973
41.814
44.527
47.109
49.555
51.862
54.024
56.037
57.898
59.602
61.143
62.517
63.719
64.746
65.591
66.251
66.722
67
67.083
66.967
66.652
66.133
65.412
64.487
63.358
62.026
60.493
58.761
56.834
54.716
52.413
49.929
47.273
44.452
41.473
38.347
35.082
31.69
28.182
24.569
20.865
17.081
13.232
9.332
5.396
1.438
-2.528
-6.485
-10.419
-14.316
-18.16
-21.939
-25.636
-29.24
-32.738
-36.116
-39.364
-42.47
-45.426
-48.221
-50.849
-53.302
-55.574
-57.661
-59.559
-61.266
-62.78
-64.099
-65.226
-66.162
-66.909
-67.471
-67.853
-68.062
-68.103
-67.986
-67.718
-67.31
-66.77
-66.11
-65.341
-64.474
-63.521
-62.495
-61.406
-60.268
-59.094
-57.894
-56.681
-55.467
-54.263
-53.079
-51.925
-50.811
-49.745
-48.735
-47.789
-46.913
-46.114
-45.395
-44.762
-44.216
-43.762
-43.399
-43.128
-42.949
-42.859
-42.856
-42.936
-43.095
-43.329
-43.631
-43.995
-44.415
-44.883
-45.392
-45.932
-46.496
-47.073
-47.657
-48.237
-48.805
-49.353
-49.874
-50.358
-50.801
-51.195
-51.534
-51.813
-52.026
-52.167
-52.233
-52.22
-52.124
-51.943
-51.676
-51.32
-50.878
-50.349
-49.736
-49.04
-48.265
-47.412
-46.488
-45.495
-44.44
-43.327
-42.163
-40.953
-39.706
-38.427
-37.124
-35.801
-34.466
-33.122
-31.775
-30.426
-29.077
-27.73
-26.386
-25.046
-23.711
-22.382
-21.059
-19.744
-18.438
-17.143
-15.856
-14.575
-13.295
-12.01
-10.713
-9.397
-8.053
-6.672
-5.242
-3.757
-2.214
-0.606
1.075
2.84
4.707
6.684
8.775
10.98
13.299
15.726
18.253
20.859
23.507
26.164
28.808
31.429
34.032
36.616
39.176
41.707
44.201
46.672
49.136
51.6
54.065
56.533
59.021
61.573
64.257
67.129
70.21
73.489
76.933
80.509
84.176
87.878
91.54
95.053
98.321
101.275
103.865
106.043
107.738
108.84
109.217
108.771
107.447
105.227
102.121
98.148
93.359
87.849
81.752
75.24
68.455
61.5
54.459
47.417
40.486
33.809
27.542
21.801
16.67
12.215
8.474
5.46
3.135
1.392
0.083
-0.945
-1.818
-2.637
-3.497
-4.504
-5.792
-7.48
-9.703
-12.606
-16.256
-20.67
-25.749
-31.17
-36.507
-41.282
-44.922
-46.85
-46.68
-44.136
-39.331
-32.986
-25.939
-19.195
-13.829
-10.564
-10.021
-12.69
-18.147
-24.891
-30.281
-30.412
-21.729
-2.057
28.453
68.195
116.136
172.366
240.806
325.026
425.242
539.195
656.739
765.449
853.428
906.834
917.848
881.95
797.8
671.595
510.185
323.052
122.575
-78.338
-262.986
-415.763
-525.023
-586.933
-606.442
-591.581
-553.465
-500.934
-440.911
-383.005
-333.929
-297.478
-274.132
-257.467
-240.143
-218.867
-193.109
-166.484
-144.169
-127.51
-115.864
-107.665
-100.521
-93.682
-87.432
-81.618
-76.018
-70.57
-65.137
-59.796
-54.801
-50.278
-46.327
-43.23
-41.4
-40.952
-41.773
-43.651
-46.236
-49.193
-52.204
-54.87
-56.757
-57.617
-57.375
-56.028
-53.666
-50.378
-46.239
-41.393
-36.018
-30.27
-24.274
-18.139
-11.95
-5.826
0.069
5.614
10.723
15.342
19.459
23.062
26.138
28.703
30.8
32.474
33.778
34.756
35.439
35.866
36.086
36.154
36.135
36.079
36.023
35.996
36.023
36.123
36.317
36.616
37.019
37.531
38.158
38.911
39.805
40.848
42.045
43.401
44.919
46.604
48.46
50.491
52.697
55.079
57.64
60.379
63.299
66.398
69.671
73.111
76.71
80.46
84.351
88.371
92.507
96.747
101.077
105.484
109.954
114.471
119.021
123.586
128.151
132.698
137.211
141.672
146.063
150.368
154.569
158.65
162.594
166.386
170.009
173.449
176.69
179.721
182.527
185.097
187.42
189.485
191.284
192.809
194.053
195.009
195.673
196.041
196.111
195.88
195.347
194.514
193.382
191.954
190.233
188.226
185.939
183.379
180.555
177.478
174.157
170.606
166.837
162.864
158.7
154.362
149.865
145.224
140.458
135.583
130.615
125.573
120.473
115.333
110.171
105.003
99.845
94.716
89.63
84.605
79.654
74.793
70.037
65.397
60.888
56.521
52.306
48.253
44.37
40.666
37.147
33.818
30.684
27.748
25.012
22.477
20.143
18.01
16.075
14.335
12.785
11.423
10.241
9.233
8.392
7.71
7.179
6.79
6.532
6.395
6.37
6.444
6.606
6.845
7.149
7.506
7.904
8.332
8.777
9.23
9.678
10.111
10.52
10.895
11.227
11.508
11.73
11.888
11.974
11.985
11.915
11.761
11.522
11.195
10.779
10.275
9.684
9.007
8.247
7.408
6.493
5.508
4.458
3.35
2.189
0.984
-0.259
-1.53
-2.822
-4.126
-5.435
-6.738
-8.028
-9.296
-10.535
-11.738
-12.896
-14.005
-15.057
-16.049
-16.974
-17.831
-18.615
-19.325
-19.959
-20.518
-21.002
-21.413
-21.752
-22.024
-22.233
-22.383
-22.48
-22.53
-22.54
-22.517
-22.468
-22.403
-22.329
-22.255
-22.189
-22.141
-22.12
-22.133
-22.189
-22.295
-22.458
-22.685
-22.981
-23.35
-23.797
-24.325
-24.934
-25.628
-26.404
-27.262
-28.2
-29.213
-30.296
-31.445
-32.65
-33.905
-35.2
-36.525
-37.87
-39.222
-40.571
-41.905
-43.21
-44.475
-45.685
-46.829
-47.894
-48.868
-49.738
-50.492
-51.12
-51.613
-51.962
-52.159
-52.199
-52.075
-51.784
-51.325
-50.696
-49.899
-48.937
-47.812
-46.532
-45.104
-43.539
-41.848
-40.044
-38.143
-36.164
-34.127
-32.052
-29.96
-27.875
-25.818
-23.814
-21.884
-20.048
-18.326
-16.74
-15.309
-14.057
-13.002
-12.162
-11.55
-11.182
-11.069
-11.221
-11.644
-12.337
-13.298
-14.53
-16.037
-17.834
-19.925
-22.304
-24.962
-27.888
-31.066
-34.476
-38.085
-41.845
-45.707
-49.625
-53.561
-57.491
-61.372
-65.155
-68.777
-72.162
-75.254
-78.021
-80.433
-82.469
-84.124
-85.402
-86.339
-87.025
-87.553
-88.015
-88.505
-89.1
-89.89
-91.008
-92.639
-94.924
-97.887
-101.443
-105.351
-109.34
-113.189
-116.586
-119.059
-120.252
-120.016
-118.46
-116.19
-113.932
-112.151
-111.434
-112.42
-115.288
-119.926
-125.932
-132.069
-136.604
-138.037
-133.822
-120.514
-96.741
-62.011
-17.274
33.426
89.244
151.883
222.094
301.978
389.363
477.374
560.386
631.784
684.677
712.922
707.014
657.563
560.771
418.21
240.758
46.715
-145.058
-314.973
-449.276
-543.264
-597.812
-620.215
-618.403
-597.028
-559.762
-510.718
-456.4
-404.378
-360.309
-324.708
-293.179
-262.106
-230.515
-200.388
-176.47
-161.289
-154.033
-152.956
-155.235
-158.199
-160.62
-161.502
-159.886
-155.68
-149.227
-140.782
-130.944
-120.593
-110.413
-101.26
-94.021
-88.916
-85.824
-84.57
-84.794
-86.173
-88.445
-91.172
-93.885
-96.347
-98.433
-100.105
-101.388
-102.214
-102.522
-102.329
-101.689
-100.673
-99.337
-97.706
-95.785
-93.598
-91.189
-88.618
-85.936
-83.173
-80.362
-77.54
-74.764
-72.118
-69.657
-67.399
-65.347
-63.486
-61.798
-60.276
-58.896
-57.627
-56.438
-55.302
-54.196
-53.111
-52.032
-50.932
-49.781
-48.537
-47.17
-45.665
-44.011
-42.201
-40.232
-38.103
-35.818
-33.394
-30.841
-28.167
-25.377
-22.471
-19.457
-16.344
-13.142
-9.863
-6.517
-3.114
0.336
3.821
7.331
10.858
14.394
17.933
21.47
24.997
28.504
31.985
35.432
38.837
42.194
45.494
48.731
51.901
54.997
58.016
60.955
63.809
66.575
69.252
71.835
74.323
76.712
78.999
81.182
83.257
85.222
87.074
88.809
90.424
91.916
93.281
94.517
95.619
96.584
97.408
98.087
98.617
98.993
99.214
99.273
99.169
98.898
98.457
97.844
97.057
96.093
94.95
93.629
92.128
90.447
88.587
86.55
84.337
81.952
79.398
76.68
73.804
70.777
67.604
64.295
60.858
57.303
53.639
49.879
46.033
42.114
38.134
34.108
30.048
25.968
21.883
17.806
13.753
9.735
5.768
1.865
-1.961
-5.698
-9.333
-12.855
-16.253
-19.516
-22.635
-25.602
-28.407
-31.045
-33.509
-35.794
-37.896
-39.812
-41.539
-43.076
-44.423
-45.582
-46.554
-47.342
-47.951
-48.386
-48.653
-48.759
-48.712
-48.522
-48.197
-47.749
-47.188
-46.525
-45.772
-44.941
-44.043
-43.092
-42.1
-41.078
-40.039
-38.996
-37.959
-36.941
-35.952
-35.003
-34.105
-33.268
-32.499
-31.81
-31.206
-30.696
-30.285
-29.981
-29.788
-29.709
-29.748
-29.908
-30.188
-30.589
-31.11
-31.749
-32.503
-33.368
-34.339
-35.411
-36.577
-37.83
-39.163
-40.568
-42.036
-43.558
-45.125
-46.729
-48.36
-50.009
-51.668
-53.328
-54.982
-56.621
-58.237
-59.824
-61.375
-62.882
-64.34
-65.742
-67.084
-68.361
-69.569
-70.705
-71.767
-72.753
-73.662
-74.496
-75.256
-75.943
-76.561
-77.114
-77.605
-78.042
-78.428
-78.772
-79.08
-79.359
-79.614
-79.853
-80.083
-80.307
-80.53
-80.754
-80.981
-81.213
-81.452
-81.698
-81.952
-82.213
-82.483
-82.763
-83.054
-83.355
-83.663
-83.973
-84.28
-84.579
-84.859
-85.112
-85.327
-85.489
-85.587
-85.611
-85.547
-85.379
-85.089
-84.652
-84.051
-83.275
-82.313
-81.16
-79.817
-78.289
-76.589
-74.746
-72.778
-70.707
-68.546
-66.301
-63.982
-61.599
-59.157
-56.667
-54.13
-51.525
-48.833
-46.028
-43.061
-39.891
-36.457
-32.679
-28.505
-23.89
-18.81
-13.265
-7.256
-0.8
6.06
13.276
20.784
28.486
36.278
44.034
51.59
58.797
65.49
71.488
76.653
80.863
84.01
86.032
86.871
86.509
84.963
82.263
78.437
73.546
67.68
60.991
53.702
46.038
38.2
30.373
22.726
15.474
8.764
2.677
-2.82
-7.925
-12.709
-17.054
-20.814
-23.844
-25.981
-27.157
-27.109
-25.254
-21.42
-15.884
-9.156
-2.102
4.523
10.207
14.067
14.974
12.373
6.266
-2.679
-13.132
-24.029
-34.542
-43.521
-49.83
-52.695
-51.862
-48.15
-42.984
-37.484
-32.532
-28.914
-27.245
-28.13
-31.753
-35.942
-36.893
-31.407
-16.45
7.07
34.384
64.5
98.211
140.605
203.286
290.326
399.936
525.641
650.615
762.376
851.842
908.703
929.517
908.702
841.018
728.858
575.909
393.253
197.434
4.249
-167.881
-306.007
-404.692
-463.852
-491.263
-494.374
-476.876
-441.629
-390.102
-327.675
-265.414
-212.258
-173.189
-147.473
-127.899
-109.757
-92.01
-76.083
-66.291
-64.077
-68.188
-76.322
-84.962
-91.858
-95.964
-96.932
-95.278
-91.573
-86.226
-79.895
-73.265
-67.072
-62.185
-58.916
-57.105
-56.483
-56.657
-57.299
-58.174
-58.927
-59.089
-58.367
-56.661
-54.005
-50.563
-46.45
-41.729
-36.53
-31.046
-25.509
-20.129
-15.016
-10.182
-5.619
-1.336
2.638
6.26
9.508
12.401
14.966
17.225
19.185
20.856
22.282
23.551
24.781
26.069
27.449
28.914
30.449
32.059
33.754
35.546
37.424
39.369
41.374
43.455
45.635
47.927
50.327
52.809
55.344
57.917
60.535
63.219
65.982
68.829
71.765
74.796
77.938
81.204
84.591
88.087
91.675
95.346
99.094
102.919
106.817
110.776
114.787
118.838
122.92
127.022
131.135
135.244
139.337
143.402
147.432
151.42
155.361
159.246
163.069
166.822
170.5
174.097
177.605
181.017
184.326
187.525
190.609
193.573
196.411
199.116
201.685
204.111
206.392
208.521
210.495
212.31
213.961
215.445
216.759
217.899
218.862
219.644
220.244
220.659
220.887
220.928
220.779
220.439
219.91
219.19
218.28
217.182
215.896
214.425
212.772
210.941
208.936
206.765
204.431
201.943
199.309
196.536
193.635
190.614
187.484
184.257
180.943
177.555
174.106
170.609
167.077
163.523
159.962
156.406
152.869
149.365
145.905
142.503
139.171
135.922
132.766
129.716
126.782
123.974
121.302
118.775
116.401
114.187
112.14
110.266
108.568
107.052
105.721
104.576
103.619
102.851
102.271
101.878
101.67
101.643
101.793
102.117
102.608
103.261
104.069
105.027
106.126
107.36
108.722
110.203
111.797
113.494
115.287
117.167
119.127
121.158
123.252
125.401
127.596
129.83
132.095
134.383
136.686
138.996
141.306
143.609
145.897
148.163
150.401
152.604
154.766
156.881
158.945
160.951
162.896
164.775
166.583
168.316
169.971
171.543
173.028
174.424
175.726
176.932
178.038
179.04
179.937
180.726
181.403
181.966
182.414
182.745
182.957
183.049
183.02
182.87
182.598
182.206
181.693
181.061
180.312
179.446
178.467
177.375
176.174
174.864
173.45
171.933
170.317
168.604
166.798
164.901
162.918
160.854
158.713
156.498
154.213
151.862
149.449
146.98
144.462
141.897
139.286
136.642
133.975
131.296
128.616
125.933
123.24
120.551
117.881
115.21
112.523
109.808
107.046
104.261
101.498
98.739
95.951
93.24
90.735
88.368
86.152
84.115
82.003
80.524
80.368
80.563
80.818
79.342
73.988
67.143
60.397
56.117
57.552
61.836
66.539
69.997
69.456
66.89
64.295
62.118
61.575
61.961
62.365
62.959
63.625
64.418
65.517
66.793
68.143
69.587
71.119
72.715
74.362
76.051
77.769
79.515
81.291
83.068
84.818
86.525
88.167
89.723
91.17
92.484
93.638
94.613
95.387
95.936
96.239
96.275
96.025
95.477
94.617
93.429
91.902
90.016
87.764
85.144
82.155
78.801
75.088
71.03
66.649
61.986
57.076
51.955
46.652
41.192
35.603
29.926
24.199
18.47
12.779
7.151
1.615
-3.792
-9.056
-14.168
-19.148
-24.065
-28.98
-33.949
-39.025
-44.238
-49.624
-55.254
-61.195
-67.529
-74.334
-81.629
-89.452
-97.894
-106.964
-116.625
-126.689
-136.697
-146.165
-154.69
-161.815
-167.092
-170.182
-170.772
-168.927
-165.394
-161.024
-156.601
-153.048
-151.112
-151.382
-154.611
-159.967
-164.469
-165.311
-159.577
-146.929
-130.788
-111.964
-88.534
-54.452
0.453
80.517
183.097
299.46
415.947
522.496
613.278
683.574
728.256
739.266
706.636
623.13
488.14
307.459
95.083
-127.474
-337.342
-511.917
-635.82
-708.204
-737.813
-739.88
-729.886
-713.711
-690.999
-659.081
-614.767
-560.552
-502.354
-445.619
-395.748
-355.669
-325.983
-306.696
-296.845
-294.681
-298.439
-306.483
-316.759
-327.36
-336.695
-343.238
-346.404
-346.499
-344.013
-339.578
-334.08
-328.314
-323.132
-319.499
-317.733
-317.653
-318.977
-321.233
-323.982
-326.9
-329.521
-331.342
-332.123
-331.804
-330.438
-328.212
-325.248
-321.626
-317.507
-313.064
-308.471
-303.908
-299.488
-295.278
-291.345
-287.75
-284.555
-281.821
-279.566
-277.786
-276.465
-275.58
-275.113
-275.047
-275.339
-275.934
-276.77
-277.775
-278.896
-280.089
-281.313
-282.533
-283.713
-284.822
-285.841
-286.759
-287.563
-288.239
-288.772
-289.143
-289.34
-289.359
-289.192
-288.836
-288.287
-287.539
-286.589
-285.437
-284.081
-282.52
-280.754
-278.782
-276.607
-274.234
-271.67
-268.925
-266.009
-262.932
-259.708
-256.348
-252.868
-249.281
-245.6
-241.839
-238.011
-234.131
-230.212
-226.267
-222.309
-218.351
-214.404
-210.48
-206.59
-202.743
-198.948
-195.214
-191.549
-187.959
-184.451
-181.029
-177.697
-174.461
-171.322
-168.285
-165.35
-162.519
-159.793
-157.174
-154.66
-152.253
-149.952
-147.757
-145.667
-143.682
-141.802
-140.026
-138.356
-136.792
-135.333
-133.981
-132.736
-131.6
-130.573
-129.657
-128.852
-128.16
-127.583
-127.121
-126.775
-126.548
-126.439
-126.45
-126.581
-126.834
-127.208
-127.703
-128.318
-129.054
-129.908
-130.878
-131.963
-133.16
-134.467
-135.878
-137.391
-139.001
-140.703
-142.491
-144.359
-146.301
-148.309
-150.376
-152.495
-154.657
-156.855
-159.08
-161.325
-163.58
-165.838
-168.09
-170.328
-172.545
-174.732
-176.882
-178.988
-181.043
-183.04
-184.974
-186.839
-188.632
-190.346
-191.979
-193.527
-194.988
-196.36
-197.642
-198.833
-199.932
-200.94
-201.86
-202.691
-203.438
-204.103
-204.688
-205.2
-205.64
-206.014
-206.327
-206.584
-206.789
-206.948
-207.066
-207.149
-207.201
-207.229
-207.236
-207.228
-207.21
-207.185
-207.157
-207.13
-207.106
-207.088
-207.078
-207.077
-207.087
-207.107
-207.138
-207.178
-207.228
-207.284
-207.343
-207.404
-207.462
-207.512
-207.551
-207.572
-207.57
-207.54
-207.476
-207.369
-207.215
-207.005
-206.734
-206.392
-205.974
-205.471
-204.876
-204.183
-203.384
-202.473
-201.444
-200.291
-199.008
-197.592
-196.037
-194.34
-192.497
-190.505
-188.363
-186.069
-183.622
-181.022
-178.269
-175.366
-172.313
-169.114
-165.772
-162.29
-158.672
-154.923
-151.048
-147.052
-142.942
-138.724
-134.404
-129.991
-125.491
-120.913
-116.264
-111.552
-106.785
-101.971
-97.117
-92.23
-87.318
-82.388
-77.445
-72.497
-67.55
-62.609
-57.679
-52.764
-47.869
-42.997
-38.15
-33.332
-28.543
-23.785
-19.059
-14.366
-9.707
-5.082
-0.492
4.065
8.588
13.077
17.534
21.959
26.355
30.722
35.061
39.375
43.663
47.927
52.166
56.382
60.574
64.741
68.882
72.996
77.08
81.133
85.151
89.13
93.065
96.95
100.78
104.546
108.239
111.849
115.365
118.779
122.079
125.254
128.295
131.192
133.937
136.523
138.944
141.192
143.257
145.132
146.808
148.28
149.543
150.592
151.422
152.033
152.433
152.626
152.618
152.409
151.992
151.366
150.534
149.5
148.27
146.858
145.278
143.56
141.744
139.87
137.973
136.084
134.217
132.397
130.654
129.018
127.532
126.228
125.118
124.231
123.583
123.157
122.926
122.822
122.737
122.602
122.345
121.87
121.107
119.947
118.263
115.988
113.028
109.254
104.626
99.137
92.888
86.258
79.695
73.593
68.449
64.763
62.853
62.916
64.77
67.622
70.475
72.482
72.905
70.905
65.849
57.689
46.976
36.073
28.876
27.661
33.903
48.405
69.585
99.69
143.24
202.138
279.09
370.294
466.421
561.064
646.075
716.937
771.956
803.784
805.98
770.414
689.422
564.338
399.83
207.584
5.516
-188.647
-356.008
-483.345
-564.396
-600.309
-597.797
-562.804
-504.394
-430.23
-348.996
-273.984
-211.428
-163.287
-126.479
-91.099
-52.93
-12.537
26.708
57.924
78.729
90.466
95.286
96.914
97.258
97.022
97.514
99.319
102.763
108.187
115.34
123.931
134.127
145.53
157.199
168.376
178.207
186.197
192.41
196.733
198.849
198.849
197.143
194.304
191.215
188.455
186.19
184.649
184.055
184.48
185.936
188.252
191.044
194.068
197.233
200.45
203.675
206.855
209.886
212.716
215.339
217.704
219.771
221.506
222.868
223.858
224.501
224.825
224.879
224.714
224.372
223.894
223.316
222.666
221.982
221.302
220.669
220.135
219.737
219.504
219.461
219.625
220.006
220.611
221.435
222.47
223.709
225.151
226.796
228.647
230.704
232.962
235.416
238.058
240.881
243.88
247.044
250.364
253.833
257.44
261.18
265.047
269.034
273.131
277.328
281.614
285.979
290.412
294.901
299.436
304.003
308.592
313.193
317.795
322.39
326.966
331.514
336.024
340.487
344.892
349.229
353.489
357.661
361.734
365.7
369.548
373.268
376.851
380.287
383.567
386.683
389.624
392.382
394.948
397.312
399.467
401.403
403.113
404.587
405.819
406.801
407.526
407.987
408.18
408.097
407.734
407.086
406.148
404.919
403.394
401.572
399.452
397.034
394.32
391.312
388.011
384.423
380.551
376.402
371.98
367.294
362.352
357.162
351.733
346.077
340.203
334.126
327.856
321.407
314.794
308.03
301.131
294.112
286.988
279.776
272.492
265.152
257.773
250.372
242.964
235.568
228.198
220.87
213.601
206.405
199.297
192.291
185.4
178.637
172.014
165.543
159.234
153.098
147.143
141.378
135.81
130.446
125.29
120.348
115.622
111.114
106.826
102.758
98.91
95.278
91.86
88.651
85.648
82.842
80.228
77.797
75.54
73.447
71.509
69.715
68.052
66.51
65.076
63.737
62.48
61.294
60.164
59.077
58.021
56.982
55.948
54.906
53.843
52.749
51.612
50.421
49.165
47.835
46.422
44.918
43.316
41.609
39.793
37.863
35.817
33.653
31.369
28.967
26.447
23.813
21.068
18.216
15.263
12.215
9.078
5.86
2.57
-0.785
-4.197
-7.655
-11.152
-14.678
-18.223
-21.779
-25.336
-28.884
-32.413
-35.914
-39.376
-42.79
-46.148
-49.439
-52.657
-55.792
-58.839
-61.791
-64.642
-67.389
-70.027
-72.554
-74.969
-77.27
-79.457
-81.531
-83.495
-85.351
-87.1
-88.747
-90.294
-91.745
-93.102
-94.366
-95.54
-96.624
-97.619
-98.528
-99.35
-100.089
-100.745
-101.323
-101.826
-102.259
-102.623
-102.921
-103.153
-103.32
-103.42
-103.452
-103.41
-103.291
-103.088
-102.796
-102.411
-101.927
-101.338
-100.632
-99.796
-98.819
-97.697
-96.428
-95.013
-93.461
-91.78
-89.991
-88.12
-86.197
-84.248
-82.292
-80.344
-78.414
-76.508
-74.635
-72.805
-71.015
-69.251
-67.486
-65.688
-63.821
-61.851
-59.727
-57.383
-54.761
-51.814
-48.512
-44.849
-40.835
-36.496
-31.873
-27.015
-21.999
-16.931
-11.936
-7.155
-2.721
1.245
4.608
7.218
8.938
9.647
9.25
7.693
4.948
1.011
-4.092
-10.309
-17.54
-25.641
-34.438
-43.736
-53.355
-63.14
-72.924
-82.531
-91.791
-100.542
-108.652
-116.024
-122.585
-128.277
-133.08
-137.02
-140.179
-142.7
-144.749
-146.499
-148.108
-149.729
-151.521
-153.653
-156.294
-159.574
-163.631
-168.617
-174.579
-181.485
-189.167
-197.221
-205.181
-212.586
-218.859
-223.402
-225.863
-226.038
-224.08
-220.72
-216.701
-212.76
-209.739
-208.184
-208.318
-210.246
-213.372
-216.093
-215.919
-209.316
-192.785
-164.508
-125.741
-79.383
-27.967
28.432
95.093
177.053
275.777
388.049
501.425
603.117
682.819
730.603
743.781
718.557
649.528
537.159
381.424
189.753
-20.637
-231.161
-418.671
-564.165
-660.639
-710.389
-725.025
-718.411
-698.059
-664.627
-616.269
-553.216
-482.258
-414.751
-359.386
-319.358
-291.285
-269.368
-250.301
-234.018
-223.224
-219.624
-222.652
-229.841
-237.469
-242.98
-245.065
-243.422
-238.77
-231.827
-223.185
-213.789
-204.584
-196.523
-190.659
-187.402
-186.653
-188.163
-191.468
-196.101
-201.68
-207.681
-213.483
-218.69
-223.055
-226.471
-229.001
-230.672
-231.486
-231.505
-230.811
-229.496
-227.664
-225.39
-222.725
-219.723
-216.439
-212.954
-209.382
-205.831
-202.409
-199.191
-196.21
-193.49
-191.051
-188.892
-186.992
-185.307
-183.78
-182.359
-181.014
-179.727
-178.461
-177.169
-175.829
-174.416
-172.895
-171.253
-169.449
-167.424
-165.181
-162.749
-160.023
-156.89
-153.432
-149.649
-145.522
-141.309
-136.328
-129.916
-123.034
-115.98
-110.513
-108.738
-108.349
-107.813
-104.844
-96.296
-84.979
-73.275
-62.82
-56.313
-51.851
-47.511
-42.879
-36.789
-29.947
-23.259
-16.574
-10.026
-3.571
2.95
9.405
15.683
21.8
27.747
33.499
39.044
44.377
49.487
54.381
59.068
63.527
67.742
71.705
75.407
78.842
82.002
84.881
87.469
89.764
91.764
93.466
94.868
95.97
96.771
97.273
97.476
97.383
96.997
96.322
95.362
94.122
92.606
90.823
88.778
86.478
83.934
81.152
78.144
74.92
71.492
67.872
64.073
60.11
55.998
51.753
47.39
42.927
38.382
33.773
29.117
24.433
19.741
15.058
10.402
5.793
1.248
-3.216
-7.58
-11.829
-15.946
-19.916
-23.724
-27.355
-30.798
-34.039
-37.068
-39.874
-42.45
-44.787
-46.879
-48.721
-50.31
-51.644
-52.721
-53.543
-54.112
-54.431
-54.506
-54.344
-53.951
-53.339
-52.517
-51.496
-50.29
-48.912
-47.376
-45.698
-43.893
-41.976
-39.965
-37.876
-35.725
-33.531
-31.309
-29.077
-26.851
-24.646
-22.479
-20.365
-18.318
-16.353
-14.481
-12.717
-11.07
-9.552
-8.173
-6.942
-5.865
-4.951
-4.203
-3.628
-3.226
-3.001
-2.953
-3.081
-3.383
-3.857
-4.499
-5.305
-6.269
-7.386
-8.647
-10.046
-11.575
-13.225
-14.987
-16.851
-18.807
-20.846
-22.958
-25.132
-27.359
-29.628
-31.928
-34.251
-36.585
-38.92
-41.247
-43.555
-45.834
-48.076
-50.272
-52.413
-54.493
-56.505
-58.442
-60.301
-62.075
-63.762
-65.358
-66.86
-68.266
-69.573
-70.781
-71.889
-72.896
-73.803
-74.61
-75.32
-75.933
-76.451
-76.877
-77.211
-77.458
-77.618
-77.695
-77.693
-77.613
-77.461
-77.24
-76.955
-76.61
-76.21
-75.757
-75.255
-74.707
-74.115
-73.479
-72.798
-72.073
-71.303
-70.487
-69.624
-68.714
-67.755
-66.748
-65.692
-64.587
-63.431
-62.219
-60.947
-59.606
-58.193
-56.7
-55.119
-53.44
-51.656
-49.761
-47.753
-45.629
-43.383
-41.004
-38.478
-35.798
-32.962
-29.972
-26.83
-23.54
-20.114
-16.574
-12.956
-9.295
-5.614
-1.921
1.785
5.505
9.236
12.972
16.709
20.459
24.236
28.048
31.895
35.777
39.71
43.735
47.921
52.323
56.964
61.835
66.901
72.129
77.474
82.875
88.248
93.478
98.458
103.105
107.36
111.164
114.442
117.083
118.945
119.914
119.916
118.919
116.919
113.918
109.948
105.082
99.448
93.227
86.575
79.619
72.455
65.168
57.865
50.681
43.771
37.267
31.268
25.845
21.052
16.938
13.512
10.728
8.454
6.495
4.675
2.849
0.919
-1.2
-3.619
-6.454
-9.842
-13.89
-18.657
-24.206
-30.622
-37.936
-46.076
-54.793
-63.569
-71.769
-78.835
-84.22
-87.397
-87.962
-85.699
-80.847
-74.177
-66.757
-59.546
-53.194
-48.389
-45.771
-45.532
-47.054
-47.927
-44.163
-32.32
-10.64
19.579
55.31
95.273
141.11
199.534
277.025
375.172
490.523
609.928
719.06
806.738
862.168
882.111
863.354
800.868
695.229
546.823
362.915
160.215
-43.125
-224.848
-367.446
-464.789
-518.328
-538.256
-535.318
-514.102
-476.758
-423.989
-360.075
-295.979
-241.292
-201.251
-175.206
-155.758
-137.699
-119.793
-103.481
-92.984
-89.675
-92.071
-97.551
-102.509
-104.743
-103.369
-98.255
-90.097
-79.666
-67.66
-55.009
-42.623
-31.394
-22.254
-15.615
-11.433
-9.487
-9.372
-10.667
-13.018
-16.014
-19.177
-22.176
-24.819
-26.983
-28.628
-29.733
-30.259
-30.211
-29.641
-28.596
-27.126
-25.288
-23.128
-20.699
-18.067
-15.288
-12.42
-9.546
-6.744
-4.099
-1.707
0.372
2.098
3.442
4.402
4.991
5.226
5.142
4.784
4.189
3.391
2.426
1.32
0.112
-1.157
-2.438
-3.679
-4.833
-5.867
-6.749
-7.453
-7.963
-8.261
-8.339
-8.196
-7.825
-7.219
-6.37
-5.268
-3.905
-2.277
-0.382
1.78
4.207
6.899
9.852
13.062
16.525
20.233
24.183
28.368
32.781
37.413
42.25
47.28
52.488
57.859
63.377
69.023
74.779
80.627
86.549
92.527
98.541
104.571
110.6
116.605
122.569
128.47
134.289
140.005
145.599
151.05
156.339
161.446
166.352
171.04
175.491
179.689
183.617
187.26
190.604
193.635
196.34
198.708
200.729
202.392
203.69
204.617
205.167
205.337
205.124
204.528
203.548
202.187
200.449
198.337
195.858
193.021
189.834
186.309
182.458
178.296
173.837
169.099
164.099
158.858
153.395
147.732
141.891
135.894
129.767
123.533
117.216
110.841
104.433
98.017
91.618
85.26
78.966
72.76
66.664
60.699
54.886
49.243
43.79
38.541
33.513
28.719
24.171
19.881
15.856
12.106
8.634
5.446
2.542
-0.076
-2.41
-4.464
-6.241
-7.748
-8.994
-9.987
-10.738
-11.259
-11.562
-11.662
-11.573
-11.31
-10.889
-10.327
-9.639
-8.843
-7.955
-6.991
-5.966
-4.897
-3.797
-2.681
-1.563
-0.456
0.63
1.682
2.691
3.647
4.543
5.371
6.126
6.802
7.398
7.91
8.338
8.682
8.943
9.125
9.229
9.261
9.225
9.128
8.975
8.774
8.532
8.257
7.956
7.637
7.309
6.979
6.654
6.341
6.046
5.777
5.537
5.333
5.169
5.049
4.976
4.955
4.986
5.072
5.213
5.408
5.658
5.959
6.308
6.702
7.134
7.601
8.096
8.612
9.144
9.683
10.223
10.754
11.271
11.763
12.224
12.645
13.017
13.332
13.585
13.769
13.877
13.904
13.844
13.694
13.45
13.107
12.662
12.112
11.455
10.69
9.818
8.84
7.757
6.576
5.3
3.938
2.499
0.99
-0.579
-2.199
-3.86
-5.552
-7.265
-8.99
-10.717
-12.435
-14.128
-15.783
-17.382
-18.913
-20.358
-21.702
-22.927
-24.016
-24.956
-25.739
-26.353
-26.786
-27.019
-27.034
-26.816
-26.358
-25.658
-24.714
-23.526
-22.103
-20.465
-18.644
-16.674
-14.576
-12.355
-10.01
-7.54
-4.949
-2.243
0.573
3.509
6.579
9.788
13.134
16.617
20.251
24.073
28.147
32.52
37.211
42.206
47.466
52.956
58.623
64.406
70.221
75.954
81.498
86.772
91.709
96.247
100.308
103.784
106.545
108.484
109.528
109.64
108.817
107.059
104.393
100.883
96.633
91.787
86.484
80.833
74.924
68.843
62.689
56.578
50.636
44.965
39.647
34.762
30.386
26.582
23.378
20.75
18.6
16.823
15.366
14.101
12.824
11.344
9.424
6.95
4.023
0.63
-3.417
-8.121
-13.295
-18.669
-23.713
-28.14
-32.139
-35.643
-38.278
-39.85
-40.333
-39.922
-39.357
-39.213
-39.483
-40.364
-42.229
-45.409
-50.234
-56.742
-64.398
-71.403
-75.035
-72.912
-62.543
-44.53
-23.099
0.556
26.882
61.073
115.035
193.713
296.095
415.379
534.516
641.648
729.161
788.635
817.949
810.224
755.882
652.844
500.911
310.204
101.135
-105.769
-287.862
-429.685
-527.197
-582.828
-605.982
-605.384
-585.606
-549.864
-501.359
-446.755
-394.49
-350.797
-317.01
-289.224
-263.253
-237.606
-213.955
-196.359
-186.856
-184.519
-187.189
-191.57
-195.233
-197.086
-196.242
-192.571
-186.538
-178.66
-169.573
-160.104
-150.995
-143.014
-137.042
-133.465
-132.173
-132.894
-135.181
-138.542
-142.587
-146.827
-150.643
-153.652
-155.666
-156.598
-156.522
-155.497
-153.519
-150.658
-147.023
-142.713
-137.848
-132.524
-126.8
-120.774
-114.562
-108.289
-102.116
-96.161
-90.494
-85.171
-80.215
-75.64
-71.462
-67.672
-64.236
-61.122
-58.292
-55.713
-53.361
-51.197
-49.173
-47.239
-45.332
-43.406
-41.429
-39.369
-37.21
-34.939
-32.546
-30.031
-27.395
-24.621
-21.696
-18.611
-15.349
-11.9
