Name,Criss Capps
Date of Birth,"Feb 5, 1952"
Recorded Date,2021-08-18 14:27:46 -0400
Classification,Sinus Rhythm
Symptoms,
Software Version,1.90
Device,"Watch5,4"
Sample Rate,512.844 hertz


Lead,Lead I
Unit,µV

-71.704
-86.172
-98.976
-109.522
-117.224
-121.491
-121.915
-118.367
-111.238
-101.603
-90.731
-79.767
-69.787
-61.677
-55.943
-52.615
-50.694
-47.995
-41.942
-29.577
-7.814
25.868
73.883
137.004
212.786
297.69
387.488
479.164
573.657
670.564
764.585
844.943
894.567
898.631
851.554
757.533
628.637
477.285
314.4
149.425
-6.791
-138.79
-236.208
-295.763
-322.619
-330.915
-329.973
-322.859
-308.688
-282.938
-245.736
-201.602
-155.892
-114.349
-80.562
-56.066
-41.417
-35.895
-38.303
-47.063
-60.068
-75.431
-90.946
-104.271
-114.08
-119.806
-121.421
-119.54
-114.998
-108.589
-101.504
-95.097
-90.103
-86.848
-85.343
-85.225
-86.128
-87.717
-89.506
-90.97
-91.827
-91.971
-91.414
-90.3
-88.729
-86.766
-84.509
-82.065
-79.51
-76.895
-74.264
-71.642
-69.085
-66.673
-64.459
-62.487
-60.781
-59.347
-58.188
-57.305
-56.685
-56.311
-56.17
-56.253
-56.553
-57.062
-57.763
-58.633
-59.647
-60.775
-61.991
-63.265
-64.571
-65.886
-67.189
-68.46
-69.681
-70.835
-71.902
-72.859
-73.685
-74.358
-74.856
-75.162
-75.255
-75.119
-74.741
-74.108
-73.211
-72.042
-70.595
-68.864
-66.848
-64.545
-61.958
-59.089
-55.944
-52.531
-48.86
-44.944
-40.797
-36.437
-31.88
-27.147
-22.259
-17.238
-12.109
-6.895
-1.622
3.686
9
14.297
19.547
24.726
29.806
34.762
39.57
44.204
48.641
52.861
56.843
60.569
64.022
67.186
70.048
72.598
74.825
76.723
78.286
79.511
80.397
80.945
81.16
81.047
80.613
79.87
78.827
77.499
75.901
74.048
71.959
69.653
67.149
64.468
61.632
58.663
55.583
52.414
49.181
45.904
42.606
39.308
36.032
32.796
29.619
26.521
23.516
20.62
17.848
15.211
12.721
10.386
8.214
6.212
4.383
2.729
1.251
-0.052
-1.182
-2.145
-2.945
-3.59
-4.088
-4.449
-4.681
-4.798
-4.809
-4.728
-4.566
-4.338
-4.054
-3.728
-3.373
-2.999
-2.618
-2.24
-1.874
-1.53
-1.214
-0.933
-0.693
-0.498
-0.352
-0.257
-0.215
-0.225
-0.285
-0.394
-0.546
-0.737
-0.959
-1.206
-1.467
-1.733
-1.994
-2.24
-2.457
-2.635
-2.762
-2.823
-2.808
-2.705
-2.5
-2.184
-1.744
-1.172
-0.46
0.399
1.411
2.581
3.911
5.404
7.059
8.876
10.853
12.986
15.27
17.698
20.26
22.948
25.749
28.649
31.631
34.675
37.763
40.874
43.987
47.078
50.126
53.106
55.999
58.785
61.442
63.95
66.287
68.431
70.362
72.063
73.518
74.712
75.632
76.27
76.624
76.694
76.479
75.975
75.168
74.049
72.619
70.879
68.837
66.509
63.916
61.091
58.086
54.956
51.75
48.518
45.29
42.103
39.007
36.054
33.315
30.853
28.706
26.916
25.516
24.502
23.853
23.511
23.365
23.324
23.304
23.201
22.927
22.378
21.436
20.017
17.995
15.203
11.564
7.086
1.935
-3.483
-8.717
-13.332
-16.766
-18.398
-17.756
-14.617
-9.333
-2.821
3.877
9.76
13.918
15.465
13.683
8.523
1.204
-6.029
-10.43
-8.808
1.961
24.974
63.696
119.519
190.189
272.522
362.46
457.677
560.796
671.716
783.739
883.582
950.28
966.068
925.078
832.71
703.011
550.006
384.455
214.97
52.82
-84.518
-184.117
-240.488
-259.092
-257.205
-246.982
-233.762
-217.811
-193.478
-160.246
-122.552
-85.035
-53.376
-30.964
-18.305
-15.006
-19.6
-30.089
-44.526
-61.281
-78.902
-95.559
-109.587
-120.115
-126.914
-130.424
-131.477
-130.705
-128.709
-126.47
-125.004
-124.924
-126.473
-129.509
-133.644
-138.551
-143.931
-149.38
-154.467
-158.917
-162.614
-165.566
-167.878
-169.636
-170.893
-171.715
-172.185
-172.357
-172.268
-171.955
-171.44
-170.771
-170.02
-169.234
-168.451
-167.697
-166.984
-166.317
-165.703
-165.129
-164.579
-164.047
-163.527
-163.018
-162.519
-162.022
-161.514
-160.983
-160.414
-159.795
-159.113
-158.359
-157.523
-156.602
-155.593
-154.496
-153.312
-152.038
-150.673
-149.214
-147.657
-146
-144.244
-142.388
-140.431
-138.376
-136.228
-133.991
-131.67
-129.273
-126.805
-124.273
-121.685
-119.051
-116.378
-113.676
-110.956
-108.228
-105.503
-102.792
-100.108
-97.463
-94.867
-92.334
-89.876
-87.505
-85.231
-83.067
-81.023
-79.11
-77.338
-75.717
-74.256
-72.962
-71.843
-70.907
-70.159
-69.603
-69.245
-69.085
-69.127
-69.371
-69.816
-70.462
-71.306
-72.345
-73.575
-74.992
-76.591
-78.364
-80.305
-82.408
-84.663
-87.062
-89.596
-92.256
-95.032
-97.913
-100.888
-103.947
-107.079
-110.272
-113.515
-116.797
-120.107
-123.434
-126.767
-130.096
-133.41
-136.699
-139.954
-143.165
-146.325
-149.425
-152.459
-155.421
-158.306
-161.11
-163.83
-166.462
-169.006
-171.458
-173.819
-176.086
-178.259
-180.34
-182.328
-184.224
-186.031
-187.751
-189.388
-190.944
-192.425
-193.833
-195.173
-196.448
-197.665
-198.827
-199.938
-201.005
-202.031
-203.021
-203.982
-204.916
-205.828
-206.718
-207.59
-208.444
-209.278
-210.089
-210.874
-211.628
-212.348
-213.028
-213.666
-214.257
-214.797
-215.283
-215.712
-216.082
-216.387
-216.619
-216.77
-216.828
-216.786
-216.633
-216.356
-215.943
-215.382
-214.665
-213.788
-212.744
-211.524
-210.115
-208.501
-206.67
-204.624
-202.363
-199.891
-197.218
-194.359
-191.342
-188.212
-185.011
-181.766
-178.49
-175.181
-171.841
-168.476
-165.09
-161.691
-158.268
-154.803
-151.289
-147.729
-144.118
-140.439
-136.645
-132.658
-128.419
-123.899
-119.108
-114.081
-108.857
-103.485
-98.032
-92.582
-87.257
-82.167
-77.398
-73.012
-69.067
-65.636
-62.833
-60.804
-59.668
-59.508
-60.36
-62.224
-65.095
-68.937
-73.674
-79.183
-85.285
-91.809
-98.622
-105.612
-112.68
-119.722
-126.587
-133.101
-139.117
-144.5
-149.156
-153.024
-156.037
-158.172
-159.469
-160.018
-159.973
-159.498
-158.719
-157.762
-156.758
-155.838
-155.164
-154.88
-155.139
-156.143
-157.999
-160.701
-164.136
-167.969
-171.797
-175.272
-177.917
-179.146
-178.597
-176.105
-171.936
-166.933
-161.985
-157.829
-155.158
-154.582
-156.443
-160.67
-166.246
-171.113
-172.702
-168.379
-155.84
-132.72
-96.73
-46.33
19.179
97.836
184.568
274.327
362.005
444.751
524.516
600.502
668.083
718.702
735.832
706.367
625.862
496.131
331.151
149.871
-29.557
-186.774
-306.485
-380.633
-408.813
-400.775
-370.951
-333.043
-295.43
-260.033
-225.09
-188.56
-151.55
-117.595
-91.139
-75.462
-70.48
-74.388
-84.717
-98.444
-113.619
-128.543
-140.876
-149.327
-153.53
-153.453
-149.914
-144.055
-136.626
-128.635
-121.408
-115.629
-111.605
-109.437
-108.731
-109.067
-110.134
-111.443
-112.472
-112.955
-112.748
-111.823
-110.302
-108.25
-105.709
-102.778
-99.542
-96.062
-92.385
-88.527
-84.506
-80.37
-76.187
-72.033
-67.966
-64.018
-60.213
-56.564
-53.082
-49.776
-46.637
-43.652
-40.813
-38.116
-35.557
-33.134
-30.837
-28.645
-26.543
-24.509
-22.524
-20.575
-18.646
-16.726
-14.804
-12.871
-10.92
-8.946
-6.939
-4.89
-2.79
-0.628
1.602
3.91
6.3
8.778
11.349
14.013
16.773
19.627
22.575
25.614
28.742
31.954
35.244
38.605
42.03
45.508
49.03
52.583
56.155
59.732
63.3
66.845
70.35
73.8
77.179
80.471
83.66
86.73
89.665
92.45
95.069
97.508
99.753
101.791
103.61
105.198
106.546
107.644
108.485
109.062
109.371
109.407
109.167
108.652
107.861
106.797
105.462
103.861
102.002
99.891
97.539
94.956
92.155
89.147
85.949
82.574
79.04
75.364
71.564
67.658
63.665
59.605
55.497
51.363
47.221
43.091
38.994
34.948
30.972
27.086
23.307
19.652
16.137
12.78
9.593
6.592
3.788
1.192
-1.186
-3.337
-5.254
-6.933
-8.369
-9.56
-10.505
-11.205
-11.662
-11.88
-11.863
-11.62
-11.156
-10.482
-9.608
-8.545
-7.305
-5.9
-4.345
-2.653
-0.84
1.081
3.094
5.183
7.333
9.528
11.753
13.994
16.235
18.462
20.662
22.823
24.931
26.978
28.952
30.845
32.649
34.358
35.968
37.473
38.872
40.164
41.35
42.43
43.409
44.292
45.082
45.788
46.417
46.976
47.476
47.925
48.334
48.713
49.075
49.429
49.788
50.162
50.565
51.006
51.496
52.044
52.661
53.354
54.132
55.001
55.966
57.031
58.198
59.47
60.846
62.323
63.898
65.565
67.317
69.145
71.036
72.976
74.95
76.939
78.928
80.896
82.823
84.689
86.475
88.164
89.735
91.169
92.446
93.543
94.441
95.121
95.567
95.763
95.691
95.339
94.703
93.778
92.559
91.039
89.203
87.038
84.542
81.716
78.563
75.096
71.331
67.292
63.026
58.579
53.996
49.324
44.59
39.829
35.09
30.429
25.915
21.617
17.574
13.825
10.412
7.345
4.617
2.188
-0.028
-2.11
-4.122
-6.143
-8.246
-10.521
-13.09
-16.048
-19.509
-23.633
-28.489
-34.072
-40.266
-46.728
-53.033
-58.781
-63.502
-66.684
-67.961
-67.141
-64.474
-60.755
-56.946
-53.983
-52.493
-52.933
-55.899
-61.484
-68.679
-75.736
-79.076
-75.026
-62.314
-38.812
-4.417
40.309
98.099
167.388
247.477
338.135
434.962
538.278
642.77
736.926
807.935
836.632
815.035
746.63
641.824
518.303
383.279
239.727
91.417
-55.18
-181.154
-271.387
-319.797
-330.44
-320.951
-304.263
-285.961
-267.17
-242.416
-210.473
-175.248
-140.623
-111.664
-91.71
-80.759
-77.88
-81.741
-90.512
-102.367
-115.956
-129.68
-141.492
-150.317
-155.815
-157.894
-157.178
-154.512
-150.439
-145.85
-141.967
-139.423
-138.491
-139.256
-141.359
-144.427
-148.203
-152.238
-156.014
-159.263
-161.838
-163.704
-164.982
-165.739
-166.011
-165.888
-165.458
-164.778
-163.902
-162.853
-161.648
-160.334
-158.981
-157.656
-156.414
-155.286
-154.288
-153.428
-152.712
-152.138
-151.695
-151.366
-151.14
-151.011
-150.972
-151.018
-151.137
-151.31
-151.519
-151.747
-151.972
-152.182
-152.364
-152.507
-152.603
-152.645
-152.628
-152.549
-152.4
-152.173
-151.863
-151.46
-150.959
-150.353
-149.638
-148.81
-147.865
-146.803
-145.623
-144.324
-142.909
-141.377
-139.733
-137.978
-136.118
-134.159
-132.105
-129.966
-127.748
-125.463
-123.118
-120.727
-118.299
-115.847
-113.383
-110.92
-108.472
-106.052
-103.674
-101.35
-99.096
-96.924
-94.848
-92.881
-91.036
-89.326
-87.764
-86.361
-85.13
-84.08
-83.223
-82.567
-82.123
-81.898
-81.9
-82.135
-82.608
-83.325
-84.289
-85.502
-86.965
-88.679
-90.643
-92.854
-95.31
-98.005
-100.934
-104.092
-107.469
-111.059
-114.851
-118.835
-123
-127.334
-131.824
-136.458
-141.22
-146.098
-151.075
-156.137
-161.266
-166.446
-171.661
-176.893
-182.125
-187.34
-192.518
-197.644
-202.7
-207.669
-212.534
-217.28
-221.89
-226.351
-230.647
-234.766
-238.696
-242.423
-245.939
-249.233
-252.295
-255.12
-257.698
-260.026
-262.097
-263.908
-265.457
-266.74
-267.756
-268.506
-268.989
-269.208
-269.165
-268.862
-268.303
-267.493
-266.438
-265.144
-263.616
-261.862
-259.889
-257.705
-255.317
-252.732
-249.959
-247.005
-243.878
-240.584
-237.131
-233.526
-229.774
-225.882
-221.855
-217.698
-213.415
-209.011
-204.486
-199.846
-195.091
-190.224
-185.246
-180.159
-174.963
-169.66
-164.248
-158.73
-153.103
-147.369
-141.527
-135.576
-129.516
-123.349
-117.074
-110.693
-104.208
-97.621
-90.936
-84.157
-77.29
-70.34
-63.315
-56.222
-49.072
-41.875
-34.643
-27.39
-20.131
-12.883
-5.667
1.498
8.591
15.591
22.475
29.22
35.804
42.207
48.409
54.388
60.125
65.597
70.781
75.658
80.208
84.415
88.263
91.736
94.824
97.526
99.838
101.758
103.281
104.393
105.082
105.351
105.2
104.637
103.68
102.349
100.674
98.71
96.504
94.105
91.561
88.901
86.162
83.394
80.65
78.005
75.528
73.261
71.252
69.54
68.126
67.002
66.122
65.396
64.758
64.142
63.462
62.655
61.629
60.277
58.53
56.259
53.289
49.554
45.06
39.978
34.741
29.801
25.561
22.563
21.372
22.368
25.739
31.084
37.377
43.554
48.66
51.845
52.404
49.875
44.279
36.811
29.878
26.327
29.067
40.927
64.675
102.847
157.614
228.513
311.606
402.359
495.693
588.881
683.84
779.751
870.534
945.503
986.787
978.729
917.058
805.198
654.937
484.376
308.001
139.64
-4.606
-114.528
-185.279
-217.489
-222.041
-211.487
-192.724
-169.71
-141.909
-106.534
-65.638
-23.612
15.277
46.068
66.449
76.981
78.896
74.075
64.739
52.793
39.927
28.164
19.271
13.992
12.443
14.273
18.666
24.784
31.882
38.907
44.798
49.045
51.485
52.229
51.66
50.144
48
45.684
43.655
42.156
41.294
41.057
41.334
42.056
43.174
44.603
46.258
48.075
50.004
52.017
54.088
56.167
58.187
60.087
61.817
63.352
64.68
65.796
66.703
67.408
67.93
68.287
68.497
68.573
68.53
68.382
68.15
67.856
67.525
67.181
66.848
66.545
66.29
66.098
65.981
65.952
66.019
66.191
66.479
66.894
67.444
68.139
68.988
69.996
71.17
72.514
74.028
75.714
77.569
79.591
81.774
84.114
86.601
89.228
91.984
94.856
97.834
100.901
104.044
107.246
110.49
113.759
117.035
120.299
123.532
126.714
129.828
132.854
135.773
138.568
141.221
143.715
146.034
148.163
150.086
151.79
153.262
154.49
155.463
156.172
156.611
156.773
156.654
156.252
155.565
154.595
153.343
151.814
150.011
147.943
145.617
143.041
140.227
137.187
133.933
130.479
126.839
123.03
119.067
114.967
110.745
106.42
102.009
97.528
92.995
88.428
83.844
79.261
74.695
70.163
65.681
61.265
56.929
52.686
48.549
44.531
40.64
36.886
33.278
29.822
26.524
23.388
20.417
17.613
14.977
12.508
10.205
8.065
6.084
4.258
2.581
1.048
-0.349
-1.618
-2.765
-3.801
-4.732
-5.57
-6.323
-7.001
-7.615
-8.174
-8.688
-9.167
-9.62
-10.057
-10.484
-10.911
-11.343
-11.786
-12.246
-12.727
-13.232
-13.764
-14.325
-14.914
-15.531
-16.177
-16.847
-17.541
-18.253
-18.979
-19.714
-20.453
-21.188
-21.912
-22.617
-23.296
-23.939
-24.539
-25.087
-25.573
-25.988
-26.324
-26.571
-26.722
-26.769
-26.703
-26.518
-26.209
-25.771
-25.2
-24.494
-23.652
-22.673
-21.558
-20.311
-18.934
-17.433
-15.812
-14.081
-12.246
-10.318
-8.309
-6.229
-4.095
-1.923
0.27
2.464
4.641
6.78
8.862
10.865
12.77
14.561
16.218
17.726
19.066
20.219
21.166
21.895
22.391
22.641
22.636
22.365
21.824
21.019
19.949
18.617
17.02
15.145
12.989
10.555
7.849
4.883
1.675
-1.755
-5.373
-9.124
-12.957
-16.818
-20.66
-24.452
-28.152
-31.704
-35.051
-38.114
-40.832
-43.166
-45.078
-46.54
-47.553
-48.131
-48.322
-48.222
-47.928
-47.544
-47.181
-46.94
-46.934
-47.276
-48.103
-49.593
-51.832
-54.823
-58.452
-62.424
-66.427
-70.148
-73.129
-74.835
-74.878
-73
-69.339
-64.584
-59.355
-54.296
-50.226
-47.673
-47.001
-48.642
-51.994
-55.22
-56.715
-53.377
-41.658
-20.373
12.679
57.75
112.438
177.623
252.588
336.72
432.076
535.173
641.314
744.366
830.837
888.994
908.346
878.439
800.528
680.312
524.485
349.723
170.282
1.947
-133.229
-226.686
-277.128
-290.973
-286.714
-274.316
-256.986
-235.234
-203.743
-162.684
-117.299
-72.332
-33.458
-4.35
14.299
22.799
22.59
15.814
4.633
-9.129
-23.815
-37.384
-48.046
-54.876
-57.654
-56.903
-53.563
-48.365
-42.002
-35.508
-29.911
-25.801
-23.392
-22.506
-22.715
-23.676
-25.092
-26.574
-27.723
-28.305
-28.233
-27.541
-26.358
-24.783
-22.88
-20.725
-18.401
-15.968
-13.471
-10.949
-8.43
-5.958
-3.597
-1.386
0.645
2.476
4.105
5.532
6.76
7.805
8.686
9.415
10.003
10.459
10.792
11.02
11.164
11.246
11.29
11.315
11.345
11.397
11.489
11.634
11.842
12.124
12.487
12.941
13.496
14.162
14.947
15.86
16.906
18.09
19.416
20.886
22.498
24.25
26.14
28.163
30.315
32.588
34.977
37.471
40.062
42.74
45.494
48.311
51.178
54.081
57.006
59.936
62.858
65.754
68.61
71.409
74.137
76.778
79.318
81.743
84.041
86.198
88.202
90.042
91.709
93.192
94.483
95.575
96.461
97.137
97.599
97.844
97.871
97.678
97.268
96.641
95.799
94.746
93.487
92.026
90.371
88.53
86.51
84.321
81.974
79.478
76.847
74.09
71.221
68.252
65.196
62.065
58.874
55.635
52.362
49.068
45.767
42.472
39.195
35.949
32.747
29.599
26.518
23.513
20.594
17.771
15.051
12.444
9.956
7.592
5.359
3.261
1.301
-0.519
-2.197
-3.733
-5.127
-6.381
-7.496
-8.477
-9.327
-10.05
-10.653
-11.14
-11.52
-11.799
-11.984
-12.084
-12.107
-12.062
-11.956
-11.8
-11.602
-11.37
-11.112
-10.837
-10.552
-10.264
-9.98
-9.705
-9.445
-9.205
-8.988
-8.798
-8.637
-8.507
-8.408
-8.34
-8.302
-8.293
-8.309
-8.346
-8.399
-8.464
-8.532
-8.598
-8.654
-8.693
-8.706
-8.684
-8.619
-8.503
-8.325
-8.078
-7.753
-7.341
-6.834
-6.226
-5.51
-4.681
-3.733
-2.665
-1.472
-0.154
1.289
2.857
4.549
6.36
8.287
10.324
12.464
14.697
17.014
19.401
21.843
24.323
26.823
29.325
31.81
34.256
36.644
38.953
41.166
43.264
45.228
47.041
48.681
50.13
51.368
52.381
53.154
53.673
53.927
53.908
53.615
53.051
52.212
51.097
49.695
47.997
46.004
43.722
41.16
38.338
35.278
32.016
28.606
25.104
21.565
18.039
14.565
11.183
7.944
4.908
2.145
-0.276
-2.307
-3.914
-5.064
-5.757
-6.014
-5.887
-5.484
-4.906
-4.255
-3.646
-3.186
-2.991
-3.205
-3.953
-5.374
-7.649
-10.852
-14.969
-19.892
-25.279
-30.744
-35.901
-40.236
-43.22
-44.495
-43.801
-41.258
-37.568
-33.409
-29.514
-26.612
-24.969
-24.99
-27.175
-30.844
-34.45
-35.31
-28.998
-13.231
12.429
47.398
88.505
136.482
194.693
266.36
356.397
463.647
582.686
706.007
819.833
910.351
962.923
963.937
910.525
808.33
671.435
518.854
363.276
211.581
66.05
-73.721
-204.072
-319.113
-413.191
-481.726
-524.026
-541.998
-538.72
-518.694
-486.906
-448.129
-407.086
-367.871
-333.465
-306.423
-288.434
-279.594
-278.894
-284.738
-295.12
-308.001
-321.611
-333.831
-342.57
-346.841
-346.476
-341.822
-333.708
-323.033
-310.634
-297.773
-285.908
-275.881
-268.057
-262.454
-258.701
-256.445
-255.406
-255.102
-255.007
-254.827
-254.4
-253.703
-252.864
-251.929
-250.878
-249.695
-248.306
-246.616
-244.567
-242.108
-239.214
-235.905
-232.217
-228.2
-223.916
-219.412
-214.73
-209.891
-204.899
-199.766
-194.523
-189.228
-183.981
-178.872
-173.96
-169.284
-164.862
-160.696
-156.79
-153.128
-149.671
-146.385
-143.24
-140.218
-137.313
-134.514
-131.797
-129.126
-126.455
-123.742
-120.959
-118.081
-115.09
-111.971
-108.712
-105.313
-101.784
-98.137
-94.378
-90.513
-86.542
-82.471
-78.309
-74.068
-69.762
-65.403
-61.003
-56.577
-52.142
-47.713
-43.307
-38.937
-34.616
-30.358
-26.179
-22.095
-18.122
-14.276
-10.573
-7.027
-3.654
-0.469
2.518
5.293
7.848
10.174
12.262
14.107
15.703
17.048
18.137
18.972
19.551
19.876
19.949
19.774
19.357
18.702
17.818
16.712
15.393
13.874
12.164
10.277
8.224
6.019
3.676
1.209
-1.368
-4.039
-6.791
-9.607
-12.472
-15.372
-18.292
-21.218
-24.136
-27.032
-29.893
-32.709
-35.466
-38.154
-40.762
-43.281
-45.702
-48.015
-50.215
-52.293
-54.245
-56.066
-57.752
-59.3
-60.709
-61.977
-63.105
-64.094
-64.944
-65.658
-66.239
-66.691
-67.018
-67.225
-67.318
-67.303
-67.186
-66.976
-66.679
-66.302
-65.854
-65.342
-64.775
-64.159
-63.503
-62.815
-62.101
-61.371
-60.63
-59.886
-59.144
-58.411
-57.692
-56.99
-56.31
-55.653
-55.023
-54.421
-53.846
-53.301
-52.783
-52.292
-51.827
-51.384
-50.961
-50.552
-50.154
-49.762
-49.368
-48.967
-48.551
-48.114
-47.647
-47.145
-46.598
-45.999
-45.34
-44.612
-43.809
-42.922
-41.943
-40.866
-39.683
-38.39
-36.981
-35.454
-33.804
-32.03
-30.131
-28.108
-25.961
-23.692
-21.305
-18.803
-16.191
-13.478
-10.669
-7.775
-4.806
-1.774
1.306
4.418
7.545
10.671
13.777
16.845
19.856
22.79
25.633
28.366
30.975
33.441
35.747
37.873
39.804
41.524
43.02
44.281
45.294
46.051
46.553
46.799
46.789
46.517
45.97
45.136
44.011
42.594
40.89
38.915
36.685
34.227
31.594
28.831
25.989
23.112
20.23
17.375
14.595
11.94
9.479
7.278
5.379
3.823
2.645
1.838
1.377
1.203
1.202
1.278
1.338
1.268
0.97
0.328
-0.787
-2.449
-4.764
-7.896
-11.901
-16.763
-22.32
-28.114
-33.669
-38.622
-42.482
-44.726
-45.03
-43.217
-39.62
-35.319
-31.335
-28.348
-27.074
-28.116
-31.817
-38.375
-45.878
-49.954
-46.641
-32.603
-8.613
20.198
51.382
85.062
127.947
192.711
286.633
410.831
555.792
701.636
827.819
915.775
954.429
940.456
877.332
773.25
635.525
474.411
300.909
127.372
-28.083
-150.385
-232.431
-275.511
-289.642
-286.673
-271.587
-242.685
-199.82
-146.025
-89.785
-45.12
-17.804
-5.313
-3.385
-3.888
-4.208
-8.53
-17.968
-32.824
-51.409
-68.245
-80.526
-87.901
-90.225
-88.532
-84.023
-77.373
-69.767
-62.862
-57.543
-54.101
-52.642
-52.858
-54.374
-56.936
-60.035
-62.994
-65.438
-67.205
-68.243
-68.68
-68.579
-67.932
-66.811
-65.309
-63.489
-61.406
-59.08
-56.505
-53.719
-50.787
-47.783
-44.792
-41.869
-39.042
-36.337
-33.767
-31.346
-29.083
-26.974
-25.008
-23.18
-21.485
-19.918
-18.479
-17.153
-15.922
-14.767
-13.666
-12.601
-11.559
-10.528
-9.497
-8.457
-7.398
-6.315
-5.202
-4.053
-2.857
-1.607
-0.293
1.094
2.559
4.109
5.75
7.487
9.322
11.257
13.294
15.431
17.669
20.005
22.437
24.96
27.569
30.257
33.018
35.842
38.721
41.642
44.596
47.569
50.549
53.523
56.478
59.398
62.27
65.08
67.814
70.458
72.996
75.416
77.704
79.846
81.83
83.644
85.275
86.714
87.95
88.974
89.781
90.361
90.71
90.824
90.698
90.332
89.722
88.871
87.778
86.447
84.881
83.086
81.066
78.83
76.386
73.743
70.911
67.902
64.728
61.402
57.937
54.348
50.65
46.859
42.99
39.06
35.085
31.082
27.068
23.059
19.071
15.122
11.226
7.398
3.654
0.008
-3.529
-6.942
-10.222
-13.356
-16.336
-19.153
-21.799
-24.269
-26.557
-28.659
-30.573
-32.297
-33.832
-35.178
-36.338
-37.316
-38.116
-38.745
-39.209
-39.517
-39.677
-39.7
-39.595
-39.375
-39.05
-38.634
-38.138
-37.576
-36.959
-36.301
-35.614
-34.91
-34.202
-33.499
-32.814
-32.156
-31.535
-30.959
-30.435
-29.971
-29.571
-29.24
-28.983
-28.8
-28.693
-28.661
-28.704
-28.817
-28.997
-29.24
-29.537
-29.882
-30.266
-30.679
-31.112
-31.554
-31.994
-32.419
-32.818
-33.177
-33.486
-33.73
-33.898
-33.978
-33.959
-33.829
-33.579
-33.201
-32.685
-32.024
-31.214
-30.25
-29.129
-27.849
-26.41
-24.813
-23.062
-21.163
-19.123
-16.949
-14.653
-12.248
-9.751
-7.178
-4.547
-1.879
0.808
3.489
6.142
8.742
11.269
13.701
16.015
18.19
20.199
22.02
23.632
25.016
26.155
27.031
27.626
27.926
27.925
27.621
27.014
26.097
24.858
23.288
21.385
19.154
16.605
13.75
10.607
7.199
3.567
-0.242
-4.183
-8.21
-12.287
-16.391
-20.487
-24.531
-28.476
-32.244
-35.775
-39.032
-41.974
-44.594
-46.922
-48.949
-50.69
-52.289
-53.862
-55.548
-57.524
-59.765
-62.213
-65.005
-68.29
-72.054
-76.277
-80.723
-84.954
-88.888
-92.469
-95.346
-97.128
-97.501
-96.21
-93.479
-90.013
-86.332
-82.977
-80.645
-79.986
-81.603
-85.833
-92.352
-99.943
-106.732
-110.501
-108.911
-99.302
-78.898
-45.38
3.404
67.507
143.861
229.07
319.245
411.914
508.44
607.796
703.987
786.161
837.264
843.08
798.905
708.01
581.814
434.065
275.598
117.702
-27.126
-148.171
-237.537
-294.116
-325.611
-340.156
-342.574
-334.275
-312.659
-277.635
-233.341
-185.728
-141.069
-103.499
-75.277
-57.15
-48.537
-48.333
-54.631
-64.83
-76.915
-89.02
-98.919
-105.402
-108.044
-106.77
-102.384
-96.035
-88.561
-81.031
-74.757
-70.387
-68.152
-68.04
-69.591
-72.323
-75.891
-79.788
-83.446
-86.549
-88.927
-90.54
-91.487
-91.811
-91.494
-90.541
-88.998
-86.927
-84.413
-81.557
-78.427
-75.101
-71.679
-68.267
-64.946
-61.771
-58.762
-55.908
-53.209
-50.678
-48.326
-46.177
-44.243
-42.515
-40.976
-39.594
-38.336
-37.171
-36.065
-34.975
-33.868
-32.721
-31.521
-30.272
-28.972
-27.612
-26.183
-24.672
-23.068
-21.362
-19.547
-17.617
-15.566
-13.389
-11.086
-8.658
-6.108
-3.437
-0.643
2.274
5.314
8.474
11.75
15.137
18.628
22.215
25.889
29.637
33.447
37.306
41.2
45.115
49.037
52.951
56.839
60.687
64.477
68.194
71.82
75.339
78.735
81.991
85.09
88.019
90.761
93.304
95.634
97.739
99.608
101.233
102.605
103.717
104.565
105.143
105.448
105.48
105.237
104.72
103.933
102.878
101.562
99.989
98.168
96.108
93.817
91.308
88.591
85.679
82.587
79.328
75.917
72.372
68.707
64.942
61.091
57.175
53.209
49.212
45.201
41.193
37.205
33.253
29.353
25.518
21.763
18.101
14.544
11.103
7.788
4.609
1.572
-1.313
-4.042
-6.609
-9.01
-11.242
-13.303
-15.194
-16.913
-18.463
-19.846
-21.065
-22.125
-23.03
-23.788
-24.406
-24.89
-25.249
-25.493
-25.63
-25.669
-25.621
-25.495
-25.301
-25.048
-24.745
-24.4
-24.023
-23.62
-23.2
-22.768
-22.331
-21.895
-21.465
-21.045
-20.64
-20.252
-19.885
-19.54
-19.22
-18.925
-18.655
-18.41
-18.19
-17.993
-17.816
-17.657
-17.513
-17.38
-17.252
-17.127
-16.999
-16.863
-16.714
-16.548
-16.358
-16.142
-15.894
-15.611
-15.29
-14.926
-14.519
-14.065
-13.565
-13.016
-12.42
-11.776
-11.085
-10.351
-9.575
-8.76
-7.909
-7.027
-6.119
-5.19
-4.246
-3.295
-2.344
-1.405
-0.489
0.394
1.23
2.008
2.714
3.335
3.861
4.282
4.589
4.774
4.827
4.739
4.501
4.106
3.548
2.823
1.929
0.861
-0.381
-1.79
-3.36
-5.087
-6.97
-9.02
-11.244
-13.64
-16.202
-18.92
-21.778
-24.763
-27.849
-30.989
-34.14
-37.254
-40.286
-43.211
-45.995
-48.592
-50.95
-52.996
-54.668
-55.932
-56.765
-57.156
-57.111
-56.649
-55.816
-54.71
-53.445
-52.142
-50.926
-49.902
-49.19
-48.914
-49.225
-50.327
-52.317
-55.184
-58.82
-62.946
-67.265
-71.511
-75.292
-78.13
-79.753
-80.004
-78.987
-77.315
-75.533
-74.167
-73.807
-74.613
-76.561
-79.742
-83.708
-87.305
-88.249
-82.695
-67.541
-42.008
-8.597
28.389
67.524
112.462
171.222
249.719
347.426
456.242
563.285
661.079
745.726
813.458
859.684
871.522
835.483
747.71
611.784
440.425
252.485
63.208
-112.233
-257.297
-360.82
-415.814
-424.284
-398.629
-353.281
-302.348
-253.678
-209.11
-168.994
-130.862
-95.294
-64.795
-40.636
-26.253
-22.408
-27.542
-40.391
-57.343
-75.193
-91.697
-104.437
-112.574
-116.249
-115.752
-111.946
-105.885
-98.496
-91.024
-84.721
-80.21
-77.682
-76.989
-77.704
-79.381
-81.626
-83.973
-85.953
-87.321
-87.994
-87.994
-87.445
-86.443
-85.052
-83.35
-81.418
-79.306
-77.048
-74.678
-72.223
-69.734
-67.28
-64.907
-62.65
-60.53
-58.552
-56.717
-55.025
-53.462
-52.006
-50.646
-49.374
-48.181
-47.062
-46
-44.974
-43.965
-42.951
-41.91
-40.824
-39.677
-38.453
-37.143
-35.738
-34.234
-32.624
-30.903
-29.062
-27.094
-24.992
-22.752
-20.368
-17.839
-15.161
-12.335
-9.363
-6.249
-2.998
0.386
3.897
7.527
11.267
15.109
19.042
23.054
27.134
31.269
35.442
39.64
43.847
48.046
52.22
56.352
60.426
64.423
68.327
72.122
75.792
79.32
82.692
85.894
88.912
91.733
94.345
96.737
98.9
100.824
102.503
103.929
105.098
106.006
106.65
107.028
107.14
106.987
106.571
105.894
104.962
103.78
102.354
100.694
98.807
96.705
94.398
91.899
89.221
86.376
83.378
80.243
76.984
73.615
70.153
66.612
63.007
59.353
55.665
51.956
48.241
44.534
40.848
37.196
33.589
30.04
26.56
23.158
19.846
16.631
13.521
10.524
7.645
4.889
2.26
-0.238
-2.605
-4.839
-6.94
-8.91
-10.751
-12.465
-14.057
-15.53
-16.89
-18.141
-19.291
-20.346
-21.311
-22.195
-23.003
-23.742
-24.421
-25.045
-25.621
-26.158
-26.66
-27.135
-27.589
-28.028
-28.457
-28.881
-29.304
-29.73
-30.162
-30.601
-31.05
-31.509
-31.979
-32.459
-32.946
-33.44
-33.937
-34.433
-34.924
-35.404
-35.868
-36.311
-36.725
-37.104
-37.443
-37.733
-37.97
-38.147
-38.257
-38.294
-38.253
-38.127
-37.912
-37.601
-37.191
-36.679
-36.06
-35.334
-34.498
-33.553
-32.499
-31.338
-30.073
-28.705
-27.24
-25.683
-24.042
-22.325
-20.54
-18.7
-16.816
-14.905
-12.983
-11.066
-9.171
-7.313
-5.511
-3.785
-2.154
-0.636
0.754
1.998
3.081
3.983
4.688
5.181
5.451
5.491
5.293
4.847
4.144
3.182
1.963
0.493
-1.222
-3.185
-5.398
-7.86
-10.563
-13.497
-16.642
-19.981
-23.496
-27.156
-30.922
-34.754
-38.603
-42.425
-46.188
-49.865
-53.436
-56.876
-60.139
-63.167
-65.894
-68.271
-70.295
-71.996
-73.397
-74.495
-75.327
-76.053
-76.967
-78.387
-80.487
-83.221
-86.437
-90.173
-94.519
-99.295
-103.971
-107.778
-110.029
-110.577
-109.731
-107.495
-103.666
-98.384
-92.244
-86.465
-82.606
-81.603
-83.453
-88.131
-95.995
-107.151
-120.945
-135.852
-147.982
-152.137
-146.441
-130.12
-103.817
-71.697
-30.906
24.863
98.419
194.938
309.894
430.637
550.813
661.868
756.834
832.757
877.304
877.053
826.525
724.135
578.208
406.217
223.342
45.536
-109.317
-230.104
-310.839
-351.665
-363.288
-357.74
-341.881
-319.646
-289.952
-249.886
-202.373
-153.055
-107.537
-72.285
-49.285
-35.82
-30.991
-34.56
-46.497
-70.051
-102.557
-134.792
-158.97
-165.923
-154.283
-133.033
-109.922
-93.003
-85.523
-82.986
-82.355
-81.464
-79.389
-78.265
-78.874
-80.657
-83.111
-85.206
-86.451
-87.035
-87.035
-86.503
-85.51
-84.089
-82.311
-80.253
-77.942
-75.369
-72.529
-69.45
-66.188
-62.811
-59.397
-56.03
-52.761
-49.624
-46.644
-43.827
-41.183
-38.715
-36.416
-34.269
-32.268
-30.404
-28.671
-27.063
-25.561
-24.143
-22.786
-21.47
-20.179
-18.901
-17.623
-16.328
-15.007
-13.663
-12.285
-10.846
-9.325
-7.693
-5.942
-4.092
-2.141
-0.051
2.162
4.432
6.71
8.937
11.106
13.304
15.558
17.77
20.031
22.682
25.792
29.251
33.098
36.959
41.494
48.835
58.532
68.6
75.81
74.063
63.65
50.681
41.224
43.9
59.336
79.327
97.524
107.098
106.772
102.648
98.489
96.834
98.474
100.905
102.97
104.746
106.135
107.504
108.946
110.117
110.91
111.381
111.518
111.305
110.756
109.886
108.731
107.351
105.77
103.97
101.948
99.718
97.289
94.674
91.885
88.926
85.809
82.552
79.171
75.684
72.106
68.453
64.741
60.987
57.207
53.418
49.636
45.875
42.152
38.479
34.871
31.341
27.901
24.563
21.336
18.23
15.255
12.417
9.723
7.179
4.79
2.558
0.486
-1.424
-3.173
-4.76
-6.189
-7.461
-8.582
-9.555
-10.388
-11.086
-11.657
-12.109
-12.451
-12.69
-12.838
-12.901
-12.891
-12.816
-12.687
-12.511
-12.298
-12.055
-11.792
-11.516
-11.233
-10.949
-10.671
-10.402
-10.147
-9.91
-9.692
-9.496
-9.322
-9.171
-9.042
-8.933
-8.841
-8.763
-8.695
-8.63
-8.565
-8.491
-8.403
-8.294
-8.155
-7.979
-7.758
-7.483
-7.148
-6.743
-6.261
-5.695
-5.038
-4.284
-3.428
-2.467
-1.395
-0.211
1.086
2.496
4.018
5.649
7.388
9.227
11.162
13.184
15.284
17.452
19.675
21.939
24.226
26.521
28.804
31.056
33.258
35.39
37.432
39.365
41.172
42.833
44.33
45.644
46.752
47.638
48.286
48.679
48.805
48.65
48.204
47.466
46.433
45.103
43.472
41.527
39.257
36.666
33.756
30.537
27.026
23.243
19.218
15
10.637
6.175
1.66
-2.877
-7.403
-11.867
-16.212
-20.368
-24.267
-27.87
-31.143
-34.051
-36.588
-38.769
-40.637
-42.282
-43.787
-45.219
-46.658
-48.18
-49.873
-51.859
-54.239
-57.125
-60.666
-64.901
-69.791
-75.21
-80.826
-86.242
-91.088
-94.894
-97.181
-97.693
-96.309
-93.224
-89.154
-84.835
-80.989
-78.286
-77.048
-77.548
-80.01
-83.689
-87.042
-87.316
-80.412
-64.209
-37.97
-2.429
39.373
88.343
146.922
217.156
302.82
401.452
508.088
617.838
719.251
801.587
852.498
856.768
809.72
712.76
572.735
406.94
230.923
60.405
-84.749
-192.505
-258.118
-283.808
-283.95
-273.885
-261.199
-248.759
-233.483
-210.22
-179.667
-145.812
-112.923
-85.782
-66.904
-56.106
-52.489
-54.787
-61.381
-70.682
-81.514
-92.414
-101.514
-107.851
-111.113
-111.23
-108.794
-104.572
-99.074
-93.153
-87.961
-84.094
-81.809
-81.173
-81.847
-83.478
-85.813
-88.402
-90.74
-92.557
-93.709
-94.167
-94.039
-93.387
-92.244
-90.697
-88.835
-86.718
-84.401
-81.908
-79.263
-76.519
-73.748
-71.029
-68.421
-65.958
-63.659
-61.536
-59.593
-57.83
-56.237
-54.793
-53.489
-52.315
-51.265
-50.332
-49.503
-48.757
-48.075
-47.432
-46.808
-46.186
-45.549
-44.884
-44.179
-43.426
-42.615
-41.741
-40.795
-39.765
-38.642
-37.414
-36.073
-34.611
-33.021
-31.295
-29.43
-27.424
-25.275
-22.985
-20.553
-17.982
-15.277
-12.441
-9.48
-6.403
-3.218
0.066
3.437
6.884
10.392
13.948
17.537
21.143
24.751
28.343
31.904
35.416
38.863
42.228
45.495
48.647
51.668
54.543
57.257
59.795
62.144
64.291
66.226
67.938
69.417
70.657
71.651
72.395
72.883
73.115
73.089
72.806
72.268
71.478
70.44
69.162
67.65
65.913
63.962
61.807
59.46
56.935
54.245
51.405
48.429
45.334
42.136
38.851
35.496
32.088
28.643
25.179
21.712
18.258
14.833
11.452
8.13
4.881
1.717
-1.349
-4.306
-7.146
-9.858
-12.436
-14.872
-17.162
-19.302
-21.29
-23.123
-24.804
-26.331
-27.709
-28.941
-30.031
-30.986
-31.811
-32.516
-33.106
-33.593
-33.986
-34.294
-34.528
-34.7
-34.821
-34.901
-34.951
-34.984
-35.008
-35.035
-35.074
-35.135
-35.225
-35.352
-35.523
-35.744
-36.02
-36.354
-36.749
-37.207
-37.728
-38.311
-38.955
-39.656
-40.411
-41.214
-42.061
-42.942
-43.852
-44.781
-45.72
-46.659
-47.586
-48.491
-49.36
-50.183
-50.948
-51.642
-52.254
-52.772
-53.184
-53.48
-53.65
-53.685
-53.576
-53.315
-52.895
-52.312
-51.56
-50.638
-49.543
-48.276
-46.837
-45.23
-43.46
-41.531
-39.451
-37.228
-34.872
-32.394
-29.808
-27.128
-24.369
-21.549
-18.688
-15.808
-12.932
-10.08
-7.277
-4.545
-1.909
0.609
2.991
5.216
7.266
9.121
10.763
12.169
13.325
14.215
14.824
15.142
15.157
14.865
14.266
13.363
12.158
10.649
8.825
6.68
4.217
1.442
-1.633
-4.987
-8.594
-12.419
-16.404
-20.496
-24.644
-28.797
-32.926
-36.994
-40.954
-44.754
-48.325
-51.601
-54.546
-57.122
-59.298
-61.083
-62.5
-63.604
-64.499
-65.266
-65.982
-66.742
-67.619
-68.704
-70.109
-71.908
-74.223
-77.225
-80.966
-85.412
-90.384
-95.456
-100.18
-104.161
-106.869
-107.748
-106.467
-102.93
-97.567
-91.348
-85.268
-80.182
-76.837
-75.865
-77.577
-81.703
-86.984
-91.214
-91.762
-85.878
-71.13
-45.296
-6.397
46.701
113.937
194.089
283.39
375.723
464.971
544.607
612.121
669.837
717.866
755.102
772.76
753.785
687.032
566.149
398.204
208.136
21.392
-135.349
-242.991
-302.866
-323.099
-316.915
-300.67
-277.904
-247.777
-213.152
-173.013
-133.205
-103.111
-82.307
-71.572
-69.692
-70.983
-76.195
-85.308
-95.794
-107.22
-117.128
-123.034
-124.791
-122.495
-116.818
-109.123
-100.733
-92.814
-86.22
-81.493
-78.758
-77.876
-78.665
-80.764
-83.64
-86.737
-89.62
-91.999
-93.766
-94.931
-95.487
-95.442
-94.835
-93.735
-92.217
-90.342
-88.147
-85.647
-82.876
-79.885
-76.743
-73.53
-70.322
-67.183
-64.156
-61.271
-58.55
-56.01
-53.657
-51.49
-49.495
-47.657
-45.962
-44.402
-42.964
-41.634
-40.391
-39.21
-38.074
-36.967
-35.874
-34.782
-33.671
-32.529
-31.358
-30.141
-28.851
-27.467
-25.961
-24.323
-22.574
-20.708
-18.687
-16.529
-14.296
-12.036
-9.806
-7.608
-5.355
-3.025
-0.714
1.674
4.475
7.745
11.38
15.416
19.468
24.238
31.809
41.646
51.837
59.131
57.526
47.561
35.175
26.354
29.594
45.16
65.032
83.028
92.389
92.128
88.222
84.269
82.798
84.475
86.832
88.794
90.42
91.621
92.763
93.92
94.754
95.169
95.217
94.888
94.166
93.068
91.61
89.829
87.79
85.516
82.993
80.224
77.224
74.008
70.594
66.995
63.223
59.294
55.231
51.053
46.783
42.44
38.044
33.616
29.174
24.74
20.33
15.965
11.661
7.436
3.305
-0.717
-4.614
-8.374
-11.985
-15.435
-18.716
-21.818
-24.735
-27.461
-29.992
-32.326
-34.461
-36.397
-38.135
-39.678
-41.03
-42.195
-43.181
-43.995
-44.645
-45.141
-45.493
-45.714
-45.813
-45.804
-45.698
-45.507
-45.244
-44.92
-44.547
-44.138
-43.703
-43.253
-42.8
-42.354
-41.923
-41.518
-41.145
-40.812
-40.525
-40.288
-40.107
-39.982
-39.917
-39.913
-39.97
-40.086
-40.26
-40.489
-40.769
-41.094
-41.459
-41.855
-42.275
-42.71
-43.15
-43.584
-44.002
-44.395
-44.752
-45.061
-45.313
-45.496
-45.601
-45.617
-45.534
-45.343
-45.034
-44.6
-44.034
-43.33
-42.483
-41.49
-40.349
-39.057
-37.616
-36.027
-34.291
-32.413
-30.396
-28.248
-25.977
-23.593
-21.106
-18.529
-15.877
-13.169
-10.422
-7.657
-4.894
-2.153
0.544
3.174
5.717
8.154
10.467
12.638
14.647
16.473
18.097
19.501
20.67
21.588
22.243
22.624
22.724
22.545
22.087
21.352
20.336
19.027
17.413
15.497
13.279
10.766
7.978
4.934
1.671
-1.758
-5.3
-8.906
-12.528
-16.135
-19.693
-23.153
-26.465
-29.562
-32.379
-34.874
-36.999
-38.717
-40.039
-40.99
-41.627
-42.059
-42.365
-42.624
-42.948
-43.429
-44.177
-45.318
-46.923
-49.113
-52.082
-55.903
-60.552
-65.837
-71.258
-76.293
-80.519
-83.364
-84.208
-82.718
-78.781
-72.872
-66.214
-60.02
-55.302
-53.066
-54.062
-58.537
-66.181
-75.413
-83.348
-86.913
-82.816
-67.692
-38.721
6.608
69.048
146.307
234.647
329.355
427.317
527.956
629.131
726.686
810.271
864.895
878.721
842.508
757.03
631.063
472.645
295.566
113.773
-58.989
-202.601
-304.268
-361.745
-378.558
-368.352
-344.07
-308.477
-265.443
-218.728
-170.427
-130.181
-102.326
-83.073
-71.077
-61.53
-51.954
-46.511
-46.568
-52.329
-63.374
-76.136
-87.624
-96.38
-101.636
-103.645
-103.035
-100.294
-95.843
-90.266
-84.509
-79.55
-75.941
-73.865
-73.156
-73.457
-74.49
-75.982
-77.556
-78.813
-79.503
-79.532
-78.927
-77.81
-76.273
-74.371
-72.176
-69.766
-67.204
-64.54
-61.816
-59.061
-56.322
-53.659
-51.114
-48.721
-46.498
-44.45
-42.577
-40.872
-39.318
-37.895
-36.589
-35.39
-34.287
-33.27
-32.32
-31.416
-30.537
-29.661
-28.767
-27.834
-26.846
-25.785
-24.642
-23.407
-22.074
-20.635
-19.084
-17.412
-15.611
-13.675
-11.598
-9.377
-7.008
-4.49
-1.823
0.988
3.941
7.029
10.246
13.584
17.034
20.586
24.229
27.951
31.737
35.573
39.444
43.333
47.221
51.092
54.928
58.709
62.418
66.036
69.546
72.929
76.17
79.251
82.158
84.875
87.39
89.688
91.758
93.59
95.173
96.5
97.565
98.36
98.883
99.131
99.104
98.8
98.223
97.375
96.261
94.886
93.259
91.387
89.28
86.95
84.408
81.667
78.741
75.645
72.393
69.002
65.487
61.865
58.152
54.366
50.523
46.64
42.734
38.821
34.918
31.04
27.203
23.422
19.71
16.083
12.552
9.13
5.827
2.656
-0.377
-3.262
-5.993
-8.563
-10.969
-13.207
-15.274
-17.169
-18.892
-20.445
-21.828
-23.044
-24.099
-24.995
-25.74
-26.34
-26.801
-27.133
-27.343
-27.44
-27.433
-27.334
-27.15
-26.894
-26.574
-26.203
-25.789
-25.344
-24.877
-24.399
-23.917
-23.442
-22.98
-22.538
-22.123
-21.739
-21.392
-21.084
-20.819
-20.598
-20.423
-20.292
-20.206
-20.162
-20.158
-20.188
-20.25
-20.335
-20.439
-20.553
-20.67
-20.782
-20.88
-20.954
-20.996
-20.994
-20.939
-20.821
-20.629
-20.354
-19.984
-19.512
-18.928
-18.226
-17.398
-16.439
-15.344
-14.109
-12.733
-11.214
-9.551
-7.747
-5.802
-3.723
-1.515
0.816
3.26
5.806
8.441
11.15
13.917
16.725
19.555
22.388
25.203
27.981
30.701
33.345
35.892
38.321
40.611
42.742
44.69
46.437
47.964
49.252
50.286
51.052
51.542
51.751
51.671
51.296
50.613
49.612
48.286
46.634
44.659
42.37
39.784
36.927
33.843
30.577
27.173
23.675
20.116
16.531
12.961
9.455
6.07
2.865
-0.112
-2.826
-5.237
-7.328
-9.114
-10.642
-12.006
-13.302
-14.605
-15.987
-17.524
-19.306
-21.439
-24.021
-27.106
-30.786
-35.196
-40.421
-46.464
-53.13
-59.994
-66.608
-72.569
-77.386
-80.494
-81.422
-79.904
-76.291
-71.442
-66.133
-61.14
-57.317
-55.54
-56.638
-59.994
-62.887
-62.354
-56.484
-46.591
-35.778
-23.692
-5.134
30.834
94.021
185.277
297.15
414.377
523.883
621.964
708.329
783.766
843.214
872.382
859.148
798.342
693.98
558.776
404.409
241.012
78.164
-72.897
-196.451
-281.674
-326.135
-336.653
-327.377
-308.714
-283.72
-250.975
-209.795
-162.954
-118.245
-84.497
-63.248
-53.549
-52.041
-53.462
-58.428
-67.107
-77.995
-90.68
-101.84
-108.93
-111.94
-110.809
-106.274
-99.629
-91.658
-83.336
-76.041
-70.501
-66.9
-65.261
-65.256
-66.474
-68.59
-71.13
-73.491
-75.334
-76.514
-76.985
-76.849
-76.168
-74.953
-73.281
-71.249
-68.924
-66.364
-63.6
-60.642
-57.541
-54.367
-51.199
-48.118
-45.176
-42.399
-39.807
-37.411
-35.216
-33.222
-31.417
-29.782
-28.305
-26.975
-25.781
-24.715
-23.758
-22.888
-22.084
-21.32
-20.579
-19.845
-19.105
-18.347
-17.56
-16.736
-15.869
-14.952
-13.979
-12.941
-11.831
-10.639
-9.36
-7.989
-6.52
-4.951
-3.279
-1.504
0.375
2.355
4.433
6.608
8.874
11.225
13.655
16.157
18.722
21.341
24.003
26.698
29.413
32.137
34.857
37.56
40.232
42.86
45.43
47.928
50.342
52.658
54.862
56.943
58.889
60.687
62.329
63.802
65.099
66.209
67.126
67.843
68.354
68.654
68.74
68.608
68.259
67.691
66.905
65.903
64.688
63.263
61.633
59.805
57.784
55.578
53.195
50.645
47.938
45.083
42.093
38.979
35.754
32.429
29.019
25.535
21.992
18.403
14.781
11.139
7.491
3.85
0.228
-3.361
-6.907
-10.398
-13.822
-17.171
-20.434
-23.604
-26.672
-29.634
-32.481
-35.211
-37.819
-40.301
-42.655
-44.881
-46.976
-48.943
-50.78
-52.492
-54.08
-55.549
-56.902
-58.145
-59.283
-60.324
-61.272
-62.136
-62.922
-63.639
-64.294
-64.895
-65.45
-65.967
-66.453
-66.917
-67.364
-67.801
-68.233
-68.664
-69.099
-69.54
-69.99
-70.45
-70.921
-71.403
-71.895
-72.396
-72.904
-73.416
-73.927
-74.434
-74.931
-75.41
-75.867
-76.292
-76.679
-77.018
-77.302
-77.521
-77.667
-77.729
-77.699
-77.566
-77.321
-76.955
-76.46
-75.826
-75.048
-74.118
-73.033
-71.787
-70.378
-68.806
-67.069
-65.169
-63.109
-60.892
-58.523
-56.008
-53.357
-50.577
-47.68
-44.679
-41.588
-38.424
-35.205
-31.95
-28.679
-25.414
-22.177
-18.989
-15.874
-12.851
-9.942
-7.168
-4.551
-2.113
0.123
2.137
3.908
5.419
6.654
7.598
8.24
8.576
8.602
8.316
7.712
6.779
5.506
3.89
1.932
-0.362
-2.978
-5.898
-9.092
-12.517
-16.124
-19.868
-23.705
-27.601
-31.521
-35.42
-39.245
-42.93
-46.409
-49.629
-52.543
-55.111
-57.322
-59.178
-60.719
-62.02
-63.15
-64.183
-65.202
-66.284
-67.524
-69.034
-70.905
-73.261
-76.282
-80.06
-84.6
-89.792
-95.284
-100.66
-105.53
-109.369
-111.584
-111.794
-109.831
-105.903
-100.839
-95.617
-91.093
-88.224
-87.866
-90.38
-95.699
-102.965
-110.081
-114.366
-113.08
-103.257
-81.913
-46.696
4.178
71.697
154.016
246.613
344.708
442.686
536.571
626.948
712.382
787.436
844.364
869.287
849.422
782.271
670.157
521.491
353.338
179.592
16.15
-117.078
-212.186
-266.969
-286.842
-288.583
-281.697
-269.775
-253.2
-226.545
-189.363
-146.063
-101.603
-62.08
-31.348
-10.57
0.108
1.799
-3.953
-15.416
-30.445
-47.075
-63.105
-76.427
-85.956
-91.339
-92.763
-90.966
-86.821
-81.164
-75.164
-70.031
-66.387
-64.474
-64.201
-65.17
-67.008
-69.369
-71.793
-73.82
-75.199
-75.835
-75.754
-75.088
-73.924
-72.322
-70.361
-68.125
-65.675
-63.054
-60.299
-57.44
-54.527
-51.63
-48.801
-46.078
-43.485
-41.032
-38.72
-36.552
-34.52
-32.609
-30.814
-29.131
-27.558
-26.092
-24.722
-23.435
-22.213
-21.038
-19.893
-18.76
-17.625
-16.476
-15.303
-14.098
-12.857
-11.572
-10.237
-8.841
-7.376
-5.833
-4.204
-2.482
-0.66
1.266
3.299
5.441
7.691
10.049
12.511
15.077
17.741
20.499
23.344
26.271
29.27
32.333
35.45
38.609
41.799
45.005
48.216
51.417
54.593
57.729
60.811
63.823
66.751
69.578
72.291
74.874
77.314
79.596
81.706
83.634
85.366
86.891
88.201
89.286
90.139
90.755
91.126
91.251
91.126
90.749
90.121
89.242
88.114
86.741
85.128
83.281
81.206
78.912
76.409
73.706
70.814
67.746
64.514
61.131
57.612
53.971
50.223
46.384
42.47
38.496
34.48
30.437
26.383
22.334
18.305
14.311
10.368
6.489
2.688
-1.023
-4.63
-8.123
-11.49
-14.724
-17.814
-20.755
-23.54
-26.165
-28.624
-30.916
-33.04
-34.993
-36.776
-38.392
-39.842
-41.131
-42.262
-43.241
-44.074
-44.77
-45.334
-45.776
-46.104
-46.328
-46.456
-46.498
-46.465
-46.367
-46.213
-46.014
-45.781
-45.522
-45.249
-44.969
-44.693
-44.426
-44.177
-43.951
-43.755
-43.593
-43.469
-43.386
-43.344
-43.347
-43.393
-43.482
-43.612
-43.78
-43.981
-44.211
-44.464
-44.733
-45.011
-45.289
-45.559
-45.813
-46.041
-46.234
-46.38
-46.471
-46.496
-46.444
-46.305
-46.068
-45.723
-45.26
-44.671
-43.947
-43.082
-42.068
-40.9
-39.575
-38.088
-36.438
-34.626
-32.65
-30.514
-28.221
-25.777
-23.189
-20.465
-17.616
-14.653
-11.593
-8.452
-5.247
-1.998
1.276
4.555
7.817
11.041
14.207
17.297
20.289
23.165
25.9
28.471
30.859
33.042
35.003
36.726
38.192
39.388
40.31
40.952
41.308
41.371
41.121
40.543
39.634
38.393
36.822
34.937
32.75
30.288
27.598
24.728
21.721
18.623
15.46
12.262
9.079
5.968
2.997
0.237
-2.274
-4.501
-6.404
-7.98
-9.242
-10.235
-11.053
-11.778
-12.481
-13.25
-14.168
-15.331
-16.865
-18.868
-21.47
-24.837
-29.025
-33.986
-39.545
-45.312
-50.855
-55.779
-59.604
-61.821
-62.112
-60.393
-57.071
-53.032
-49.194
-46.409
-45.251
-45.998
-49.001
-54.264
-60.485
-65.741
-66.86
-59.148
-40.472
-10.19
31.563
80.541
135.309
198.647
272.36
361.909
470.285
590.673
712.168
817.831
886.512
904.991
870.922
790.034
678.196
550.816
412.464
267.481
118.812
-26.772
-149.921
-237.54
-284.587
-294.554
-284.42
-265.951
-244.158
-221.059
-192.205
-157.023
-119.694
-83.852
-54.222
-34.016
-23.111
-20.385
-24.347
-33.063
-44.689
-57.921
-71.18
-82.393
-90.5
-95.232
-96.577
-95.21
-91.963
-87.332
-82.177
-77.718
-74.586
-73.036
-73.123
-74.465
-76.679
-79.526
-82.575
-85.322
-87.501
-88.973
-89.71
-89.843
-89.452
-88.578
-87.312
-85.743
-83.931
-81.929
-79.766
-77.461
-75.06
-72.628
-70.229
-67.914
-65.712
-63.637
-61.698
-59.896
-58.229
-56.684
-55.243
-53.898
-52.641
-51.466
-50.367
-49.331
-48.341
-47.381
-46.431
-45.475
-44.498
-43.489
-42.437
-41.334
-40.175
-38.955
-37.669
-36.312
-34.876
-33.357
-31.748
-30.044
-28.24
-26.335
-24.325
-22.21
-19.991
-17.67
-15.248
-12.728
-10.116
-7.415
-4.632
-1.774
1.153
4.14
7.178
10.258
13.369
16.5
19.639
22.774
25.892
28.979
32.022
35.008
37.922
40.75
43.481
46.099
48.594
50.952
53.161
55.211
57.089
58.787
60.293
61.598
62.696
63.579
64.241
64.678
64.884
64.859
64.599
64.103
63.373
62.409
61.213
59.788
58.139
56.271
54.192
51.91
49.433
46.771
43.936
40.94
37.795
34.514
31.112
27.601
23.997
20.315
16.569
12.777
8.952
5.112
1.272
-2.552
-6.346
-10.093
-13.781
-17.395
-20.923
-24.351
-27.669
-30.864
-33.927
-36.849
-39.62
-42.234
-44.684
-46.965
-49.076
-51.012
-52.774
-54.362
-55.778
-57.024
-58.104
-59.023
-59.787
-60.4
-60.87
-61.204
-61.412
-61.503
-61.486
-61.372
-61.171
-60.894
-60.551
-60.153
-59.71
-59.232
-58.728
-58.209
-57.683
-57.161
-56.65
-56.159
-55.694
-55.263
-54.871
-54.522
-54.219
-53.963
-53.754
-53.592
-53.476
-53.4
-53.362
-53.357
-53.381
-53.43
-53.499
-53.581
-53.669
-53.757
-53.838
-53.903
-53.939
-53.934
-53.875
-53.752
-53.554
-53.273
-52.9
-52.423
-51.836
-51.137
-50.317
-49.373
-48.291
-47.053
-45.651
-44.088
-42.373
-40.523
-38.554
-36.477
-34.312
-32.087
-29.823
-27.531
-25.206
-22.824
-20.38
-17.881
-15.349
-12.823
-10.324
-7.853
-5.409
-2.988
-0.581
1.815
4.223
6.696
9.244
11.851
14.46
16.97
19.309
21.436
23.319
24.949
26.303
27.339
28.03
28.352
28.266
27.729
26.665
24.97
22.596
19.547
15.881
11.721
7.168
2.31
-2.767
-7.992
-13.29
-18.588
-23.831
-28.97
-33.934
-38.625
-42.918
-46.678
-49.812
-52.275
-54.097
-55.364
-56.176
-56.656
-56.909
-57.039
-57.17
-57.402
-57.839
-58.584
-59.715
-61.372
-63.772
-67.032
-71.148
-75.941
-80.938
-85.609
-89.509
-92.064
-92.654
-90.911
-86.737
-80.601
-73.636
-67.06
-61.879
-58.978
-59.117
-62.603
-69.099
-77.174
-84.231
-87.107
-82.693
-68.283
-41.115
1.16
59.79
134.965
224.008
321.082
420.304
515.636
603.459
685.303
760.432
824.701
869.521
877.592
835.291
737.903
588.318
403.679
205.737
14.363
-150.354
-275.766
-356.982
-395.166
-397.49
-374.635
-335.603
-285.305
-230.089
-173.379
-118.836
-73.596
-38.306
-13.928
-1.233
3.557
-0.18
-12.174
-29.337
-50.357
-71.492
-88.738
-100.857
-107.211
-108.038
-104.626
-98.198
-89.842
-81.092
-73.466
-67.712
-64.143
-62.752
-63.11
-64.766
-67.315
-70.146
-72.665
-74.586
-75.782
-76.264
-76.163
-75.538
-74.432
-72.941
-71.16
-69.15
-66.953
-64.582
-62.044
-59.385
-56.674
-53.983
-51.364
-48.846
-46.446
-44.17
-42.028
-40.024
-38.151
-36.396
-34.751
-33.208
-31.761
-30.406
-29.129
-27.908
-26.724
-25.553
-24.374
-23.172
-21.932
-20.642
-19.295
-17.881
-16.394
-14.83
-13.183
-11.446
-9.612
-7.673
-5.624
-3.461
-1.181
1.219
3.74
6.381
9.14
12.015
15.001
18.095
21.292
24.583
27.961
31.418
34.943
38.526
42.153
45.813
49.491
53.172
56.841
60.482
64.08
67.617
71.078
74.447
77.708
80.846
83.847
86.696
89.379
91.884
94.198
96.31
98.207
99.881
101.322
102.522
103.473
104.172
104.611
104.789
104.704
104.353
103.737
102.858
101.718
100.321
98.672
96.778
94.645
92.282
89.7
86.91
83.922
80.751
77.409
73.91
70.268
66.499
62.617
58.637
54.576
50.448
46.27
42.059
37.829
33.596
29.377
25.187
21.039
16.95
12.932
8.999
5.163
1.436
-2.171
-5.648
-8.986
-12.175
-15.21
-18.084
-20.792
-23.331
-25.698
-27.891
-29.909
-31.755
-33.429
-34.934
-36.274
-37.452
-38.474
-39.346
-40.075
-40.668
-41.133
-41.479
-41.715
-41.85
-41.894
-41.858
-41.751
-41.584
-41.366
-41.108
-40.82
-40.51
-40.189
-39.865
-39.546
-39.239
-38.952
-38.69
-38.458
-38.261
-38.102
-37.983
-37.907
-37.874
-37.884
-37.936
-38.028
-38.156
-38.318
-38.509
-38.722
-38.952
-39.191
-39.432
-39.667
-39.887
-40.083
-40.246
-40.367
-40.436
-40.443
-40.378
-40.233
-39.997
-39.664
-39.224
-38.672
-38
-37.204
-36.278
-35.221
-34.029
-32.702
-31.24
-29.644
-27.917
-26.063
-24.088
-21.999
-19.805
-17.517
-15.147
-12.712
-10.225
-7.704
-5.168
-2.634
-0.122
2.348
4.757
7.086
9.318
11.432
13.407
15.223
16.86
18.3
19.523
20.514
21.258
21.742
21.959
21.904
21.574
20.959
20.049
18.833
17.306
15.471
13.331
10.898
8.191
5.24
2.089
-1.214
-4.621
-8.09
-11.586
-15.072
-18.507
-21.84
-25.012
-27.969
-30.663
-33.061
-35.127
-36.851
-38.253
-39.381
-40.33
-41.194
-42.049
-42.974
-44.057
-45.385
-47.067
-49.21
-51.879
-55.182
-59.256
-64.144
-69.824
-76.101
-82.551
-88.722
-94.19
-98.438
-100.916
-101.223
-99.112
-94.837
-89.195
-83.008
-77.033
-71.973
-68.448
-66.937
-67.555
-69.442
-70.71
-69.089
-62.183
-47.661
-23.159
13.698
65.016
130.852
208.297
293.111
380.196
466.623
553.451
641.544
728.763
807.014
861.053
873.083
830.244
729.425
576.439
388.446
188.842
-0.819
-157.505
-267.514
-332.202
-356.772
-354.673
-339.407
-311.918
-275.576
-234.484
-190.107
-152.396
-125.635
-106.035
-92.792
-81.579
-70.575
-64.114
-63.422
-68.551
-78.799
-90.658
-101.367
-109.484
-114.213
-115.734
-114.581
-111.305
-106.41
-100.486
-94.454
-89.257
-85.476
-83.352
-82.792
-83.469
-85.081
-87.32
-89.753
-91.931
-93.574
-94.549
-94.853
-94.579
-93.801
-92.569
-90.964
-89.074
-86.964
-84.68
-82.252
-79.702
-77.077
-74.443
-71.863
-69.386
-67.041
-64.842
-62.795
-60.903
-59.156
-57.538
-56.03
-54.619
-53.295
-52.047
-50.865
-49.734
-48.635
-47.55
-46.46
-45.344
-44.19
-42.982
-41.713
-40.374
-38.959
-37.464
-35.885
-34.217
-32.454
-30.592
-28.624
-26.548
-24.359
-22.056
-19.639
-17.108
-14.467
-11.718
-8.867
-5.918
-2.877
0.248
3.448
6.716
10.042
13.415
16.823
20.256
23.699
27.14
30.566
33.963
37.317
40.613
43.838
46.978
50.018
52.946
55.748
58.411
60.922
63.27
65.443
67.43
69.22
70.805
72.175
73.322
74.241
74.925
75.369
75.571
75.528
75.237
74.699
73.915
72.887
71.617
70.11
68.371
66.406
64.223
61.83
59.236
56.45
53.483
50.346
47.05
43.608
40.033
36.337
32.536
28.642
24.671
20.638
16.558
12.446
8.319
4.19
0.077
-4.005
-8.042
-12.018
-15.918
-19.729
-23.435
-27.025
-30.488
-33.811
-36.986
-40.004
-42.857
-45.54
-48.048
-50.375
-52.518
-54.474
-56.242
-57.819
-59.208
-60.407
-61.418
-62.245
-62.891
-63.361
-63.662
-63.801
-63.783
-63.618
-63.314
-62.882
-62.331
-61.674
-60.921
-60.085
-59.18
-58.218
-57.212
-56.174
-55.116
-54.048
-52.98
-51.92
-50.873
-49.846
-48.844
-47.871
-46.933
-46.035
-45.181
-44.376
-43.625
-42.932
-42.301
-41.732
-41.222
-40.765
-40.358
-39.994
-39.665
-39.362
-39.071
-38.784
-38.494
-38.193
-37.869
-37.508
-37.086
-36.585
-35.999
-35.32
-34.546
-33.677
-32.716
-31.677
-30.591
-29.487
-28.389
-27.309
-26.234
-25.156
-24.072
-22.977
-21.873
-20.742
-19.54
-18.239
-16.817
-15.25
-13.516
-11.564
-9.307
-6.678
-3.631
-0.151
3.728
7.981
12.579
17.468
22.579
27.805
33
38.049
42.867
47.361
51.445
54.994
57.844
59.87
60.983
61.124
60.277
58.42
55.539
51.676
46.912
41.369
35.218
28.594
21.605
14.389
7.075
-0.183
-7.201
-13.845
-20.007
-25.58
-30.472
-34.583
-37.827
-40.191
-41.704
-42.423
-42.452
-41.882
-40.809
-39.393
-37.793
-36.174
-34.714
-33.556
-32.83
-32.696
-33.354
-34.935
-37.476
-40.88
-44.856
-49.068
-53.162
-56.729
-59.297
-60.489
-60.079
-58.154
-55.328
-52.336
-49.956
-48.89
-49.432
-51.881
-56.503
-62.647
-68.918
-72.458
-68.729
-55.55
-32.358
-0.026
37.564
82.368
139.496
211.588
302.976
408.828
517.716
624.26
721.279
803.279
867.959
903.193
895.384
839.149
732.765
584.036
411.025
229.611
56.181
-90.038
-198.998
-268.674
-300.721
-306.174
-295.263
-268.502
-230.184
-185.763
-138.732
-100.671
-76.039
-59.775
-49.902
-41.032
-31.149
-25.652
-26.408
-33.712
-46.851
-61.717
-75.155
-85.647
-92.297
-95.297
-95.231
-92.666
-88.186
-82.502
-76.616
-71.509
-67.786
-65.71
-65.189
-65.899
-67.53
-69.749
-72.112
-74.181
-75.688
-76.511
-76.657
-76.222
-75.278
-73.879
-72.105
-70.043
-67.754
-65.283
-62.658
-59.902
-57.063
-54.21
-51.409
-48.712
-46.152
-43.746
-41.505
-39.437
-37.538
-35.797
-34.199
-32.732
-31.389
-30.162
-29.041
-28.011
-27.054
-26.149
-25.274
-24.41
-23.54
-22.647
-21.719
-20.745
-19.715
-18.623
-17.46
-16.219
-14.891
-13.465
-11.934
-10.291
-8.528
-6.642
-4.627
-2.482
-0.207
2.197
4.728
7.383
10.156
13.043
16.036
19.127
22.306
25.565
28.89
32.269
35.69
39.136
42.594
46.048
49.481
52.877
56.22
59.494
62.682
65.77
68.741
71.581
74.275
76.809
79.17
81.346
83.325
85.097
86.651
87.981
89.079
89.94
90.559
90.934
91.063
90.945
90.582
89.974
89.125
88.04
86.724
85.183
83.425
81.46
79.296
76.946
74.419
71.73
68.889
65.91
62.806
59.592
56.282
52.889
49.428
45.914
42.361
38.784
35.196
31.612
28.046
24.509
21.014
17.573
14.198
10.898
7.684
4.564
1.548
-1.357
-4.143
-6.806
-9.34
-11.74
-14.004
-16.128
-18.111
-19.952
-21.652
-23.21
-24.628
-25.908
-27.052
-28.064
-28.948
-29.708
-30.349
-30.877
-31.299
-31.62
-31.847
-31.987
-32.048
-32.035
-31.956
-31.819
-31.63
-31.396
-31.125
-30.822
-30.495
-30.15
-29.791
-29.425
-29.057
-28.689
-28.327
-27.974
-27.632
-27.303
-26.988
-26.69
-26.408
-26.142
-25.892
-25.655
-25.429
-25.212
-25
-24.788
-24.572
-24.345
-24.103
-23.84
-23.549
-23.224
-22.857
-22.443
-21.975
-21.446
-20.849
-20.178
-19.428
-18.592
-17.665
-16.645
-15.527
-14.308
-12.986
-11.56
-10.03
-8.398
-6.666
-4.835
-2.911
-0.9
1.193
3.358
5.586
7.866
10.182
12.52
14.862
17.191
19.489
21.735
23.911
25.996
27.974
29.826
31.535
33.083
34.45
35.615
36.562
37.274
37.735
37.932
37.851
37.481
36.819
35.865
34.614
33.061
31.192
28.992
26.463
23.606
20.428
16.947
13.183
9.164
4.943
0.572
-3.896
-8.412
-12.942
-17.452
-21.888
-26.191
-30.286
-34.099
-37.589
-40.72
-43.456
-45.794
-47.75
-49.37
-50.755
-52.001
-53.195
-54.434
-55.803
-57.402
-59.352
-61.755
-64.743
-68.478
-72.988
-78.226
-84.032
-90.036
-95.85
-101.103
-105.293
-107.933
-108.75
-107.602
-104.798
-101.128
-97.329
-94.13
-92.08
-91.318
-91.971
-94.12
-96.876
-98.549
-96.094
-85.112
-62.636
-27.795
16.694
65.903
116.85
169.639
230.745
307.929
404.545
519.982
643.011
756.369
844.742
891.505
886.056
828.584
721.668
574.686
406.229
231.782
69.437
-61.196
-155.148
-212.866
-240.981
-255.748
-264.379
-267.78
-264.957
-250.099
-222.862
-188.151
-150.941
-116.325
-87.132
-64.206
-48.04
-38.717
-35.767
-38.02
-44.024
-52.807
-63.419
-74.614
-85.109
-93.507
-99.037
-101.828
-102.251
-100.624
-97.368
-93.023
-88.321
-84.231
-81.316
-79.631
-79.055
-79.317
-80.127
-81.28
-82.479
-83.325
-83.608
-83.267
-82.32
-80.901
-79.112
-76.996
-74.624
-72.075
-69.4
-66.656
-63.891
-61.134
-58.437
-55.846
-53.39
-51.098
-48.986
-47.054
-45.303
-43.718
-42.278
-40.971
-39.789
-38.724
-37.773
-36.92
-36.148
-35.44
-34.774
-34.133
-33.499
-32.852
-32.175
-31.456
-30.685
-29.855
-28.961
-27.994
-26.946
-25.807
-24.57
-23.228
-21.774
-20.203
-18.508
-16.689
-14.743
-12.673
-10.481
-8.169
-5.741
-3.203
-0.561
2.178
5.004
7.909
10.882
13.911
16.983
20.085
23.202
26.32
29.424
32.498
35.527
38.496
41.391
44.196
46.9
49.487
51.946
54.264
56.428
58.429
60.254
61.895
63.341
64.584
65.617
66.434
67.029
67.398
67.539
67.448
67.126
66.572
65.788
64.776
63.54
62.085
60.416
58.542
56.469
54.208
51.767
49.157
46.389
43.474
40.424
37.251
33.966
30.582
27.111
23.568
19.963
16.312
12.627
8.921
5.209
1.503
-2.183
-5.836
-9.444
-12.994
-16.475
-19.875
-23.183
-26.39
-29.486
-32.462
-35.313
-38.03
-40.61
-43.047
-45.339
-47.483
-49.479
-51.325
-53.021
-54.569
-55.97
-57.227
-58.342
-59.319
-60.163
-60.879
-61.472
-61.949
-62.316
-62.581
-62.751
-62.835
-62.84
-62.775
-62.649
-62.47
-62.248
-61.992
-61.709
-61.41
-61.1
-60.789
-60.483
-60.187
-59.906
-59.647
-59.411
-59.202
-59.022
-58.873
-58.756
-58.67
-58.615
-58.589
-58.59
-58.614
-58.657
-58.715
-58.782
-58.852
-58.918
-58.973
-59.011
-59.024
-59.003
-58.941
-58.83
-58.659
-58.423
-58.111
-57.715
-57.228
-56.641
-55.949
-55.146
-54.226
-53.184
-52.018
-50.724
-49.301
-47.75
-46.069
-44.261
-42.329
-40.278
-38.112
-35.84
-33.471
-31.015
-28.484
-25.891
-23.254
-20.587
-17.909
-15.237
-12.592
-9.991
-7.455
-5.001
-2.648
-0.413
1.687
3.633
5.407
6.99
8.367
9.52
10.436
11.102
11.508
11.65
11.524
11.13
10.462
9.511
8.27
6.735
4.908
2.791
0.397
-2.254
-5.132
-8.19
-11.38
-14.656
-17.974
-21.299
-24.594
-27.819
-30.926
-33.858
-36.562
-38.993
-41.112
-42.879
-44.282
-45.342
-46.112
-46.693
-47.183
-47.66
-48.198
-48.889
-49.83
-51.133
-52.925
-55.266
-58.238
-61.987
-66.568
-71.952
-77.96
-84.1
-89.773
-94.518
-97.841
-99.162
-98.164
-94.712
-89.078
-82.36
-75.88
-70.591
-67.181
-66.423
-68.809
-74.068
-81.289
-87.168
-86.234
-75.538
-53.789
-21.326
17.058
61.473
117.031
187.406
280.604
398.255
530.367
666.1
786.711
871.984
911.749
899.049
836.204
735.473
606.913
458.77
299.025
133.169
-27.819
-165.926
-268.681
-330.264
-354.814
-357.379
-348.361
-332.32
-309.98
-277.388
-235.134
-188.091
-141.065
-99.542
-67.144
-44.965
-33.019
-30.051
-34.073
-43.004
-55.052
-68.595
-81.521
-91.791
-98.277
-100.621
-99.259
-95.132
-89.018
-81.69
-74.342
-68.237
-64.117
-62.261
-62.49
-64.292
-67.241
-70.971
-74.986
-78.759
-81.956
-84.419
-86.123
-87.162
-87.574
-87.333
-86.457
-84.99
-82.982
-80.5
-77.624
-74.444
-71.068
-67.619
-64.184
-60.826
-57.586
-54.482
-51.526
-48.723
-46.078
-43.605
-41.323
-39.247
-37.384
-35.722
-34.23
-32.864
-31.578
-30.327
-29.073
-27.788
-26.45
-25.048
-23.577
-22.04
-20.437
-18.762
-17.007
-15.159
-13.209
-11.152
-8.985
-6.707
-4.319
-1.824
0.773
3.469
6.259
9.141
12.114
15.178
18.33
21.566
24.88
28.263
31.706
35.199
38.727
42.277
45.835
49.386
52.916
56.412
59.858
63.239
66.541
69.75
72.851
75.83
78.673
81.366
83.896
86.25
88.418
90.387
92.148
93.692
95.008
96.092
96.935
97.532
97.878
97.971
97.806
97.384
96.704
95.768
94.579
93.14
91.458
89.538
87.39
85.021
82.441
79.661
76.692
73.547
70.237
66.778
63.182
59.465
55.642
51.728
47.739
43.69
39.598
35.478
31.346
27.217
23.108
19.034
15.009
11.05
7.17
3.382
-0.299
-3.863
-7.298
-10.593
-13.739
-16.729
-19.554
-22.208
-24.687
-26.987
-29.104
-31.038
-32.788
-34.355
-35.742
-36.952
-37.989
-38.859
-39.567
-40.121
-40.528
-40.796
-40.934
-40.952
-40.86
-40.667
-40.385
-40.026
-39.599
-39.116
-38.589
-38.029
-37.447
-36.853
-36.257
-35.669
-35.099
-34.553
-34.04
-33.567
-33.14
-32.762
-32.437
-32.169
-31.957
-31.803
-31.705
-31.661
-31.667
-31.719
-31.812
-31.939
-32.094
-32.268
-32.454
-32.642
-32.823
-32.988
-33.126
-33.227
-33.281
-33.277
-33.205
-33.055
-32.815
-32.477
-32.031
-31.47
-30.785
-29.97
-29.019
-27.927
-26.693
-25.313
-23.789
-22.12
-20.308
-18.358
-16.278
-14.075
-11.758
-9.341
-6.835
-4.259
-1.631
1.031
3.706
6.378
9.025
11.624
14.152
16.587
18.907
21.089
23.114
24.955
26.589
27.997
29.16
30.066
30.704
31.059
31.118
30.873
30.321
29.464
28.302
26.833
25.056
22.979
20.613
17.975
15.088
11.975
8.661
5.182
1.576
-2.119
-5.859
-9.604
-13.322
-16.975
-20.538
-24
-27.325
-30.48
-33.425
-36.093
-38.464
-40.58
-42.459
-44.105
-45.575
-46.943
-48.422
-50.405
-53.103
-56.521
-60.593
-65.199
-70.236
-75.579
-80.7
-84.597
-86.479
-85.941
-82.947
-77.777
-70.542
-61.337
-50.879
-40.67
-32.339
-27.205
-25.902
-28.422
-34.912
-45.409
-59.172
-74.41
-88.301
-97.58
-99.431
-91.466
-70.96
-35.484
16.616
86.185
171.02
265.958
366.077
465.917
561.652
654.134
741.711
818.23
874.513
895.212
867.246
788.468
664.085
505.561
328.968
147.584
-25.828
-175.207
-287.958
-358.576
-389.525
-391.212
-375.727
-348.297
-307.836
-255.36
-194.477
-133.381
-84.666
-52.655
-34.748
-27.318
-23.159
-19.987
-21.26
-27.814
-40.298
-57.526
-74.555
-88.208
-97.464
-101.964
-102.623
-100.509
-96.049
-89.901
-83.33
-77.547
-73.23
-70.632
-69.571
-69.595
-70.384
-71.67
-73.015
-73.968
-74.281
-73.853
-72.726
-71.067
-68.99
-66.557
-63.854
-60.965
-57.95
-54.871
-51.774
-48.689
-45.671
-42.769
-40.01
-37.425
-35.027
-32.815
-30.792
-28.943
-27.247
-25.691
-24.271
-22.98
-21.817
-20.769
-19.818
-18.945
-18.13
-17.355
-16.6
-15.848
-15.081
-14.286
-13.453
-12.576
-11.65
-10.664
-9.607
-8.47
-7.243
-5.916
-4.482
-2.935
-1.269
0.52
2.433
4.468
6.623
8.896
11.283
13.78
16.382
19.08
21.868
24.738
27.68
30.683
33.736
36.828
39.944
43.073
46.2
49.313
52.395
55.433
58.413
61.321
64.143
66.864
69.471
71.951
74.29
76.476
78.498
80.343
82.002
83.464
84.723
85.769
86.599
87.205
87.585
87.736
87.655
87.343
86.799
86.025
85.023
83.797
82.351
80.691
78.824
76.755
74.493
72.048
69.427
66.641
63.7
60.616
57.4
54.064
50.621
47.084
43.467
39.783
36.048
32.274
28.478
24.673
20.874
17.094
13.348
9.649
6.01
2.443
-1.041
-4.43
-7.715
-10.886
-13.936
-16.858
-19.645
-22.293
-24.797
-27.154
-29.362
-31.42
-33.326
-35.082
-36.688
-38.146
-39.46
-40.633
-41.669
-42.575
-43.356
-44.02
-44.574
-45.025
-45.383
-45.658
-45.857
-45.992
-46.071
-46.106
-46.105
-46.079
-46.035
-45.983
-45.929
-45.882
-45.846
-45.828
-45.829
-45.855
-45.905
-45.983
-46.088
-46.219
-46.375
-46.552
-46.749
-46.959
-47.179
-47.402
-47.621
-47.83
-48.022
-48.188
-48.319
-48.408
-48.446
-48.422
-48.327
-48.153
-47.889
-47.526
-47.054
-46.466
-45.752
-44.907
-43.925
-42.8
-41.529
-40.111
-38.544
-36.832
-34.974
-32.976
-30.841
-28.578
-26.195
-23.702
-21.113
-18.439
-15.698
-12.908
-10.087
-7.256
-4.434
-1.64
1.104
3.779
6.365
8.84
11.182
13.372
15.388
17.209
18.811
20.174
21.281
22.118
22.675
22.942
22.915
22.587
21.952
21.006
19.744
18.166
16.276
14.081
11.588
8.817
5.797
2.564
-0.834
-4.357
-7.969
-11.635
-15.326
-19.001
-22.611
-26.106
-29.446
-32.605
-35.573
-38.328
-40.821
-43.014
-44.912
-46.572
-48.108
-49.59
-50.995
-52.349
-53.795
-55.621
-58.158
-61.579
-65.776
-70.612
-76.168
-82.436
-89.138
-95.509
-100.382
-102.891
-102.849
-100.387
-95.378
-87.789
-77.988
-67.225
-57.691
-51.285
-48.881
-50.616
-56.644
-66.923
-80.762
-96.113
-109.302
-116.409
-114.262
-100.246
-71.812
-26.712
36.716
117.417
210.607
310.616
411.57
509.727
605.857
699.255
784.741
853.148
888.3
874.784
807.889
691.038
537.023
365.08
188.902
20.349
-128.615
-249.536
-331.699
-368.285
-361.468
-320.066
-261.329
-204.157
-161.615
-138.224
-128.355
-121.197
-108.918
-90.04
-69.259
-53.888
-47.737
-50.531
-59.42
-70.538
-81.737
-91.714
-99.279
-104.109
-106.121
-105.516
-103.016
-99.189
-94.463
-89.635
-85.591
-82.855
-81.648
-81.838
-83.038
-84.91
-87.172
-89.471
-91.416
-92.759
-93.386
-93.296
-92.587
-91.349
-89.641
-87.531
-85.106
-82.427
-79.543
-76.506
-73.352
-70.143
-66.956
-63.847
-60.857
-58.017
-55.342
-52.838
-50.512
-48.351
-46.335
-44.456
-42.705
-41.077
-39.567
-38.163
-36.847
-35.602
-34.409
-33.251
-32.11
-30.972
-29.823
-28.653
-27.453
-26.217
-24.94
-23.613
-22.227
-20.773
-19.24
-17.621
-15.907
-14.094
-12.173
-10.142
-7.999
-5.743
-3.374
-0.895
1.694
4.388
7.184
10.075
13.054
16.116
19.249
22.446
25.694
28.983
32.299
35.629
38.96
42.277
45.566
48.811
51.997
55.109
58.131
61.048
63.845
66.506
69.018
71.367
73.54
75.525
77.309
78.883
80.238
81.365
82.258
82.911
83.319
83.48
83.392
83.053
82.464
81.626
80.542
79.215
77.651
75.855
73.836
71.6
69.158
66.52
63.696
60.7
57.544
54.242
50.807
47.257
43.604
39.867
36.06
32.201
28.305
24.39
20.47
16.563
12.683
8.844
5.063
1.351
-2.278
-5.812
-9.24
-12.551
-15.736
-18.786
-21.692
-24.449
-27.049
-29.489
-31.765
-33.874
-35.813
-37.583
-39.184
-40.617
-41.885
-42.991
-43.941
-44.74
-45.395
-45.913
-46.303
-46.575
-46.736
-46.799
-46.772
-46.666
-46.493
-46.261
-45.982
-45.666
-45.322
-44.959
-44.588
-44.215
-43.848
-43.496
-43.163
-42.857
-42.581
-42.34
-42.138
-41.977
-41.858
-41.784
-41.753
-41.766
-41.819
-41.91
-42.034
-42.187
-42.361
-42.55
-42.744
-42.936
-43.115
-43.272
-43.396
-43.475
-43.5
-43.458
-43.34
-43.134
-42.829
-42.416
-41.886
-41.229
-40.439
-39.509
-38.433
-37.206
-35.826
-34.289
-32.596
-30.745
-28.738
-26.577
-24.268
-21.815
-19.226
-16.511
-13.681
-10.748
-7.729
-4.641
-1.501
1.669
4.848
8.015
11.146
14.217
17.206
20.09
22.846
25.452
27.883
30.117
32.133
33.907
35.419
36.651
37.585
38.207
38.51
38.487
38.132
37.441
36.401
35.006
33.254
31.146
28.688
25.888
22.762
19.344
15.681
11.825
7.831
3.738
-0.423
-4.601
-8.742
-12.791
-16.678
-20.358
-23.808
-26.967
-29.777
-32.25
-34.415
-36.348
-38.18
-39.983
-41.783
-43.668
-45.75
-47.95
-50.18
-52.647
-55.433
-58.557
-62.479
-66.292
-69.031
-72.062
-75.531
-81.528
-92.606
-104.684
-114.845
-118.936
-111.773
-97.712
-80.952
-65.326
-56.367
-52.097
-50.452
-51.556
-53.704
-57.306
-62.006
-64.443
-61.51
-50.132
-26.936
10.571
64.345
134.235
216.65
306.78
399.383
491.983
586.644
682.57
773.611
848.203
887.567
876.644
812.406
700.192
553.882
391.569
226.199
68.989
-67.058
-173.269
-244.901
-281.353
-291.421
-286.222
-271.755
-251.818
-226.656
-194.09
-156.057
-116.668
-79.485
-48.774
-27.343
-15.3
-11.723
-15.141
-23.56
-35.11
-48.541
-62.235
-74.041
-82.826
-88.245
-90.311
-89.759
-87.416
-83.735
-79.519
-75.944
-73.636
-72.852
-73.615
-75.502
-78.091
-81.121
-84.21
-86.898
-88.939
-90.21
-90.685
-90.496
-89.751
-88.508
-86.859
-84.891
-82.662
-80.224
-77.625
-74.894
-72.09
-69.283
-66.525
-63.854
-61.295
-58.859
-56.553
-54.379
-52.327
-50.38
-48.53
-46.774
-45.11
-43.536
-42.044
-40.619
-39.244
-37.903
-36.582
-35.264
-33.936
-32.586
-31.206
-29.791
-28.335
-26.836
-25.286
-23.678
-22.005
-20.259
-18.433
-16.523
-14.524
-12.431
-10.244
-7.962
-5.587
-3.121
-0.566
2.075
4.799
7.6
10.473
13.412
16.41
19.459
22.548
25.668
28.805
31.949
35.086
38.203
41.286
44.32
47.291
50.186
52.99
55.691
58.274
60.726
63.035
65.19
67.18
68.993
70.623
72.059
73.296
74.327
75.149
75.757
76.149
76.322
76.275
76.008
75.522
74.819
73.9
72.77
71.434
69.899
68.171
66.258
64.169
61.915
59.506
56.953
54.266
51.46
48.545
45.536
42.444
39.284
36.069
32.811
29.525
26.223
22.917
19.62
16.341
13.093
9.886
6.73
3.636
0.612
-2.331
-5.186
-7.944
-10.598
-13.142
-15.568
-17.874
-20.054
-22.105
-24.026
-25.813
-27.467
-28.987
-30.375
-31.631
-32.758
-33.759
-34.638
-35.399
-36.049
-36.593
-37.037
-37.388
-37.651
-37.836
-37.947
-37.993
-37.98
-37.916
-37.809
-37.666
-37.495
-37.305
-37.102
-36.893
-36.686
-36.488
-36.305
-36.142
-36.004
-35.895
-35.82
-35.781
-35.781
-35.822
-35.905
-36.029
-36.195
-36.4
-36.643
-36.92
-37.226
-37.557
-37.906
-38.269
-38.638
-39.005
-39.362
-39.702
-40.016
-40.294
-40.528
-40.708
-40.824
-40.867
-40.827
-40.695
-40.463
-40.121
-39.662
-39.079
-38.367
-37.521
-36.536
-35.409
-34.139
-32.724
-31.167
-29.468
-27.631
-25.66
-23.562
-21.344
-19.016
-16.589
-14.073
-11.484
-8.839
-6.155
-3.451
-0.748
1.933
4.571
7.142
9.626
12.002
14.25
16.352
18.285
20.028
21.561
22.868
23.93
24.735
25.268
25.518
25.477
25.146
24.524
23.61
22.399
20.877
19.035
16.877
14.404
11.627
8.561
5.221
1.639
-2.138
-6.06
-10.078
-14.148
-18.239
-22.307
-26.296
-30.146
-33.776
-37.12
-40.133
-42.772
-45.008
-46.832
-48.251
-49.305
-50.077
-50.656
-51.141
-51.638
-52.241
-53.07
-54.24
-55.889
-58.202
-61.262
-65.059
-69.482
-74.235
-78.993
-83.456
-87.202
-89.729
-90.725
-89.999
-87.717
-84.615
-81.358
-78.608
-77.058
-77.044
-78.87
-82.864
-88.49
-94.198
-97.24
-93.547
-79.817
-54.569
-19.598
21.462
66.808
117.216
179.362
260.566
363.452
485.462
613.805
732.615
825.919
879.638
888.231
847.784
760.948
634.065
471.194
286.8
96.464
-81.1
-220.23
-310.953
-353.114
-356.019
-341.871
-322.557
-301.718
-279.516
-249.23
-210.216
-167.596
-125.954
-90.932
-65.924
-50.91
-44.911
-46.229
-52.744
-62.572
-74.299
-86.56
-97.579
-105.866
-110.774
-112.271
-110.947
-107.645
-102.919
-97.298
-91.676
-86.99
-83.753
-82.106
-81.833
-82.51
-83.828
-85.539
-87.291
-88.693
-89.504
-89.627
-89.086
-88.005
-86.478
-84.553
-82.299
-79.791
-77.092
-74.253
-71.319
-68.32
-65.305
-62.337
-59.46
-56.707
-54.102
-51.65
-49.354
-47.213
-45.212
-43.334
-41.569
-39.91
-38.351
-36.886
-35.499
-34.173
-32.891
-31.635
-30.387
-29.129
-27.846
-26.526
-25.159
-23.738
-22.256
-20.71
-19.091
-17.394
-15.609
-13.732
-11.755
-9.676
-7.488
-5.191
-2.782
-0.263
2.364
5.097
7.933
10.868
13.898
17.017
20.218
23.494
26.839
30.242
33.694
37.183
40.698
44.225
47.751
51.26
54.739
58.172
61.543
64.836
68.037
71.131
74.101
76.935
79.617
82.134
84.473
86.623
88.572
90.31
91.827
93.115
94.168
94.978
95.541
95.853
95.91
95.709
95.249
94.529
93.55
92.314
90.822
89.079
87.09
84.863
82.405
79.725
76.834
73.743
70.465
67.012
63.399
59.641
55.753
51.752
47.653
43.474
39.232
34.943
30.624
26.292
21.964
17.656
13.382
9.16
5.003
0.927
-3.055
-6.928
-10.679
-14.296
-17.767
-21.081
-24.227
-27.198
-29.985
-32.581
-34.983
-37.184
-39.183
-40.979
-42.572
-43.962
-45.153
-46.15
-46.956
-47.58
-48.028
-48.309
-48.433
-48.41
-48.249
-47.962
-47.561
-47.056
-46.459
-45.782
-45.038
-44.237
-43.393
-42.517
-41.622
-40.719
-39.819
-38.933
-38.072
-37.245
-36.46
-35.726
-35.05
-34.438
-33.895
-33.425
-33.029
-32.711
-32.468
-32.3
-32.203
-32.173
-32.204
-32.29
-32.422
-32.592
-32.791
-33.01
-33.238
-33.465
-33.681
-33.873
-34.031
-34.144
-34.201
-34.189
-34.098
-33.918
-33.64
-33.255
-32.754
-32.129
-31.376
-30.487
-29.459
-28.29
-26.977
-25.52
-23.921
-22.185
-20.317
-18.324
-16.217
-14.007
-11.708
-9.336
-6.909
-4.447
-1.968
0.506
2.953
5.351
7.68
9.917
12.042
14.034
15.872
17.533
18.996
20.242
21.253
22.013
22.506
22.719
22.646
22.283
21.626
20.67
19.404
17.819
15.915
13.693
11.157
8.32
5.201
1.829
-1.75
-5.491
-9.349
-13.282
-17.256
-21.238
-25.18
-29.029
-32.723
-36.2
-39.413
-42.325
-44.883
-47.064
-48.877
-50.362
-51.603
-52.69
-53.665
-54.578
-55.496
-56.488
-57.671
-59.169
-61.043
-63.384
-66.332
-69.94
-74.204
-78.955
-83.703
-87.877
-91.023
-92.656
-92.279
-89.62
-84.594
-77.591
-69.757
-62.423
-56.597
-52.988
-52.349
-55.177
-61.204
-69.275
-75.977
-76.229
-67.071
-46.911
-15.829
23.395
71.883
132.47
207.18
299.735
408.368
527.643
649.952
761.181
846.197
890.091
882.51
823.737
722.258
590.839
440.183
278.887
114.666
-41.231
-170.846
-262.809
-313.482
-327.551
-321.911
-305.983
-282.187
-254.616
-220.154
-181.462
-147.088
-117.031
-93.044
-75.95
-62.134
-53.66
-51.859
-55.437
-64.334
-76.196
-88.393
-99.446
-107.725
-112.596
-114.185
-112.796
-109.058
-103.597
-97.041
-90.341
-84.486
-80.045
-77.214
-75.878
-75.704
-76.398
-77.683
-79.147
-80.355
-81.052
-81.128
-80.598
-79.573
-78.122
-76.286
-74.139
-71.763
-69.218
-66.553
-63.794
-60.962
-58.101
-55.273
-52.537
-49.944
-47.517
-45.27
-43.209
-41.331
-39.631
-38.094
-36.701
-35.439
-34.294
-33.257
-32.313
-31.445
-30.632
-29.851
-29.082
-28.3
-27.49
-26.634
-25.72
-24.738
-23.679
-22.535
-21.3
-19.967
-18.527
-16.975
-15.303
-13.506
-11.58
-9.523
-7.332
-5.01
-2.557
0.023
2.724
5.541
8.468
11.496
14.616
17.818
21.091
24.423
27.802
31.214
34.645
38.081
41.506
44.906
48.265
51.568
54.799
57.943
60.985
63.911
66.706
69.359
71.855
74.182
76.33
78.287
80.045
81.594
82.926
84.037
84.919
85.57
85.985
86.165
86.108
85.815
85.288
84.53
83.544
82.336
80.911
79.275
77.437
75.404
73.187
70.795
68.239
65.53
62.68
59.703
56.61
53.416
50.133
46.776
43.359
39.896
36.401
32.889
29.372
25.866
22.382
18.935
15.537
12.2
8.934
5.751
2.661
-0.327
-3.205
-5.965
-8.601
-11.106
-13.476
-15.706
-17.794
-19.738
-21.535
-23.185
-24.69
-26.051
-27.269
-28.349
-29.295
-30.111
-30.803
-31.378
-31.843
-32.206
-32.474
-32.656
-32.761
-32.798
-32.774
-32.701
-32.586
-32.439
-32.269
-32.083
-31.889
-31.696
-31.51
-31.336
-31.181
-31.048
-30.942
-30.866
-30.821
-30.808
-30.829
-30.884
-30.97
-31.086
-31.229
-31.394
-31.577
-31.772
-31.972
-32.17
-32.357
-32.527
-32.67
-32.777
-32.84
-32.848
-32.794
-32.668
-32.46
-32.161
-31.763
-31.257
-30.636
-29.893
-29.022
-28.018
-26.878
-25.599
-24.18
-22.62
-20.92
-19.083
-17.112
-15.01
-12.785
-10.444
-7.995
-5.45
-2.82
-0.12
2.635
5.427
8.237
11.048
13.837
16.586
19.274
21.88
24.386
26.773
29.022
31.115
33.033
34.756
36.266
37.545
38.577
39.349
39.848
40.064
39.991
39.628
38.971
38.016
36.753
35.173
33.27
31.047
28.507
25.667
22.547
19.18
15.613
11.899
8.09
4.237
0.381
-3.438
-7.177
-10.78
-14.184
-17.325
-20.15
-22.623
-24.713
-26.411
-27.74
-28.758
-29.57
-30.295
-31.033
-31.885
-32.953
-34.343
-36.189
-38.621
-41.713
-45.569
-50.322
-56.018
-62.641
-69.991
-77.586
-84.939
-91.647
-97.243
-101.207
-103.136
-102.743
-100.263
-96.606
-92.609
-88.744
-85.46
-83.31
-82.8
-84.274
-86.039
-84.157
-75.403
-58.27
-34.822
-9.041
19.019
54.631
106.647
182.05
280.946
394.75
511.953
625.529
728.742
816.695
880.857
904.203
878.576
803.525
688.076
551.781
404.297
251.984
100.173
-46.026
-169.73
-258.268
-307.052
-319.341
-311.164
-293.883
-272.271
-248.341
-218.286
-182.004
-143.601
-106.503
-75.002
-52.013
-37.863
-31.891
-32.68
-38.416
-47.507
-58.809
-71.166
-82.848
-92.249
-98.585
-101.697
-102.007
-100.188
-96.679
-91.953
-86.929
-82.638
-79.684
-78.276
-78.258
-79.245
-80.95
-83.129
-85.41
-87.364
-88.723
-89.38
-89.352
-88.773
-87.739
-86.301
-84.531
-82.511
-80.302
-77.954
-75.508
-72.99
-70.449
-67.947
-65.531
-63.236
-61.085
-59.085
-57.237
-55.537
-53.971
-52.518
-51.169
-49.915
-48.749
-47.664
-46.646
-45.678
-44.741
-43.817
-42.887
-41.933
-40.938
-39.891
-38.781
-37.6
-36.343
-35.005
-33.578
-32.055
-30.427
-28.688
-26.832
-24.853
-22.748
-20.514
-18.15
-15.658
-13.041
-10.302
-7.446
-4.479
-1.407
1.762
5.018
8.352
11.753
15.209
18.707
22.232
25.771
29.308
32.828
36.314
39.75
43.121
46.411
49.603
52.682
55.633
58.443
61.096
63.579
65.881
67.988
69.892
71.581
73.048
74.285
75.286
76.047
76.565
76.836
76.861
76.64
76.174
75.466
74.522
73.344
71.942
70.32
68.49
66.46
64.24
61.843
59.279
56.563
53.706
50.722
47.627
44.432
41.154
37.806
34.403
30.96
27.491
24.011
20.532
17.07
13.637
10.245
6.908
3.635
0.438
-2.673
-5.689
-8.601
-11.403
-14.086
-16.647
-19.08
-21.382
-23.55
-25.583
-27.48
-29.242
-30.868
-32.362
-33.726
-34.963
-36.077
-37.073
-37.956
-38.732
-39.408
-39.99
-40.485
-40.902
-41.247
-41.528
-41.754
-41.931
-42.069
-42.175
-42.256
-42.321
-42.376
-42.429
-42.485
-42.551
-42.632
-42.733
-42.856
-43.005
-43.183
-43.389
-43.626
-43.892
-44.186
-44.508
-44.854
-45.221
-45.606
-46.003
-46.408
-46.815
-47.216
-47.604
-47.973
-48.312
-48.615
-48.872
-49.075
-49.215
-49.283
-49.269
-49.166
-48.963
-48.654
-48.229
-47.682
-47.004
-46.19
-45.234
-44.134
-42.885
-41.485
-39.934
-38.231
-36.38
-34.381
-32.24
-29.962
-27.553
-25.021
-22.377
-19.63
-16.794
-13.882
-10.91
-7.898
-4.864
-1.827
1.19
4.166
7.08
9.908
12.63
15.226
17.678
19.966
22.069
23.966
25.636
27.064
28.231
29.125
29.733
30.041
30.042
29.739
29.129
28.212
26.983
25.426
23.532
21.305
18.75
15.879
12.712
9.265
5.574
1.691
-2.332
-6.444
-10.601
-14.775
-18.926
-23.003
-26.945
-30.671
-34.115
-37.237
-39.999
-42.377
-44.367
-45.976
-47.248
-48.273
-49.141
-49.94
-50.765
-51.687
-52.806
-54.223
-56.056
-58.473
-61.562
-65.316
-69.632
-74.227
-78.765
-82.922
-86.291
-88.403
-88.933
-87.663
-84.715
-80.778
-76.575
-72.876
-70.394
-69.354
-70.098
-73.101
-77.783
-82.721
-85.269
-80.994
-67.601
-44.749
-13.206
23.764
67.032
120.207
186.62
271.428
373.837
489.034
610.676
725.679
820.342
880.385
892.385
853.404
768.268
647.446
505.413
353.228
200.617
58.927
-62.362
-156.018
-220.136
-260.69
-284.512
-295.825
-295.434
-280.274
-249.929
-207.815
-159.331
-111.528
-69.272
-35.311
-11.725
1.149
4.023
-2.005
-14.872
-32.092
-51.557
-70.789
-87.28
-99.673
-107.408
-110.501
-109.68
-105.886
-99.984
-93.251
-87.101
-82.315
-79.251
-77.928
-77.992
-79.065
-80.809
-82.736
-84.317
-85.268
-85.478
-84.958
-83.845
-82.238
-80.198
-77.817
-75.192
-72.388
-69.444
-66.394
-63.254
-60.074
-56.926
-53.861
-50.92
-48.132
-45.508
-43.053
-40.774
-38.661
-36.703
-34.895
-33.233
-31.716
-30.341
-29.095
-27.965
-26.94
-25.99
-25.088
-24.208
-23.323
-22.427
-21.525
-20.594
-19.611
-18.603
-17.587
-16.571
-15.578
-14.57
-13.483
-12.338
-11.18
-9.861
-8.212
-6.327
-4.197
-1.788
0.544
3.753
8.766
14.25
19.795
22.955
20.8
16.553
12.356
11.403
18.088
28.498
39.312
48.25
51.555
51.883
51.928
52.277
54.564
57.813
60.774
63.665
66.312
68.781
71.308
73.712
75.849
77.747
79.404
80.791
81.902
82.739
83.297
83.595
83.657
83.468
83.015
82.303
81.333
80.108
78.635
76.916
74.955
72.762
70.35
67.727
64.906
61.899
58.718
55.377
51.89
48.271
44.534
40.695
36.769
32.773
28.722
24.634
20.524
16.411
12.31
8.238
4.211
0.244
-3.647
-7.449
-11.148
-14.732
-18.188
-21.507
-24.678
-27.694
-30.547
-33.232
-35.743
-38.078
-40.233
-42.207
-44
-45.612
-47.045
-48.301
-49.383
-50.295
-51.041
-51.628
-52.062
-52.35
-52.501
-52.524
-52.428
-52.224
-51.923
-51.537
-51.076
-50.552
-49.978
-49.365
-48.725
-48.068
-47.405
-46.747
-46.103
-45.482
-44.892
-44.34
-43.832
-43.373
-42.967
-42.618
-42.328
-42.099
-41.93
-41.822
-41.774
-41.784
-41.849
-41.965
-42.128
-42.331
-42.569
-42.834
-43.118
-43.41
-43.701
-43.981
-44.238
-44.461
-44.639
-44.761
-44.814
-44.787
-44.669
-44.45
-44.12
-43.669
-43.089
-42.372
-41.514
-40.51
-39.355
-38.048
-36.587
-34.975
-33.211
-31.301
-29.247
-27.055
-24.732
-22.287
-19.729
-17.07
-14.322
-11.502
-8.627
-5.717
-2.793
0.125
3.013
5.849
8.608
11.268
13.811
16.214
18.457
20.52
22.38
24.016
25.411
26.549
27.415
27.998
28.285
28.27
27.955
27.338
26.42
25.194
23.644
21.761
19.546
17.002
14.139
10.974
7.524
3.82
-0.085
-4.14
-8.29
-12.486
-16.693
-20.866
-24.946
-28.865
-32.537
-35.89
-38.876
-41.459
-43.613
-45.335
-46.635
-47.562
-48.206
-48.674
-49.084
-49.553
-50.197
-51.155
-52.545
-54.517
-57.278
-60.913
-65.397
-70.6
-76.16
-81.695
-86.939
-91.511
-94.913
-96.862
-97.196
-96.091
-94.386
-92.865
-91.982
-92.083
-93.439
-96.265
-100.714
-106.263
-110.187
-108.549
-98.37
-78.275
-50.519
-19.156
15.257
56.946
113.949
193.175
295
410.84
526.959
634.713
729.271
808.643
871.686
905.204
893.071
825.771
699.131
526.069
330.028
132.781
-42.638
-180.822
-277.475
-332.555
-353.255
-349.958
-328.709
-295.845
-257.882
-218.952
-185.175
-159.086
-137.151
-117.21
-96.982
-77.117
-62.71
-55.949
-57.197
-65.115
-76.039
-87.733
-98.56
-106.828
-112.061
-114.172
-113.254
-109.99
-105.018
-98.841
-92.385
-86.706
-82.411
-79.761
-78.696
-78.84
-79.871
-81.528
-83.393
-84.997
-86.056
-86.432
-86.123
-85.252
-83.898
-82.106
-79.955
-77.535
-74.915
-72.154
-69.284
-66.327
-63.329
-60.354
-57.466
-54.717
-52.134
-49.732
-47.516
-45.486
-43.635
-41.947
-40.405
-38.995
-37.707
-36.528
-35.446
-34.447
-33.508
-32.609
-31.728
-30.843
-29.934
-28.987
-27.987
-26.925
-25.789
-24.572
-23.267
-21.864
-20.354
-18.729
-16.981
-15.102
-13.087
-10.932
-8.633
-6.19
-3.603
-0.874
1.992
4.993
8.122
11.373
14.737
18.205
21.767
25.411
29.124
32.894
36.705
40.541
44.388
48.227
52.043
55.816
59.53
63.166
66.708
70.137
73.436
76.589
79.579
82.392
85.011
87.424
89.618
91.579
93.298
94.765
95.97
96.908
97.573
97.96
98.067
97.891
97.433
96.694
95.675
94.382
92.819
90.992
88.909
86.579
84.013
81.221
78.216
75.012
71.622
68.062
64.346
60.492
56.516
52.435
48.266
44.027
39.735
35.409
31.065
26.722
22.397
18.106
13.865
9.691
5.598
1.6
-2.288
-6.053
-9.685
-13.171
-16.502
-19.669
-22.664
-25.48
-28.113
-30.558
-32.812
-34.874
-36.743
-38.421
-39.908
-41.208
-42.324
-43.263
-44.03
-44.631
-45.076
-45.371
-45.527
-45.554
-45.461
-45.261
-44.963
-44.58
-44.122
-43.602
-43.032
-42.422
-41.784
-41.13
-40.471
-39.818
-39.179
-38.566
-37.987
-37.449
-36.959
-36.524
-36.149
-35.837
-35.592
-35.416
-35.309
-35.273
-35.305
-35.405
-35.569
-35.793
-36.073
-36.402
-36.774
-37.181
-37.616
-38.068
-38.529
-38.989
-39.438
-39.866
-40.263
-40.616
-40.917
-41.153
-41.314
-41.391
-41.372
-41.25
-41.014
-40.658
-40.176
-39.561
-38.81
-37.92
-36.887
-35.712
-34.395
-32.938
-31.345
-29.618
-27.766
-25.795
-23.714
-21.533
-19.265
-16.923
-14.524
-12.085
-9.624
-7.162
-4.717
-2.312
0.032
2.296
4.459
6.506
8.416
10.173
11.756
13.146
14.329
15.288
16.01
16.485
16.7
16.652
16.341
15.769
14.938
13.845
12.475
10.822
8.886
6.667
4.174
1.421
-1.576
-4.785
-8.157
-11.643
-15.192
-18.76
-22.316
-25.821
-29.223
-32.466
-35.476
-38.184
-40.543
-42.511
-44.053
-45.166
-45.862
-46.188
-46.239
-46.11
-45.9
-45.721
-45.672
-45.872
-46.447
-47.529
-49.295
-51.869
-55.274
-59.419
-64.046
-68.768
-73.161
-76.746
-78.949
-79.333
-77.713
-74.267
-69.705
-65.009
-61.255
-59.43
-60.227
-64.201
-71.545
-81.318
-91.746
-99.524
-99.485
-88.474
-64.915
-28.648
16.151
68.838
133.142
211.63
310.777
431.495
563.342
694.711
807.513
883.137
913.641
894.842
830.624
732.26
608.134
464.587
306.344
138.684
-27.037
-172.57
-279.92
-340.436
-357.193
-344.772
-320.924
-295.703
-272.184
-247.852
-218.442
-184.741
-149.843
-117.268
-91.01
-72.341
-60.826
-55.71
-55.275
-57.896
-62.854
-69.32
-76.176
-82.416
-86.873
-88.925
-88.844
-87.114
-84.112
-80.282
-76.114
-72.215
-69.437
-68.22
-68.466
-69.948
-72.313
-75.22
-78.458
-81.718
-84.568
-86.751
-88.157
-88.735
-88.542
-87.62
-85.959
-83.622
-80.717
-77.357
-73.686
-69.826
-65.866
-61.904
-58.012
-54.24
-50.632
-47.21
-43.982
-40.967
-38.183
-35.639
-33.351
-31.32
-29.535
-27.974
-26.594
-25.349
-24.2
-23.106
-22.041
-20.983
-19.914
-18.823
-17.707
-16.562
-15.378
-14.148
-12.857
-11.492
-10.044
-8.507
-6.875
-5.147
-3.32
-1.393
0.634
2.763
4.993
7.328
9.77
12.32
14.977
17.74
20.603
23.559
26.602
29.72
32.904
36.141
39.419
42.725
46.045
49.366
52.672
55.947
59.177
62.345
65.435
68.431
71.318
74.081
76.703
79.17
81.47
83.588
85.514
87.235
88.741
90.024
91.076
91.89
92.46
92.781
92.851
92.667
92.229
91.538
90.595
89.404
87.97
86.298
84.397
82.274
79.938
77.401
74.674
71.77
68.701
65.482
62.129
58.655
55.077
51.411
47.674
43.88
40.047
36.191
32.327
28.471
24.639
20.846
17.105
13.43
9.834
6.33
2.929
-0.359
-3.525
-6.56
-9.456
-12.206
-14.806
-17.25
-19.536
-21.66
-23.623
-25.424
-27.065
-28.547
-29.876
-31.054
-32.087
-32.982
-33.746
-34.386
-34.91
-35.327
-35.647
-35.877
-36.029
-36.111
-36.135
-36.109
-36.044
-35.948
-35.83
-35.7
-35.565
-35.433
-35.311
-35.205
-35.12
-35.062
-35.034
-35.04
-35.083
-35.163
-35.282
-35.439
-35.633
-35.861
-36.121
-36.407
-36.716
-37.041
-37.375
-37.71
-38.038
-38.351
-38.64
-38.894
-39.105
-39.262
-39.356
-39.376
-39.314
-39.159
-38.904
-38.538
-38.056
-37.448
-36.711
-35.839
-34.828
-33.673
-32.374
-30.929
-29.338
-27.604
-25.728
-23.713
-21.567
-19.295
-16.906
-14.411
-11.821
-9.149
-6.411
-3.625
-0.808
2.019
4.837
7.625
10.362
13.025
15.594
18.05
20.372
22.542
24.54
26.346
27.942
29.31
30.434
31.299
31.888
32.189
32.198
31.909
31.32
30.426
29.218
27.689
25.843
23.682
21.214
18.45
15.408
12.122
8.641
5.018
1.306
-2.444
-6.192
-9.893
-13.5
-16.966
-20.226
-23.22
-25.915
-28.276
-30.277
-31.92
-33.205
-34.175
-34.974
-35.753
-36.626
-37.705
-39.04
-40.662
-42.711
-45.35
-48.52
-52.106
-56.251
-61.032
-66.457
-72.806
-78.827
-83.033
-86.139
-87.967
-90.44
-95.911
-100.639
-102.327
-97.997
-84.181
-66.178
-48.439
-34.406
-28.952
-29.703
-33.554
-38.744
-40.927
-37.909
-28.175
-8.234
24.809
72.876
137.418
217.076
306.825
401.35
495.154
584.118
667.874
743.861
805.882
843.779
843.332
796.407
703.7
573.579
420.246
252.703
76.259
-102.351
-273.642
-416.28
-506.772
-531.822
-487.886
-391.867
-272.774
-154.995
-61.5
-2.859
25.766
30.75
23.669
16.108
9.983
4.677
-2.737
-16.887
-37.104
-59.538
-80.159
-95.236
-103.704
-106.539
-105.055
-100.703
-94.637
-88.094
-82.426
-78.395
-76.287
-75.993
-77.059
-79.024
-81.52
-84.123
-86.392
-88.123
-89.237
-89.701
-89.645
-89.26
-88.515
-87.17
-85.25
-82.9
-80.113
-77.269
-73.708
-67.483
-59.149
-50.546
-44.772
-47.521
-58.275
-71.393
-81.195
-79.608
-66.363
-49.043
-33.493
-26.1
-27.785
-32.856
-37.873
-40.409
-39.805
-38.367
-37.09
-35.892
-34.835
-33.557
-31.974
-30.391
-28.889
-27.407
-25.943
-24.5
-23.057
-21.59
-20.063
-18.415
-16.625
-14.714
-12.686
-10.537
-8.267
-5.874
-3.358
-0.728
2.01
4.857
7.808
10.858
14
17.224
20.518
23.872
27.274
30.709
34.165
37.625
41.075
44.499
47.88
51.203
54.452
57.609
60.659
63.587
66.376
69.012
71.481
73.771
75.868
77.761
79.442
80.899
82.127
83.118
83.867
84.369
84.621
84.622
84.371
83.868
83.116
82.119
80.88
79.407
77.706
75.785
73.655
71.325
68.807
66.113
63.255
60.248
57.105
53.842
50.473
47.015
43.482
39.89
36.256
32.595
28.922
25.253
21.603
17.986
14.416
10.906
7.47
4.118
0.863
-2.286
-5.319
-8.228
-11.004
-13.643
-16.138
-18.485
-20.681
-22.724
-24.611
-26.344
-27.921
-29.346
-30.619
-31.745
-32.728
-33.573
-34.284
-34.869
-35.336
-35.69
-35.941
-36.097
-36.167
-36.16
-36.086
-35.952
-35.769
-35.546
-35.292
-35.016
-34.726
-34.431
-34.138
-33.855
-33.587
-33.341
-33.121
-32.931
-32.776
-32.657
-32.576
-32.534
-32.533
-32.57
-32.645
-32.756
-32.9
-33.073
-33.27
-33.486
-33.714
-33.948
-34.181
-34.403
-34.607
-34.784
-34.924
-35.02
-35.06
-35.036
-34.939
-34.758
-34.485
-34.11
-33.627
-33.026
-32.301
-31.445
-30.455
-29.327
-28.057
-26.644
-25.087
-23.387
-21.546
-19.566
-17.451
-15.208
-12.844
-10.368
-7.789
-5.121
-2.376
0.43
3.279
6.153
9.035
11.903
14.735
17.508
20.198
22.784
25.247
27.566
29.72
31.688
33.449
34.986
36.285
37.328
38.101
38.588
38.773
38.652
38.23
37.511
36.496
35.185
33.562
31.624
29.379
26.832
23.991
20.869
17.472
13.832
10.003
6.04
2.006
-2.059
-6.148
-10.241
-14.315
-18.314
-22.137
-25.711
-28.997
-31.955
-34.586
-36.857
-38.669
-40.091
-41.339
-42.621
-44.198
-46.152
-48.284
-50.588
-53.253
-56.24
-59.436
-62.595
-65.172
-67.047
-68.573
-69.748
-70.337
-70.241
-69.26
-67.521
-65.68
-63.968
-62.359
-61.233
-61.135
-62.536
-65.783
-70.869
-77.346
-84.411
-90.901
-94.189
-90.207
-76.515
-51.902
-17.058
24.761
74.199
133.808
206.072
295.145
399.055
512.16
627.775
733.415
816.324
863.851
864.869
817.142
726.673
604.289
460.843
306.365
149.505
0.759
-123.675
-213.661
-267.814
-291.152
-296.952
-292.607
-275.925
-246.875
-207.161
-162.902
-126.891
-103.748
-89.07
-78.371
-65.192
-48.501
-34.278
-25.465
-23.384
-28.081
-36.714
-47.48
-59.407
-71.019
-81.178
-89.333
-95.265
-98.886
-100.249
-99.547
-97.156
-93.88
-90.805
-88.507
-87.092
-86.528
-86.584
-87.085
-87.937
-88.847
-89.412
-89.413
-88.79
-87.592
-85.984
-84.069
-81.876
-79.474
-76.943
-74.347
-71.754
-69.202
-66.708
-64.29
-61.967
-59.758
-57.679
-55.74
-53.937
-52.258
-50.682
-49.196
-47.796
-46.479
-45.244
-44.081
-42.975
-41.914
-40.883
-39.871
-38.863
-37.846
-36.801
-35.717
-34.583
-33.394
-32.143
-30.824
-29.427
-27.943
-26.364
-24.683
-22.895
-20.995
-18.977
-16.839
-14.581
-12.203
-9.709
-7.1
-4.38
-1.554
1.374
4.396
7.505
10.692
13.949
17.264
20.625
24.019
27.434
30.854
34.265
37.652
40.998
44.288
47.506
50.636
53.663
56.572
59.347
61.974
64.441
66.733
68.84
70.75
72.454
73.941
75.206
76.24
77.039
77.598
77.914
77.985
77.809
77.386
76.719
75.809
74.661
73.28
71.671
69.842
67.802
65.561
63.129
60.519
57.742
54.813
51.745
48.553
45.252
41.858
38.385
34.849
31.266
27.651
24.02
20.388
16.77
13.179
9.63
6.135
2.708
-0.64
-3.896
-7.052
-10.096
-13.019
-15.814
-18.472
-20.988
-23.356
-25.572
-27.634
-29.538
-31.287
-32.879
-34.317
-35.603
-36.743
-37.74
-38.6
-39.327
-39.93
-40.414
-40.787
-41.059
-41.237
-41.33
-41.349
-41.302
-41.198
-41.048
-40.861
-40.644
-40.408
-40.16
-39.91
-39.666
-39.435
-39.227
-39.048
-38.907
-38.807
-38.755
-38.753
-38.805
-38.911
-39.071
-39.284
-39.546
-39.855
-40.21
-40.606
-41.042
-41.516
-42.023
-42.561
-43.125
-43.708
-44.302
-44.895
-45.476
-46.032
-46.552
-47.024
-47.438
-47.784
-48.053
-48.241
-48.339
-48.337
-48.222
-47.975
-47.582
-47.037
-46.334
-45.479
-44.483
-43.365
-42.147
-40.855
-39.508
-38.117
-36.678
-35.179
-33.602
-31.929
-30.154
-28.287
-26.335
-24.305
-22.196
-20.005
-17.714
-15.292
-12.699
-9.886
-6.825
-3.512
0.028
3.739
7.546
11.354
15.089
18.692
22.11
25.3
28.214
30.805
33.011
34.755
35.95
36.498
36.322
35.373
33.642
31.149
27.957
24.163
19.854
15.106
9.986
4.549
-1.139
-6.998
-12.942
-18.879
-24.703
-30.299
-35.561
-40.384
-44.693
-48.424
-51.559
-54.126
-56.151
-57.663
-58.697
-59.288
-59.498
-59.422
-59.163
-58.824
-58.522
-58.386
-58.564
-59.187
-60.39
-62.347
-65.119
-68.673
-72.896
-77.465
-82.019
-86.283
-89.89
-92.389
-93.506
-93.054
-91.111
-88.364
-85.562
-83.218
-81.764
-81.552
-82.893
-86.095
-90.927
-95.01
-94.54
-86.522
-69.5
-45.592
-18.773
10.501
46.755
98.273
171.985
268.569
379.948
492.857
598.723
691.792
767.857
824.298
849.806
831.256
764.509
649.577
495.797
323.194
147.704
-13.556
-141.503
-230.887
-281.271
-298.735
-299.876
-292.703
-279.844
-262.214
-235.141
-199.236
-159.935
-121.719
-89.891
-67.892
-55.811
-52.85
-57.567
-67.745
-81.031
-95.585
-109.543
-120.81
-128.319
-131.764
-131.176
-127.372
-121.464
-114.257
-106.777
-100.274
-95.378
-92.353
-91.271
-91.766
-93.425
-95.937
-98.817
-101.517
-103.742
-105.333
-106.234
-106.546
-106.321
-105.578
-104.399
-102.864
-101.032
-98.954
-96.651
-94.131
-91.437
-88.637
-85.799
-83.001
-80.289
-77.689
-75.221
-72.897
-70.724
-68.699
-66.81
-65.041
-63.381
-61.821
-60.353
-58.968
-57.651
-56.382
-55.142
-53.91
-52.67
-51.41
-50.118
-48.785
-47.403
-45.966
-44.468
-42.907
-41.278
-39.573
-37.787
-35.913
-33.946
-31.883
-29.72
-27.455
-25.086
-22.615
-20.043
-17.373
-14.609
-11.755
-8.817
-5.803
-2.72
0.424
3.618
6.853
10.116
13.397
16.682
19.959
23.215
26.437
29.609
32.72
35.754
38.698
41.539
44.263
46.857
49.308
51.604
53.732
55.681
57.441
58.999
60.348
61.479
62.384
63.057
63.493
63.689
63.641
63.349
62.811
62.03
61.007
59.746
58.251
56.528
54.583
52.426
50.064
47.507
44.767
41.853
38.779
35.557
32.2
28.723
25.139
21.464
17.712
13.9
10.042
6.155
2.255
-1.643
-5.522
-9.367
-13.163
-16.895
-20.549
-24.112
-27.572
-30.916
-34.134
-37.216
-40.153
-42.938
-45.564
-48.026
-50.319
-52.441
-54.388
-56.162
-57.76
-59.186
-60.44
-61.526
-62.449
-63.212
-63.822
-64.286
-64.61
-64.803
-64.875
-64.834
-64.691
-64.456
-64.14
-63.754
-63.309
-62.817
-62.289
-61.735
-61.167
-60.594
-60.027
-59.474
-58.945
-58.447
-57.986
-57.57
-57.204
-56.891
-56.635
-56.439
-56.304
-56.23
-56.218
-56.267
-56.374
-56.536
-56.751
-57.013
-57.317
-57.657
-58.024
-58.413
-58.812
-59.214
-59.609
-59.987
-60.338
-60.651
-60.916
-61.122
-61.26
-61.32
-61.292
-61.167
-60.935
-60.59
-60.124
-59.532
-58.808
-57.948
-56.949
-55.811
-54.533
-53.115
-51.559
-49.869
-48.049
-46.104
-44.043
-41.873
-39.605
-37.25
-34.823
-32.342
-29.822
-27.283
-24.744
-22.225
-19.747
-17.33
-14.993
-12.754
-10.632
-8.644
-6.81
-5.153
-3.688
-2.433
-1.404
-0.614
-0.077
0.196
0.203
-0.057
-0.586
-1.388
-2.477
-3.865
-5.553
-7.54
-9.822
-12.383
-15.21
-18.275
-21.533
-24.935
-28.432
-31.979
-35.544
-39.093
-42.576
-45.937
-49.105
-52.008
-54.607
-56.866
-58.747
-60.243
-61.366
-62.158
-62.713
-63.119
-63.455
-63.818
-64.297
-64.994
-66.042
-67.549
-69.653
-72.529
-76.242
-80.763
-85.936
-91.398
-96.733
-101.538
-105.322
-107.565
-107.904
-106.185
-102.751
-98.424
-94.092
-90.644
-88.687
-88.497
-90.498
-94.861
-100.41
-105.333
-106.436
-98.763
-80.133
-50.011
-8.784
38.894
92.029
154.263
228.071
320.085
432.434
556.508
681.991
791.443
865.863
895.558
874.971
807.284
704.003
574.532
426.636
267.873
104.322
-52.169
-183.952
-279.386
-333.402
-351.306
-348.93
-336.851
-319.897
-298.756
-268.763
-230.053
-187.213
-144.353
-106.469
-76.606
-55.102
-42.012
-36.561
-36.98
-41.539
-49.006
-58.125
-67.527
-75.987
-82.182
-85.423
-86.015
-84.559
-81.581
-77.634
-73.268
-69.097
-65.939
-64.244
-63.952
-64.838
-66.555
-68.759
-71.217
-73.641
-75.641
-76.983
-77.586
-77.415
-76.524
-74.981
-72.822
-70.144
-67.105
-63.816
-60.367
-56.845
-53.308
-49.823
-46.455
-43.23
-40.154
-37.236
-34.485
-31.923
-29.577
-27.452
-25.536
-23.814
-22.25
-20.819
-19.496
-18.246
-17.035
-15.831
-14.611
-13.361
-12.08
-10.761
-9.395
-7.97
-6.473
-4.893
-3.223
-1.457
0.411
2.388
4.478
6.683
9.001
11.432
13.978
16.639
19.419
22.318
25.334
28.466
31.71
35.061
38.512
42.055
45.68
49.373
53.124
56.919
60.744
64.586
68.429
72.257
76.055
79.806
83.495
87.105
90.62
94.024
97.302
100.437
103.417
106.227
108.853
111.284
113.508
115.515
117.295
118.839
120.141
121.193
121.991
122.53
122.807
122.821
122.572
122.062
121.293
120.272
119.003
117.494
115.755
113.794
111.623
109.253
106.697
103.968
101.08
98.047
94.885
91.609
88.234
84.777
81.254
77.68
74.071
70.444
66.813
63.195
59.603
56.053
52.56
49.135
45.794
42.548
39.409
36.386
33.49
30.729
28.11
25.638
23.317
21.152
19.144
17.294
15.601
14.066
12.685
11.455
10.373
9.434
8.633
7.963
7.419
6.991
6.674
6.459
6.337
6.301
6.341
6.448
6.614
6.829
7.084
7.371
7.68
8.003
8.332
8.659
8.978
9.281
9.565
9.825
10.057
10.26
10.431
10.571
10.679
10.758
10.809
10.834
10.839
10.826
10.803
10.774
10.746
10.726
10.723
10.744
10.799
10.895
11.041
11.246
11.519
11.869
12.305
12.837
13.472
14.219
15.087
16.082
17.212
18.48
19.893
21.452
23.16
25.018
27.025
29.178
31.475
33.911
36.48
39.175
41.986
44.902
47.913
51.004
54.159
57.36
60.587
63.821
67.04
70.223
73.347
76.389
79.329
82.146
84.822
87.335
89.665
91.79
93.688
95.341
96.731
97.844
98.665
99.181
99.384
99.272
98.846
98.102
97.035
95.629
93.874
91.771
89.324
86.545
83.451
80.06
76.404
72.538
68.51
64.374
60.174
55.939
51.706
47.528
43.463
39.594
35.989
32.691
29.738
27.157
24.956
23.126
21.63
20.382
19.294
18.275
17.233
16.09
14.748
13.114
11.062
8.399
5.019
0.918
-3.799
-8.824
-13.803
-18.44
-22.309
-24.851
-25.694
-24.614
-21.747
-17.887
-13.852
-10.328
-8.11
-7.806
-9.751
-14.112
-20.276
-26.427
-30.403
-29.823
-22.141
-5.058
23.728
66.313
124.102
196.035
278.414
367.163
457.699
547.743
639.179
731.199
818.09
889.633
928.694
920.522
861.392
754.756
611.348
447.273
275.529
109.089
-35.489
-146.893
-220.99
-257.581
-265.587
-255.304
-228.044
-188.723
-143.913
-97.482
-60.998
-38.509
-24.003
-14.787
-4.92
7.415
16.062
18.789
14.893
4.535
-8.385
-21.151
-32.652
-41.504
-47.432
-50.844
-51.934
-50.98
-48.491
-44.99
-41.108
-37.817
-35.709
-34.833
-35.106
-36.245
-37.907
-39.899
-41.948
-43.64
-44.751
-45.208
-44.999
-44.263
-43.114
-41.587
-39.752
-37.689
-35.445
-33.083
-30.653
-28.186
-25.737
-23.355
-21.069
-18.916
-16.913
-15.067
-13.381
-11.845
-10.435
-9.143
-7.961
-6.885
-5.912
-5.03
-4.223
-3.475
-2.769
-2.089
-1.419
-0.741
-0.04
0.695
1.473
2.3
3.18
4.12
5.129
6.215
7.386
8.65
10.012
11.479
13.055
14.742
16.543
18.455
20.475
22.602
24.832
27.16
29.58
32.085
34.668
37.32
40.032
42.792
45.59
48.412
51.245
54.076
56.889
59.671
62.407
65.081
67.679
70.186
72.588
74.871
77.02
79.024
80.868
82.541
84.03
85.326
86.418
87.298
87.957
88.39
88.592
88.557
88.283
87.768
87.01
86.011
84.769
83.288
81.571
79.621
77.446
75.051
72.445
69.636
66.636
63.455
60.105
56.599
52.948
49.168
45.271
41.271
37.185
33.025
28.809
24.55
20.264
15.967
11.673
7.396
3.151
-1.049
-5.191
-9.263
-13.252
-17.145
-20.933
-24.604
-28.148
-31.555
-34.817
-37.928
-40.881
-43.672
-46.298
-48.757
-51.049
-53.174
-55.135
-56.933
-58.572
-60.056
-61.39
-62.579
-63.629
-64.55
-65.348
-66.034
-66.615
-67.103
-67.505
-67.831
-68.092
-68.295
-68.451
-68.569
-68.657
-68.727
-68.789
-68.853
-68.931
-69.031
-69.16
-69.326
-69.536
-69.793
-70.101
-70.46
-70.869
-71.329
-71.839
-72.398
-73.006
-73.659
-74.351
-75.081
-75.841
-76.63
-77.443
-78.27
-79.102
-79.929
-80.739
-81.521
-82.265
-82.959
-83.588
-84.14
-84.607
-84.979
-85.248
-85.402
-85.429
-85.305
-85.015
-84.539
-83.862
-83.003
-81.987
-80.838
-79.592
-78.263
-76.839
-75.372
-73.902
-72.34
-70.624
-68.678
-66.402
-63.919
-61.389
-58.767
-56.025
-53.336
-50.769
-48.506
-46.782
-45.275
-43.636
-41.877
-39.967
-37.748
-35.221
-32.116
-28.084
-23.567
-19.024
-14.568
-10.447
-6.843
-3.829
-1.846
-1.381
-2.245
-4.241
-7.311
-11.23
-15.956
-21.473
-27.465
-33.644
-40.001
-46.507
-53.138
-59.931
-66.754
-73.462
-79.985
-86.199
-91.968
-97.189
-101.755
-105.606
-108.741
-111.208
-113.114
-114.597
-115.79
-116.816
-117.759
-118.689
-119.701
-120.889
-122.363
-124.257
-126.648
-129.635
-133.35
-137.83
-143.026
-148.719
-154.428
-159.603
-163.796
-166.553
-167.412
-166.085
-162.45
-156.837
-150.159
-143.481
-137.618
-133.055
-130.317
-129.909
-131.92
-135.597
-138.006
-134.603
-121.915
-98.364
-66.43
-30.771
7.077
49.227
104.197
181.438
284.2
408.906
541.428
664.642
762.446
821.351
835.971
802.718
724.277
608.121
459.945
291.517
113.592
-62.379
-218.209
-340.161
-418.515
-450.122
-442.831
-407.614
-354.564
-293.76
-233.368
-179.038
-137.374
-110.084
-93.323
-84.529
-79.325
-76.248
-78.803
-87.646
-102.233
-120.817
-138.69
-152.699
-161.951
-166.248
-166.423
-163.589
-158.529
-152.114
-145.593
-140.152
-136.363
-134.408
-134.166
-135.234
-137.259
-139.912
-142.687
-145.094
-146.886
-147.954
-148.319
-148.099
-147.35
-146.111
-144.462
-142.485
-140.242
-137.78
-135.125
-132.292
-129.331
-126.307
-123.288
-120.329
-117.461
-114.704
-112.07
-109.569
-107.208
-104.982
-102.881
-100.9
-99.034
-97.277
-95.626
-94.066
-92.582
-91.156
-89.767
-88.397
-87.032
-85.658
-84.264
-82.84
-81.378
-79.87
-78.31
-76.689
-74.999
-73.23
-71.374
-69.423
-67.371
-65.212
-62.941
-60.556
-58.054
-55.435
-52.7
-49.849
-46.885
-43.811
-40.631
-37.352
-33.98
-30.523
-26.991
-23.395
-19.746
-16.056
-12.34
-8.611
-4.884
-1.174
2.502
6.131
9.695
13.179
16.568
19.846
22.999
26.012
28.871
31.564
34.078
36.403
38.527
40.44
42.135
43.604
44.841
45.841
46.6
47.114
47.384
47.407
47.186
46.723
46.021
45.086
43.922
42.538
40.942
39.143
37.152
34.979
32.638
30.14
27.5
24.73
21.845
18.86
15.789
12.647
9.448
6.207
2.939
-0.342
-3.621
-6.885
-10.118
-13.31
-16.445
-19.513
-22.501
-25.397
-28.193
-30.877
-33.442
-35.878
-38.178
-40.337
-42.349
-44.211
-45.919
-47.472
-48.869
-50.111
-51.2
-52.137
-52.926
-53.571
-54.074
-54.442
-54.678
-54.79
-54.783
-54.664
-54.44
-54.119
-53.711
-53.222
-52.663
-52.041
-51.365
-50.646
-49.891
-49.11
-48.312
-47.506
-46.702
-45.908
-45.134
-44.387
-43.673
-42.998
-42.368
-41.785
-41.251
-40.766
-40.329
-39.941
-39.599
-39.305
-39.055
-38.849
-38.686
-38.567
-38.489
-38.449
-38.441
-38.455
-38.483
-38.516
-38.542
-38.548
-38.523
-38.456
-38.336
-38.158
-37.915
-37.593
-37.179
-36.651
-35.996
-35.208
-34.282
-33.214
-32.009
-30.675
-29.236
-27.731
-26.186
-24.612
-23.013
-21.378
-19.696
-17.965
-16.177
-14.323
-12.394
-10.372
-8.252
-6.039
-3.72
-1.269
1.363
4.258
7.461
10.978
14.799
18.889
23.198
27.675
32.242
36.792
41.232
45.474
49.452
53.127
56.43
59.274
61.55
63.122
63.897
63.83
62.886
61.053
58.346
54.804
50.51
45.6
40.192
34.383
28.261
21.902
15.401
8.881
2.466
-3.709
-9.534
-14.916
-19.765
-23.987
-27.518
-30.336
-32.453
-33.933
-34.847
-35.257
-35.248
-34.92
-34.369
-33.702
-33.043
-32.51
-32.246
-32.396
-33.052
-34.352
-36.471
-39.482
-43.366
-47.909
-52.628
-57.042
-60.794
-63.454
-64.515
-63.628
-60.636
-55.956
-50.704
-45.956
-42.373
-40.54
-41.188
-44.879
-51.725
-59.672
-64.383
-61.943
-50.161
-30.652
-7.2
19.652
53.689
103.281
177.357
277.749
398.819
528.369
651.772
758.716
840.45
890.498
904.271
874.57
800.493
686.101
536.063
364.134
184.921
12.607
-132.442
-238.224
-303.045
-329.176
-328.312
-311.507
-279.854
-237.365
-189.386
-139.523
-99.084
-72.746
-56.001
-47.07
-40.298
-33.087
-30.195
-33.06
-41.665
-55.249
-69.529
-81.041
-88.745
-92.287
-92.085
-89.08
-84.006
-77.434
-70.377
-64.137
-59.356
-56.313
-55.104
-55.35
-56.686
-58.836
-61.281
-63.473
-65.134
-66.103
-66.344
-65.977
-65.053
-63.612
-61.754
-59.568
-57.118
-54.455
-51.6
-48.571
-45.421
-42.224
-39.06
-35.99
-33.048
-30.259
-27.637
-25.187
-22.915
-20.811
-18.851
-17.027
-15.33
-13.752
-12.289
-10.927
-9.643
-8.42
-7.235
-6.066
-4.899
-3.718
-2.509
-1.263
0.027
1.37
2.77
4.233
5.77
7.387
9.095
10.9
12.808
14.825
16.956
19.204
21.57
24.054
26.654
29.368
32.195
35.129
38.165
41.297
44.516
47.813
51.179
54.601
58.067
61.563
65.076
68.59
72.091
75.563
78.989
82.354
85.642
88.837
91.923
94.887
97.711
100.382
102.886
105.209
107.339
109.262
110.967
112.444
113.684
114.676
115.415
115.894
116.108
116.052
115.724
115.124
114.251
113.107
111.695
110.02
108.088
105.905
103.482
100.827
97.951
94.866
91.584
88.12
84.486
80.698
76.77
72.718
68.557
64.305
59.976
55.589
51.16
46.705
42.243
37.789
33.361
28.976
24.65
20.399
16.238
12.183
8.248
4.445
0.786
-2.716
-6.053
-9.215
-12.196
-14.991
-17.593
-20.002
-22.213
-24.228
-26.045
-27.668
-29.098
-30.338
-31.394
-32.271
-32.976
-33.514
-33.896
-34.128
-34.222
-34.186
-34.032
-33.772
-33.415
-32.976
-32.466
-31.899
-31.287
-30.643
-29.98
-29.31
-28.646
-27.999
-27.379
-26.795
-26.257
-25.771
-25.345
-24.981
-24.686
-24.461
-24.308
-24.227
-24.219
-24.282
-24.412
-24.607
-24.861
-25.168
-25.523
-25.916
-26.34
-26.785
-27.242
-27.7
-28.15
-28.579
-28.976
-29.328
-29.624
-29.85
-29.996
-30.047
-29.992
-29.82
-29.521
-29.085
-28.506
-27.776
-26.891
-25.845
-24.637
-23.266
-21.733
-20.039
-18.189
-16.187
-14.043
-11.763
-9.36
-6.845
-4.234
-1.544
1.209
4.005
6.823
9.641
12.437
15.187
17.869
20.463
22.946
25.297
27.493
29.512
31.333
32.936
34.302
35.413
36.251
36.801
37.055
37.015
36.679
36.046
35.111
33.861
32.289
30.396
28.184
25.659
22.831
19.711
16.33
12.734
8.977
5.113
1.176
-2.814
-6.829
-10.838
-14.769
-18.533
-22.068
-25.321
-28.252
-30.85
-33.047
-34.784
-36.174
-37.334
-38.409
-39.599
-40.877
-42.173
-43.655
-45.455
-47.526
-49.98
-52.702
-55.428
-58.382
-61.634
-64.884
-67.958
-70.661
-72.543
-73.62
-74.08
-73.662
-72.692
-71.809
-71.47
-72.342
-74.993
-79.392
-85.314
-92.404
-99.208
-103.816
-103.97
-96.994
-80.747
-53.211
-12.412
42.83
112.855
196.013
287.587
382.499
475.939
564.689
650.065
731.884
805.155
861.018
884.297
860.789
786.204
663.444
502.641
320.837
133.3
-44.162
-193.489
-303.679
-370.179
-394.73
-387.136
-357.144
-310.909
-255.814
-200.604
-152.668
-118.944
-99.749
-86.991
-74.382
-58.614
-40.637
-27.269
-22.536
-26.386
-37.396
-51.617
-65.768
-78.486
-88.457
-95.151
-98.761
-99.407
-97.342
-93.172
-87.649
-81.663
-76.316
-72.264
-69.597
-68.216
-67.841
-68.136
-68.859
-69.681
-70.166
-70.084
-69.381
-68.085
-66.349
-64.288
-61.943
-59.384
-56.693
-53.919
-51.119
-48.332
-45.578
-42.899
-40.333
-37.907
-35.648
-33.568
-31.667
-29.941
-28.374
-26.944
-25.643
-24.462
-23.394
-22.434
-21.565
-20.769
-20.029
-19.326
-18.639
-17.951
-17.24
-16.489
-15.686
-14.818
-13.878
-12.861
-11.754
-10.55
-9.239
-7.812
-6.262
-4.584
-2.772
-0.823
1.266
3.493
5.856
8.351
10.975
13.724
16.59
19.567
22.647
25.819
29.074
32.399
35.781
39.207
42.662
46.128
49.59
53.032
56.435
59.781
63.054
66.235
69.307
72.254
75.058
77.705
80.178
82.463
84.548
86.42
88.067
89.479
90.647
91.565
92.226
92.626
92.76
92.627
92.225
91.555
90.619
89.418
87.957
86.241
84.276
82.071
79.635
76.977
74.109
71.045
67.797
64.38
60.808
57.099
53.269
49.334
45.312
41.22
37.078
32.902
28.71
24.519
20.347
16.211
12.125
8.105
4.167
0.322
-3.416
-7.036
-10.525
-13.875
-17.075
-20.119
-22.999
-25.709
-28.244
-30.601
-32.778
-34.773
-36.586
-38.22
-39.676
-40.959
-42.072
-43.023
-43.819
-44.467
-44.977
-45.359
-45.624
-45.782
-45.846
-45.827
-45.737
-45.588
-45.392
-45.16
-44.904
-44.635
-44.361
-44.095
-43.844
-43.617
-43.421
-43.264
-43.152
-43.091
-43.084
-43.135
-43.247
-43.421
-43.659
-43.961
-44.324
-44.746
-45.225
-45.755
-46.33
-46.945
-47.59
-48.257
-48.937
-49.62
-50.295
-50.951
-51.579
-52.165
-52.7
-53.172
-53.57
-53.883
-54.102
-54.215
-54.215
-54.093
-53.841
-53.453
-52.924
-52.247
-51.42
-50.439
-49.303
-48.01
-46.562
-44.958
-43.204
-41.303
-39.261
-37.088
-34.791
-32.384
-29.879
-27.292
-24.638
-21.934
-19.199
-16.452
-13.712
-10.999
-8.331
-5.73
-3.215
-0.805
1.477
3.611
5.579
7.358
8.929
10.275
11.38
12.231
12.819
13.137
13.178
12.933
12.39
11.541
10.385
8.918
7.145
5.074
2.721
0.117
-2.695
-5.676
-8.785
-11.986
-15.256
-18.562
-21.87
-25.144
-28.334
-31.398
-34.299
-36.994
-39.45
-41.648
-43.584
-45.307
-46.902
-48.442
-50.001
-51.625
-53.35
-55.248
-57.394
-59.866
-62.751
-66.095
-69.969
-74.501
-79.722
-85.554
-91.75
-97.809
-103.172
-107.383
-109.948
-110.394
-108.477
-104.132
-97.801
-90.518
-83.363
-77.343
-73.239
-71.423
-72.051
-75.061
-79.405
-83.091
-82.787
-73.96
-53.166
-18.864
26.747
79.142
134.912
193.29
259.822
341.046
440.345
556.774
678.368
789.013
872.17
911.71
900.456
836.958
725.11
572.941
389.867
190.613
-7.363
-181.655
-310.998
-385.644
-405.331
-382.971
-337.119
-281.944
-229.153
-182.861
-143.624
-111.744
-84.043
-60.003
-39.949
-24.632
-17.673
-20.175
-31.241
-48.539
-67.771
-85.571
-99.717
-109.141
-114.039
-114.832
-112.185
-107.122
-100.621
-93.89
-88.197
-84.147
-81.938
-81.51
-82.491
-84.495
-87.161
-89.981
-92.442
-94.28
-95.382
-95.759
-95.526
-94.744
-93.454
-91.74
-89.693
-87.38
-84.853
-82.14
-79.26
-76.265
-73.226
-70.217
-67.295
-64.495
-61.837
-59.332
-56.99
-54.818
-52.812
-50.959
-49.255
-47.692
-46.266
-44.974
-43.801
-42.73
-41.742
-40.815
-39.93
-39.072
-38.225
-37.377
-36.519
-35.64
-34.733
-33.79
-32.802
-31.759
-30.649
-29.462
-28.187
-26.816
-25.34
-23.752
-22.048
-20.222
-18.274
-16.201
-14.004
-11.682
-9.239
-6.677
-4.002
-1.217
1.67
4.65
7.716
10.855
14.057
17.309
20.598
23.91
27.231
30.547
33.841
37.1
40.308
43.451
46.513
49.48
52.335
55.065
57.654
60.089
62.356
64.442
66.336
68.026
69.504
70.761
71.789
72.582
73.134
73.443
73.504
73.317
72.881
72.196
71.266
70.095
68.69
67.054
65.195
63.119
60.834
58.353
55.69
52.851
49.844
46.692
43.417
40.041
36.59
33.073
29.484
25.851
22.204
18.52
14.783
10.992
7.125
3.215
-0.66
-4.501
-8.338
-11.985
-15.246
-18.248
-20.981
-23.369
-25.819
-27.327
-26.901
-26.084
-25.334
-27.297
-35.206
-45.539
-55.804
-62.073
-59.321
-52.03
-43.859
-37.685
-37.136
-37.092
-34.789
-31.602
-28.739
-33.316
-46.889
-63.021
-75.92
-76.99
-64.691
-47.422
-31.734
-24.267
-26.769
-33.175
-39.566
-43.477
-43.907
-43.3
-42.886
-42.564
-42.458
-42.206
-41.681
-41.221
-40.941
-40.782
-40.752
-40.863
-41.096
-41.431
-41.832
-42.233
-42.607
-42.97
-43.324
-43.655
-43.955
-44.21
-44.412
-44.559
-44.642
-44.648
-44.566
-44.386
-44.097
-43.693
-43.166
-42.509
-41.718
-40.786
-39.711
-38.49
-37.123
-35.609
-33.949
-32.146
-30.204
-28.128
-25.926
-23.606
-21.181
-18.661
-16.062
-13.402
-10.698
-7.967
-5.229
-2.502
0.193
2.835
5.402
7.876
10.235
12.459
14.528
16.416
18.104
19.575
20.814
21.81
22.548
23.016
23.205
23.109
22.726
22.055
21.09
19.82
18.247
16.372
14.208
11.772
9.083
6.161
3.039
-0.252
-3.674
-7.186
-10.754
-14.34
-17.911
-21.437
-24.874
-28.186
-31.325
-34.228
-36.856
-39.198
-41.247
-43.061
-44.676
-46.034
-47.228
-48.456
-49.894
-51.796
-54.244
-57.027
-60.163
-63.924
-68.239
-72.823
-77.22
-80.544
-82.441
-83.26
-82.91
-80.989
-77.498
-72.59
-66.98
-62.337
-59.545
-58.533
-59.605
-63.03
-68.763
-76.772
-85.983
-93.868
-98.258
-97.261
-88.657
-70.744
-41.597
0.932
57.672
128.338
210.931
300.663
392.675
482.492
567.372
648.767
726.139
794.23
843.51
858.938
828.302
749.431
627.38
473.179
301.725
125.553
-42.011
-184.398
-289.122
-349.299
-365.207
-346.424
-304.84
-250.204
-191.933
-138.676
-96.822
-70.495
-58.206
-52.269
-45.804
-35.523
-22.606
-12.719
-9.589
-13.366
-22.305
-32.835
-42.843
-52.183
-60.742
-68.707
-75.979
-81.881
-86.26
-89.374
-91.216
-91.658
-90.615
-87.973
-84.115
-79.87
-75.63
-71.548
-67.847
-64.758
-62.673
-61.896
-62.186
-62.899
-63.606
-64.086
-64.223
-63.972
-63.116
-61.473
-59.149
-56.469
-53.727
-51.086
-48.584
-46.179
-43.899
-41.803
-39.896
-38.135
-36.45
-34.804
-33.201
-31.68
-30.272
-28.976
-27.779
-26.654
-25.583
-24.554
-23.556
-22.576
-21.598
-20.607
-19.593
-18.547
-17.464
-16.336
-15.15
-13.891
-12.547
-11.105
-9.56
-7.909
-6.147
-4.273
-2.284
-0.179
2.04
4.373
6.815
9.365
12.017
14.768
17.609
20.534
23.532
26.595
29.712
32.871
36.061
39.268
42.479
45.68
48.854
51.988
55.066
58.074
60.997
63.82
66.529
69.11
71.551
73.839
75.961
77.906
79.663
81.223
82.578
83.72
84.644
85.343
85.815
86.056
86.066
85.842
85.387
84.701
83.786
82.648
81.291
79.721
77.946
75.974
73.815
71.479
68.978
66.323
63.526
60.601
57.56
54.417
51.186
47.882
44.517
41.108
37.668
34.211
30.753
27.306
23.884
20.5
17.167
13.895
10.698
7.585
4.566
1.651
-1.153
-3.836
-6.393
-8.818
-11.107
-13.255
-15.261
-17.124
-18.842
-20.417
-21.851
-23.146
-24.306
-25.335
-26.237
-27.019
-27.688
-28.249
-28.712
-29.084
-29.373
-29.59
-29.742
-29.84
-29.892
-29.908
-29.897
-29.868
-29.831
-29.794
-29.766
-29.754
-29.768
-29.815
-29.9
-30.031
-30.211
-30.446
-30.738
-31.09
-31.503
-31.977
-32.511
-33.104
-33.754
-34.456
-35.207
-36.001
-36.832
-37.691
-38.572
-39.466
-40.362
-41.251
-42.123
-42.967
-43.772
-44.527
-45.222
-45.846
-46.386
-46.833
-47.175
-47.402
-47.504
-47.471
-47.294
-46.964
-46.475
-45.82
-44.996
-43.997
-42.821
-41.467
-39.935
-38.225
-36.342
-34.29
-32.074
-29.704
-27.188
-24.538
-21.768
-18.893
-15.928
-12.893
-9.807
-6.692
-3.569
-0.46
2.612
5.624
8.553
11.378
14.076
16.627
19.009
21.201
23.18
24.925
26.418
27.64
28.577
29.212
29.533
29.536
29.217
28.573
27.599
26.284
24.62
22.611
20.264
17.589
14.603
11.331
7.807
4.086
0.221
-3.741
-7.754
-11.788
-15.812
-19.776
-23.627
-27.305
-30.75
-33.928
-36.812
-39.362
-41.565
-43.443
-45.048
-46.484
-47.856
-49.217
-50.625
-52.139
-53.822
-55.776
-58.109
-60.875
-64.154
-68.028
-72.513
-77.579
-83.039
-88.468
-93.355
-97.213
-99.538
-99.862
-97.859
-93.406
-86.843
-78.985
-70.874
-63.434
-57.299
-53.21
-51.884
-53.441
-57.058
-60.023
-58.026
-47.386
-26.172
4.226
40.678
81.585
127.814
186.184
263.905
363.956
485.124
615.524
739.135
840.078
902.364
916.073
875.65
781.084
637.867
458.054
261.623
69.854
-93.46
-210.527
-278.618
-303.028
-299.146
-285.004
-267.95
-250.137
-229.217
-200.063
-164.115
-126.327
-91.337
-64.236
-47.142
-39.052
-38.525
-43.73
-52.502
-63.072
-73.887
-83.165
-89.533
-92.558
-92.391
-89.589
-84.988
-79.357
-73.617
-68.849
-65.961
-65.443
-67.019
-70.083
-74.21
-78.963
-83.706
-87.876
-90.803
-91.914
-91.549
-90.185
-87.969
-85.148
-81.933
-78.421
-75.033
-72.195
-69.666
-67.216
-64.815
-62.338
-59.875
-57.556
-55.239
-52.782
-50.313
-47.925
-45.68
-43.678
-41.854
-40.139
-38.565
-37.144
-35.857
-34.689
-33.6
-32.543
-31.514
-30.509
-29.515
-28.527
-27.527
-26.497
-25.429
-24.313
-23.147
-21.92
-20.622
-19.242
-17.767
-16.186
-14.493
-12.679
-10.737
-8.66
-6.447
-4.093
-1.601
1.026
3.783
6.666
9.668
12.784
16.005
19.32
22.718
26.189
29.718
33.292
36.896
40.514
44.129
47.726
51.287
54.795
58.234
61.585
64.833
67.961
70.951
73.788
76.456
78.941
81.228
83.304
85.156
86.775
88.15
89.273
90.139
90.741
91.076
91.142
90.938
90.464
89.723
88.718
87.453
85.936
84.172
82.171
79.942
77.495
74.841
71.994
68.965
65.768
62.418
58.928
55.314
51.592
47.776
43.882
39.927
35.927
31.896
27.852
23.81
19.785
15.792
11.846
7.961
4.148
0.422
-3.208
-6.731
-10.137
-13.418
-16.567
-19.576
-22.441
-25.157
-27.72
-30.127
-32.376
-34.468
-36.401
-38.178
-39.8
-41.269
-42.59
-43.766
-44.801
-45.702
-46.474
-47.122
-47.653
-48.075
-48.395
-48.623
-48.767
-48.836
-48.838
-48.784
-48.681
-48.539
-48.366
-48.169
-47.955
-47.733
-47.509
-47.289
-47.08
-46.887
-46.714
-46.567
-46.449
-46.361
-46.305
-46.281
-46.289
-46.328
-46.396
-46.49
-46.606
-46.742
-46.895
-47.062
-47.24
-47.422
-47.604
-47.781
-47.946
-48.09
-48.203
-48.273
-48.289
-48.24
-48.118
-47.914
-47.62
-47.228
-46.731
-46.125
-45.408
-44.571
-43.606
-42.494
-41.228
-39.811
-38.253
-36.571
-34.782
-32.895
-30.93
-28.914
-26.864
-24.79
-22.686
-20.525
-18.298
-16.011
-13.682
-11.351
-9.038
-6.741
-4.459
-2.186
0.086
2.357
4.654
7.028
9.493
12.033
14.593
17.071
19.397
21.529
23.435
25.106
26.514
27.614
28.378
28.784
28.799
28.387
27.469
25.935
23.738
20.876
17.398
13.425
9.048
4.34
-0.605
-5.704
-10.871
-16.013
-21.072
-26.003
-30.734
-35.181
-39.217
-42.696
-45.54
-47.7
-49.175
-50.043
-50.383
-50.297
-49.944
-49.446
-48.928
-48.528
-48.343
-48.479
-49.049
-50.125
-51.828
-54.332
-57.691
-61.892
-66.775
-71.875
-76.747
-81.039
-84.205
-85.649
-85.008
-82.084
-77.114
-71.081
-64.839
-58.751
-53.648
-50.525
-49.559
-50.739
-52.292
-49.538
-40.074
-23.388
0.109
25.634
53.288
89.346
140.388
217.548
324.111
449.52
577.847
685.296
753.045
776.647
759.611
714.375
652.346
578.517
494.847
397.978
288.181
168.865
44.826
-71.625
-171.147
-246.52
-291.509
-310.117
-307.365
-288.435
-261.029
-227.758
-191.707
-157.416
-127.163
-103.428
-86.46
-75.083
-69.291
-71.245
-84.366
-108.209
-137.273
-160.66
-166.642
-151.201
-119.281
-82.674
-53.474
-37.279
-32.507
-33.151
-34.215
-34.061
-33.47
-34.357
-37.292
-41.5
-46.257
-50.942
-55.324
-59.532
-63.517
-67.157
-70.439
-73.336
-75.755
-77.576
-78.682
-78.99
-78.504
-77.281
-75.36
-72.817
-69.766
-66.359
-62.776
-59.149
-55.553
-52.035
-48.63
-45.376
-42.313
-39.471
-36.846
-34.435
-32.234
-30.239
-28.447
-26.836
-25.363
-23.97
-22.594
-21.189
-19.727
-18.188
-16.557
-14.821
-12.969
-11
-8.924
-6.743
-4.458
-2.063
0.446
3.071
5.806
8.642
11.57
14.583
17.673
20.833
24.054
27.33
30.652
34.018
37.422
40.859
44.32
47.794
51.269
54.733
58.174
61.578
64.932
68.222
71.436
74.561
77.587
80.503
83.297
85.96
88.481
90.85
93.059
95.097
96.956
98.628
100.105
101.38
102.446
103.3
103.935
104.349
104.539
104.503
104.24
103.749
103.031
102.087
100.921
99.536
97.938
96.132
94.125
91.927
89.544
86.988
84.266
81.391
78.371
75.219
71.946
68.564
65.085
61.523
57.891
54.203
50.473
46.714
42.942
39.169
35.409
31.677
27.986
24.349
20.779
17.288
13.887
10.588
7.4
4.333
1.395
-1.407
-4.067
-6.581
-8.943
-11.151
-13.203
-15.098
-16.835
-18.416
-19.842
-21.115
-22.239
-23.22
-24.061
-24.771
-25.356
-25.824
-26.184
-26.445
-26.618
-26.711
-26.736
-26.703
-26.622
-26.506
-26.364
-26.206
-26.043
-25.884
-25.738
-25.613
-25.516
-25.454
-25.431
-25.452
-25.521
-25.64
-25.811
-26.035
-26.311
-26.638
-27.014
-27.437
-27.901
-28.402
-28.934
-29.489
-30.059
-30.635
-31.206
-31.763
-32.295
-32.789
-33.234
-33.619
-33.931
-34.158
-34.287
-34.309
-34.211
-33.984
-33.616
-33.101
-32.43
-31.598
-30.6
-29.433
-28.093
-26.582
-24.899
-23.047
-21.029
-18.851
-16.518
-14.039
-11.422
-8.679
-5.824
-2.87
0.165
3.26
6.395
9.546
12.691
15.805
18.863
21.84
24.713
27.459
30.058
32.487
34.723
36.741
38.521
40.046
41.297
42.26
42.922
43.271
43.303
43.018
42.415
41.49
40.236
38.635
36.677
34.363
31.698
28.69
25.351
21.7
17.768
13.609
9.276
4.82
0.288
-4.285
-8.851
-13.346
-17.695
-21.813
-25.623
-29.077
-32.138
-34.767
-36.949
-38.681
-39.987
-40.954
-41.697
-42.319
-42.944
-43.687
-44.643
-45.977
-47.922
-50.609
-54.082
-58.231
-62.722
-67.26
-71.623
-75.44
-78.254
-79.765
-79.815
-78.703
-77.32
-76.42
-76.578
-78.432
-82.355
-88.403
-96.359
-105.098
-112.481
-116.398
-114.589
-104.611
-84.602
-52.978
-8.366
49.519
119.914
201.891
291.933
383.951
472.748
552.616
622.325
686.835
746.086
796.471
827.849
820.205
762.878
654.516
501.103
323.757
141.984
-27.599
-166.54
-266.971
-326.495
-346.504
-336.475
-305.159
-259.491
-208.141
-159.347
-119.754
-93.724
-79.647
-70.348
-60.257
-47.662
-34.469
-26.12
-26.037
-33.721
-46.991
-62.358
-76.674
-88.329
-96.722
-101.806
-103.842
-103.251
-100.455
-96.039
-91.033
-86.544
-83.225
-81.358
-80.882
-81.47
-82.843
-84.734
-86.745
-88.441
-89.562
-90.002
-89.78
-89.024
-87.826
-86.241
-84.342
-82.212
-79.908
-77.477
-74.953
-72.357
-69.732
-67.142
-64.631
-62.235
-59.979
-57.871
-55.916
-54.115
-52.458
-50.929
-49.524
-48.235
-47.059
-45.993
-45.023
-44.135
-43.311
-42.534
-41.785
-41.047
-40.303
-39.539
-38.746
-37.913
-37.035
-36.103
-35.11
-34.046
-32.903
-31.671
-30.344
-28.915
-27.378
-25.73
-23.967
-22.089
-20.096
-17.989
-15.771
-13.443
-11.01
-8.476
-5.848
-3.132
-0.337
2.529
5.455
8.43
11.441
14.475
17.518
20.557
23.577
26.562
29.498
32.37
35.162
37.86
40.45
42.916
45.246
47.426
49.445
51.291
52.954
54.424
55.693
56.752
57.596
58.219
58.616
58.783
58.719
58.421
57.889
57.124
56.127
54.902
53.454
51.786
49.906
47.821
45.54
43.072
40.426
37.614
34.648
31.539
28.302
24.948
21.493
17.949
14.331
10.654
6.931
3.177
-0.595
-4.37
-8.136
-11.88
-15.587
-19.246
-22.845
-26.373
-29.817
-33.168
-36.417
-39.554
-42.571
-45.462
-48.22
-50.84
-53.318
-55.651
-57.835
-59.871
-61.757
-63.493
-65.082
-66.526
-67.827
-68.99
-70.02
-70.922
-71.703
-72.368
-72.926
-73.383
-73.747
-74.027
-74.231
-74.366
-74.441
-74.466
-74.448
-74.397
-74.32
-74.225
-74.121
-74.015
-73.913
-73.822
-73.746
-73.691
-73.662
-73.661
-73.69
-73.752
-73.848
-73.978
-74.142
-74.338
-74.564
-74.817
-75.092
-75.386
-75.692
-76.004
-76.315
-76.617
-76.904
-77.166
-77.397
-77.586
-77.726
-77.807
-77.821
-77.759
-77.612
-77.372
-77.03
-76.58
-76.014
-75.328
-74.515
-73.573
-72.497
-71.286
-69.939
-68.457
-66.841
-65.093
-63.218
-61.219
-59.105
-56.883
-54.564
-52.157
-49.676
-47.138
-44.559
-41.957
-39.35
-36.76
-34.205
-31.707
-29.286
-26.961
-24.751
-22.673
-20.748
-18.996
-17.438
-16.092
-14.975
-14.102
-13.488
-13.148
-13.091
-13.321
-13.839
-14.649
-15.757
-17.176
-18.92
-20.986
-23.373
-26.074
-29.072
-32.349
-35.878
-39.606
-43.484
-47.46
-51.485
-55.526
-59.546
-63.49
-67.299
-70.9
-74.224
-77.234
-79.897
-82.176
-84.065
-85.579
-86.767
-87.733
-88.569
-89.357
-90.191
-91.163
-92.386
-93.99
-96.053
-98.675
-101.998
-106.07
-110.887
-116.318
-121.987
-127.522
-132.64
-136.956
-140.006
-141.411
-140.866
-138.534
-135.171
-131.443
-127.702
-124.272
-121.645
-120.465
-121.257
-122.478
-120.544
-112.449
-96.69
-75.773
-54.2
-32.159
-5.146
35.696
99.577
188.261
296.3
415.103
535.158
647.565
743.3
808.924
829.042
796.909
716.212
601.435
473.345
343.125
212.95
82.066
-49.447
-170.547
-265.981
-326.117
-349.489
-346.292
-328.97
-305.293
-278.97
-248.342
-212.558
-174.545
-137.815
-106.791
-84.946
-72.753
-69.263
-73.041
-82.171
-94.658
-109.014
-123.488
-135.838
-144.852
-150.151
-151.657
-150.027
-146.157
-140.65
-134.469
-128.934
-124.739
-122.19
-121.382
-121.949
-123.503
-125.779
-128.31
-130.566
-132.272
-133.286
-133.58
-133.287
-132.481
-131.204
-129.551
-127.612
-125.446
-123.102
-120.604
-117.965
-115.234
-112.476
-109.76
-107.141
-104.648
-102.297
-100.098
-98.055
-96.166
-94.422
-92.805
-91.305
-89.917
-88.633
-87.448
-86.348
-85.315
-84.33
-83.37
-82.414
-81.447
-80.453
-79.419
-78.334
-77.19
-75.979
-74.695
-73.331
-71.877
-70.325
-68.666
-66.894
-65.003
-62.989
-60.848
-58.58
-56.186
-53.665
-51.023
-48.261
-45.385
-42.401
-39.314
-36.132
-32.865
-29.52
-26.11
-22.646
-19.142
-15.609
-12.064
-8.521
-4.996
-1.504
1.938
5.314
8.608
11.806
14.89
17.846
20.66
23.316
25.802
28.105
30.214
32.118
33.807
35.273
36.509
37.51
38.271
38.788
39.059
39.083
38.859
38.388
37.673
36.717
35.525
34.101
32.455
30.592
28.525
26.262
23.816
21.199
18.424
15.506
12.458
9.297
6.038
2.696
-0.712
-4.17
-7.66
-11.166
-14.673
-18.164
-21.624
-25.037
-28.39
-31.667
-34.856
-37.944
-40.919
-43.769
-46.483
-49.05
-51.462
-53.71
-55.788
-57.688
-59.408
-60.942
-62.29
-63.453
-64.43
-65.22
-65.825
-66.25
-66.499
-66.582
-66.501
-66.257
-65.87
-65.355
-64.73
-64.014
-63.209
-62.308
-61.335
-60.319
-59.233
-58.061
-56.795
-55.411
-53.947
-52.47
-50.96
-49.372
-47.862
-46.611
-45.523
-44.618
-43.934
-43.108
-43.136
-44.99
-47.287
-49.609
-49.417
-43.668
-35.721
-27.813
-23.277
-26.692
-33.997
-41.747
-47.578
-47.59
-44.555
-41.283
-38.385
-37.566
-37.811
-37.823
-37.831
-37.66
-37.379
-37.235
-37.044
-36.66
-36.116
-35.41
-34.507
-33.385
-32.042
-30.479
-28.725
-26.821
-24.766
-22.556
-20.211
-17.755
-15.202
-12.563
-9.828
-6.965
-3.965
-0.835
2.408
5.724
9.093
12.516
15.993
19.529
23.132
26.796
30.544
34.424
38.445
42.588
46.794
50.954
54.988
58.849
62.496
65.915
69.073
71.913
74.394
76.489
78.161
79.373
80.055
80.085
79.401
77.997
75.913
73.259
70.121
66.55
62.615
58.391
53.957
49.407
44.813
40.207
35.647
31.212
27.012
23.212
19.931
17.223
15.114
13.577
12.567
12.045
11.929
12.088
12.416
12.815
13.178
13.431
13.474
13.185
12.487
11.231
9.206
6.314
2.56
-1.872
-6.513
-10.895
-14.661
-17.264
-18.06
-16.65
-12.837
-7.025
-0.342
6.245
11.902
15.519
16.103
13.076
7.379
2.173
1.279
7.284
18.892
32.713
48.533
70.487
109.697
179.157
281.578
410.334
549.601
676.976
781.32
861.007
915.631
951.523
966.218
946.643
888.147
785.147
637.681
463.655
279.277
105.144
-33.231
-127.513
-177.508
-192.578
-191.921
-184.078
-169.812
-144.507
-103.033
-50.661
2.157
43.159
66.222
75.051
75.251
73.831
73.562
71.403
66.403
58.176
47.892
39.797
35.899
36.35
41.124
49.062
58.989
70.401
82.344
93.426
102.916
110.491
115.995
119.69
121.86
122.615
122.244
121.205
119.72
117.871
115.649
112.847
109.28
104.835
99.382
92.841
85.207
76.49
66.724
55.983
44.325
