Name,Criss Capps
Date of Birth,"Feb 5, 1952"
Recorded Date,2021-01-13 22:27:05 -0400
Classification,Sinus Rhythm
Symptoms,
Software Version,1.90
Device,"Watch5,4"
Sample Rate,512.844 hertz


Lead,Lead I
Unit,µV

-79.907
-90.896
-102.245
-113.542
-124.213
-133.859
-142.414
-150.331
-158.72
-168.652
-180.597
-194.865
-211.888
-231.562
-252.908
-273.987
-291.575
-302.193
-303.289
-292.458
-267.106
-225.624
-167.792
-95.09
-11.22
79.191
171.837
261.631
342.61
409.229
456.741
482.311
485.37
466.308
426.137
367.485
294.616
212.788
127.752
44.16
-34.261
-103.772
-161.212
-204.484
-233.014
-247.9
-251.153
-244.525
-229.987
-210.101
-187.462
-164.629
-143.186
-123.411
-105.106
-88.07
-71.877
-55.877
-39.198
-20.697
0.116
22.956
47.331
72.623
98.266
123.82
148.674
172.024
193.378
212.545
229.481
244.338
257.191
268.01
276.869
283.942
289.43
293.583
296.608
298.609
299.685
299.951
299.542
298.648
297.411
295.903
294.189
292.35
290.526
288.918
287.674
286.853
286.466
286.479
286.865
287.644
288.832
290.426
292.399
294.713
297.359
300.38
303.817
307.655
311.812
316.142
320.539
324.96
329.388
333.83
338.276
342.704
347.112
351.526
355.975
360.474
365.013
369.545
374.027
378.459
382.883
387.379
392.005
396.786
401.735
406.86
412.176
417.692
423.397
429.254
435.228
441.297
447.456
453.715
460.079
466.537
473.056
479.597
486.122
492.605
499.017
505.332
511.517
517.545
523.404
529.09
534.6
539.924
545.048
549.954
554.625
559.053
563.229
567.145
570.796
574.176
577.282
580.114
582.673
584.96
586.974
588.71
590.169
591.351
592.257
592.889
593.251
593.345
593.177
592.752
592.076
591.156
589.996
588.603
586.98
585.135
583.073
580.798
578.317
575.634
572.757
569.691
566.442
563.015
559.418
555.657
551.739
547.67
543.458
539.11
534.633
530.037
525.329
520.519
515.616
510.629
505.569
500.445
495.268
490.049
484.799
479.528
474.247
468.968
463.702
458.462
453.26
448.106
443.013
437.994
433.059
428.221
423.491
418.881
414.4
410.06
405.87
401.84
397.978
394.291
390.785
387.466
384.337
381.402
378.662
376.118
373.77
371.617
369.656
367.883
366.294
364.883
363.644
362.567
361.646
360.869
360.228
359.71
359.305
359
358.783
358.64
358.556
358.519
358.512
358.519
358.526
358.515
358.471
358.379
358.224
357.991
357.667
357.239
356.695
356.023
355.214
354.256
353.142
351.863
350.411
348.783
346.972
344.975
342.791
340.419
337.857
335.107
332.169
329.048
325.745
322.264
318.611
314.791
310.814
306.687
302.421
298.027
293.518
288.91
284.217
279.452
274.63
269.767
264.876
259.972
255.068
250.176
245.309
240.483
235.712
231.011
226.398
221.887
217.494
213.234
209.123
205.172
201.394
197.793
194.378
191.158
188.145
185.353
182.791
180.46
178.361
176.491
174.842
173.4
172.139
171.019
170.011
169.098
168.268
167.521
166.857
166.268
165.75
165.302
164.921
164.61
164.366
164.173
164.039
163.979
164.032
164.263
164.709
165.375
166.251
167.306
168.495
169.772
171.07
172.297
173.378
174.25
174.861
175.186
175.17
174.738
173.797
172.23
169.956
166.935
163.149
158.606
153.357
147.479
141.085
134.329
127.337
120.207
113.026
105.861
98.798
91.952
85.442
79.388
73.892
69.022
64.825
61.31
58.415
56.026
54.001
52.178
50.448
48.721
46.882
44.827
42.438
39.58
36.174
32.11
27.206
21.436
14.924
7.951
1.108
-5.024
-10.065
-13.497
-14.766
-13.802
-10.766
-6.247
-1.566
2.305
4.881
5.42
3.447
-0.53
-5.561
-9.748
-9.955
-3.799
10.651
35.847
73.48
123.849
186.238
258.027
334.94
413.249
488.767
556.067
610.172
646.9
663.341
658.912
634.257
589.81
527.358
450.416
363.274
270.96
177.793
86.66
0.586
-76.886
-143.053
-196.249
-236.296
-264.565
-282.241
-290.173
-290.04
-284.217
-275.291
-265.804
-257.032
-249.053
-241.978
-235.864
-230.444
-225.221
-219.252
-211.41
-201.32
-189.26
-175.685
-161.21
-146.359
-131.572
-117.488
-104.831
-94.087
-85.488
-79.045
-74.594
-71.979
-71.072
-71.706
-73.669
-76.732
-80.674
-85.285
-90.384
-95.833
-101.497
-107.218
-112.837
-118.159
-123.004
-127.271
-130.911
-133.902
-136.25
-137.961
-139.056
-139.604
-139.689
-139.396
-138.81
-137.981
-136.945
-135.764
-134.511
-133.28
-132.173
-131.245
-130.526
-130.033
-129.773
-129.746
-129.943
-130.327
-130.846
-131.453
-132.106
-132.773
-133.43
-134.039
-134.558
-134.937
-135.128
-135.093
-134.809
-134.247
-133.384
-132.197
-130.67
-128.802
-126.606
-124.094
-121.282
-118.193
-114.849
-111.279
-107.511
-103.563
-99.447
-95.16
-90.702
-86.068
-81.268
-76.32
-71.244
-66.052
-60.753
-55.35
-49.837
-44.196
-38.402
-32.421
-26.24
-19.862
-13.319
-6.673
0.002
6.615
13.094
19.381
25.426
31.18
36.595
41.622
46.197
50.25
53.696
56.436
58.392
59.513
59.786
59.237
57.919
55.913
53.289
50.102
46.4
42.221
37.6
32.571
27.177
21.461
15.489
9.344
3.097
-3.193
-9.494
-15.805
-22.142
-28.546
-35.048
-41.67
-48.424
-55.309
-62.316
-69.432
-76.637
-83.91
-91.243
-98.637
-106.093
-113.61
-121.173
-128.756
-136.323
-143.831
-151.236
-158.498
-165.586
-172.472
-179.137
-185.567
-191.752
-197.691
-203.375
-208.794
-213.938
-218.797
-223.363
-227.634
-231.609
-235.291
-238.685
-241.797
-244.636
-247.208
-249.52
-251.578
-253.388
-254.956
-256.287
-257.391
-258.275
-258.953
-259.434
-259.73
-259.855
-259.82
-259.638
-259.322
-258.882
-258.33
-257.677
-256.935
-256.113
-255.223
-254.275
-253.279
-252.245
-251.183
-250.099
-249.002
-247.899
-246.796
-245.697
-244.606
-243.529
-242.468
-241.426
-240.404
-239.404
-238.428
-237.475
-236.545
-235.637
-234.75
-233.882
-233.03
-232.194
-231.369
-230.555
-229.748
-228.945
-228.145
-227.344
-226.538
-225.725
-224.9
-224.059
-223.199
-222.315
-221.402
-220.457
-219.476
-218.458
-217.401
-216.305
-215.167
-213.986
-212.765
-211.5
-210.191
-208.835
-207.428
-205.966
-204.444
-202.861
-201.215
-199.504
-197.727
-195.883
-193.974
-192.002
-189.965
-187.861
-185.68
-183.417
-181.075
-178.663
-176.193
-173.686
-171.156
-168.621
-166.108
-163.632
-161.202
-158.819
-156.467
-154.128
-151.801
-149.49
-147.214
-144.99
-142.82
-140.7
-138.626
-136.577
-134.535
-132.478
-130.361
-128.16
-125.885
-123.56
-121.25
-119.034
-116.967
-115.09
-113.435
-112.018
-110.876
-110.042
-109.542
-109.424
-109.738
-110.543
-111.924
-113.941
-116.604
-119.895
-123.747
-128.05
-132.708
-137.626
-142.71
-147.892
-153.097
-158.249
-163.286
-168.129
-172.684
-176.859
-180.54
-183.635
-186.098
-187.907
-189.09
-189.742
-189.987
-189.973
-189.848
-189.74
-189.751
-189.965
-190.474
-191.395
-192.841
-194.938
-197.793
-201.445
-205.955
-211.403
-217.679
-224.526
-231.457
-237.721
-242.666
-245.797
-246.562
-244.546
-239.653
-231.982
-222.213
-211.547
-200.921
-191.143
-182.871
-176.048
-170.042
-163.762
-155.135
-141.598
-120.741
-90.034
-47.521
7.401
74.086
150.606
233.674
319.355
402.942
478.77
541.322
585.922
609.448
610.369
588.121
542.987
476.852
393.489
297.974
196.033
92.575
-8.007
-101.013
-182.025
-247.598
-296.132
-328.132
-345.368
-349.601
-343.053
-328.84
-310.484
-291.652
-274.795
-260.69
-249.336
-240.498
-233.624
-227.858
-221.934
-214.216
-203.83
-190.797
-175.51
-158.669
-140.93
-122.8
-104.983
-88.321
-73.336
-60.285
-49.229
-39.998
-32.472
-26.604
-22.249
-19.228
-17.354
-16.414
-16.233
-16.67
-17.599
-18.926
-20.554
-22.373
-24.284
-26.176
-27.949
-29.532
-30.836
-31.759
-32.233
-32.216
-31.714
-30.78
-29.47
-27.835
-25.92
-23.751
-21.363
-18.795
-16.083
-13.263
-10.374
-7.453
-4.557
-1.767
0.865
3.309
5.553
7.619
9.526
11.291
12.941
14.506
16.017
17.501
18.983
20.476
22.002
23.59
25.273
27.097
29.094
31.285
33.687
36.307
39.148
42.216
45.505
49.002
52.696
56.579
60.643
64.886
69.298
73.867
78.579
83.417
88.365
93.408
98.528
103.708
108.928
114.172
119.422
124.662
129.875
135.041
140.141
145.155
150.062
154.844
159.482
163.955
168.245
172.333
176.202
179.837
183.222
186.341
189.181
191.728
193.972
195.903
197.51
198.786
199.723
200.318
200.565
200.463
200.01
199.206
198.054
196.557
194.719
192.547
190.05
187.237
184.117
180.702
177.006
173.042
168.825
164.371
159.695
154.815
149.749
144.515
139.134
133.624
128.005
122.298
116.523
110.7
104.849
98.989
93.139
87.319
81.547
75.84
70.215
64.688
59.275
53.99
48.846
43.856
39.031
34.381
29.913
25.637
21.558
17.681
14.01
10.548
7.298
4.259
1.432
-1.185
-3.594
-5.799
-7.804
-9.616
-11.239
-12.681
-13.95
-15.053
-15.998
-16.795
-17.451
-17.975
-18.375
-18.661
-18.841
-18.924
-18.918
-18.832
-18.674
-18.453
-18.176
-17.851
-17.485
-17.085
-16.658
-16.211
-15.75
-15.281
-14.81
-14.341
-13.879
-13.429
-12.995
-12.579
-12.184
-11.812
-11.466
-11.147
-10.857
-10.599
-10.372
-10.179
-10.022
-9.901
-9.82
-9.778
-9.777
-9.82
-9.906
-10.038
-10.217
-10.442
-10.713
-11.031
-11.395
-11.802
-12.249
-12.733
-13.25
-13.797
-14.371
-14.967
-15.581
-16.212
-16.856
-17.513
-18.177
-18.845
-19.51
-20.164
-20.8
-21.41
-21.985
-22.513
-22.985
-23.392
-23.73
-23.992
-24.171
-24.255
-24.229
-24.081
-23.811
-23.415
-22.894
-22.251
-21.492
-20.635
-19.711
-18.75
-17.77
-16.777
-15.767
-14.739
-13.694
-12.637
-11.573
-10.49
-9.37
-8.204
-6.993
-5.733
-4.407
-2.973
-1.364
0.471
2.553
4.873
7.402
10.11
12.964
15.912
18.888
21.795
24.544
27.077
29.352
31.323
32.924
34.048
34.563
34.373
33.42
31.681
29.165
25.884
21.883
17.25
12.11
6.624
0.925
-4.895
-10.757
-16.579
-22.245
-27.602
-32.483
-36.762
-40.344
-43.16
-45.183
-46.402
-46.864
-46.677
-45.966
-44.892
-43.603
-42.221
-40.878
-39.716
-38.874
-38.558
-39.044
-40.486
-42.881
-46.051
-49.561
-52.958
-55.873
-57.832
-58.218
-56.658
-53.255
-48.647
-44.104
-40.903
-39.738
-41.082
-45.489
-52.998
-62.673
-72.562
-79.466
-79.833
-71.186
-51.576
-18.758
28.783
91.23
167.439
254.02
346.273
440.329
532.19
616.53
688.169
742.394
775.047
784.609
771.286
734.785
675.975
597.801
503.943
399.465
290.452
181.254
75.475
-22.393
-108.954
-181.915
-239.373
-281.526
-310.082
-325.874
-329.884
-324.115
-310.109
-289.853
-266.005
-239.939
-212.35
-184.771
-158.733
-135.335
-115.92
-100.877
-89.584
-81.842
-77.456
-75.47
-74.681
-73.959
-72.07
-68.525
-63.578
-57.434
-50.426
-43.243
-36.743
-31.663
-28.654
-27.969
-29.412
-32.693
-37.431
-43.124
-49.209
-55.231
-60.806
-65.628
-69.584
-72.62
-74.718
-75.943
-76.371
-76.044
-75.008
-73.334
-71.081
-68.349
-65.251
-61.862
-58.274
-54.587
-50.906
-47.363
-44.056
-41.035
-38.328
-35.947
-33.899
-32.193
-30.817
-29.73
-28.888
-28.248
-27.77
-27.424
-27.169
-26.954
-26.726
-26.428
-26.015
-25.458
-24.731
-23.812
-22.682
-21.325
-19.731
-17.903
-15.841
-13.54
-10.995
-8.199
-5.152
-1.857
1.683
5.462
9.475
13.716
18.178
22.849
27.72
32.779
38.014
43.412
48.957
54.63
60.412
66.28
72.21
78.18
84.163
90.134
96.067
101.937
107.718
113.385
118.916
124.284
129.467
134.442
139.188
143.683
147.907
151.84
155.465
158.765
161.726
164.333
166.574
168.439
169.92
171.008
171.699
171.99
171.88
171.368
170.457
169.152
167.459
165.386
162.942
160.14
156.993
153.513
149.718
145.624
141.247
136.605
131.719
126.606
121.286
115.78
110.109
104.292
98.35
92.306
86.179
79.991
73.763
67.514
61.265
55.037
48.847
42.715
36.659
30.696
24.842
19.112
13.52
8.08
2.803
-2.3
-7.22
-11.948
-16.477
-20.802
-24.918
-28.821
-32.507
-35.975
-39.225
-42.254
-45.064
-47.655
-50.029
-52.188
-54.134
-55.872
-57.403
-58.734
-59.868
-60.812
-61.571
-62.153
-62.563
-62.811
-62.902
-62.847
-62.654
-62.331
-61.887
-61.331
-60.672
-59.919
-59.08
-58.164
-57.18
-56.135
-55.038
-53.897
-52.72
-51.516
-50.292
-49.055
-47.816
-46.58
-45.356
-44.152
-42.975
-41.832
-40.731
-39.679
-38.682
-37.747
-36.879
-36.084
-35.365
-34.728
-34.175
-33.708
-33.33
-33.041
-32.842
-32.734
-32.716
-32.788
-32.947
-33.191
-33.519
-33.926
-34.41
-34.964
-35.583
-36.26
-36.989
-37.763
-38.572
-39.407
-40.261
-41.124
-41.988
-42.846
-43.687
-44.503
-45.285
-46.025
-46.713
-47.338
-47.888
-48.352
-48.721
-48.987
-49.144
-49.186
-49.107
-48.903
-48.574
-48.12
-47.539
-46.826
-45.97
-44.971
-43.836
-42.58
-41.223
-39.787
-38.286
-36.744
-35.193
-33.654
-32.144
-30.666
-29.201
-27.751
-26.323
-24.939
-23.633
-22.425
-21.314
-20.302
-19.384
-18.553
-17.811
-17.135
-16.478
-15.826
-15.187
-14.601
-14.155
-13.9
-13.86
-14.054
-14.477
-15.137
-16.06
-17.25
-18.692
-20.382
-22.312
-24.506
-27.029
-29.895
-33.074
-36.499
-40.044
-43.617
-47.165
-50.622
-53.937
-57.067
-59.969
-62.641
-65.14
-67.517
-69.807
-72.027
-74.135
-76.112
-77.992
-79.852
-81.807
-83.964
-86.403
-89.185
-92.425
-96.264
-100.691
-105.526
-110.382
-114.692
-117.969
-119.916
-120.15
-118.179
-113.906
-107.575
-99.869
-92.028
-84.964
-79.015
-74.682
-72.574
-72.52
-73.709
-74.437
-71.931
-64.002
-49.252
-25.896
7.973
53.322
110.14
176.798
249.967
326.452
403.095
475.53
538.626
587.365
617.341
625.842
611.797
574.703
515.177
435.942
341.547
237.814
131.009
26.801
-69.646
-153.553
-221.271
-271.139
-303.532
-320.394
-324.56
-319.149
-307.578
-293.433
-279.936
-269.056
-261.392
-256.684
-254.133
-252.757
-251.483
-249.004
-244.015
-235.93
-224.876
-211.351
-196.163
-180.081
-163.745
-147.908
-133.351
-120.574
-109.841
-101.217
-94.562
-89.741
-86.647
-85.108
-84.934
-85.935
-87.892
-90.599
-93.876
-97.533
-101.396
-105.301
-109.059
-112.48
-115.399
-117.7
-119.321
-120.247
-120.469
-119.994
-118.843
-117.068
-114.757
-112.006
-108.906
-105.538
-101.975
-98.296
-94.602
-91.001
-87.585
-84.409
-81.502
-78.871
-76.521
-74.455
-72.658
-71.097
-69.726
-68.502
-67.388
-66.355
-65.368
-64.387
-63.361
-62.237
-60.969
-59.53
-57.894
-56.044
-53.964
-51.64
-49.068
-46.252
-43.198
-39.906
-36.377
-32.61
-28.604
-24.369
-19.912
-15.244
-10.376
-5.316
-0.079
5.323
10.873
16.557
22.359
28.264
34.256
40.313
46.417
52.544
58.674
64.784
70.853
76.856
82.772
88.579
94.257
99.785
105.145
110.317
115.284
120.029
124.535
128.787
132.77
136.472
139.878
142.979
145.763
148.223
150.35
152.139
153.586
154.688
155.444
155.856
155.924
155.654
155.05
154.118
152.866
151.303
149.438
147.282
144.846
142.145
139.19
135.996
132.577
128.947
125.123
121.119
116.951
112.635
108.188
103.625
98.964
94.221
89.414
84.56
79.676
74.779
69.885
65.011
60.172
55.383
50.659
46.012
41.455
37
32.658
28.44
24.355
20.411
16.616
12.978
9.501
6.192
3.054
0.091
-2.694
-5.3
-7.724
-9.967
-12.028
-13.907
-15.605
-17.125
-18.469
-19.64
-20.642
-21.48
-22.16
-22.688
-23.069
-23.311
-23.421
-23.407
-23.275
-23.035
-22.693
-22.257
-21.738
-21.141
-20.477
-19.753
-18.977
-18.158
-17.303
-16.421
-15.518
-14.601
-13.678
-12.754
-11.838
-10.936
-10.054
-9.199
-8.376
-7.593
-6.854
-6.164
-5.53
-4.953
-4.44
-3.992
-3.613
-3.306
-3.073
-2.915
-2.835
-2.832
-2.907
-3.06
-3.289
-3.592
-3.968
-4.414
-4.926
-5.502
-6.136
-6.827
-7.568
-8.357
-9.188
-10.056
-10.956
-11.88
-12.824
-13.779
-14.737
-15.692
-16.634
-17.556
-18.449
-19.305
-20.116
-20.872
-21.565
-22.185
-22.726
-23.178
-23.534
-23.785
-23.926
-23.951
-23.855
-23.636
-23.289
-22.813
-22.206
-21.47
-20.604
-19.61
-18.49
-17.246
-15.883
-14.406
-12.821
-11.135
-9.356
-7.495
-5.566
-3.581
-1.556
0.495
2.553
4.602
6.623
8.6
10.517
12.358
14.105
15.741
17.248
18.605
19.798
20.81
21.627
22.238
22.632
22.8
22.743
22.459
21.945
21.194
20.189
18.918
17.379
15.571
13.501
11.182
8.635
5.888
2.991
-0.009
-3.067
-6.14
-9.2
-12.212
-15.125
-17.875
-20.39
-22.598
-24.458
-25.931
-26.99
-27.643
-27.91
-27.851
-27.565
-27.134
-26.639
-26.181
-25.848
-25.743
-26.006
-26.744
-28.12
-30.354
-33.482
-37.408
-41.917
-46.558
-50.929
-54.781
-57.631
-58.878
-58.38
-56.305
-53.249
-50.353
-48.296
-47.172
-47.338
-49.239
-52.573
-56.443
-58.976
-57.28
-49.263
-33.734
-9.138
26.181
73.012
131.267
199.129
273.055
349.97
427.086
500.422
565.268
617.099
651.803
667.083
662.456
637.252
591.403
526.987
447.663
358.139
263.83
169.247
78.106
-5.145
-76.537
-134.047
-177.188
-206.948
-225.457
-234.639
-236.452
-233.905
-230.067
-226.913
-225.496
-225.842
-227.233
-229.088
-230.797
-231.205
-229.073
-223.717
-214.994
-203.293
-189.361
-173.899
-157.567
-141.138
-125.404
-110.919
-97.988
-86.764
-77.276
-69.515
-63.47
-59.038
-56.032
-54.303
-53.718
-54.119
-55.368
-57.274
-59.605
-62.194
-64.924
-67.667
-70.319
-72.748
-74.77
-76.28
-77.233
-77.597
-77.384
-76.609
-75.276
-73.441
-71.186
-68.598
-65.773
-62.777
-59.643
-56.42
-53.167
-49.957
-46.89
-44.028
-41.396
-39.016
-36.894
-35.027
-33.421
-32.048
-30.861
-29.817
-28.874
-28.003
-27.183
-26.387
-25.574
-24.702
-23.72
-22.591
-21.289
-19.792
-18.077
-16.13
-13.936
-11.494
-8.811
-5.893
-2.741
0.643
4.258
8.099
12.156
16.42
20.879
25.521
30.333
35.302
40.41
45.641
50.98
56.41
61.916
67.481
73.084
78.706
84.327
89.925
95.478
100.966
106.366
111.655
116.814
121.822
126.659
131.308
135.749
139.967
143.945
147.669
151.126
154.302
157.187
159.769
162.04
163.991
165.616
166.909
167.865
168.483
168.761
168.698
168.298
167.561
166.492
165.095
163.377
161.346
159.008
156.374
153.453
150.259
146.803
143.099
139.161
135.005
130.645
126.097
121.377
116.501
111.487
106.349
101.107
95.776
90.375
84.921
79.432
73.926
68.419
62.929
57.472
52.064
46.721
41.457
36.287
31.224
26.281
21.471
16.804
12.293
7.945
3.77
-0.225
-4.034
-7.651
-11.073
-14.296
-17.318
-20.138
-22.755
-25.169
-27.382
-29.397
-31.215
-32.841
-34.279
-35.537
-36.619
-37.533
-38.287
-38.888
-39.347
-39.67
-39.869
-39.951
-39.927
-39.806
-39.598
-39.314
-38.962
-38.554
-38.098
-37.604
-37.082
-36.539
-35.986
-35.428
-34.876
-34.335
-33.814
-33.317
-32.851
-32.422
-32.034
-31.691
-31.398
-31.156
-30.968
-30.836
-30.761
-30.745
-30.788
-30.89
-31.049
-31.267
-31.542
-31.872
-32.258
-32.695
-33.184
-33.721
-34.305
-34.933
-35.603
-36.31
-37.052
-37.824
-38.622
-39.441
-40.273
-41.115
-41.96
-42.804
-43.641
-44.467
-45.277
-46.07
-46.843
-47.592
-48.313
-49.001
-49.65
-50.254
-50.806
-51.3
-51.727
-52.078
-52.347
-52.532
-52.628
-52.631
-52.532
-52.318
-51.982
-51.523
-50.942
-50.241
-49.429
-48.511
-47.506
-46.443
-45.35
-44.254
-43.17
-42.093
-41.026
-39.973
-38.939
-37.931
-36.945
-35.953
-34.939
-33.891
-32.794
-31.63
-30.36
-28.914
-27.239
-25.298
-23.079
-20.609
-17.912
-15.011
-11.951
-8.784
-5.588
-2.471
0.483
3.215
5.654
7.726
9.331
10.333
10.63
10.148
8.85
6.743
3.852
0.212
-4.096
-8.971
-14.281
-19.87
-25.61
-31.399
-37.124
-42.665
-47.885
-52.627
-56.769
-60.225
-62.943
-64.924
-66.204
-66.859
-66.993
-66.719
-66.179
-65.536
-64.957
-64.604
-64.631
-65.171
-66.39
-68.514
-71.646
-75.737
-80.559
-85.651
-90.528
-94.795
-97.996
-99.545
-99.11
-96.765
-92.988
-88.815
-85.249
-82.788
-81.881
-83.11
-86.508
-91.254
-95.65
-96.909
-92.143
-79.385
-56.716
-21.934
26.338
88.166
161.99
244.228
330.614
417.515
500.637
574.642
634.438
675.683
695.8
694.615
672.693
630.357
569.257
492.683
404.997
311.379
216.083
121.9
31.894
-50.26
-121.528
-179.776
-224.545
-257.073
-278.392
-289.203
-291.065
-286.334
-277.808
-268.47
-259.971
-252.589
-246.564
-242.025
-238.695
-236.066
-233.063
-228.255
-221.027
-211.511
-200.011
-187.078
-173.243
-158.909
-144.723
-131.466
-119.577
-109.269
-100.616
-93.506
-87.882
-83.723
-80.905
-79.263
-78.646
-78.901
-79.902
-81.548
-83.708
-86.262
-89.111
-92.152
-95.307
-98.47
-101.51
-104.302
-106.725
-108.689
-110.147
-111.07
-111.449
-111.303
-110.664
-109.579
-108.109
-106.296
-104.175
-101.78
-99.142
-96.312
-93.365
-90.378
-87.437
-84.608
-81.927
-79.421
-77.102
-74.966
-72.997
-71.168
-69.44
-67.782
-66.17
-64.579
-62.993
-61.38
-59.703
-57.921
-55.988
-53.868
-51.533
-48.963
-46.142
-43.063
-39.723
-36.128
-32.29
-28.218
-23.92
-19.402
-14.672
-9.737
-4.611
0.692
6.156
11.764
17.499
23.343
29.278
35.284
41.344
47.439
53.554
59.668
65.763
71.818
77.81
83.717
89.52
95.195
100.721
106.077
111.243
116.201
120.931
125.418
129.645
133.598
137.261
140.623
143.671
146.397
148.791
150.845
152.552
153.91
154.913
155.56
155.852
155.789
155.373
154.609
153.502
152.058
150.285
148.191
145.786
143.081
140.088
136.82
133.291
129.517
125.512
121.294
116.879
112.286
107.533
102.637
97.619
92.498
87.291
82.02
76.703
71.359
66.007
60.664
55.349
50.078
44.868
39.733
34.688
29.748
24.925
20.231
15.678
11.276
7.033
2.96
-0.937
-4.651
-8.176
-11.508
-14.644
-17.58
-20.315
-22.849
-25.181
-27.314
-29.25
-30.991
-32.544
-33.913
-35.104
-36.125
-36.982
-37.683
-38.236
-38.649
-38.93
-39.089
-39.132
-39.068
-38.906
-38.653
-38.317
-37.906
-37.428
-36.89
-36.298
-35.66
-34.982
-34.272
-33.534
-32.776
-32.003
-31.222
-30.437
-29.655
-28.88
-28.116
-27.369
-26.641
-25.937
-25.258
-24.607
-23.987
-23.398
-22.843
-22.324
-21.842
-21.398
-20.995
-20.632
-20.313
-20.038
-19.809
-19.628
-19.495
-19.412
-19.381
-19.403
-19.479
-19.611
-19.798
-20.042
-20.341
-20.696
-21.105
-21.566
-22.076
-22.632
-23.231
-23.87
-24.543
-25.244
-25.97
-26.716
-27.474
-28.241
-29.008
-29.77
-30.521
-31.253
-31.958
-32.628
-33.253
-33.825
-34.335
-34.775
-35.137
-35.412
-35.591
-35.667
-35.634
-35.487
-35.216
-34.815
-34.275
-33.589
-32.76
-31.792
-30.686
-29.446
-28.077
-26.585
-24.985
-23.294
-21.513
-19.648
-17.706
-15.69
-13.62
-11.519
-9.403
-7.292
-5.195
-3.115
-1.073
0.912
2.835
4.681
6.448
8.139
9.712
11.131
12.365
13.382
14.172
14.73
15.037
15.073
14.817
14.247
13.364
12.172
10.656
8.815
6.647
4.158
1.419
-1.498
-4.539
-7.648
-10.789
-13.928
-17.005
-19.953
-22.722
-25.267
-27.557
-29.577
-31.297
-32.695
-33.777
-34.596
-35.269
-35.913
-36.628
-37.482
-38.514
-39.791
-41.407
-43.466
-46.059
-49.254
-53.075
-57.571
-62.814
-68.741
-75.145
-81.63
-87.569
-92.406
-95.697
-96.913
-95.636
-91.815
-85.627
-77.66
-68.936
-60.15
-51.888
-45
-39.776
-35.725
-31.852
-26.268
-16.7
-1.514
21.17
53.685
97.329
152.313
217.515
290.051
366.694
444.369
518.73
584.449
636.565
670.585
683.84
675.578
645.186
592.815
520.66
432.575
333.665
229.868
126.072
26.405
-64.514
-142.764
-205.828
-252.631
-283.852
-301.504
-307.612
-304.34
-294.535
-281.003
-266.136
-251.864
-239.388
-228.923
-220.23
-213.083
-206.998
-201.433
-196.128
-190.513
-183.682
-175.464
-166.177
-156.018
-145.333
-134.313
-122.727
-110.938
-99.944
-90.274
-82.174
-75.778
-70.881
-67.486
-65.895
-65.991
-67.309
-69.473
-72.076
-74.888
-77.933
-81.098
-84.166
-86.976
-89.362
-91.234
-92.599
-93.425
-93.658
-93.265
-92.218
-90.549
-88.353
-85.718
-82.74
-79.487
-75.994
-72.328
-68.566
-64.803
-61.154
-57.695
-54.456
-51.471
-48.758
-46.33
-44.202
-42.357
-40.745
-39.324
-38.053
-36.9
-35.846
-34.857
-33.887
-32.888
-31.807
-30.603
-29.253
-27.73
-26.014
-24.088
-21.936
-19.557
-16.957
-14.141
-11.109
-7.86
-4.393
-0.712
3.174
7.258
11.529
15.976
20.591
25.36
30.271
35.309
40.461
45.712
51.05
56.458
61.917
67.409
72.911
78.404
83.867
89.277
94.612
99.852
104.975
109.962
114.792
119.446
123.906
128.153
132.171
135.942
139.451
142.685
145.629
148.273
150.605
152.618
154.302
155.652
156.662
157.33
157.653
157.631
157.264
156.556
155.511
154.134
152.433
150.415
148.09
145.468
142.562
139.383
135.946
132.265
128.355
124.233
119.915
115.419
110.763
105.965
101.045
96.022
90.915
85.743
80.526
75.283
70.032
64.793
59.584
54.421
49.321
44.302
39.376
34.56
29.865
25.305
20.89
16.631
12.536
8.614
4.873
1.318
-2.046
-5.213
-8.182
-10.949
-13.514
-15.876
-18.037
-19.997
-21.761
-23.331
-24.714
-25.914
-26.938
-27.793
-28.487
-29.028
-29.425
-29.687
-29.823
-29.843
-29.756
-29.572
-29.3
-28.95
-28.529
-28.048
-27.515
-26.936
-26.321
-25.677
-25.01
-24.329
-23.639
-22.947
-22.26
-21.583
-20.922
-20.281
-19.667
-19.082
-18.532
-18.019
-17.546
-17.116
-16.731
-16.392
-16.1
-15.857
-15.662
-15.516
-15.418
-15.369
-15.367
-15.411
-15.503
-15.639
-15.822
-16.048
-16.319
-16.634
-16.993
-17.394
-17.838
-18.323
-18.848
-19.413
-20.015
-20.653
-21.324
-22.027
-22.758
-23.515
-24.294
-25.093
-25.907
-26.734
-27.567
-28.404
-29.24
-30.07
-30.888
-31.691
-32.473
-33.228
-33.952
-34.639
-35.283
-35.877
-36.417
-36.894
-37.304
-37.638
-37.891
-38.056
-38.128
-38.101
-37.97
-37.729
-37.376
-36.907
-36.319
-35.61
-34.78
-33.827
-32.754
-31.563
-30.255
-28.837
-27.314
-25.693
-23.984
-22.197
-20.342
-18.432
-16.48
-14.5
-12.505
-10.508
-8.522
-6.562
-4.642
-2.778
-0.987
0.717
2.317
3.793
5.128
6.305
7.311
8.137
8.776
9.219
9.453
9.462
9.232
8.757
8.03
7.048
5.813
4.334
2.636
0.764
-1.233
-3.309
-5.422
-7.544
-9.643
-11.678
-13.6
-15.352
-16.882
-18.155
-19.135
-19.792
-20.11
-20.091
-19.793
-19.333
-18.834
-18.414
-18.162
-18.122
-18.366
-18.993
-20.125
-21.903
-24.444
-27.806
-32.053
-37.284
-43.447
-50.351
-57.616
-64.598
-70.678
-75.394
-78.365
-79.281
-78.215
-75.462
-71.423
-66.873
-62.459
-58.528
-55.295
-52.602
-49.422
-44.275
-35.741
-22.109
-1.993
25.789
62.552
108.922
164.107
226.216
292.981
361.761
430.094
494.932
552.122
597.649
628.481
642.967
640.334
620.023
581.395
525.068
453.738
371.307
282.109
189.785
97.536
9.103
-71.082
-139.211
-193.388
-233.539
-260.747
-276.134
-280.933
-277.186
-268.056
-257.081
-246.63
-237.691
-230.411
-224.685
-220.367
-217.092
-213.787
-208.901
-201.575
-191.691
-179.579
-165.923
-151.329
-136.253
-121.388
-107.587
-95.396
-85.147
-76.955
-70.659
-66.12
-63.226
-61.775
-61.558
-62.381
-64.033
-66.341
-69.152
-72.288
-75.612
-79.008
-82.335
-85.474
-88.276
-90.592
-92.345
-93.507
-94.069
-94.052
-93.474
-92.36
-90.777
-88.804
-86.52
-84.003
-81.302
-78.452
-75.512
-72.545
-69.635
-66.873
-64.312
-61.975
-59.88
-58.031
-56.426
-55.058
-53.898
-52.899
-52.025
-51.243
-50.526
-49.858
-49.209
-48.539
-47.808
-46.966
-45.978
-44.818
-43.464
-41.896
-40.099
-38.064
-35.788
-33.28
-30.544
-27.58
-24.388
-20.968
-17.324
-13.464
-9.394
-5.126
-0.671
3.961
8.757
13.701
18.78
23.979
29.285
34.683
40.158
45.691
51.264
56.857
62.447
68.015
73.537
78.992
84.357
89.611
94.733
99.704
104.504
109.113
113.515
117.692
121.628
125.307
128.715
131.84
134.668
137.191
139.398
141.281
142.834
144.051
144.93
145.468
145.663
145.515
145.027
144.201
143.041
141.553
139.745
137.624
135.202
132.489
129.498
126.243
122.737
118.997
115.036
110.872
106.522
102.002
97.331
92.527
87.607
82.59
77.496
72.342
67.148
61.93
56.707
51.496
46.313
41.175
36.097
31.095
26.182
21.374
16.682
12.12
7.698
3.427
-0.686
-4.631
-8.403
-11.995
-15.403
-18.622
-21.651
-24.487
-27.128
-29.574
-31.827
-33.887
-35.757
-37.441
-38.941
-40.264
-41.414
-42.397
-43.218
-43.884
-44.402
-44.779
-45.021
-45.137
-45.134
-45.02
-44.803
-44.492
-44.095
-43.619
-43.074
-42.466
-41.803
-41.092
-40.34
-39.554
-38.742
-37.909
-37.063
-36.21
-35.355
-34.505
-33.666
-32.841
-32.037
-31.257
-30.505
-29.786
-29.104
-28.461
-27.861
-27.308
-26.805
-26.353
-25.956
-25.615
-25.332
-25.109
-24.947
-24.847
-24.809
-24.836
-24.927
-25.083
-25.303
-25.589
-25.939
-26.352
-26.827
-27.362
-27.955
-28.603
-29.305
-30.056
-30.854
-31.695
-32.573
-33.486
-34.429
-35.394
-36.378
-37.373
-38.373
-39.373
-40.364
-41.34
-42.295
-43.22
-44.11
-44.956
-45.751
-46.488
-47.158
-47.753
-48.268
-48.693
-49.021
-49.247
-49.364
-49.367
-49.249
-49.007
-48.636
-48.133
-47.496
-46.724
-45.814
-44.77
-43.591
-42.282
-40.846
-39.29
-37.622
-35.851
-33.986
-32.038
-30.021
-27.946
-25.828
-23.682
-21.521
-19.362
-17.221
-15.115
-13.061
-11.079
-9.185
-7.399
-5.74
-4.229
-2.883
-1.719
-0.747
0.021
0.572
0.896
0.977
0.807
0.38
-0.311
-1.268
-2.49
-3.973
-5.698
-7.632
-9.743
-11.996
-14.361
-16.817
-19.335
-21.882
-24.423
-26.917
-29.324
-31.615
-33.75
-35.69
-37.409
-38.89
-40.151
-41.256
-42.271
-43.26
-44.273
-45.328
-46.463
-47.74
-49.239
-51.055
-53.275
-55.953
-59.188
-63.153
-67.908
-73.357
-79.206
-84.889
-89.846
-93.665
-95.911
-96.052
-93.822
-89.39
-83.386
-77.048
-71.638
-67.879
-66.364
-67.747
-72.07
-78.409
-84.897
-88.496
-85.936
-74.882
-53.152
-18.346
30.978
94.794
171.388
256.923
346.753
436.925
522.887
599.052
660.205
701.986
721.823
719.653
696.237
652.041
588.896
510.323
420.84
325.779
229.539
134.958
45.098
-36.392
-106.64
-163.728
-207.377
-239.021
-259.83
-270.539
-272.723
-268.651
-260.925
-252.307
-244.243
-236.837
-230.258
-224.635
-219.766
-215.303
-210.354
-203.667
-194.785
-183.943
-171.537
-158.186
-144.398
-130.519
-117.12
-104.878
-94.181
-85.191
-77.869
-71.987
-67.368
-63.879
-61.362
-59.645
-58.566
-57.988
-57.789
-57.865
-58.143
-58.567
-59.086
-59.667
-60.274
-60.864
-61.422
-61.955
-62.465
-62.964
-63.442
-63.864
-64.201
-64.414
-64.488
-64.426
-64.222
-63.86
-63.326
-62.604
-61.689
-60.592
-59.314
-57.85
-56.2
-54.363
-52.356
-50.216
-47.984
-45.714
-43.439
-41.176
-38.937
-36.727
-34.548
-32.401
-30.277
-28.154
-26.017
-23.855
-21.656
-19.413
-17.11
-14.719
-12.213
-9.556
-6.724
-3.703
-0.483
2.941
6.57
10.402
14.426
18.627
22.993
27.511
32.171
36.965
41.88
46.898
52.003
57.175
62.393
67.64
72.896
78.142
83.359
88.529
93.636
98.664
103.596
108.415
113.102
117.639
122.006
126.187
130.164
133.919
137.436
140.7
143.698
146.419
148.851
150.985
152.812
154.323
155.512
156.374
156.904
157.099
156.959
156.483
155.673
154.532
153.065
151.278
149.178
146.774
144.075
141.093
137.839
134.326
130.568
126.581
122.381
117.985
113.41
108.675
103.798
98.799
93.696
88.509
83.257
77.958
72.631
67.295
61.967
56.666
51.407
46.208
41.085
36.052
31.123
26.311
21.628
17.084
12.689
8.451
4.377
0.474
-3.255
-6.804
-10.172
-13.357
-16.359
-19.178
-21.817
-24.278
-26.564
-28.68
-30.632
-32.424
-34.063
-35.555
-36.907
-38.125
-39.218
-40.193
-41.057
-41.818
-42.484
-43.064
-43.563
-43.99
-44.352
-44.655
-44.905
-45.108
-45.269
-45.394
-45.486
-45.55
-45.589
-45.607
-45.607
-45.592
-45.562
-45.519
-45.465
-45.4
-45.325
-45.24
-45.147
-45.045
-44.935
-44.819
-44.697
-44.57
-44.438
-44.303
-44.165
-44.026
-43.885
-43.744
-43.604
-43.467
-43.335
-43.21
-43.094
-42.991
-42.902
-42.829
-42.777
-42.747
-42.743
-42.766
-42.821
-42.908
-43.032
-43.195
-43.4
-43.649
-43.943
-44.283
-44.67
-45.102
-45.577
-46.092
-46.644
-47.231
-47.849
-48.495
-49.165
-49.856
-50.566
-51.29
-52.026
-52.767
-53.506
-54.233
-54.941
-55.62
-56.258
-56.846
-57.371
-57.822
-58.195
-58.482
-58.675
-58.763
-58.732
-58.57
-58.276
-57.847
-57.285
-56.598
-55.789
-54.877
-53.893
-52.864
-51.819
-50.774
-49.727
-48.681
-47.642
-46.614
-45.608
-44.618
-43.621
-42.601
-41.55
-40.454
-39.303
-38.057
-36.65
-35.029
-33.155
-31.017
-28.639
-26.047
-23.264
-20.339
-17.325
-14.308
-11.403
-8.693
-6.239
-4.112
-2.375
-1.131
-0.516
-0.632
-1.552
-3.324
-5.943
-9.396
-13.652
-18.619
-24.183
-30.197
-36.487
-42.92
-49.392
-55.782
-61.979
-67.838
-73.195
-77.934
-81.964
-85.205
-87.621
-89.213
-90.031
-90.209
-89.906
-89.274
-88.455
-87.578
-86.772
-86.187
-85.985
-86.315
-87.28
-88.981
-91.546
-94.972
-99.121
-103.678
-108.026
-111.561
-113.823
-114.274
-112.497
-108.51
-102.547
-95.23
-87.706
-80.795
-75.081
-71.33
-69.631
-69.098
-68.368
-65.254
-57.059
-41.859
-17.773
17.413
64.575
123.058
190.987
264.803
340.416
414.399
482.574
539.919
582.412
607.137
612.786
600.109
570.105
523.485
462.315
389.94
310.088
226.764
142.956
60.472
-18.211
-90.121
-153.011
-205.446
-247.258
-279.256
-301.689
-314.517
-318.845
-316.508
-309.558
-299.935
-288.327
-274.875
-260.502
-246.411
-233.141
-220.775
-208.983
-197.455
-186.854
-177.868
-170.28
-163.383
-156.666
-149.893
-143.148
-136.472
-129.317
-121.279
-112.634
-104.108
-96.335
-89.649
-84.096
-79.645
-76.51
-74.853
-74.492
-74.992
-75.932
-77.065
-78.299
-79.641
-80.988
-82.164
-83.057
-83.612
-83.821
-83.684
-83.168
-82.218
-80.813
-78.976
-76.753
-74.21
-71.394
-68.331
-65.048
-61.573
-57.959
-54.278
-50.61
-47.04
-43.631
-40.424
-37.449
-34.724
-32.253
-30.027
-28.022
-26.197
-24.519
-22.964
-21.509
-20.136
-18.813
-17.5
-16.152
-14.72
-13.162
-11.448
-9.55
-7.446
-5.122
-2.566
0.221
3.236
6.475
9.936
13.62
17.528
21.656
25.998
30.546
35.287
40.212
45.307
50.56
55.956
61.48
67.117
72.852
78.67
84.555
90.488
96.449
102.415
108.365
114.275
120.124
125.887
131.541
137.062
142.428
147.619
152.612
157.387
161.924
166.206
170.215
173.934
177.349
180.446
183.214
185.642
187.719
189.44
190.797
191.786
192.404
192.65
192.524
192.028
191.166
189.942
188.363
186.437
184.174
181.583
178.678
175.471
171.978
168.213
164.195
159.941
155.469
150.798
145.95
140.943
135.799
130.538
125.18
119.746
114.257
108.731
103.189
97.649
92.131
86.651
81.227
75.876
70.613
65.453
60.409
55.495
50.722
46.102
41.644
37.356
33.247
29.324
25.592
22.056
18.719
15.584
12.652
9.923
7.396
5.068
2.938
1.001
-0.746
-2.31
-3.695
-4.908
-5.954
-6.841
-7.576
-8.166
-8.62
-8.945
-9.15
-9.242
-9.231
-9.125
-8.932
-8.66
-8.319
-7.917
-7.462
-6.962
-6.427
-5.864
-5.281
-4.686
-4.088
-3.493
-2.908
-2.341
-1.798
-1.284
-0.805
-0.367
0.024
0.365
0.649
0.874
1.035
1.127
1.148
1.095
0.964
0.753
0.46
0.084
-0.377
-0.924
-1.558
-2.278
-3.084
-3.976
-4.952
-6.011
-7.15
-8.365
-9.654
-11.012
-12.435
-13.918
-15.456
-17.044
-18.674
-20.341
-22.038
-23.758
-25.494
-27.237
-28.98
-30.714
-32.43
-34.12
-35.775
-37.385
-38.941
-40.434
-41.855
-43.196
-44.447
-45.6
-46.647
-47.579
-48.389
-49.07
-49.615
-50.018
-50.273
-50.376
-50.324
-50.114
-49.742
-49.209
-48.514
-47.658
-46.642
-45.468
-44.139
-42.661
-41.038
-39.277
-37.386
-35.375
-33.253
-31.034
-28.732
-26.359
-23.931
-21.463
-18.972
-16.475
-13.989
-11.528
-9.109
-6.749
-4.466
-2.278
-0.201
1.746
3.549
5.191
6.654
7.922
8.982
9.827
10.449
10.84
10.991
10.887
10.521
9.892
9.001
7.855
6.459
4.827
2.985
0.977
-1.145
-3.334
-5.546
-7.748
-9.903
-11.967
-13.891
-15.62
-17.115
-18.346
-19.294
-19.942
-20.275
-20.304
-20.075
-19.686
-19.26
-18.908
-18.729
-18.8
-19.18
-19.959
-21.241
-23.115
-25.666
-28.952
-32.967
-37.754
-43.373
-49.72
-56.56
-63.442
-69.677
-74.679
-77.989
-79.078
-77.541
-73.272
-66.355
-57.435
-47.628
-37.814
-28.799
-21.305
-15.399
-10.6
-5.949
0.479
11.035
27.938
53.592
89.976
137.866
196.866
265.267
339.995
417.369
492.968
561.447
617.475
656.384
674.989
671.719
646.046
598.374
530.636
446.486
350.886
249.485
147.112
48.052
-43.269
-122.911
-187.859
-236.77
-270.274
-290.124
-298.007
-296.024
-287
-274.024
-260.331
-248.04
-237.771
-229.521
-223.11
-218.108
-213.847
-209.262
-202.926
-194.102
-182.86
-169.609
-155.038
-139.772
-124.304
-109.317
-95.63
-83.802
-74.104
-66.572
-61.005
-57.205
-55.023
-54.265
-54.705
-56.114
-58.266
-60.953
-63.997
-67.263
-70.626
-73.944
-77.068
-79.828
-82.063
-83.684
-84.66
-84.985
-84.678
-83.761
-82.26
-80.249
-77.82
-75.065
-72.079
-68.92
-65.629
-62.27
-58.916
-55.654
-52.582
-49.755
-47.193
-44.914
-42.922
-41.215
-39.786
-38.602
-37.614
-36.781
-36.067
-35.444
-34.891
-34.377
-33.864
-33.309
-32.663
-31.893
-30.972
-29.879
-28.592
-27.096
-25.38
-23.44
-21.282
-18.906
-16.313
-13.5
-10.464
-7.207
-3.735
-0.054
3.828
7.902
12.157
16.582
21.164
25.89
30.745
35.715
40.788
45.947
51.176
56.454
61.762
67.08
72.387
77.663
82.884
88.03
93.08
98.013
102.81
107.451
111.915
116.186
120.243
124.07
127.648
130.963
133.998
136.741
139.178
141.298
143.091
144.549
145.664
146.432
146.849
146.912
146.62
145.975
144.979
143.637
141.954
139.937
137.595
134.938
131.976
128.723
125.192
121.397
117.353
113.076
108.583
103.892
99.02
93.986
88.809
83.51
78.109
72.625
67.081
61.495
55.888
50.281
44.691
39.14
33.643
28.22
22.886
17.657
12.549
7.574
2.744
-1.929
-6.435
-10.766
-14.915
-18.875
-22.642
-26.212
-29.582
-32.75
-35.716
-38.479
-41.04
-43.402
-45.567
-47.54
-49.324
-50.927
-52.353
-53.61
-54.705
-55.646
-56.44
-57.097
-57.625
-58.031
-58.325
-58.516
-58.612
-58.621
-58.552
-58.411
-58.208
-57.947
-57.636
-57.281
-56.887
-56.458
-56
-55.518
-55.015
-54.496
-53.965
-53.425
-52.879
-52.331
-51.782
-51.236
-50.695
-50.16
-49.634
-49.117
-48.613
-48.122
-47.646
-47.187
-46.746
-46.326
-45.927
-45.552
-45.201
-44.877
-44.581
-44.316
-44.082
-43.883
-43.721
-43.597
-43.515
-43.476
-43.481
-43.533
-43.632
-43.779
-43.976
-44.221
-44.516
-44.859
-45.25
-45.689
-46.173
-46.702
-47.272
-47.881
-48.525
-49.2
-49.901
-50.624
-51.363
-52.111
-52.864
-53.614
-54.356
-55.082
-55.785
-56.457
-57.091
-57.679
-58.213
-58.685
-59.088
-59.415
-59.658
-59.812
-59.871
-59.83
-59.683
-59.427
-59.059
-58.576
-57.976
-57.258
-56.422
-55.471
-54.405
-53.231
-51.953
-50.578
-49.115
-47.574
-45.965
-44.3
-42.591
-40.852
-39.097
-37.341
-35.597
-33.882
-32.21
-30.6
-29.068
-27.631
-26.303
-25.103
-24.044
-23.145
-22.42
-21.881
-21.537
-21.399
-21.473
-21.768
-22.298
-23.066
-24.072
-25.315
-26.788
-28.481
-30.384
-32.476
-34.722
-37.085
-39.527
-42.013
-44.522
-47.02
-49.476
-51.85
-54.094
-56.172
-58.059
-59.729
-61.168
-62.366
-63.316
-64.037
-64.594
-65.061
-65.511
-66.009
-66.58
-67.245
-68.047
-69.053
-70.345
-71.992
-74.051
-76.539
-79.499
-83.034
-87.109
-91.535
-95.943
-99.727
-102.311
-103.321
-102.302
-98.74
-92.599
-84.103
-73.886
-63.39
-53.8
-45.879
-40.686
-38.899
-40.068
-43.249
-46.534
-46.61
-40.712
-26.34
-0.425
38.959
92.073
158.064
234.168
315.91
398.918
477.964
546.697
599.764
632.938
643.387
630.358
594.229
536.162
459.472
369.271
270.974
170.241
72.008
-19.636
-100.295
-166.33
-216.301
-250.519
-270.469
-278.498
-276.853
-267.969
-255.382
-242.53
-231.485
-223.167
-217.508
-213.865
-211.703
-210.378
-208.573
-204.827
-198.397
-189.169
-177.555
-164.296
-150.018
-135.236
-120.636
-106.977
-94.74
-84.187
-75.42
-68.345
-62.883
-58.975
-56.476
-55.206
-55.008
-55.716
-57.176
-59.261
-61.807
-64.665
-67.736
-70.911
-74.092
-77.171
-79.995
-82.423
-84.374
-85.796
-86.668
-86.991
-86.769
-86.027
-84.827
-83.238
-81.332
-79.167
-76.773
-74.182
-71.438
-68.598
-65.745
-62.968
-60.317
-57.826
-55.521
-53.406
-51.487
-49.757
-48.184
-46.726
-45.348
-44.021
-42.724
-41.443
-40.151
-38.813
-37.392
-35.842
-34.131
-32.236
-30.134
-27.809
-25.249
-22.447
-19.405
-16.134
-12.639
-8.924
-4.992
-0.842
3.519
8.083
12.842
17.784
22.898
28.173
33.594
39.147
44.817
50.589
56.449
62.382
68.372
74.402
80.452
86.505
92.538
98.533
104.469
110.325
116.081
121.717
127.215
132.556
137.723
142.698
147.465
152.009
156.314
160.367
164.153
167.662
170.88
173.798
176.407
178.697
180.663
182.3
183.602
184.569
185.199
185.493
185.453
185.083
184.388
183.374
182.049
180.421
178.5
176.296
173.823
171.093
168.119
164.915
161.496
157.878
154.075
150.103
145.98
141.72
137.341
132.859
128.292
123.655
118.967
114.243
109.501
104.755
100.021
95.314
90.648
86.036
81.489
77.02
72.638
68.352
64.17
60.101
56.148
52.319
48.617
45.045
41.606
38.301
35.132
32.098
29.199
26.435
23.802
21.301
18.927
16.678
14.55
12.54
10.644
8.858
7.176
5.594
4.107
2.709
1.395
0.162
-0.998
-2.087
-3.11
-4.071
-4.974
-5.822
-6.617
-7.363
-8.061
-8.714
-9.325
-9.893
-10.422
-10.913
-11.368
-11.787
-12.172
-12.525
-12.848
-13.142
-13.409
-13.652
-13.874
-14.076
-14.262
-14.434
-14.595
-14.747
-14.894
-15.039
-15.184
-15.332
-15.487
-15.653
-15.834
-16.034
-16.256
-16.504
-16.784
-17.098
-17.451
-17.846
-18.286
-18.774
-19.313
-19.905
-20.551
-21.252
-22.008
-22.819
-23.683
-24.597
-25.558
-26.561
-27.601
-28.671
-29.766
-30.877
-31.998
-33.119
-34.233
-35.33
-36.401
-37.436
-38.424
-39.356
-40.219
-41.004
-41.698
-42.293
-42.776
-43.137
-43.368
-43.458
-43.399
-43.183
-42.804
-42.254
-41.529
-40.625
-39.541
-38.277
-36.834
-35.217
-33.432
-31.488
-29.396
-27.167
-24.815
-22.355
-19.802
-17.175
-14.492
-11.77
-9.027
-6.287
-3.57
-0.901
1.697
4.202
6.59
8.835
10.913
12.8
14.474
15.92
17.119
18.053
18.706
19.055
19.086
18.794
18.173
17.222
15.943
14.345
12.448
10.286
7.899
5.323
2.591
-0.274
-3.241
-6.275
-9.338
-12.386
-15.38
-18.296
-21.107
-23.782
-26.305
-28.67
-30.893
-33.034
-35.165
-37.344
-39.63
-42.052
-44.62
-47.368
-50.343
-53.605
-57.216
-61.218
-65.625
-70.501
-75.942
-81.932
-88.311
-94.707
-100.55
-105.29
-108.507
-109.773
-108.578
-104.666
-98.197
-89.785
-80.61
-71.908
-64.472
-58.99
-56.268
-56.475
-58.836
-61.734
-62.421
-57.867
-45.805
-23.945
10.21
58.06
119.562
193.094
275.11
361.331
447.764
529.504
600.765
656.328
691.879
704.943
695.018
662.304
607.614
533.533
444.427
345.586
242.756
140.68
43.297
-45.233
-121.316
-182.734
-228.966
-261.009
-280.778
-289.908
-290.001
-283.469
-272.797
-259.946
-246.037
-231.447
-216.215
-200.784
-186.046
-172.326
-159.661
-148.408
-139.024
-131.879
-127.263
-124.819
-123.401
-122.27
-120.938
-118.645
-114.95
-109.724
-102.949
-95.194
-87.537
-80.607
-74.795
-70.566
-68.015
-67.115
-67.83
-69.732
-72.227
-74.991
-77.813
-80.524
-83.107
-85.464
-87.416
-88.946
-90.08
-90.815
-91.169
-91.111
-90.592
-89.628
-88.283
-86.621
-84.71
-82.583
-80.25
-77.75
-75.134
-72.476
-69.874
-67.388
-65.057
-62.914
-60.974
-59.253
-57.76
-56.476
-55.36
-54.374
-53.482
-52.658
-51.889
-51.145
-50.392
-49.587
-48.68
-47.633
-46.42
-45.014
-43.395
-41.546
-39.454
-37.117
-34.544
-31.74
-28.707
-25.449
-21.964
-18.259
-14.342
-10.223
-5.913
-1.423
3.236
8.05
13.003
18.08
23.265
28.544
33.9
39.316
44.773
50.25
55.724
61.175
66.579
71.914
77.157
82.285
87.276
92.109
96.764
101.221
105.462
109.469
113.226
116.718
119.931
122.852
125.47
127.776
129.759
131.412
132.729
133.704
134.333
134.615
134.549
134.136
133.377
132.279
130.845
129.083
127.002
124.61
121.92
118.943
115.693
112.185
108.435
104.46
100.276
95.903
91.359
86.663
81.834
76.892
71.856
66.746
61.58
56.378
51.159
45.942
40.744
35.584
30.48
25.446
20.5
15.657
10.93
6.332
1.877
-2.425
-6.563
-10.529
-14.314
-17.912
-21.316
-24.523
-27.529
-30.332
-32.931
-35.327
-37.521
-39.516
-41.315
-42.923
-44.344
-45.584
-46.65
-47.548
-48.286
-48.872
-49.314
-49.62
-49.799
-49.86
-49.81
-49.659
-49.415
-49.087
-48.683
-48.211
-47.679
-47.095
-46.467
-45.8
-45.103
-44.382
-43.642
-42.89
-42.129
-41.366
-40.604
-39.846
-39.096
-38.357
-37.631
-36.92
-36.225
-35.548
-34.89
-34.252
-33.635
-33.039
-32.465
-31.914
-31.387
-30.883
-30.405
-29.952
-29.526
-29.127
-28.758
-28.417
-28.108
-27.829
-27.582
-27.369
-27.188
-27.042
-26.929
-26.851
-26.806
-26.796
-26.82
-26.877
-26.966
-27.088
-27.24
-27.421
-27.629
-27.863
-28.119
-28.395
-28.687
-28.992
-29.304
-29.62
-29.935
-30.242
-30.536
-30.812
-31.061
-31.279
-31.457
-31.589
-31.668
-31.687
-31.641
-31.522
-31.325
-31.046
-30.678
-30.22
-29.667
-29.016
-28.267
-27.417
-26.468
-25.419
-24.274
-23.034
-21.704
-20.293
-18.807
-17.258
-15.654
-14.008
-12.334
-10.645
-8.955
-7.278
-5.626
-4.015
-2.459
-0.975
0.421
1.711
2.877
3.904
4.778
5.483
6.007
6.344
6.487
6.432
6.17
5.688
4.972
4.013
2.807
1.351
-0.347
-2.276
-4.415
-6.728
-9.175
-11.717
-14.312
-16.93
-19.536
-22.094
-24.557
-26.863
-28.953
-30.777
-32.291
-33.458
-34.265
-34.721
-34.86
-34.764
-34.509
-34.158
-33.797
-33.509
-33.395
-33.577
-34.165
-35.266
-37.023
-39.625
-43.16
-47.572
-52.633
-57.905
-62.953
-67.427
-70.908
-72.816
-72.77
-70.802
-67.375
-63.505
-60.177
-57.834
-56.829
-57.741
-60.771
-65.34
-69.995
-72.109
-68.77
-57.967
-37.882
-6.33
38.295
96.582
167.782
249.091
336.56
426.505
514.686
595.702
664.169
715.064
744.32
749.958
731.382
688.571
623.061
538.495
439.71
332.504
222.882
116.06
16.965
-69.767
-140.756
-194.596
-231.587
-253.397
-262.452
-261.43
-253.535
-242.32
-231.1
-221.968
-215.702
-212.266
-211.105
-211.436
-212.267
-212.262
-209.958
-204.623
-196.293
-185.369
-172.56
-158.581
-144.015
-129.577
-116.058
-103.917
-93.344
-84.39
-76.946
-70.93
-66.318
-63.013
-60.858
-59.72
-59.446
-59.888
-60.931
-62.428
-64.255
-66.333
-68.592
-70.97
-73.42
-75.879
-78.256
-80.483
-82.476
-84.139
-85.417
-86.284
-86.737
-86.818
-86.577
-86.061
-85.306
-84.34
-83.176
-81.834
-80.329
-78.675
-76.909
-75.069
-73.211
-71.412
-69.72
-68.165
-66.76
-65.496
-64.35
-63.306
-62.338
-61.415
-60.512
-59.606
-58.676
-57.709
-56.682
-55.564
-54.32
-52.903
-51.278
-49.419
-47.306
-44.927
-42.277
-39.352
-36.155
-32.7
-28.995
-25.05
-20.873
-16.471
-11.852
-7.03
-2.022
3.154
8.479
13.935
19.503
25.162
30.894
36.677
42.492
48.324
54.152
59.956
65.714
71.406
77.009
82.503
87.864
93.072
98.104
102.939
107.558
111.943
116.074
119.934
123.509
126.783
129.744
132.381
134.683
136.643
138.252
139.505
140.398
140.93
141.098
140.904
140.349
139.437
138.174
136.566
134.619
132.343
129.747
126.843
123.641
120.154
116.398
112.386
108.135
103.663
98.987
94.127
89.102
83.934
78.642
73.248
67.774
62.24
56.668
51.078
45.493
39.931
34.412
28.956
23.58
18.303
13.14
8.107
3.219
-1.512
-6.072
-10.451
-14.638
-18.623
-22.4
-25.96
-29.297
-32.407
-35.285
-37.929
-40.337
-42.511
-44.45
-46.159
-47.642
-48.903
-49.95
-50.791
-51.434
-51.888
-52.164
-52.273
-52.227
-52.038
-51.717
-51.278
-50.734
-50.097
-49.38
-48.597
-47.758
-46.877
-45.965
-45.033
-44.094
-43.157
-42.234
-41.337
-40.474
-39.658
-38.896
-38.2
-37.576
-37.031
-36.574
-36.208
-35.938
-35.768
-35.701
-35.737
-35.879
-36.126
-36.478
-36.934
-37.491
-38.147
-38.898
-39.741
-40.67
-41.681
-42.768
-43.927
-45.152
-46.437
-47.777
-49.165
-50.596
-52.06
-53.551
-55.058
-56.572
-58.081
-59.575
-61.043
-62.475
-63.862
-65.194
-66.464
-67.664
-68.789
-69.832
-70.787
-71.644
-72.395
-73.032
-73.548
-73.934
-74.182
-74.284
-74.233
-74.028
-73.664
-73.137
-72.442
-71.569
-70.511
-69.27
-67.849
-66.257
-64.506
-62.611
-60.593
-58.488
-56.33
-54.153
-51.986
-49.841
-47.729
-45.664
-43.66
-41.73
-39.88
-38.092
-36.343
-34.617
-32.895
-31.154
-29.363
-27.461
-25.397
-23.135
-20.65
-17.949
-15.052
-11.975
-8.746
-5.412
-2.042
1.264
4.392
7.252
9.757
11.829
13.385
14.315
14.542
14.019
12.72
10.654
7.842
4.316
0.126
-4.636
-9.847
-15.356
-20.989
-26.607
-32.079
-37.299
-42.169
-46.602
-50.575
-54.094
-57.187
-59.895
-62.244
-64.28
-66.089
-67.798
-69.561
-71.54
-73.88
-76.742
-80.33
-84.715
-89.813
-95.354
-100.819
-105.694
-109.599
-112.089
-112.597
-110.801
-106.749
-100.904
-94.285
-87.871
-82.147
-77.566
-74.763
-73.898
-74.346
-74.654
-72.28
-64.491
-49.336
-24.827
11.32
60.596
123.316
198.238
282.149
371.046
461.102
547.534
624.587
686.759
729.142
748.646
744.243
715.715
663.596
590.276
499.979
398.16
291.006
183.697
80.68
-13.361
-94.346
-159.432
-207.565
-239.71
-257.989
-264.342
-261.091
-251.349
-238.335
-225.24
-214.094
-205.329
-198.744
-194.046
-190.666
-187.79
-184.338
-178.915
-170.836
-160.259
-147.632
-133.664
-119.026
-104.225
-89.919
-76.885
-65.602
-56.308
-49.068
-43.7
-40.033
-37.938
-37.202
-37.608
-38.951
-41.017
-43.62
-46.597
-49.799
-53.116
-56.451
-59.688
-62.709
-65.366
-67.524
-69.118
-70.119
-70.518
-70.332
-69.575
-68.283
-66.53
-64.4
-61.974
-59.318
-56.466
-53.448
-50.315
-47.128
-43.972
-40.935
-38.061
-35.382
-32.919
-30.677
-28.66
-26.858
-25.238
-23.755
-22.373
-21.059
-19.793
-18.558
-17.324
-16.054
-14.707
-13.236
-11.607
-9.795
-7.773
-5.524
-3.034
-0.293
2.698
5.931
9.401
13.105
17.04
21.206
25.596
30.2
35.008
40.007
45.185
50.526
56.016
61.637
67.374
73.209
79.126
85.108
91.138
97.195
103.26
109.311
115.325
121.281
127.157
132.93
138.578
144.081
149.417
154.566
159.512
164.234
168.716
172.941
176.896
180.564
183.936
186.998
189.741
192.156
194.236
195.974
197.366
198.409
199.1
199.439
199.427
199.066
198.36
197.313
195.932
194.223
192.194
189.856
187.219
184.293
181.091
177.627
173.914
169.967
165.801
161.431
156.874
152.145
147.262
142.241
137.098
131.851
126.516
121.11
115.65
110.152
104.631
99.105
93.587
88.093
82.637
77.233
71.894
66.632
61.46
56.387
51.425
46.583
41.869
37.291
32.857
28.573
24.443
20.473
16.665
13.023
9.55
6.245
3.11
0.145
-2.651
-5.278
-7.74
-10.037
-12.174
-14.153
-15.978
-17.654
-19.186
-20.578
-21.835
-22.965
-23.973
-24.865
-25.647
-26.327
-26.91
-27.405
-27.817
-28.154
-28.422
-28.628
-28.78
-28.883
-28.944
-28.969
-28.964
-28.935
-28.888
-28.827
-28.76
-28.69
-28.623
-28.564
-28.517
-28.488
-28.479
-28.495
-28.539
-28.613
-28.721
-28.864
-29.044
-29.262
-29.518
-29.814
-30.148
-30.521
-30.932
-31.377
-31.856
-32.365
-32.902
-33.463
-34.043
-34.638
-35.245
-35.859
-36.473
-37.084
-37.686
-38.271
-38.835
-39.371
-39.871
-40.329
-40.737
-41.089
-41.377
-41.596
-41.738
-41.799
-41.772
-41.653
-41.437
-41.121
-40.702
-40.177
-39.544
-38.804
-37.957
-37.006
-35.953
-34.803
-33.561
-32.237
-30.838
-29.374
-27.856
-26.295
-24.704
-23.096
-21.485
-19.884
-18.308
-16.771
-15.291
-13.883
-12.565
-11.355
-10.27
-9.329
-8.55
-7.951
-7.545
-7.344
-7.358
-7.595
-8.066
-8.786
-9.767
-11.012
-12.527
-14.311
-16.358
-18.659
-21.191
-23.909
-26.773
-29.74
-32.771
-35.837
-38.904
-41.936
-44.891
-47.722
-50.38
-52.832
-55.039
-56.966
-58.6
-59.936
-61.01
-61.915
-62.743
-63.586
-64.525
-65.604
-66.879
-68.442
-70.378
-72.784
-75.764
-79.366
-83.685
-88.878
-94.928
-101.683
-108.822
-115.753
-121.931
-126.979
-130.373
-131.516
-130.235
-126.657
-121.344
-115.416
-109.668
-104.409
-100.184
-97.627
-96.576
-96.197
-94.741
-89.443
-78.195
-59.694
-32.139
6.447
56.994
119.392
191.721
270.204
351.526
432.683
509.307
576.272
628.709
662.175
674.431
665.329
634.455
582.025
510.236
422.629
324.124
220.632
116.698
15.921
-77.32
-159.305
-227.459
-280.057
-317.444
-341.472
-353.563
-355.342
-349.434
-338.317
-324.567
-310.779
-298.036
-286.463
-276.299
-267.434
-259.366
-251.646
-243.43
-233.684
-222.225
-209.38
-195.552
-181.356
-167.347
-153.958
-141.832
-131.666
-123.779
-118.212
-114.824
-113.284
-113.323
-114.741
-117.263
-120.583
-124.418
-128.504
-132.643
-136.718
-140.601
-144.133
-147.136
-149.429
-150.901
-151.52
-151.298
-150.28
-148.51
-146.042
-142.96
-139.367
-135.371
-131.078
-126.568
-121.896
-117.124
-112.331
-107.612
-103.073
-98.784
-94.777
-91.068
-87.659
-84.548
-81.731
-79.177
-76.844
-74.69
-72.681
-70.792
-69.008
-67.301
-65.639
-63.982
-62.283
-60.507
-58.63
-56.629
-54.486
-52.186
-49.713
-47.066
-44.247
-41.258
-38.096
-34.759
-31.239
-27.537
-23.655
-19.598
-15.37
-10.978
-6.428
-1.729
3.11
8.077
13.163
18.356
23.646
29.02
34.461
39.955
45.483
51.026
56.564
62.079
67.548
72.95
78.264
83.468
88.543
93.467
98.219
102.781
107.131
111.253
115.128
118.74
122.074
125.115
127.852
130.271
132.363
134.119
135.532
136.595
137.304
137.656
137.651
137.287
136.568
135.496
134.077
132.318
130.227
127.813
125.088
122.063
118.754
115.174
111.341
107.271
102.984
98.497
93.831
89.006
84.043
78.962
73.785
68.532
63.223
57.88
52.523
47.171
41.844
36.56
31.339
26.197
21.151
16.218
11.413
6.748
2.238
-2.107
-6.276
-10.259
-14.048
-17.637
-21.02
-24.192
-27.15
-29.893
-32.419
-34.73
-36.828
-38.716
-40.397
-41.877
-43.161
-44.255
-45.166
-45.901
-46.468
-46.874
-47.128
-47.238
-47.213
-47.063
-46.796
-46.421
-45.948
-45.387
-44.746
-44.035
-43.262
-42.436
-41.565
-40.658
-39.722
-38.766
-37.795
-36.818
-35.841
-34.869
-33.908
-32.962
-32.036
-31.134
-30.258
-29.413
-28.6
-27.823
-27.085
-26.387
-25.732
-25.123
-24.56
-24.047
-23.584
-23.172
-22.811
-22.504
-22.249
-22.046
-21.896
-21.798
-21.751
-21.754
-21.805
-21.902
-22.042
-22.223
-22.44
-22.692
-22.972
-23.278
-23.604
-23.947
-24.302
-24.664
-25.029
-25.389
-25.741
-26.078
-26.393
-26.68
-26.932
-27.141
-27.301
-27.404
-27.443
-27.413
-27.306
-27.116
-26.838
-26.465
-25.993
-25.419
-24.737
-23.947
-23.045
-22.033
-20.911
-19.681
-18.346
-16.911
-15.383
-13.771
-12.081
-10.325
-8.512
-6.656
-4.767
-2.859
-0.943
0.967
2.856
4.711
6.516
8.253
9.905
11.454
12.882
14.174
15.311
16.283
17.079
17.69
18.106
18.317
18.306
18.061
17.573
16.835
15.846
14.612
13.142
11.465
9.617
7.634
5.551
3.399
1.198
-1.025
-3.24
-5.411
-7.492
-9.439
-11.213
-12.774
-14.093
-15.158
-15.978
-16.608
-17.133
-17.635
-18.179
-18.805
-19.55
-20.474
-21.654
-23.176
-25.126
-27.561
-30.575
-34.327
-38.864
-44.073
-49.672
-55.135
-59.938
-63.732
-66.121
-66.591
-64.912
-61.218
-56.055
-50.534
-45.67
-41.93
-39.717
-39.557
-41.48
-44.787
-47.966
-48.434
-43.554
-31.504
-10.482
21.529
65.819
122.606
190.634
266.805
347.346
428.719
506.59
575.772
631.314
668.854
685.706
681.106
655.064
608.207
542.756
462.552
372.463
277.905
183.326
92.44
9.131
-63.162
-122.004
-166.489
-197.407
-216.471
-225.154
-225.232
-219.198
-209.78
-199.842
-191.251
-184.497
-179.575
-176.408
-174.644
-173.674
-172.527
-169.816
-164.826
-157.632
-148.553
-138.146
-126.945
-115.314
-103.778
-93.013
-83.382
-74.991
-67.796
-61.554
-56.105
-51.405
-47.381
-43.963
-41.071
-38.59
-36.424
-34.51
-32.77
-31.158
-29.649
-28.204
-26.818
-25.506
-24.296
-23.226
-22.308
-21.501
-20.721
-19.876
-18.914
-17.822
-16.609
-15.293
-13.884
-12.385
-10.809
-9.179
-7.506
-5.786
-4
-2.134
-0.195
1.777
3.708
5.537
7.224
8.751
10.114
11.315
12.357
13.256
14.044
14.756
15.423
16.064
16.69
17.317
17.969
18.683
19.505
20.473
21.613
22.948
24.496
26.27
28.28
30.528
33.003
35.696
38.6
41.709
45.021
48.53
52.225
56.094
60.122
64.295
68.598
73.016
77.527
82.114
86.755
91.433
96.128
100.82
105.486
110.105
114.651
119.103
123.437
127.631
131.661
135.507
139.147
142.563
145.737
148.653
151.295
153.65
155.705
157.45
158.875
159.973
160.735
161.158
161.238
160.971
160.358
159.398
158.094
156.451
154.473
152.169
149.548
146.621
143.4
139.899
136.132
132.117
127.871
123.41
118.755
113.925
108.94
103.82
98.586
93.258
87.857
82.403
76.916
71.415
65.92
60.448
55.017
49.645
44.349
39.143
34.045
29.068
24.225
19.529
14.991
10.623
6.432
2.428
-1.384
-4.998
-8.409
-11.614
-14.611
-17.399
-19.978
-22.35
-24.516
-26.481
-28.247
-29.821
-31.207
-32.413
-33.445
-34.309
-35.015
-35.569
-35.98
-36.255
-36.405
-36.436
-36.358
-36.18
-35.91
-35.558
-35.131
-34.639
-34.089
-33.49
-32.851
-32.178
-31.48
-30.763
-30.035
-29.304
-28.575
-27.854
-27.149
-26.465
-25.806
-25.177
-24.583
-24.027
-23.512
-23.042
-22.619
-22.246
-21.925
-21.657
-21.445
-21.29
-21.192
-21.154
-21.175
-21.255
-21.396
-21.597
-21.858
-22.178
-22.558
-22.996
-23.491
-24.042
-24.647
-25.303
-26.007
-26.756
-27.545
-28.37
-29.225
-30.106
-31.006
-31.92
-32.842
-33.766
-34.687
-35.597
-36.49
-37.36
-38.201
-39.005
-39.766
-40.479
-41.135
-41.73
-42.257
-42.71
-43.084
-43.372
-43.57
-43.671
-43.671
-43.566
-43.35
-43.02
-42.576
-42.015
-41.338
-40.546
-39.643
-38.633
-37.523
-36.321
-35.034
-33.672
-32.246
-30.767
-29.247
-27.699
-26.133
-24.563
-23.001
-21.461
-19.959
-18.509
-17.125
-15.823
-14.619
-13.53
-12.572
-11.76
-11.105
-10.618
-10.311
-10.196
-10.294
-10.617
-11.173
-11.968
-13
-14.267
-15.761
-17.461
-19.331
-21.328
-23.408
-25.536
-27.687
-29.833
-31.943
-33.982
-35.902
-37.663
-39.242
-40.613
-41.769
-42.71
-43.444
-44.01
-44.506
-45.043
-45.729
-46.661
-47.883
-49.42
-51.326
-53.674
-56.547
-60.039
-64.202
-69.045
-74.61
-80.951
-87.974
-95.433
-102.872
-109.607
-115.063
-118.826
-120.421
-119.482
-116.031
-110.338
-103.095
-95.454
-88.194
-81.847
-77.165
-74.338
-72.704
-71.109
-67.532
-59.488
-45.264
-23.159
8.968
52.18
106.24
169.703
239.387
311.657
383.554
451.252
509.886
555.155
583.59
593.299
584.385
557.154
511.559
449.076
372.996
287.534
197.378
106.364
17.391
-66.124
-140.04
-201.079
-247.807
-280.476
-300.458
-309.144
-307.924
-298.982
-285.625
-271.308
-258.245
-247.356
-238.713
-232.128
-227.437
-224.2
-221.235
-217.031
-210.766
-202.314
-192.036
-180.576
-168.424
-155.977
-143.845
-132.766
-123.222
-115.45
-109.46
-105.051
-102.041
-100.303
-99.668
-99.944
-100.947
-102.495
-104.414
-106.574
-108.866
-111.184
-113.436
-115.506
-117.268
-118.619
-119.484
-119.83
-119.659
-118.976
-117.791
-116.127
-114.028
-111.559
-108.803
-105.835
-102.701
-99.448
-96.124
-92.794
-89.545
-86.442
-83.529
-80.831
-78.356
-76.113
-74.106
-72.326
-70.747
-69.337
-68.055
-66.872
-65.767
-64.713
-63.679
-62.627
-61.51
-60.288
-58.938
-57.435
-55.763
-53.904
-51.845
-49.577
-47.106
-44.432
-41.558
-38.483
-35.205
-31.727
-28.055
-24.194
-20.157
-15.95
-11.582
-7.064
-2.407
2.377
7.275
12.274
17.363
22.527
27.75
33.015
38.302
43.594
48.871
54.114
59.303
64.419
69.444
74.358
79.146
83.79
88.275
92.584
96.703
100.619
104.319
107.79
111.022
114.005
116.73
119.189
121.374
123.279
124.9
126.231
127.27
128.015
128.465
128.621
128.485
128.059
127.349
126.361
125.099
123.573
121.79
119.76
117.493
115
112.293
109.383
106.283
103.005
99.563
95.97
92.238
88.383
84.417
80.354
76.209
71.996
67.729
63.422
59.089
54.745
50.404
46.08
41.788
37.539
33.348
29.226
25.185
21.235
17.387
13.65
10.033
6.542
3.185
-0.033
-3.106
-6.031
-8.803
-11.42
-13.88
-16.182
-18.325
-20.31
-22.136
-23.805
-25.32
-26.682
-27.894
-28.959
-29.883
-30.669
-31.323
-31.851
-32.259
-32.555
-32.745
-32.838
-32.84
-32.761
-32.608
-32.388
-32.109
-31.779
-31.404
-30.992
-30.548
-30.081
-29.596
-29.099
-28.597
-28.095
-27.598
-27.111
-26.639
-26.185
-25.754
-25.349
-24.973
-24.63
-24.321
-24.049
-23.818
-23.628
-23.482
-23.381
-23.324
-23.312
-23.345
-23.422
-23.541
-23.702
-23.904
-24.146
-24.426
-24.744
-25.099
-25.488
-25.911
-26.364
-26.846
-27.352
-27.879
-28.422
-28.976
-29.537
-30.101
-30.663
-31.222
-31.772
-32.313
-32.842
-33.357
-33.852
-34.321
-34.757
-35.154
-35.502
-35.794
-36.022
-36.178
-36.258
-36.256
-36.173
-36.004
-35.745
-35.385
-34.913
-34.322
-33.61
-32.774
-31.818
-30.754
-29.594
-28.366
-27.103
-25.823
-24.542
-23.264
-21.981
-20.688
-19.38
-18.049
-16.701
-15.337
-13.952
-12.55
-11.133
-9.685
-8.182
-6.578
-4.814
-2.864
-0.721
1.606
4.067
6.617
9.198
11.729
14.148
16.4
18.42
20.171
21.626
22.727
23.419
23.625
23.247
22.239
20.597
18.334
15.518
12.227
8.545
4.607
0.534
-3.573
-7.604
-11.49
-15.187
-18.626
-21.746
-24.493
-26.783
-28.597
-29.98
-30.99
-31.747
-32.38
-33.009
-33.787
-34.843
-36.293
-38.273
-40.871
-44.154
-48.188
-52.961
-58.487
-64.84
-71.89
-79.344
-86.73
-93.283
-98.336
-101.402
-101.903
-99.398
-93.814
-85.295
-74.642
-63.243
-52.203
-42.469
-34.812
-29.2
-25.007
-21.106
-15.222
-4.53
13.629
42.018
82.656
136.054
201.494
276.912
358.754
442.758
523.853
596.07
653.865
692.732
709.734
703.574
674.008
621.812
549.485
461.319
362.621
259.097
155.554
56.243
-34.352
-112.307
-174.866
-221.057
-251.787
-268.977
-274.425
-270.351
-259.806
-246.054
-232.321
-220.653
-211.571
-204.966
-200.596
-197.941
-196.179
-194.15
-190.42
-184.264
-175.771
-165.324
-153.531
-140.969
-128.095
-115.523
-103.971
-93.866
-85.375
-78.534
-73.2
-69.235
-66.548
-64.973
-64.307
-64.375
-65.013
-66.072
-67.442
-69.019
-70.711
-72.453
-74.182
-75.828
-77.309
-78.518
-79.355
-79.76
-79.702
-79.17
-78.176
-76.743
-74.909
-72.739
-70.301
-67.649
-64.821
-61.843
-58.735
-55.536
-52.297
-49.091
-45.994
-43.061
-40.329
-37.822
-35.548
-33.51
-31.699
-30.085
-28.63
-27.304
-26.08
-24.94
-23.868
-22.839
-21.821
-20.773
-19.653
-18.423
-17.058
-15.531
-13.824
-11.924
-9.821
-7.515
-5.012
-2.317
0.569
3.645
6.91
10.363
13.994
17.798
21.763
25.879
30.135
34.516
39.01
43.602
48.276
53.018
57.814
62.648
67.501
72.353
77.185
81.975
86.703
91.348
95.889
100.306
104.578
108.689
112.62
116.357
119.882
123.182
126.243
129.053
131.6
133.875
135.869
137.574
138.983
140.09
140.892
141.386
141.569
141.443
141.007
140.265
139.221
137.879
136.248
134.335
132.15
129.703
127.008
124.076
120.922
117.56
114.007
110.276
106.384
102.347
98.18
93.899
89.519
85.057
80.526
75.944
71.324
66.681
62.03
57.384
52.758
48.165
43.618
39.128
34.709
30.372
26.127
21.985
17.955
14.046
10.265
6.62
3.114
-0.246
-3.458
-6.52
-9.429
-12.186
-14.789
-17.24
-19.539
-21.688
-23.688
-25.541
-27.25
-28.818
-30.247
-31.541
-32.704
-33.738
-34.649
-35.439
-36.114
-36.677
-37.133
-37.488
-37.746
-37.915
-37.999
-38.005
-37.941
-37.811
-37.623
-37.382
-37.095
-36.766
-36.401
-36.005
-35.581
-35.135
-34.67
-34.19
-33.7
-33.202
-32.701
-32.199
-31.701
-31.21
-30.729
-30.261
-29.81
-29.379
-28.972
-28.592
-28.242
-27.927
-27.649
-27.412
-27.217
-27.066
-26.961
-26.903
-26.891
-26.927
-27.01
-27.139
-27.315
-27.536
-27.803
-28.113
-28.466
-28.86
-29.295
-29.767
-30.275
-30.817
-31.39
-31.991
-32.617
-33.266
-33.932
-34.612
-35.302
-35.997
-36.69
-37.376
-38.049
-38.702
-39.327
-39.919
-40.47
-40.973
-41.422
-41.81
-42.132
-42.381
-42.553
-42.642
-42.644
-42.555
-42.371
-42.088
-41.706
-41.221
-40.632
-39.941
-39.148
-38.254
-37.261
-36.173
-34.994
-33.731
-32.39
-30.98
-29.509
-27.988
-26.43
-24.846
-23.25
-21.655
-20.075
-18.523
-17.014
-15.564
-14.19
-12.906
-11.732
-10.683
-9.775
-9.022
-8.437
-8.027
-7.801
-7.763
-7.921
-8.287
-8.87
-9.675
-10.708
-11.971
-13.459
-15.164
-17.064
-19.124
-21.312
-23.596
-25.945
-28.338
-30.745
-33.136
-35.473
-37.709
-39.794
-41.688
-43.343
-44.721
-45.799
-46.571
-47.074
-47.38
-47.558
-47.668
-47.746
-47.836
-48.007
-48.356
-48.994
-50.032
-51.557
-53.689
-56.628
-60.463
-65.112
-70.31
-75.528
-80.229
-84.051
-86.583
-87.284
-85.874
-82.483
-77.717
-72.789
-68.85
-66.449
-65.99
-68.006
-72.546
-78.788
-84.978
-88.185
-85.265
-74.091
-52.869
-19.416
27.739
88.782
162.572
245.815
334.113
423.861
511.125
590.595
657.141
706.189
733.917
739.028
721.593
681.205
618.75
537.287
440.886
334.858
225.103
116.07
12.011
-81.967
-161.799
-224.892
-270.177
-298.71
-312.613
-313.788
-304.871
-289.507
-271.243
-253.326
-237.821
-225.197
-215.327
-207.979
-202.483
-197.761
-192.528
-185.43
-175.884
-164.179
-150.887
-136.692
-122.287
-108.309
-95.495
-84.638
-76.157
-70.098
-66.328
-64.556
-64.523
-66.047
-68.878
-72.689
-77.187
-82.093
-87.15
-92.19
-97.027
-101.444
-105.265
-108.329
-110.532
-111.852
-112.294
-111.876
-110.638
-108.626
-105.904
-102.581
-98.766
-94.566
-90.103
-85.479
-80.8
-76.195
-71.764
-67.587
-63.723
-60.19
-56.992
-54.137
-51.615
-49.406
-47.485
-45.812
-44.351
-43.073
-41.939
-40.91
-39.94
-38.974
-37.966
-36.884
-35.7
-34.396
-32.957
-31.368
-29.62
-27.712
-25.64
-23.403
-20.995
-18.408
-15.637
-12.682
-9.545
-6.228
-2.737
0.928
4.763
8.763
12.923
17.235
21.695
26.296
31.03
35.886
40.85
45.908
51.045
56.244
61.489
66.762
72.043
77.316
82.563
87.765
92.906
97.966
102.928
107.774
112.485
117.045
121.436
125.641
129.644
133.429
136.982
140.29
143.339
146.117
148.615
150.821
152.729
154.33
155.62
156.593
157.247
157.581
157.593
157.286
156.663
155.726
154.482
152.936
151.095
148.969
146.566
143.897
140.972
137.804
134.406
130.791
126.974
122.971
118.798
114.472
110.011
105.431
100.751
95.99
91.166
86.298
81.402
76.499
71.604
66.735
61.908
57.139
52.443
47.833
43.323
38.925
34.65
30.509
26.51
22.662
18.972
15.447
12.091
8.911
5.908
3.086
0.446
-2.011
-4.285
-6.379
-8.295
-10.035
-11.606
-13.011
-14.257
-15.352
-16.302
-17.115
-17.801
-18.367
-18.822
-19.175
-19.436
-19.611
-19.711
-19.743
-19.715
-19.636
-19.511
-19.348
-19.154
-18.935
-18.697
-18.445
-18.186
-17.923
-17.662
-17.408
-17.165
-16.938
-16.731
-16.548
-16.391
-16.264
-16.169
-16.107
-16.078
-16.084
-16.123
-16.196
-16.301
-16.437
-16.603
-16.799
-17.023
-17.274
-17.553
-17.856
-18.185
-18.539
-18.918
-19.32
-19.746
-20.196
-20.67
-21.168
-21.69
-22.236
-22.802
-23.389
-23.994
-24.613
-25.242
-25.877
-26.511
-27.14
-27.761
-28.368
-28.959
-29.531
-30.08
-30.608
-31.112
-31.592
-32.044
-32.461
-32.838
-33.17
-33.45
-33.67
-33.822
-33.898
-33.891
-33.8
-33.622
-33.351
-32.978
-32.489
-31.877
-31.141
-30.283
-29.307
-28.218
-27.03
-25.764
-24.458
-23.144
-21.846
-20.573
-19.324
-18.1
-16.905
-15.742
-14.615
-13.514
-12.421
-11.326
-10.226
-9.111
-7.959
-6.724
-5.336
-3.741
-1.915
0.139
2.394
4.823
7.391
10.048
12.728
15.343
17.81
20.067
22.063
23.74
25.019
25.801
25.964
25.417
24.114
22.042
19.221
15.691
11.513
6.778
1.607
-3.861
-9.503
-15.215
-20.898
-26.44
-31.713
-36.583
-40.915
-44.612
-47.63
-49.947
-51.587
-52.609
-53.081
-53.112
-52.85
-52.449
-52.06
-51.826
-51.863
-52.351
-53.543
-55.571
-58.433
-61.944
-65.699
-69.341
-72.632
-75.223
-76.618
-76.501
-74.897
-72.35
-69.957
-68.594
-68.582
-70.038
-73.16
-78.017
-84.06
-89.742
-92.462
-89.661
-79.671
-61.379
-33.493
5.432
56.051
117.685
187.895
263.37
341.281
418.846
492.191
556.47
607.031
640.005
653.359
646.519
618.791
570.252
503.167
421.58
330.509
235.421
140.811
50.4
-31.431
-100.913
-156.328
-197.568
-225.903
-243.517
-252.271
-254.018
-251.634
-248.006
-244.875
-243.034
-242.336
-242.091
-241.867
-241.241
-239.247
-234.762
-227.215
-216.608
-203.446
-188.54
-172.587
-156.174
-140.009
-124.894
-111.408
-99.872
-90.424
-82.983
-77.431
-73.694
-71.612
-70.97
-71.578
-73.22
-75.666
-78.728
-82.198
-85.843
-89.487
-92.943
-96.017
-98.571
-100.483
-101.669
-102.118
-101.835
-100.833
-99.156
-96.856
-94.005
-90.709
-87.066
-83.164
-79.102
-74.96
-70.832
-66.825
-63.021
-59.479
-56.243
-53.325
-50.728
-48.457
-46.5
-44.831
-43.421
-42.231
-41.223
-40.371
-39.641
-38.995
-38.391
-37.778
-37.115
-36.369
-35.516
-34.533
-33.406
-32.116
-30.653
-29.016
-27.201
-25.204
-23.021
-20.646
-18.074
-15.305
-12.343
-9.19
-5.852
-2.333
1.364
5.232
9.262
13.447
17.78
22.252
26.854
31.574
36.398
41.31
46.295
51.336
56.415
61.515
66.615
71.696
76.741
81.728
86.64
91.456
96.155
100.72
105.131
109.368
113.415
117.253
120.865
124.237
127.354
130.202
132.769
135.043
137.015
138.675
140.017
141.033
141.721
142.076
142.097
141.784
141.138
140.162
138.859
137.236
135.299
133.056
130.517
127.692
124.593
121.234
117.629
113.792
109.742
105.494
101.067
96.481
91.754
86.905
81.956
76.927
71.837
66.707
61.558
56.408
51.278
46.186
41.151
36.19
31.319
26.554
21.91
17.399
13.034
8.827
4.788
0.925
-2.754
-6.241
-9.531
-12.62
-15.506
-18.186
-20.659
-22.928
-24.993
-26.857
-28.526
-30.003
-31.294
-32.407
-33.349
-34.128
-34.752
-35.23
-35.573
-35.79
-35.892
-35.888
-35.788
-35.603
-35.342
-35.014
-34.628
-34.192
-33.715
-33.204
-32.666
-32.107
-31.534
-30.952
-30.367
-29.784
-29.206
-28.638
-28.082
-27.542
-27.02
-26.518
-26.037
-25.58
-25.146
-24.738
-24.355
-23.998
-23.666
-23.361
-23.081
-22.825
-22.593
-22.384
-22.198
-22.033
-21.89
-21.767
-21.666
-21.586
-21.529
-21.494
-21.484
-21.498
-21.538
-21.606
-21.703
-21.83
-21.989
-22.181
-22.407
-22.668
-22.966
-23.3
-23.672
-24.079
-24.523
-25.002
-25.514
-26.058
-26.631
-27.233
-27.86
-28.51
-29.179
-29.865
-30.564
-31.271
-31.982
-32.694
-33.401
-34.097
-34.779
-35.438
-36.071
-36.67
-37.229
-37.742
-38.202
-38.603
-38.937
-39.2
-39.386
-39.489
-39.505
-39.431
-39.263
-38.999
-38.639
-38.181
-37.627
-36.979
-36.238
-35.408
-34.495
-33.502
-32.437
-31.309
-30.127
-28.902
-27.644
-26.366
-25.08
-23.799
-22.536
-21.301
-20.107
-18.965
-17.888
-16.888
-15.98
-15.178
-14.495
-13.945
-13.538
-13.286
-13.197
-13.274
-13.518
-13.932
-14.519
-15.289
-16.25
-17.406
-18.758
-20.304
-22.037
-23.939
-25.984
-28.131
-30.338
-32.564
-34.772
-36.932
-39.011
-40.975
-42.783
-44.384
-45.731
-46.787
-47.517
-47.892
-47.903
-47.574
-46.962
-46.161
-45.258
-44.321
-43.424
-42.652
-42.108
-41.903
-42.154
-42.947
-44.389
-46.651
-49.799
-53.783
-58.385
-63.116
-67.43
-70.874
-72.924
-72.993
-70.833
-66.5
-60.488
-54.045
-48.435
-44.594
-43.486
-45.826
-51.53
-59.748
-68.638
-74.991
-75.396
-66.733
-45.839
-10.266
41.138
107.968
188.007
277.149
370.245
461.475
544.317
612.518
660.771
685.568
685.256
659.676
610.306
540.269
454.278
358.113
257.779
158.239
63.77
-21.488
-94.353
-152.819
-196.456
-226.574
-245.276
-254.374
-255.91
-252.504
-246.743
-241.124
-237.153
-234.962
-234.165
-234.36
-234.953
-235.183
-234.145
-230.713
-224.359
-215.311
-204.033
-191.171
-177.395
-163.234
-149.287
-136.246
-124.519
-114.283
-105.631
-98.519
-92.891
-88.715
-85.864
-84.163
-83.471
-83.637
-84.515
-85.971
-87.836
-89.952
-92.217
-94.544
-96.853
-99.061
-101.048
-102.67
-103.842
-104.515
-104.663
-104.295
-103.417
-102.048
-100.241
-98.074
-95.625
-92.961
-90.123
-87.131
-84.024
-80.851
-77.683
-74.611
-71.695
-68.967
-66.458
-64.177
-62.133
-60.328
-58.74
-57.326
-56.05
-54.88
-53.792
-52.773
-51.799
-50.835
-49.842
-48.773
-47.594
-46.279
-44.803
-43.147
-41.293
-39.228
-36.95
-34.465
-31.777
-28.886
-25.792
-22.492
-18.99
-15.291
-11.402
-7.331
-3.087
1.322
5.886
10.592
15.429
20.384
25.447
30.605
35.846
41.152
46.507
51.893
57.292
62.684
68.049
73.367
78.618
83.782
88.839
93.772
98.56
103.187
107.634
111.884
115.921
119.73
123.295
126.602
129.641
132.397
134.862
137.025
138.878
140.414
141.627
142.512
143.067
143.29
143.18
142.739
141.97
140.876
139.464
137.741
135.716
133.397
130.797
127.928
124.803
121.438
117.846
114.045
110.051
105.882
101.557
97.093
92.51
87.827
83.064
78.241
73.377
68.492
63.606
58.736
53.903
49.124
44.416
39.797
35.283
30.888
26.628
22.516
18.562
14.78
11.177
7.762
4.542
1.523
-1.291
-3.897
-6.294
-8.48
-10.457
-12.225
-13.789
-15.152
-16.319
-17.296
-18.09
-18.708
-19.159
-19.452
-19.596
-19.6
-19.474
-19.23
-18.876
-18.424
-17.884
-17.268
-16.585
-15.846
-15.062
-14.242
-13.396
-12.532
-11.658
-10.783
-9.914
-9.056
-8.217
-7.401
-6.612
-5.856
-5.136
-4.454
-3.812
-3.213
-2.658
-2.146
-1.679
-1.256
-0.877
-0.541
-0.248
0.003
0.212
0.381
0.51
0.6
0.652
0.666
0.644
0.587
0.494
0.366
0.205
0.008
-0.223
-0.488
-0.79
-1.127
-1.501
-1.912
-2.361
-2.848
-3.374
-3.94
-4.545
-5.192
-5.88
-6.61
-7.381
-8.194
-9.048
-9.941
-10.872
-11.838
-12.837
-13.864
-14.915
-15.986
-17.07
-18.163
-19.258
-20.347
-21.424
-22.481
-23.51
-24.503
-25.449
-26.34
-27.168
-27.921
-28.593
-29.173
-29.654
-30.027
-30.285
-30.42
-30.426
-30.297
-30.027
-29.611
-29.044
-28.325
-27.452
-26.423
-25.241
-23.909
-22.429
-20.81
-19.06
-17.187
-15.203
-13.121
-10.953
-8.716
-6.427
-4.101
-1.756
0.591
2.919
5.21
7.442
9.595
11.649
13.584
15.379
17.012
18.463
19.714
20.752
21.563
22.136
22.458
22.51
22.281
21.765
20.957
19.855
18.462
16.786
14.844
12.672
10.313
7.81
5.204
2.525
-0.191
-2.907
-5.579
-8.156
-10.592
-12.849
-14.893
-16.692
-18.225
-19.482
-20.485
-21.302
-22.032
-22.764
-23.588
-24.563
-25.723
-27.131
-28.873
-31.031
-33.707
-36.983
-40.895
-45.525
-50.976
-57.173
-63.891
-70.706
-76.927
-81.969
-85.395
-86.633
-85.253
-81.281
-74.999
-67.183
-59.114
-51.636
-45.389
-41.25
-39.418
-39.171
-39.194
-37.139
-30.155
-16.135
7.114
42.106
90.063
150.845
222.845
302.556
385.953
469.224
547.46
614.918
666.64
698.607
708.772
697.097
663.812
609.807
537.837
452.218
358.08
260.787
164.408
72.276
-11.764
-84.37
-143.319
-187.933
-219.235
-238.965
-248.496
-249.526
-244.536
-236.191
-227.223
-219.348
-212.92
-207.882
-204.127
-201.314
-198.884
-195.964
-191.361
-184.519
-175.617
-165.041
-153.368
-141.113
-128.642
-116.483
-105.285
-95.42
-87.006
-80.044
-74.385
-69.928
-66.639
-64.395
-63.014
-62.324
-62.15
-62.346
-62.81
-63.454
-64.21
-65.029
-65.876
-66.726
-67.567
-68.364
-69.065
-69.604
-69.9
-69.905
-69.603
-69.002
-68.137
-67.05
-65.786
-64.382
-62.864
-61.25
-59.549
-57.768
-55.907
-53.986
-52.038
-50.118
-48.3
-46.633
-45.146
-43.853
-42.749
-41.824
-41.058
-40.427
-39.896
-39.437
-39.03
-38.654
-38.297
-37.935
-37.539
-37.069
-36.477
-35.724
-34.78
-33.622
-32.231
-30.594
-28.701
-26.553
-24.156
-21.514
-18.632
-15.509
-12.146
-8.547
-4.717
-0.668
3.59
8.043
12.678
17.479
22.43
27.513
32.71
38.004
43.378
48.813
54.29
59.785
65.277
70.742
76.157
81.498
86.742
91.865
96.844
101.658
106.286
110.708
114.905
118.859
122.554
125.973
129.101
131.926
134.435
136.615
138.458
139.954
141.098
141.883
142.307
142.369
142.07
141.411
140.397
139.034
137.33
135.293
132.933
130.263
127.296
124.045
120.527
116.758
112.754
108.535
104.119
99.524
94.771
89.879
84.867
79.756
74.566
69.316
64.027
58.72
53.413
48.126
42.878
37.687
32.57
27.543
22.621
17.817
13.143
8.611
4.23
0.008
-4.047
-7.93
-11.636
-15.161
-18.504
-21.662
-24.635
-27.423
-30.029
-32.454
-34.701
-36.773
-38.674
-40.409
-41.984
-43.403
-44.673
-45.801
-46.793
-47.659
-48.404
-49.038
-49.569
-50.005
-50.352
-50.619
-50.812
-50.938
-51.002
-51.01
-50.965
-50.873
-50.737
-50.56
-50.345
-50.095
-49.813
-49.5
-49.159
-48.792
-48.4
-47.985
-47.549
-47.094
-46.621
-46.133
-45.632
-45.118
-44.593
-44.059
-43.517
-42.968
-42.411
-41.849
-41.282
-40.71
-40.136
-39.562
-38.989
-38.422
-37.863
-37.315
-36.784
-36.272
-35.783
-35.322
-34.893
-34.499
-34.144
-33.831
-33.564
-33.347
-33.181
-33.071
-33.016
-33.02
-33.082
-33.205
-33.387
-33.631
-33.935
-34.3
-34.726
-35.214
-35.763
-36.372
-37.041
-37.769
-38.551
-39.385
-40.264
-41.182
-42.133
-43.111
-44.107
-45.114
-46.127
-47.139
-48.144
-49.138
-50.113
-51.063
-51.98
-52.856
-53.682
-54.45
-55.15
-55.773
-56.31
-56.753
-57.096
-57.331
-57.453
-57.449
-57.308
-57.02
-56.582
-55.993
-55.257
-54.382
-53.38
-52.27
-51.082
-49.844
-48.585
-47.326
-46.085
-44.875
-43.706
-42.591
-41.545
-40.567
-39.643
-38.751
-37.861
-36.941
-35.957
-34.863
-33.595
-32.102
-30.341
-28.284
-25.923
-23.26
-20.308
-17.09
-13.639
-10.015
-6.309
-2.628
0.912
4.194
7.116
9.566
11.421
12.587
13.004
12.628
11.447
9.466
6.695
3.174
-1.037
-5.841
-11.102
-16.662
-22.347
-27.993
-33.455
-38.597
-43.297
-47.489
-51.156
-54.301
-56.941
-59.079
-60.73
-61.952
-62.841
-63.531
-64.174
-64.915
-65.947
-67.531
-69.812
-72.765
-76.185
-79.592
-82.485
-84.527
-85.335
-84.408
-81.496
-76.749
-70.775
-64.787
-59.965
-56.889
-55.953
-57.654
-62.007
-68.189
-74.483
-78.002
-75.597
-65.082
-44.622
-12.075
33.973
93.671
165.882
247.383
333.824
421.523
506.434
583.258
646.964
693.179
718.37
721.445
702.69
662.078
600.953
522.723
431.621
332.817
231.767
132.382
38.286
-46.225
-117.988
-175.216
-217.429
-245.931
-262.718
-269.332
-267.876
-261.274
-252.273
-243.447
-236.342
-231.101
-227.503
-225.321
-223.997
-222.728
-220.536
-216.272
-209.454
-200.348
-189.396
-177.18
-164.279
-151.14
-138.318
-126.448
-115.871
-106.679
-98.867
-92.316
-86.946
-82.743
-79.613
-77.405
-75.986
-75.212
-74.966
-75.159
-75.684
-76.45
-77.388
-78.439
-79.567
-80.74
-81.9
-82.964
-83.853
-84.469
-84.751
-84.673
-84.224
-83.422
-82.296
-80.883
-79.228
-77.371
-75.336
-73.143
-70.806
-68.335
-65.761
-63.136
-60.515
-57.972
-55.561
-53.309
-51.235
-49.34
-47.611
-46.032
-44.573
-43.198
-41.879
-40.592
-39.315
-38.032
-36.718
-35.338
-33.856
-32.225
-30.408
-28.38
-26.117
-23.604
-20.832
-17.797
-14.5
-10.953
-7.163
-3.137
1.118
5.597
10.293
15.192
20.281
25.544
30.962
36.518
42.193
47.967
53.821
59.733
65.685
71.657
77.63
83.582
89.491
95.332
101.084
106.723
112.227
117.571
122.733
127.692
132.427
136.919
141.151
145.106
148.767
152.121
155.155
157.859
160.222
162.236
163.894
165.192
166.125
166.691
166.891
166.725
166.198
165.314
164.079
162.501
160.589
158.353
155.805
152.957
149.823
146.418
142.757
138.858
134.737
130.415
125.909
121.239
116.425
111.488
106.446
101.32
96.129
90.893
85.631
80.362
75.105
69.876
64.694
59.575
54.535
49.587
44.747
40.025
35.435
30.985
26.686
22.545
18.57
14.767
11.142
7.698
4.439
1.366
-1.518
-4.215
-6.725
-9.05
-11.194
-13.159
-14.95
-16.572
-18.03
-19.329
-20.477
-21.48
-22.344
-23.077
-23.688
-24.182
-24.57
-24.857
-25.053
-25.165
-25.199
-25.164
-25.066
-24.912
-24.708
-24.461
-24.176
-23.86
-23.517
-23.153
-22.772
-22.379
-21.978
-21.573
-21.166
-20.761
-20.36
-19.966
-19.581
-19.207
-18.847
-18.503
-18.175
-17.868
-17.58
-17.314
-17.072
-16.853
-16.66
-16.492
-16.351
-16.239
-16.156
-16.103
-16.082
-16.093
-16.138
-16.217
-16.331
-16.482
-16.668
-16.892
-17.154
-17.455
-17.795
-18.176
-18.598
-19.062
-19.568
-20.116
-20.705
-21.335
-22.005
-22.713
-23.459
-24.239
-25.052
-25.897
-26.769
-27.668
-28.589
-29.528
-30.482
-31.447
-32.417
-33.387
-34.353
-35.308
-36.247
-37.164
-38.053
-38.909
-39.724
-40.492
-41.207
-41.86
-42.445
-42.955
-43.382
-43.72
-43.961
-44.101
-44.132
-44.051
-43.852
-43.532
-43.086
-42.513
-41.809
-40.972
-40.003
-38.901
-37.668
-36.304
-34.815
-33.204
-31.477
-29.64
-27.702
-25.673
-23.564
-21.385
-19.151
-16.873
-14.568
-12.25
-9.933
-7.631
-5.36
-3.136
-0.976
1.103
3.084
4.949
6.681
8.264
9.682
10.923
11.977
12.837
13.495
13.941
14.159
14.136
13.863
13.335
12.548
11.508
10.224
8.722
7.039
5.215
3.288
1.295
-0.739
-2.78
-4.793
-6.735
-8.55
-10.185
-11.599
-12.749
-13.609
-14.164
-14.423
-14.445
-14.324
-14.155
-14.023
-13.989
-14.109
-14.477
-15.194
-16.37
-18.133
-20.555
-23.744
-27.868
-32.936
-38.806
-45.189
-51.547
-57.37
-62.346
-66.018
-67.836
-67.685
-65.714
-62.461
-58.977
-55.909
-53.374
-51.715
-51.353
-51.98
-52.707
-51.799
-46.64
-35.356
-16.899
10.151
47.407
95.576
154.284
221.56
293.82
367.86
441.031
509.629
569.026
614.884
643.707
653.803
645.377
618.639
573.604
511.883
436.881
352.965
264.784
176.005
89.297
7.721
-65.07
-126.316
-174.97
-211.458
-237.065
-252.898
-259.933
-259.761
-254.962
-248.256
-241.28
-234.598
-228.173
-221.901
-215.799
-209.729
-202.904
-194.201
-183.146
-169.893
-154.987
-139.185
-123.047
-107.005
-91.706
-77.941
-66.253
-56.91
-49.929
-45.087
-42.203
-41.138
-41.7
-43.653
-46.72
-50.601
-55.03
-59.787
-64.679
-69.52
-74.109
-78.223
-81.673
-84.341
-86.166
-87.149
-87.302
-86.643
-85.206
-83.054
-80.288
-77.026
-73.383
-69.458
-65.339
-61.112
-56.881
-52.769
-48.874
-45.257
-41.952
-38.966
-36.305
-33.978
-31.973
-30.264
-28.809
-27.567
-26.502
-25.586
-24.791
-24.077
-23.401
-22.71
-21.964
-21.136
-20.202
-19.149
-17.959
-16.617
-15.117
-13.46
-11.648
-9.68
-7.552
-5.258
-2.796
-0.17
2.617
5.558
8.651
11.89
15.272
18.788
22.433
26.199
30.08
34.068
38.155
42.331
46.583
50.897
55.258
59.654
64.068
68.484
72.885
77.256
81.58
85.842
90.025
94.113
98.089
101.937
105.642
109.188
112.561
115.746
118.729
121.5
124.044
126.353
128.416
130.223
131.766
133.038
134.032
134.744
135.168
135.302
135.144
134.694
133.951
132.918
131.597
129.992
128.107
125.948
123.523
120.838
117.904
114.728
111.322
107.697
103.867
99.843
95.641
91.274
86.758
82.109
77.341
72.473
67.519
62.498
57.426
52.32
47.197
42.075
36.969
31.897
26.874
21.916
17.037
12.252
7.575
3.019
-1.406
-5.686
-9.812
-13.774
-17.563
-21.172
-24.594
-27.824
-30.856
-33.688
-36.317
-38.741
-40.962
-42.979
-44.795
-46.412
-47.834
-49.065
-50.11
-50.977
-51.672
-52.202
-52.577
-52.804
-52.893
-52.855
-52.697
-52.432
-52.069
-51.619
-51.091
-50.496
-49.845
-49.147
-48.413
-47.652
-46.873
-46.087
-45.3
-44.522
-43.76
-43.021
-42.312
-41.638
-41.006
-40.419
-39.882
-39.399
-38.973
-38.606
-38.301
-38.058
-37.878
-37.761
-37.708
-37.717
-37.788
-37.92
-38.109
-38.355
-38.656
-39.009
-39.412
-39.863
-40.357
-40.894
-41.469
-42.079
-42.723
-43.396
-44.097
-44.822
-45.569
-46.336
-47.119
-47.917
-48.728
-49.549
-50.378
-51.214
-52.055
-52.899
-53.743
-54.588
-55.43
-56.27
-57.104
-57.932
-58.751
-59.559
-60.354
-61.133
-61.893
-62.632
-63.345
-64.03
-64.682
-65.299
-65.875
-66.409
-66.894
-67.326
-67.701
-68.015
-68.262
-68.436
-68.534
-68.55
-68.48
-68.319
-68.062
-67.707
-67.247
-66.682
-66.006
-65.217
-64.312
-63.291
-62.152
-60.896
-59.524
-58.038
-56.441
-54.741
-52.943
-51.055
-49.087
-47.047
-44.947
-42.797
-40.61
-38.398
-36.174
-33.95
-31.741
-29.562
-27.431
-25.362
-23.371
-21.476
-19.691
-18.034
-16.524
-15.177
-14.004
-13.018
-12.23
-11.652
-11.304
-11.199
-11.339
-11.728
-12.365
-13.243
-14.356
-15.686
-17.198
-18.856
-20.612
-22.427
-24.275
-26.12
-27.927
-29.656
-31.255
-32.686
-33.929
-34.961
-35.769
-36.351
-36.705
-36.864
-36.904
-36.915
-37.006
-37.279
-37.809
-38.666
-39.904
-41.587
-43.807
-46.629
-50.113
-54.309
-59.199
-64.796
-71.157
-78.14
-85.453
-92.622
-98.903
-103.665
-106.465
-106.773
-104.2
-98.719
-90.509
-80.376
-69.692
-59.518
-50.751
-44.152
-39.709
-36.804
-34.327
-30.043
-21.163
-5.093
20.875
58.842
109.485
172.242
245.222
325.036
407.521
487.716
559.728
617.892
657.462
675.271
669.8
640.649
588.588
516.149
427.669
328.661
225.115
122.06
23.911
-64.844
-140.514
-200.657
-244.584
-273.519
-289.656
-294.967
-291.742
-282.923
-271.423
-260.026
-250.389
-242.72
-236.711
-232.021
-228.112
-224.244
-219.454
-212.583
-203.14
-191.412
-177.951
-163.489
-148.68
-134.054
-120.273
-108.074
-97.924
-89.988
-84.224
-80.407
-78.327
-77.832
-78.724
-80.761
-83.677
-87.218
-91.154
-95.28
-99.425
-103.402
-107.008
-110.07
-112.44
-114.025
-114.798
-114.762
-113.931
-112.338
-110.03
-107.072
-103.57
-99.628
-95.347
-90.836
-86.185
-81.494
-76.883
-72.45
-68.265
-64.384
-60.823
-57.587
-54.686
-52.111
-49.842
-47.853
-46.104
-44.558
-43.188
-41.956
-40.824
-39.747
-38.672
-37.552
-36.359
-35.062
-33.644
-32.09
-30.382
-28.511
-26.478
-24.278
-21.911
-19.372
-16.655
-13.757
-10.68
-7.427
-4.003
-0.414
3.338
7.245
11.303
15.504
19.84
24.303
28.888
33.585
38.381
43.263
48.216
53.225
58.272
63.342
68.415
73.472
78.496
83.469
88.372
93.187
97.896
102.481
106.925
111.212
115.324
119.248
122.968
126.471
129.745
132.777
135.559
138.079
140.331
142.307
144
145.406
146.52
147.341
147.865
148.093
148.025
147.663
147.009
146.069
144.847
143.349
141.583
139.558
137.282
134.768
132.025
129.067
125.906
122.556
119.031
115.346
111.516
107.557
103.482
99.31
95.054
90.731
86.357
81.946
77.514
73.077
68.648
64.243
59.874
55.556
51.301
47.123
43.032
39.041
35.159
31.398
27.765
24.27
20.92
17.72
14.677
11.794
9.074
6.52
4.132
1.91
-0.146
-2.038
-3.768
-5.34
-6.758
-8.026
-9.15
-10.134
-10.985
-11.71
-12.315
-12.807
-13.194
-13.482
-13.679
-13.792
-13.83
-13.8
-13.709
-13.566
-13.377
-13.152
-12.897
-12.619
-12.325
-12.022
-11.716
-11.411
-11.113
-10.825
-10.552
-10.297
-10.061
-9.848
-9.658
-9.493
-9.354
-9.24
-9.153
-9.091
-9.054
-9.042
-9.054
-9.09
-9.147
-9.227
-9.329
-9.451
-9.593
-9.755
-9.937
-10.137
-10.354
-10.59
-10.842
-11.111
-11.395
-11.695
-12.01
-12.342
-12.689
-13.054
-13.436
-13.838
-14.26
-14.704
-15.172
-15.665
-16.185
-16.733
-17.31
-17.919
-18.559
-19.232
-19.938
-20.677
-21.448
-22.249
-23.079
-23.935
-24.814
-25.713
-26.626
-27.549
-28.477
-29.404
-30.324
-31.232
-32.121
-32.983
-33.813
-34.602
-35.343
-36.027
-36.646
-37.192
-37.655
-38.028
-38.301
-38.466
-38.516
-38.444
-38.241
-37.902
-37.421
-36.793
-36.014
-35.081
-33.992
-32.747
-31.348
-29.797
-28.1
-26.261
-24.289
-22.194
-19.988
-17.683
-15.293
-12.833
-10.32
-7.769
-5.198
-2.623
-0.062
2.468
4.949
7.361
9.682
11.894
13.974
15.903
17.66
19.227
20.59
21.738
22.66
23.349
23.793
23.976
23.883
23.506
22.838
21.879
20.632
19.11
17.341
15.368
13.233
10.978
8.638
6.238
3.81
1.388
-0.989
-3.265
-5.386
-7.31
-8.991
-10.391
-11.489
-12.286
-12.835
-13.226
-13.548
-13.876
-14.252
-14.715
-15.343
-16.223
-17.453
-19.153
-21.386
-24.268
-27.985
-32.558
-37.844
-43.527
-49.005
-53.702
-57.276
-59.239
-59.008
-56.513
-52.025
-46.287
-40.682
-36.172
-33.078
-31.923
-33.269
-36.722
-41.176
-44.515
-43.496
-35.672
-19.534
6.876
45.565
97.304
161.754
236.752
318.285
402.848
487.169
566.502
635.362
688.797
722.478
734.07
723.122
688.924
631.706
554.313
461.331
358.325
251.477
145.934
46.168
-42.511
-115.78
-171.773
-210.455
-233.452
-243.5
-243.115
-235.086
-223.389
-211.717
-202.314
-196.232
-193.314
-192.7
-193.663
-195.338
-196.225
-194.814
-190.326
-182.635
-172.205
-159.847
-146.268
-132.089
-118.068
-104.968
-93.259
-83.173
-74.764
-67.949
-62.652
-58.804
-56.262
-54.839
-54.386
-54.753
-55.798
-57.391
-59.357
-61.535
-63.82
-66.126
-68.373
-70.486
-72.348
-73.822
-74.829
-75.329
-75.299
-74.75
-73.692
-72.146
-70.169
-67.844
-65.256
-62.477
-59.554
-56.512
-53.392
-50.244
-47.14
-44.169
-41.388
-38.829
-36.52
-34.472
-32.689
-31.174
-29.904
-28.835
-27.929
-27.151
-26.477
-25.891
-25.366
-24.867
-24.352
-23.775
-23.098
-22.293
-21.334
-20.197
-18.864
-17.317
-15.552
-13.571
-11.373
-8.957
-6.32
-3.457
-0.369
2.941
6.468
10.204
14.143
18.277
22.596
27.088
31.742
36.544
41.483
46.545
51.718
56.983
62.323
67.719
73.15
78.596
84.036
89.446
94.806
100.092
105.283
110.356
115.289
120.061
124.651
129.038
133.203
137.125
140.788
144.174
147.268
150.054
152.52
154.652
156.441
157.877
158.952
159.661
159.998
159.962
159.55
158.763
157.604
156.075
154.182
151.931
149.33
146.389
143.118
139.531
135.641
131.464
127.016
122.315
117.379
112.228
106.883
101.363
95.691
89.888
83.977
77.979
71.918
65.814
59.691
53.57
47.472
41.417
35.427
29.519
23.712
18.023
12.469
7.064
1.824
-3.239
-8.113
-12.787
-17.251
-21.498
-25.52
-29.312
-32.87
-36.191
-39.275
-42.122
-44.734
-47.114
-49.266
-51.195
-52.908
-54.412
-55.715
-56.825
-57.752
-58.507
-59.099
-59.54
-59.841
-60.014
-60.068
-60.017
-59.871
-59.641
-59.337
-58.971
-58.552
-58.091
-57.598
-57.082
-56.553
-56.018
-55.487
-54.967
-54.464
-53.985
-53.535
-53.119
-52.739
-52.398
-52.1
-51.845
-51.635
-51.47
-51.35
-51.273
-51.24
-51.249
-51.296
-51.38
-51.499
-51.649
-51.829
-52.036
-52.268
-52.523
-52.8
-53.098
-53.414
-53.749
-54.099
-54.462
-54.838
-55.224
-55.617
-56.017
-56.422
-56.83
-57.242
-57.658
-58.077
-58.499
-58.925
-59.355
-59.79
-60.231
-60.678
-61.133
-61.598
-62.074
-62.563
-63.067
-63.589
-64.129
-64.688
-65.264
-65.858
-66.466
-67.085
-67.71
-68.336
-68.96
-69.577
-70.182
-70.772
-71.343
-71.893
-72.421
-72.921
-73.389
-73.818
-74.202
-74.53
-74.797
-74.991
-75.103
-75.127
-75.053
-74.878
-74.598
-74.207
-73.699
-73.063
-72.285
-71.359
-70.281
-69.048
-67.665
-66.141
-64.492
-62.748
-60.943
-59.098
-57.23
-55.35
-53.453
-51.541
-49.614
-47.665
-45.703
-43.732
-41.75
-39.77
-37.793
-35.809
-33.797
-31.714
-29.507
-27.155
-24.653
-22.011
-19.268
-16.465
-13.658
-10.926
-8.333
-5.935
-3.788
-1.92
-0.364
0.829
1.604
1.889
1.604
0.727
-0.744
-2.8
-5.385
-8.445
-11.893
-15.596
-19.439
-23.317
-27.137
-30.839
-34.366
-37.638
-40.596
-43.179
-45.341
-47.118
-48.559
-49.712
-50.651
-51.425
-52.121
-52.897
-53.901
-55.273
-57.132
-59.536
-62.582
-66.436
-71.134
-76.555
-82.381
-88.019
-92.883
-96.547
-98.525
-98.223
-95.321
-89.907
-82.578
-74.56
-67.107
-60.994
-56.908
-55.676
-57.512
-61.63
-66.297
-68.599
-65.287
-53.859
-31.862
3.432
53.759
119.233
198.305
287.413
381.807
476.794
566.853
645.381
706.204
744.391
756.825
742.457
701.879
636.608
549.882
447.112
334.685
219.042
105.803
-0.262
-95.084
-175.049
-237.652
-282.514
-310.663
-323.936
-324.322
-313.79
-294.795
-270.69
-244.989
-220.223
-198.303
-180.284
-166.834
-158.931
-156.795
-159.298
-164.746
-171.381
-177.377
-181.799
-184.09
-183.173
-178.512
-170.385
-159.417
-146.783
-133.902
-121.48
-109.93
-99.876
-91.626
-85.304
-80.921
-78.025
-75.99
-74.481
-73.307
-72.351
-71.655
-71.201
-70.932
-70.902
-71.191
-71.83
-72.805
-74.008
-75.25
-76.364
-77.249
-77.854
-78.172
-78.205
-77.95
-77.396
-76.549
-75.427
-74.045
-72.416
-70.539
-68.411
-66.056
-63.531
-60.925
-58.336
-55.833
-53.452
-51.209
-49.11
-47.158
-45.353
-43.671
-42.081
-40.556
-39.072
-37.616
-36.177
-34.732
-33.247
-31.678
-29.978
-28.109
-26.047
-23.771
-21.267
-18.525
-15.541
-12.32
-8.877
-5.221
-1.361
2.696
6.947
11.38
15.982
20.741
25.639
30.662
35.792
41.014
46.309
51.659
57.048
62.459
67.876
73.282
78.658
83.984
89.238
94.402
99.454
104.373
109.139
113.731
118.131
122.319
126.28
129.997
133.455
136.64
139.54
142.142
144.438
146.419
148.076
149.405
150.4
151.058
151.377
151.357
150.997
150.3
149.27
147.91
146.228
144.231
141.926
139.323
136.434
133.271
129.846
126.175
122.272
118.154
113.839
109.345
104.689
99.89
94.968
89.941
84.83
79.652
74.427
69.174
63.911
58.656
53.426
48.238
43.109
38.054
33.088
28.224
23.476
18.856
14.377
10.049
5.882
1.885
-1.933
-5.565
-9.005
-12.248
-15.289
-18.125
-20.755
-23.177
-25.392
-27.4
-29.203
-30.803
-32.204
-33.409
-34.423
-35.251
-35.899
-36.372
-36.677
-36.82
-36.809
-36.65
-36.349
-35.916
-35.355
-34.676
-33.885
-32.99
-31.999
-30.92
-29.761
-28.529
-27.234
-25.882
-24.483
-23.044
-21.571
-20.074
-18.559
-17.032
-15.502
-13.974
-12.456
-10.953
-9.471
-8.017
-6.597
-5.214
-3.875
-2.584
-1.347
-0.166
0.952
2.005
2.987
3.896
4.726
5.475
6.14
6.718
7.207
7.604
7.908
8.119
8.237
8.259
8.188
8.023
7.765
7.416
6.977
6.45
5.838
5.144
4.37
3.522
2.602
1.616
0.566
-0.541
-1.702
-2.912
-4.165
-5.456
-6.779
-8.129
-9.498
-10.881
-12.27
-13.66
-15.042
-16.411
-17.758
-19.078
-20.363
-21.607
-22.803
-23.945
-25.026
-26.04
-26.981
-27.844
-28.622
-29.312
-29.907
-30.405
-30.8
-31.092
-31.275
-31.348
-31.309
-31.155
-30.886
-30.499
-29.996
-29.375
-28.638
-27.787
-26.824
-25.753
-24.579
-23.307
-21.943
-20.497
-18.975
-17.388
-15.746
-14.058
-12.338
-10.597
-8.848
-7.102
-5.372
-3.67
-2.01
-0.407
1.128
2.581
3.94
5.191
6.319
7.31
8.153
8.841
9.364
9.718
9.891
9.872
9.653
9.231
8.605
7.779
6.757
5.547
4.167
2.651
1.04
-0.628
-2.318
-4.006
-5.664
-7.261
-8.762
-10.123
-11.307
-12.29
-13.046
-13.563
-13.837
-13.867
-13.68
-13.357
-12.994
-12.686
-12.526
-12.561
-12.818
-13.354
-14.243
-15.569
-17.43
-19.899
-23.005
-26.802
-31.368
-36.634
-42.399
-48.252
-53.537
-57.669
-60.187
-60.589
-58.518
-54.021
-47.402
-39.385
-31.189
-23.754
-17.831
-14.319
-13.412
-14.309
-15.604
-15.102
-10.094
1.635
22.307
54.476
99.355
156.38
223.597
297.61
374.519
450.451
520.67
579.489
622.146
645.68
648.838
631.799
595.009
539.544
468.25
385.764
297.164
206.676
117.639
33.056
-43.549
-108.919
-161.432
-201.324
-229.912
-248.421
-257.968
-260.055
-257.123
-252.097
-246.935
-242.342
-238.279
-234.564
-231.056
-227.541
-223.229
-216.86
-207.764
-195.96
-181.882
-166.29
-149.867
-133.14
-116.831
-101.796
-88.604
-77.6
-68.897
-62.347
-57.812
-55.178
-54.24
-54.774
-56.546
-59.292
-62.771
-66.75
-70.968
-75.191
-79.193
-82.772
-85.781
-88.084
-89.595
-90.285
-90.153
-89.227
-87.554
-85.186
-82.198
-78.694
-74.779
-70.578
-66.218
-61.812
-57.482
-53.327
-49.418
-45.817
-42.559
-39.655
-37.105
-34.901
-33.016
-31.429
-30.11
-29.021
-28.125
-27.38
-26.736
-26.147
-25.558
-24.922
-24.205
-23.377
-22.414
-21.3
-20.02
-18.566
-16.933
-15.118
-13.112
-10.912
-8.511
-5.904
-3.092
-0.077
3.137
6.545
10.143
13.924
17.883
22.011
26.302
30.746
35.335
40.06
44.908
49.864
54.912
60.037
65.221
70.447
75.696
80.95
86.189
91.394
96.548
101.632
106.625
111.509
116.263
120.87
125.309
129.562
133.612
137.44
141.031
144.367
147.436
150.223
152.718
154.908
156.785
158.341
159.568
160.462
161.018
161.233
161.107
160.639
159.829
158.682
157.2
155.388
153.252
150.801
148.043
144.987
141.645
138.028
134.15
130.025
125.669
121.098
116.33
111.384
106.278
101.033
95.67
90.208
84.669
79.074
73.443
67.797
62.155
56.539
50.967
45.457
40.029
34.699
29.485
24.401
19.464
14.686
10.082
5.662
1.438
-2.58
-6.385
-9.97
-13.327
-16.453
-19.346
-22.002
-24.422
-26.608
-28.562
-30.288
-31.791
-33.079
-34.158
-35.038
-35.727
-36.237
-36.577
-36.76
-36.796
-36.699
-36.479
-36.151
-35.725
-35.216
-34.634
-33.994
-33.306
-32.582
-31.834
-31.072
-30.308
-29.551
-28.81
-28.094
-27.412
-26.77
-26.174
-25.631
-25.144
-24.718
-24.354
-24.055
-23.82
-23.651
-23.546
-23.502
-23.519
-23.594
-23.722
-23.9
-24.125
-24.391
-24.694
-25.03
-25.394
-25.78
-26.184
-26.602
-27.028
-27.459
-27.89
-28.317
-28.737
-29.146
-29.541
-29.921
-30.283
-30.625
-30.945
-31.245
-31.523
-31.78
-32.017
-32.236
-32.439
-32.628
-32.807
-32.978
-33.146
-33.314
-33.485
-33.664
-33.854
-34.058
-34.28
-34.524
-34.792
-35.088
-35.414
-35.772
-36.165
-36.593
-37.058
-37.559
-38.097
-38.67
-39.277
-39.915
-40.581
-41.273
-41.985
-42.714
-43.455
-44.201
-44.947
-45.686
-46.411
-47.115
-47.789
-48.427
-49.02
-49.561
-50.043
-50.459
-50.804
-51.069
-51.252
-51.346
-51.348
-51.254
-51.06
-50.764
-50.365
-49.863
-49.258
-48.551
-47.746
-46.849
-45.866
-44.808
-43.683
-42.503
-41.281
-40.027
-38.757
-37.482
-36.213
-34.963
-33.744
-32.57
-31.457
-30.423
-29.482
-28.65
-27.939
-27.364
-26.935
-26.662
-26.548
-26.593
-26.806
-27.198
-27.789
-28.597
-29.63
-30.893
-32.384
-34.094
-36.006
-38.093
-40.309
-42.607
-44.942
-47.277
-49.585
-51.834
-53.98
-55.965
-57.722
-59.188
-60.323
-61.097
-61.486
-61.504
-61.185
-60.6
-59.853
-59.035
-58.243
-57.59
-57.18
-57.138
-57.605
-58.689
-60.547
-63.393
-67.265
-72.064
-77.555
-83.268
-88.787
-93.865
-98.062
-100.802
-101.935
-101.61
-100.37
-99.314
-99.074
-99.626
-101.169
-103.987
-107.672
-111.346
-113.23
-110.524
-101.284
-84.546
-58.998
-23.278
23.238
80.58
147.099
219.451
294.858
370.838
443.777
509.416
563.363
601.307
620.822
621.181
601.441
561.32
502.329
427.477
341.328
249.365
155.979
64.965
-19.315
-93.015
-153.385
-199.175
-231.174
-251.324
-261.274
-262.936
-258.919
-251.931
-244.721
-239.083
-235.34
-233.174
-232.224
-231.922
-231.544
-230.185
-226.618
-220.216
-211.118
-199.724
-186.666
-172.609
-158.068
-143.652
-130.095
-117.844
-107.123
-98.065
-90.617
-84.714
-80.324
-77.307
-75.498
-74.765
-74.957
-75.934
-77.561
-79.653
-82.053
-84.65
-87.323
-89.967
-92.464
-94.653
-96.407
-97.659
-98.363
-98.511
-98.103
-97.14
-95.65
-93.695
-91.354
-88.716
-85.846
-82.788
-79.59
-76.313
-73.031
-69.843
-66.821
-64.006
-61.424
-59.091
-57.014
-55.199
-53.633
-52.28
-51.098
-50.049
-49.102
-48.234
-47.417
-46.611
-45.771
-44.847
-43.8
-42.601
-41.228
-39.658
-37.876
-35.867
-33.625
-31.155
-28.462
-25.545
-22.406
-19.043
-15.46
-11.665
-7.667
-3.478
0.895
5.439
10.142
14.993
19.975
25.076
30.282
35.579
40.952
46.383
51.853
57.343
62.833
68.304
73.733
79.102
84.388
89.572
94.636
99.56
104.327
108.918
113.317
117.508
121.476
125.207
128.687
131.906
134.852
137.516
139.89
141.967
143.74
145.205
146.359
147.199
147.725
147.937
147.837
147.427
146.711
145.696
144.386
142.79
140.916
138.772
136.37
133.719
130.833
127.723
124.402
120.885
117.186
113.319
109.301
105.145
100.869
96.488
92.017
87.473
82.872
78.23
73.562
68.883
64.209
59.553
54.931
50.356
45.841
41.399
37.041
32.779
28.623
24.583
20.667
16.884
13.242
9.746
6.403
3.217
0.193
-2.667
-5.361
-7.887
-10.245
-12.436
-14.461
-16.323
-18.023
-19.565
-20.954
-22.193
-23.286
-24.241
-25.061
-25.752
-26.322
-26.776
-27.121
-27.364
-27.511
-27.57
-27.546
-27.447
-27.279
-27.049
-26.763
-26.427
-26.047
-25.63
-25.181
-24.706
-24.21
-23.699
-23.177
-22.647
-22.113
-21.579
-21.047
-20.519
-19.998
-19.486
-18.984
-18.495
-18.02
-17.561
-17.118
-16.692
-16.285
-15.897
-15.529
-15.181
-14.854
-14.549
-14.267
-14.009
-13.778
-13.572
-13.395
-13.246
-13.127
-13.038
-12.979
-12.95
-12.953
-12.986
-13.052
-13.151
-13.284
-13.452
-13.658
-13.901
-14.184
-14.508
-14.873
-15.28
-15.728
-16.22
-16.755
-17.333
-17.955
-18.621
-19.329
-20.08
-20.872
-21.702
-22.567
-23.464
-24.386
-25.331
-26.293
-27.264
-28.24
-29.215
-30.185
-31.146
-32.093
-33.02
-33.922
-34.794
-35.63
-36.423
-37.162
-37.837
-38.438
-38.956
-39.384
-39.715
-39.941
-40.054
-40.049
-39.924
-39.674
-39.294
-38.774
-38.101
-37.268
-36.281
-35.148
-33.885
-32.509
-31.032
-29.474
-27.863
-26.216
-24.546
-22.853
-21.119
-19.34
-17.522
-15.681
-13.85
-12.045
-10.267
-8.516
-6.786
-5.073
-3.38
-1.687
0.045
1.824
3.642
5.457
7.185
8.77
10.174
11.365
12.337
13.066
13.512
13.651
13.47
12.959
12.12
10.929
9.332
7.314
4.896
2.138
-0.845
-3.961
-7.137
-10.295
-13.376
-16.308
-19.012
-21.447
-23.609
-25.512
-27.198
-28.69
-29.966
-31.03
-31.921
-32.722
-33.57
-34.598
-35.919
-37.639
-39.897
-42.899
-46.761
-51.418
-56.615
-61.878
-66.708
-70.752
-73.635
-74.833
-74.038
-71.352
-67.306
-62.999
-59.538
-57.49
-57.261
-59.39
-63.928
-70.084
-76.206
-79.505
-76.924
-66.332
-45.929
-13.629
31.924
90.852
161.995
242.157
327.053
413.076
496.403
572.115
635.519
682.528
709.867
716.58
703.074
669.369
616.421
546.932
464.398
373.273
278.417
183.317
91.15
5.87
-69.146
-131.528
-180.076
-215.356
-238.788
-251.445
-254.949
-251.809
-244.723
-236.516
-229.067
-222.85
-217.879
-214.108
-211.163
-208.427
-204.959
-199.462
-191.324
-180.713
-168.044
-153.984
-139.188
-124.171
-109.613
-96.327
-84.821
-75.347
-67.964
-62.492
-58.769
-56.673
-56.01
-56.566
-58.132
-60.472
-63.375
-66.666
-70.16
-73.7
-77.136
-80.299
-83.022
-85.169
-86.651
-87.44
-87.545
-86.981
-85.774
-83.959
-81.599
-78.785
-75.617
-72.182
-68.558
-64.81
-61.009
-57.245
-53.621
-50.22
-47.09
-44.256
-41.722
-39.491
-37.566
-35.933
-34.562
-33.412
-32.443
-31.622
-30.925
-30.324
-29.78
-29.251
-28.683
-28.034
-27.275
-26.379
-25.328
-24.102
-22.684
-21.064
-19.242
-17.219
-14.991
-12.554
-9.902
-7.032
-3.946
-0.648
2.856
6.561
10.461
14.549
18.817
23.255
27.852
32.6
37.488
42.505
47.636
52.865
58.175
63.547
68.963
74.401
79.842
85.264
90.646
95.965
101.202
106.335
111.343
116.205
120.901
125.41
129.714
133.795
137.634
141.215
144.524
147.546
150.268
152.679
154.767
156.524
157.942
159.014
159.735
160.102
160.113
159.767
159.066
158.013
156.612
154.869
152.792
150.388
147.67
144.649
141.338
137.751
133.905
129.816
125.501
120.981
116.273
111.398
106.377
101.23
95.978
90.643
85.245
79.805
74.343
68.881
63.438
58.034
52.688
47.417
42.239
37.171
32.229
27.426
22.776
18.292
13.984
9.862
5.936
2.211
-1.306
-4.61
-7.699
-10.571
-13.226
-15.664
-17.889
-19.904
-21.713
-23.322
-24.737
-25.966
-27.016
-27.895
-28.613
-29.178
-29.6
-29.888
-30.053
-30.105
-30.053
-29.907
-29.678
-29.374
-29.005
-28.58
-28.109
-27.6
-27.062
-26.502
-25.929
-25.349
-24.77
-24.197
-23.635
-23.089
-22.563
-22.061
-21.585
-21.137
-20.719
-20.333
-19.979
-19.656
-19.367
-19.109
-18.883
-18.688
-18.524
-18.39
-18.286
-18.211
-18.166
-18.151
-18.167
-18.212
-18.288
-18.395
-18.531
-18.697
-18.892
-19.116
-19.368
-19.647
-19.954
-20.287
-20.647
-21.035
-21.45
-21.892
-22.361
-22.86
-23.387
-23.944
-24.533
-25.153
-25.807
-26.496
-27.221
-27.983
-28.782
-29.617
-30.487
-31.389
-32.32
-33.276
-34.252
-35.245
-36.251
-37.267
-38.288
-39.313
-40.341
-41.368
-42.393
-43.413
-44.422
-45.413
-46.381
-47.319
-48.218
-49.07
-49.866
-50.596
-51.255
-51.836
-52.331
-52.73
-53.015
-53.176
-53.206
-53.103
-52.867
-52.503
-52.017
-51.424
-50.75
-50.021
-49.261
-48.49
-47.709
-46.918
-46.116
-45.304
-44.484
-43.651
-42.776
-41.83
-40.789
-39.625
-38.309
-36.805
-35.042
-32.959
-30.512
-27.666
-24.422
-20.803
-16.83
-12.54
-7.99
-3.253
1.56
6.322
10.932
15.292
19.308
22.884
25.884
28.18
29.674
30.276
29.937
28.647
26.396
23.202
19.132
14.281
8.792
2.855
-3.379
-9.772
-16.189
-22.515
-28.599
-34.285
-39.446
-43.955
-47.715
-50.668
-52.767
-53.985
-54.37
-54.004
-53.027
-51.645
-50.016
-48.295
-46.646
-45.213
-44.166
-43.681
-43.889
-44.954
-47.102
-50.402
-54.792
-60.055
-65.721
-71.368
-76.677
-81.167
-84.242
-85.511
-84.922
-82.954
-80.615
-78.647
-77.296
-76.691
-77.097
-78.73
-81.173
-82.942
-81.562
-74.645
-60.667
-38.626
-7.179
35.304
89.579
154.964
228.959
308.154
389.682
470.738
547.246
614.073
666.232
699.535
711.925
702.787
671.289
617.416
543.185
452.511
350.766
243.89
136.59
33.12
-61.582
-143.214
-208.742
-256.985
-288.925
-306.579
-311.743
-306.722
-294.722
-279.11
-263.228
-249.195
-237.539
-228.228
-221.104
-215.692
-211.196
-206.446
-199.992
-191.138
-180.037
-167.142
-153.134
-138.647
-124.221
-110.592
-98.597
-88.747
-81.212
-75.924
-72.618
-71.055
-71.059
-72.404
-74.811
-78.003
-81.724
-85.757
-89.923
-94.065
-98.006
-101.546
-104.519
-106.786
-108.261
-108.928
-108.796
-107.888
-106.245
-103.92
-100.987
-97.553
-93.725
-89.601
-85.284
-80.865
-76.439
-72.127
-68.024
-64.203
-60.716
-57.578
-54.794
-52.368
-50.29
-48.533
-47.069
-45.854
-44.846
-44.014
-43.32
-42.721
-42.171
-41.613
-40.999
-40.296
-39.473
-38.509
-37.386
-36.086
-34.599
-32.921
-31.048
-28.976
-26.7
-24.211
-21.504
-18.577
-15.434
-12.076
-8.509
-4.734
-0.755
3.421
7.788
12.338
17.061
21.951
26.996
32.181
37.489
42.903
48.402
53.967
59.577
65.208
70.838
76.446
82.011
87.51
92.922
98.227
103.402
108.428
113.284
117.951
122.409
126.641
130.628
134.355
137.806
140.967
143.825
146.368
148.585
150.465
152.002
153.187
154.017
154.486
154.593
154.338
153.723
152.75
151.426
149.756
147.748
145.412
142.759
139.799
136.545
133.01
129.208
125.156
120.867
116.361
111.652
106.761
101.705
96.502
91.173
85.737
80.214
74.622
68.983
63.315
57.64
51.976
46.344
40.762
35.249
29.823
24.501
19.298
14.23
9.309
4.55
-0.037
-4.441
-8.653
-12.666
-16.472
-20.066
-23.442
-26.599
-29.533
-32.243
-34.73
-36.993
-39.036
-40.861
-42.471
-43.871
-45.066
-46.062
-46.867
-47.487
-47.931
-48.208
-48.329
-48.302
-48.14
-47.852
-47.45
-46.946
-46.35
-45.673
-44.927
-44.122
-43.268
-42.375
-41.452
-40.508
-39.552
-38.592
-37.636
-36.689
-35.758
-34.85
-33.97
-33.121
-32.309
-31.537
-30.809
-30.128
-29.495
-28.914
-28.386
-27.911
-27.491
-27.125
-26.813
-26.552
-26.343
-26.182
-26.068
-25.999
-25.971
-25.982
-26.029
-26.11
-26.223
-26.364
-26.531
-26.722
-26.935
-27.168
-27.418
-27.685
-27.967
-28.263
-28.572
-28.892
-29.224
-29.566
-29.918
-30.279
-30.647
-31.024
-31.407
-31.797
-32.194
-32.597
-33.007
-33.423
-33.847
-34.277
-34.714
-35.158
-35.609
-36.064
-36.524
-36.987
-37.451
-37.913
-38.372
-38.825
-39.268
-39.699
-40.114
-40.508
-40.877
-41.217
-41.522
-41.788
-42.008
-42.179
-42.295
-42.351
-42.342
-42.262
-42.108
-41.874
-41.555
-41.147
-40.646
-40.048
-39.35
-38.55
-37.647
-36.64
-35.529
-34.317
-33.008
-31.607
-30.119
-28.551
-26.912
-25.212
-23.462
-21.672
-19.854
-18.02
-16.182
-14.352
-12.546
-10.777
-9.06
-7.409
-5.842
-4.376
-3.026
-1.81
-0.741
0.172
0.916
1.482
1.859
2.029
1.981
1.708
1.203
0.464
-0.507
-1.703
-3.105
-4.674
-6.372
-8.165
-10.02
-11.917
-13.83
-15.729
-17.579
-19.339
-20.968
-22.439
-23.723
-24.793
-25.645
-26.274
-26.719
-27.079
-27.444
-27.898
-28.509
-29.286
-30.264
-31.52
-33.129
-35.184
-37.783
-40.946
-44.751
-49.356
-54.729
-60.711
-66.954
-72.775
-77.578
-81.014
-82.605
-81.863
-78.783
-73.589
-66.965
-60.359
-54.802
-50.761
-48.895
-49.583
-52.238
-55.816
-58.315
-56.439
-47.697
-30.336
-2.156
38.299
91.137
155.719
229.546
308.217
388.022
465.291
535.134
593.189
635.726
659.382
663.048
647.241
612.019
558.326
488.816
406.661
316.062
221.821
127.397
36.064
-48.1
-121.637
-181.965
-227.683
-259.25
-277.993
-285.007
-282.117
-272.04
-257.759
-242.474
-228.307
-215.944
-205.618
-197.389
-190.952
-185.704
-180.566
-174.072
-165.478
-154.814
-142.401
-128.828
-114.626
-100.235
-86.322
-73.706
-62.937
-54.271
-47.726
-43.092
-40.171
-38.812
-38.818
-39.951
-41.976
-44.673
-47.849
-51.353
-55.066
-58.868
-62.62
-66.169
-69.338
-71.961
-73.947
-75.256
-75.878
-75.828
-75.123
-73.791
-71.902
-69.54
-66.789
-63.733
-60.42
-56.892
-53.214
-49.466
-45.745
-42.159
-38.773
-35.621
-32.728
-30.106
-27.76
-25.689
-23.865
-22.247
-20.801
-19.497
-18.316
-17.243
-16.25
-15.301
-14.354
-13.36
-12.285
-11.104
-9.792
-8.331
-6.705
-4.903
-2.923
-0.772
1.55
4.044
6.713
9.563
12.593
15.799
19.177
22.723
26.428
30.286
34.29
38.429
42.694
47.077
51.567
56.155
60.832
65.583
70.393
75.246
80.126
85.014
89.893
94.742
99.543
104.275
108.921
113.46
117.874
122.143
126.248
130.171
133.893
137.395
140.662
143.676
146.422
148.886
151.056
152.919
154.465
155.684
156.57
157.115
157.315
157.166
156.665
155.812
154.608
153.055
151.157
148.919
146.349
143.454
140.245
136.733
132.931
128.851
124.51
119.922
115.105
110.077
104.858
99.468
93.928
88.26
82.485
76.626
70.706
64.746
58.769
52.795
46.847
40.944
35.108
29.357
23.71
18.186
12.8
7.569
2.508
-2.372
-7.056
-11.536
-15.801
-19.843
-23.656
-27.234
-30.573
-33.669
-36.523
-39.133
-41.502
-43.633
-45.53
-47.199
-48.647
-49.883
-50.915
-51.754
-52.41
-52.894
-53.218
-53.394
-53.434
-53.35
-53.155
-52.863
-52.484
-52.032
-51.519
-50.955
-50.353
-49.722
-49.073
-48.414
-47.756
-47.105
-46.47
-45.858
-45.275
-44.726
-44.216
-43.749
-43.329
-42.956
-42.632
-42.358
-42.134
-41.959
-41.83
-41.746
-41.706
-41.705
-41.741
-41.811
-41.911
-42.036
-42.185
-42.352
-42.534
-42.728
-42.932
-43.142
-43.355
-43.571
-43.787
-44.002
-44.215
-44.425
-44.633
-44.838
-45.04
-45.242
-45.443
-45.645
-45.85
-46.061
-46.279
-46.508
-46.749
-47.007
-47.284
-47.583
-47.907
-48.259
-48.641
-49.056
-49.506
-49.993
-50.518
-51.081
-51.684
-52.326
-53.007
-53.724
-54.476
-55.259
-56.07
-56.903
-57.755
-58.618
-59.486
-60.352
-61.209
-62.048
-62.862
-63.642
-64.379
-65.064
-65.689
-66.244
-66.72
-67.108
-67.4
-67.588
-67.664
-67.622
-67.454
-67.156
-66.722
-66.148
-65.432
-64.572
-63.567
-62.416
-61.121
-59.685
-58.112
-56.407
-54.578
-52.635
-50.589
-48.455
-46.246
-43.98
-41.672
-39.34
-37.003
-34.678
-32.381
-30.127
-27.934
-25.817
-23.796
-21.89
-20.116
-18.49
-17.027
-15.741
-14.647
-13.753
-13.064
-12.58
-12.307
-12.253
-12.436
-12.869
-13.559
-14.505
-15.707
-17.15
-18.82
-20.688
-22.705
-24.826
-27.004
-29.196
-31.374
-33.504
-35.536
-37.417
-39.077
-40.454
-41.515
-42.228
-42.563
-42.529
-42.152
-41.493
-40.655
-39.717
-38.757
-37.87
-37.152
-36.721
-36.715
-37.243
-38.449
-40.534
-43.559
-47.448
-51.987
-56.719
-61.165
-64.955
-67.595
-68.483
-67.348
-64.333
-60.009
-55.5
-51.869
-49.696
-49.55
-52.124
-57.48
-64.696
-71.891
-76.102
-74.232
-64.066
-43.443
-9.867
38.151
100.48
175.3
258.756
346.217
433.714
516.575
588.974
645.703
682.745
697.842
691.187
663.765
616.209
550.643
470.986
381.8
288.09
193.987
102.155
15.594
-61.972
-127.74
-180.031
-218.611
-244.732
-259.49
-263.706
-259.202
-248.7
-235.112
-221.258
-208.673
-197.613
-188.329
-180.974
-175.226
-170.419
-165.421
-158.944
-150.512
-140.36
-128.88
-116.604
-104.013
-91.528
-79.795
-69.518
-61.083
-54.612
-50.015
-47.057
-45.552
-45.359
-46.288
-48.094
-50.529
-53.363
-56.404
-59.521
-62.598
-65.507
-68.1
-70.259
-71.897
-72.944
-73.391
-73.24
-72.497
-71.19
-69.36
-67.063
-64.385
-61.42
-58.25
-54.954
-51.598
-48.252
-45.008
-41.934
-39.08
-36.486
-34.162
-32.113
-30.349
-28.859
-27.622
-26.612
-25.796
-25.133
-24.594
-24.147
-23.753
-23.371
-22.954
-22.458
-21.855
-21.117
-20.224
-19.159
-17.902
-16.444
-14.781
-12.909
-10.824
-8.524
-6.001
-3.255
-0.286
2.902
6.304
9.913
13.724
17.731
21.926
26.299
30.841
35.54
40.386
45.368
50.468
55.672
60.959
66.311
71.709
77.132
82.558
87.966
93.333
98.64
103.865
108.986
113.984
118.837
123.526
128.032
132.335
136.419
140.265
143.858
147.183
150.225
152.972
155.412
157.534
159.328
160.788
161.906
162.679
163.102
163.175
162.896
162.268
161.294
159.976
158.321
156.336
154.028
151.407
148.484
145.271
141.781
138.028
134.026
129.791
125.34
120.688
115.854
110.855
105.709
100.436
95.053
89.58
84.038
78.444
72.819
67.182
61.55
55.942
50.376
44.868
39.434
34.089
28.849
23.727
18.737
13.891
9.2
4.675
0.325
-3.842
-7.819
-11.601
-15.183
-18.562
-21.735
-24.701
-27.46
-30.012
-32.359
-34.504
-36.449
-38.198
-39.758
-41.134
-42.333
-43.362
-44.229
-44.941
-45.507
-45.936
-46.235
-46.414
-46.481
-46.446
-46.316
-46.103
-45.814
-45.459
-45.047
-44.587
-44.086
-43.553
-42.995
-42.418
-41.829
-41.234
-40.638
-40.046
-39.462
-38.891
-38.336
-37.8
-37.285
-36.793
-36.326
-35.884
-35.469
-35.08
-34.717
-34.382
-34.074
-33.794
-33.541
-33.315
-33.117
-32.947
-32.804
-32.687
-32.596
-32.532
-32.492
-32.478
-32.488
-32.523
-32.583
-32.667
-32.777
-32.912
-33.074
-33.262
-33.477
-33.72
-33.991
-34.293
-34.625
-34.989
-35.386
-35.818
-36.285
-36.787
-37.325
-37.899
-38.509
-39.153
-39.831
-40.541
-41.28
-42.046
-42.837
-43.649
-44.478
-45.32
-46.17
-47.024
-47.875
-48.719
-49.55
-50.361
-51.145
-51.898
-52.611
-53.279
-53.894
-54.449
-54.938
-55.352
-55.686
-55.932
-56.083
-56.134
-56.078
-55.911
-55.626
-55.221
-54.692
-54.035
-53.249
-52.334
-51.288
-50.115
-48.816
-47.395
-45.859
-44.215
-42.472
-40.64
-38.728
-36.75
-34.717
-32.645
-30.547
-28.435
-26.326
-24.233
-22.173
-20.163
-18.22
-16.358
-14.596
-12.952
-11.443
-10.089
-8.905
-7.901
-7.091
-6.486
-6.099
-5.948
-6.044
-6.393
-7.002
-7.872
-9.003
-10.39
-12.013
-13.837
-15.821
-17.92
-20.096
-22.318
-24.546
-26.741
-28.857
-30.839
-32.648
-34.248
-35.607
-36.694
-37.493
-38.003
-38.255
-38.334
-38.346
-38.399
-38.598
-39.024
-39.741
-40.835
-42.416
-44.592
-47.466
-51.127
-55.611
-60.998
-67.407
-74.781
-82.887
-91.302
-99.321
-106.302
-111.812
-115.278
-116.074
-114.063
-109.342
-102.458
-94.741
-87.16
-80.228
-74.762
-71.294
-69.366
-68.098
-65.635
-58.821
-45.205
-22.674
11.414
58.801
119.846
193.781
277.849
367.619
458.873
546.644
624.814
687.802
730.691
750.126
745.094
715.762
662.961
589.299
498.983
397.193
290.054
182.7
79.104
-16.511
-100.562
-170.631
-225.187
-264.537
-290.554
-304.766
-308.8
-305.21
-296.363
-284.696
-272.73
-261.499
-251.019
-241.444
-232.597
-223.928
-215.046
-205.15
-193.219
-179.129
-163.288
-146.197
-128.6
-111.146
-94.328
-78.862
-65.526
-54.721
-46.58
-41.025
-37.769
-36.585
-37.289
-39.617
-43.257
-47.892
-53.201
-58.915
-64.842
-70.786
-76.529
-81.833
-86.451
-90.216
-93.042
-94.901
-95.804
-95.768
-94.824
-93.04
-90.519
-87.379
-83.751
-79.745
-75.452
-70.968
-66.403
-61.885
-57.55
-53.491
-49.761
-46.386
-43.376
-40.74
-38.477
-36.562
-34.95
-33.596
-32.457
-31.498
-30.692
-30.002
-29.379
-28.774
-28.127
-27.398
-26.557
-25.58
-24.447
-23.14
-21.646
-19.96
-18.085
-16.023
-13.768
-11.316
-8.659
-5.796
-2.728
0.54
4.005
7.664
11.51
15.537
19.738
24.104
28.626
33.295
38.102
43.035
48.079
53.219
58.437
63.714
69.031
74.369
79.707
85.025
90.301
95.517
100.652
105.686
110.6
115.373
119.986
124.421
128.657
132.678
136.467
140.006
143.281
146.277
148.982
151.384
153.472
155.238
156.674
157.774
158.534
158.95
159.023
158.751
158.137
157.184
155.897
154.281
152.344
150.093
147.539
144.692
141.563
138.163
134.507
130.608
126.481
122.142
117.606
112.892
108.016
102.997
97.854
92.605
87.268
81.864
76.411
70.927
65.431
59.941
54.475
49.05
43.681
38.384
33.175
28.066
23.071
18.202
13.469
8.884
4.455
0.192
-3.897
-7.805
-11.527
-15.056
-18.389
-21.522
-24.454
-27.182
-29.707
-32.029
-34.151
-36.073
-37.801
-39.337
-40.687
-41.855
-42.848
-43.673
-44.336
-44.845
-45.208
-45.432
-45.526
-45.498
-45.355
-45.105
-44.755
-44.314
-43.79
-43.189
-42.52
-41.791
-41.009
-40.183
-39.32
-38.426
-37.51
-36.578
-35.636
-34.689
-33.744
-32.806
-31.88
-30.97
-30.081
-29.217
-28.38
-27.575
-26.802
-26.066
-25.366
-24.705
-24.083
-23.502
-22.963
-22.467
-22.015
-21.61
-21.252
-20.942
-20.683
-20.475
-20.318
-20.212
-20.158
-20.155
-20.203
-20.3
-20.447
-20.643
-20.888
-21.182
-21.522
-21.91
-22.343
-22.82
-23.34
-23.901
-24.502
-25.14
-25.816
-26.529
-27.276
-28.059
-28.874
-29.721
-30.597
-31.499
-32.423
-33.365
-34.319
-35.279
-36.238
-37.191
-38.132
-39.056
-39.958
-40.834
-41.68
-42.492
-43.266
-43.993
-44.669
-45.283
-45.826
-46.29
-46.666
-46.947
-47.124
-47.194
-47.151
-46.994
-46.72
-46.321
-45.791
-45.117
-44.291
-43.31
-42.177
-40.897
-39.487
-37.965
-36.358
-34.691
-32.986
-31.258
-29.512
-27.741
-25.939
-24.098
-22.22
-20.32
-18.41
-16.499
-14.589
-12.678
-10.752
-8.786
-6.747
-4.593
-2.301
0.132
2.682
5.297
7.914
10.461
12.877
15.122
17.156
18.938
20.427
21.586
22.365
22.707
22.548
21.809
20.446
18.46
15.887
12.803
9.306
5.505
1.501
-2.611
-6.746
-10.815
-14.735
-18.444
-21.868
-24.937
-27.585
-29.735
-31.36
-32.514
-33.275
-33.749
-34.057
-34.296
-34.576
-35.038
-35.803
-37.012
-38.797
-41.219
-44.393
-48.444
-53.339
-58.95
-64.978
-70.884
-76.222
-80.628
-83.575
-84.632
-83.704
-80.95
-76.96
-72.509
-67.955
-63.498
-59.54
-56.305
-53.483
-50.021
-44.016
-33.558
-17.433
5.303
35.896
75.673
125.27
183.849
249.011
317.932
388.153
457.283
521.982
577.808
620.442
646.888
655.924
647.256
620.586
575.626
513.593
437.91
353.098
263.616
172.988
84.143
0.423
-74.161
-136.458
-185.418
-221.59
-246.337
-260.915
-266.442
-264.691
-258.556
-251.067
-244.043
-238.115
-233.177
-228.98
-225.428
-222.246
-218.512
-212.98
-205.007
-194.598
-182.176
-168.401
-153.826
-138.873
-124.126
-110.299
-97.856
-87.053
-78.011
-70.655
-64.905
-60.704
-57.908
-56.326
-55.806
-56.186
-57.306
-59.041
-61.224
-63.706
-66.394
-69.188
-71.986
-74.669
-77.075
-79.053
-80.523
-81.434
-81.766
-81.523
-80.707
-79.344
-77.5
-75.249
-72.667
-69.816
-66.73
-63.444
-60.013
-56.508
-53.026
-49.669
-46.498
-43.555
-40.872
-38.461
-36.333
-34.483
-32.88
-31.48
-30.25
-29.156
-28.179
-27.299
-26.485
-25.696
-24.887
-24.005
-23.013
-21.879
-20.577
-19.085
-17.385
-15.466
-13.328
-10.975
-8.41
-5.633
-2.642
0.567
3.991
7.626
11.466
15.504
19.732
24.141
28.722
33.462
38.349
43.372
48.517
53.773
59.125
64.554
70.042
75.57
81.116
86.658
92.175
97.644
103.041
108.346
113.535
118.588
123.485
128.204
132.728
137.037
141.114
144.941
148.503
151.784
154.771
157.451
159.811
161.84
163.529
164.869
165.853
166.478
166.738
166.633
166.163
165.329
164.134
162.585
160.687
158.449
155.88
152.993
149.801
146.318
142.56
138.543
134.284
129.803
125.117
120.246
115.21
110.028
104.72
99.308
93.81
88.249
82.646
77.02
71.393
65.785
60.217
54.708
49.278
43.944
38.723
33.633
28.688
23.904
19.292
14.865
10.634
6.607
2.792
-0.806
-4.181
-7.332
-10.256
-12.953
-15.425
-17.675
-19.704
-21.518
-23.121
-24.519
-25.719
-26.728
-27.554
-28.205
-28.691
-29.022
-29.208
-29.259
-29.187
-29.004
-28.719
-28.345
-27.893
-27.374
-26.799
-26.178
-25.522
-24.841
-24.144
-23.44
-22.737
-22.042
-21.36
-20.696
-20.056
-19.443
-18.859
-18.307
-17.788
-17.304
-16.854
-16.44
-16.061
-15.717
-15.408
-15.133
-14.89
-14.678
-14.496
-14.342
-14.214
-14.112
-14.033
-13.977
-13.941
-13.925
-13.928
-13.948
-13.985
-14.038
-14.108
-14.193
-14.295
-14.413
-14.551
-14.709
-14.891
-15.098
-15.333
-15.601
-15.904
-16.246
-16.63
-17.059
-17.535
-18.062
-18.641
-19.275
-19.965
-20.713
-21.518
-22.382
-23.304
-24.282
-25.314
-26.399
-27.533
-28.711
-29.929
-31.181
-32.462
-33.766
-35.085
-36.413
-37.741
-39.062
-40.366
-41.645
-42.887
-44.084
-45.224
-46.297
-47.292
-48.2
-49.01
-49.714
-50.303
-50.768
-51.103
-51.301
-51.355
-51.263
-51.019
-50.621
-50.068
-49.361
-48.501
-47.492
-46.339
-45.051
-43.635
-42.102
-40.464
-38.734
-36.926
-35.055
-33.137
-31.188
-29.225
-27.265
-25.326
-23.428
-21.589
-19.829
-18.168
-16.625
-15.22
-13.973
-12.903
-12.022
-11.343
-10.875
-10.627
-10.61
-10.838
-11.319
-12.058
-13.056
-14.314
-15.826
-17.582
-19.558
-21.711
-23.998
-26.381
-28.822
-31.293
-33.764
-36.195
-38.545
-40.769
-42.825
-44.682
-46.307
-47.668
-48.743
-49.527
-50.058
-50.425
-50.718
-51.017
-51.387
-51.86
-52.487
-53.358
-54.556
-56.168
-58.278
-60.914
-64.142
-68.11
-72.805
-78.064
-83.557
-88.652
-92.764
-95.535
-96.48
-95.074
-91.252
-85.17
-77.412
-69.323
-61.922
-55.767
-51.669
-50.116
-50.639
-52.361
-53.457
-50.897
-42.294
-25.583
1.743
41.328
93.544
157.738
231.461
310.753
391.844
470.204
540.235
596.783
635.257
652.438
647.021
618.737
568.033
497.158
410.179
312.226
209.236
106.342
8.017
-81.05
-156.873
-216.807
-259.956
-287.358
-301.233
-303.684
-297.198
-285.042
-270.437
-256.378
-244.718
-235.783
-229.285
-224.835
-221.774
-219.175
-215.904
-210.692
-202.967
-192.934
-181.086
-168.113
-154.661
-141.264
-128.589
-117.334
-107.901
-100.445
-94.915
-91.086
-88.764
-87.786
-87.952
-89.042
-90.828
-93.094
-95.658
-98.352
-101.03
-103.558
-105.776
-107.559
-108.816
-109.458
-109.461
-108.834
-107.588
-105.762
-103.407
-100.572
-97.343
-93.816
-90.072
-86.207
-82.303
-78.43
-74.685
-71.143
-67.854
-64.863
-62.19
-59.833
-57.797
-56.071
-54.628
-53.447
-52.492
-51.723
-51.109
-50.612
-50.191
-49.806
-49.405
-48.943
-48.389
-47.712
-46.887
-45.897
-44.721
-43.345
-41.764
-39.971
-37.957
-35.719
-33.248
-30.539
-27.592
-24.41
-20.995
-17.355
-13.494
-9.418
-5.135
-0.653
4.016
8.861
13.874
19.039
24.342
29.764
35.288
40.892
46.557
52.261
57.982
63.697
69.384
75.021
80.586
86.055
91.408
96.621
101.674
106.544
111.213
115.662
119.871
123.824
127.505
130.901
133.998
136.785
139.251
141.388
143.188
144.646
145.757
146.518
146.929
146.989
146.701
146.067
145.091
143.78
142.14
140.178
137.905
135.33
132.465
129.321
125.913
122.255
118.361
114.248
109.933
105.432
100.764
95.947
90.999
85.938
80.784
75.554
70.267
64.942
59.595
54.246
48.91
43.605
38.346
33.149
28.029
23.001
18.076
13.269
8.592
4.055
-0.33
-4.554
-8.608
-12.484
-16.174
-19.673
-22.975
-26.077
-28.977
-31.671
-34.16
-36.444
-38.524
-40.402
-42.082
-43.567
-44.862
-45.971
-46.901
-47.657
-48.246
-48.675
-48.951
-49.083
-49.077
-48.942
-48.687
-48.318
-47.845
-47.276
-46.62
-45.886
-45.081
-44.215
-43.297
-42.334
-41.335
-40.308
-39.26
-38.199
-37.131
-36.063
-35
-33.947
-32.91
-31.893
-30.899
-29.932
-28.995
-28.091
-27.223
-26.394
-25.604
-24.855
-24.15
-23.49
-22.876
-22.308
-21.789
-21.318
-20.897
-20.527
-20.207
-19.938
-19.721
-19.556
-19.442
-19.378
-19.365
-19.403
-19.489
-19.625
-19.809
-20.041
-20.321
-20.649
-21.024
-21.445
-21.912
-22.425
-22.982
-23.583
-24.226
-24.91
-25.633
-26.395
-27.192
-28.024
-28.887
-29.779
-30.697
-31.637
-32.594
-33.566
-34.548
-35.533
-36.517
-37.495
-38.461
-39.409
-40.334
-41.23
-42.09
-42.908
-43.677
-44.392
-45.043
-45.626
-46.134
-46.559
-46.896
-47.14
-47.284
-47.325
-47.257
-47.076
-46.778
-46.362
-45.822
-45.159
-44.37
-43.457
-42.419
-41.26
-39.982
-38.59
-37.09
-35.49
-33.798
-32.025
-30.182
-28.281
-26.335
-24.36
-22.368
-20.375
-18.393
-16.438
-14.525
-12.67
-10.889
-9.199
-7.618
-6.164
-4.851
-3.697
-2.713
-1.908
-1.291
-0.868
-0.648
-0.647
-0.879
-1.351
-2.075
-3.052
-4.28
-5.752
-7.442
-9.311
-11.319
-13.424
-15.588
-17.785
-19.983
-22.15
-24.253
-26.235
-28.044
-29.637
-30.966
-32
-32.721
-33.133
-33.288
-33.283
-33.217
-33.188
-33.266
-33.5
-33.974
-34.774
-35.995
-37.768
-40.18
-43.353
-47.486
-52.619
-58.62
-65.204
-71.795
-77.793
-82.795
-86.245
-87.497
-86.418
-83.234
-78.669
-74.085
-70.468
-68.197
-67.785
-69.743
-73.689
-78.477
-81.894
-80.623
-72.058
-54.637
-26.728
13.391
66.361
131.615
206.957
288.277
371.697
454.223
532.261
601.285
657.145
696.301
716.44
717.493
699.563
662.09
605.618
532.352
445.544
349.489
248.551
145.728
44.46
-50.566
-134.868
-204.838
-258.666
-296.52
-319.254
-327.327
-321.972
-306.075
-283.764
-259.666
-236.808
-216.495
-199.513
-186.749
-178.998
-175.978
-175.788
-175.572
-173.534
-169.123
-162.294
-153.1
-141.197
-126.586
-110.343
-94.267
-79.742
-67.436
-57.526
-49.945
-44.863
-42.445
-42.432
-44.224
-47.23
-51.038
-55.413
-60.25
-65.389
-70.587
-75.65
-80.416
-84.712
-88.41
-91.411
-93.62
-94.993
-95.523
-95.214
-94.116
-92.319
-89.915
-87.007
-83.689
-80.025
-76.099
-72.015
-67.894
-63.876
-60.06
-56.501
-53.237
-50.292
-47.679
-45.405
-43.45
-41.765
-40.306
-39.035
-37.919
-36.935
-36.049
-35.212
-34.374
-33.476
-32.473
-31.337
-30.04
-28.562
-26.884
-24.991
-22.879
-20.556
-18.023
-15.278
-12.319
-9.14
-5.74
-2.126
1.697
5.723
9.945
14.357
18.95
23.713
28.635
33.704
38.911
44.244
49.687
55.226
60.841
66.513
72.222
77.947
83.667
89.36
95.002
100.573
106.05
111.413
116.639
121.709
126.6
131.294
135.771
140.012
143.999
147.717
151.149
154.281
157.1
159.594
161.753
163.567
165.03
166.136
166.881
167.262
167.279
166.933
166.227
165.164
163.751
161.995
159.904
157.488
154.759
151.729
148.413
144.824
140.98
136.896
132.591
128.083
123.391
118.533
113.531
108.405
103.174
97.861
92.485
87.067
81.628
76.187
70.765
65.381
60.053
54.8
49.638
44.584
39.653
34.86
30.219
25.742
21.441
17.325
13.404
9.686
6.178
2.884
-0.191
-3.044
-5.673
-8.077
-10.258
-12.216
-13.954
-15.477
-16.787
-17.891
-18.796
-19.506
-20.031
-20.377
-20.554
-20.57
-20.435
-20.158
-19.749
-19.219
-18.578
-17.837
-17.006
-16.097
-15.119
-14.084
-13.001
-11.879
-10.73
-9.56
-8.38
-7.196
-6.017
-4.851
-3.702
-2.578
-1.484
-0.424
0.596
1.574
2.505
3.386
4.216
4.991
5.708
6.366
6.964
7.499
7.97
8.377
8.72
8.998
9.213
9.364
9.452
9.479
9.445
9.353
9.202
8.995
8.732
8.414
8.044
7.623
7.151
6.63
6.062
5.446
4.784
4.076
3.323
2.526
1.686
0.804
-0.119
-1.08
-2.077
-3.107
-4.167
-5.253
-6.363
-7.493
-8.639
-9.797
-10.964
-12.136
-13.308
-14.475
-15.633
-16.777
-17.9
-18.998
-20.065
-21.094
-22.08
-23.016
-23.898
-24.719
-25.472
-26.151
-26.748
-27.258
-27.673
-27.988
-28.196
-28.292
-28.271
-28.131
-27.869
-27.482
-26.969
-26.329
-25.564
-24.674
-23.661
-22.527
-21.276
-19.912
-18.442
-16.873
-15.211
-13.467
-11.652
-9.778
-7.859
-5.909
-3.943
-1.977
-0.027
1.892
3.764
5.575
7.31
8.952
10.487
11.895
13.161
14.267
15.2
15.946
16.493
16.831
16.959
16.872
16.57
16.05
15.3
14.309
13.073
11.587
9.853
7.881
5.687
3.298
0.758
-1.89
-4.6
-7.331
-10.053
-12.735
-15.337
-17.821
-20.124
-22.19
-23.97
-25.42
-26.501
-27.198
-27.528
-27.537
-27.323
-26.972
-26.552
-26.146
-25.827
-25.699
-25.887
-26.502
-27.652
-29.475
-32.158
-35.803
-40.367
-45.607
-51.044
-56.141
-60.433
-63.458
-64.648
-63.663
-60.641
-56.146
-51.327
-47.455
-45.289
-45.355
-48.238
-53.978
-61.661
-69.511
-74.61
-73.617
-63.955
-43.445
-10.034
37.896
100.963
177.814
265.515
358.466
449.179
533.411
607.987
672.052
729.497
775.738
800.313
793.545
742.581
649.684
531.624
403.746
283.571
178.135
82.316
-5.082
-84.453
-154.295
-208.989
-247.233
-271.448
-283.423
-285.522
-280.21
-268.896
-253.835
-238.253
-224.007
-211.467
-200.958
-192.56
-186.372
-183.034
-182.158
-182.032
-181.196
-179.007
-175.298
-170.284
-163.902
-155.526
-145.095
-133.473
-121.841
-111.086
-101.606
-93.411
-86.538
-81.324
-77.966
-76.254
-75.668
-75.692
-76.02
-76.545
-77.276
-78.154
-79.071
-79.975
-80.879
-81.811
-82.753
-83.648
-84.382
-84.835
-84.951
-84.713
-84.137
-83.27
-82.153
-80.821
-79.303
-77.617
-75.778
-73.807
-71.72
-69.529
-67.269
-64.975
-62.702
-60.53
-58.509
-56.664
-55.005
-53.519
-52.187
-50.995
-49.922
-48.939
-48.022
-47.147
-46.295
-45.452
-44.597
-43.698
-42.72
-41.616
-40.351
-38.898
-37.239
-35.36
-33.254
-30.914
-28.342
-25.547
-22.536
-19.316
-15.891
-12.264
-8.441
-4.434
-0.255
4.08
8.555
13.152
17.856
22.646
27.506
32.415
37.357
42.316
47.273
52.21
57.106
61.94
66.693
71.342
75.869
80.253
84.473
88.511
92.349
95.972
99.365
102.512
105.401
108.021
110.359
112.406
114.153
115.592
116.717
117.523
118.006
118.164
117.997
117.506
116.695
115.566
114.125
112.378
110.332
107.996
105.378
102.488
99.337
95.937
92.301
88.444
84.38
80.124
75.693
71.102
66.367
61.504
56.529
51.458
46.307
41.092
35.83
30.539
25.236
19.939
14.665
9.432
4.256
-0.847
-5.863
-10.779
-15.585
-20.27
-24.825
-29.243
-33.516
-37.638
-41.599
-45.393
-49.013
-52.456
-55.718
-58.797
-61.691
-64.4
-66.93
-69.282
-71.461
-73.465
-75.285
-76.918
-78.37
-79.65
-80.769
-81.744
-82.591
-83.337
-84.021
-84.684
-85.363
-86.085
-86.857
-87.685
-88.582
-89.566
-90.661
-91.876
-93.186
-94.566
-95.993
-97.44
-98.869
-100.213
-101.345
-102.149
-102.521
-102.38
-101.688
-100.408
-98.498
-95.933
-92.698
-88.836
-84.462
-79.691
-74.622
-69.358
-63.999
-58.728
-53.852
-49.668
-46.464
