Name,Criss Capps
Date of Birth,"Feb 5, 1952"
Recorded Date,2025-04-15 08:15:12 -0400
Classification,Inconclusive
Symptoms,
Software Version,1.90
Device,"Watch5,4"
Sample Rate,512.844 hertz


Lead,Lead I
Unit,µV

-327.801
-425.587
-481.536
-490.367
-463.333
-416.981
-365.442
-314.79
-263.784
-212.565
-165.272
-126.894
-102.242
-90.438
-83.741
-76.374
-65.272
-50.376
-36.058
-24.171
-13.39
-2.224
11.499
28.66
48.434
69.988
92.667
115.676
138.084
159.118
178.231
195.281
210.496
224.072
236.198
247.117
257.163
267.11
277.813
289.449
302.059
315.12
326.963
337.079
345.583
352.489
360.043
368.802
376.06
378.333
368.952
343.917
306.726
265.188
232.198
218.115
224.452
246.662
274.359
298.273
315.046
325.018
331.941
338.973
346.539
353.972
359.973
364
366.606
368.607
370.602
372.613
374.339
375.38
375.211
373.418
369.805
364.169
356.508
347.319
337.1
326.177
315.147
303.614
289.915
273.79
255.413
235.508
216.779
197.916
174.275
141.814
95.659
36.603
-28.889
-94.997
-155.635
-208.213
-254.074
-293.723
-327.691
-355.642
-376.059
-388.988
-395.338
-396.408
-394.264
-390.327
-385.551
-381.165
-377.94
-375.993
-375.284
-375.442
-375.91
-376.63
-377.412
-377.61
-377.009
-375.795
-374.031
-371.177
-365.902
-356.419
-341.756
-323.339
-303.016
-281.307
-257.428
-227.26
-186.548
-133.475
-66.756
10.485
92.227
171.195
234.148
269.029
267.87
226.643
155.427
70.919
-10.384
-70.933
-106.761
-123.177
-126.75
-130.734
-141.822
-161.615
-194.541
-238.705
-293.035
-356.762
-421.669
-480.816
-527.349
-555.277
-566.266
-565.067
-558.161
-552.041
-548.893
-547.796
-545.969
-540.981
-532.33
-520.686
-507.289
-492.632
-476.281
-457.836
-437.131
-414.379
-390.111
-364.835
-338.984
-313
-287.328
-262.297
-238.1
-214.896
-192.817
-171.975
-152.497
-134.462
-117.89
-102.832
-89.353
-77.456
-67.108
-58.226
-50.662
-44.323
-39.161
-35.11
-32.109
-30.054
-28.786
-28.17
-28.095
-28.421
-29.012
-29.717
-30.36
-30.838
-31.109
-31.145
-30.952
-30.522
-29.824
-28.853
-27.618
-26.134
-24.436
-22.557
-20.515
-18.358
-16.147
-13.941
-11.811
-9.792
-7.871
-6.048
-4.306
-2.613
-0.939
0.759
2.546
4.461
6.528
8.797
11.302
14.097
17.268
20.881
24.998
29.667
34.896
40.73
47.248
54.46
62.302
70.655
79.36
88.391
97.884
107.939
118.549
129.748
141.65
154.558
168.857
184.645
201.632
219.367
237.532
255.889
274.151
291.821
308.254
323.109
336.554
349.095
361.123
372.85
384.437
396.13
408.341
421.298
434.831
448.481
461.848
474.694
486.889
498.33
508.802
518.133
526.333
533.527
539.838
545.319
549.945
553.656
556.444
558.315
559.257
559.248
558.257
556.276
553.321
549.425
544.618
538.925
532.364
524.954
516.724
507.705
497.932
487.446
476.287
464.5
452.127
439.216
425.81
411.96
397.714
383.12
368.227
353.087
337.752
322.278
306.72
291.132
275.566
260.072
244.698
229.492
214.501
199.767
185.331
171.231
157.505
144.184
131.301
118.882
106.951
95.528
84.63
74.272
64.465
55.214
46.526
38.4
30.834
23.824
17.363
11.438
6.038
1.147
-3.252
-7.181
-10.659
-13.71
-16.359
-18.633
-20.557
-22.161
-23.471
-24.517
-25.327
-25.93
-26.354
-26.627
-26.775
-26.825
-26.801
-26.729
-26.629
-26.523
-26.43
-26.368
-26.354
-26.4
-26.52
-26.725
-27.023
-27.422
-27.926
-28.539
-29.264
-30.101
-31.049
-32.105
-33.265
-34.525
-35.879
-37.32
-38.84
-40.43
-42.082
-43.785
-45.53
-47.305
-49.101
-50.908
-52.714
-54.509
-56.285
-58.03
-59.736
-61.395
-62.999
-64.541
-66.014
-67.413
-68.733
-69.969
-71.119
-72.181
-73.152
-74.032
-74.821
-75.52
-76.129
-76.651
-77.088
-77.444
-77.72
-77.922
-78.053
-78.117
-78.118
-78.062
-77.954
-77.798
-77.6
-77.365
-77.097
-76.801
-76.483
-76.147
-75.797
-75.438
-75.073
-74.707
-74.343
-73.985
-73.634
-73.295
-72.97
-72.661
-72.371
-72.099
-71.85
-71.623
-71.42
-71.242
-71.09
-70.966
-70.871
-70.806
-70.772
-70.77
-70.803
-70.871
-70.975
-71.118
-71.301
-71.525
-71.792
-72.104
-72.463
-72.871
-73.331
-73.844
-74.412
-75.037
-75.721
-76.466
-77.274
-78.146
-79.084
-80.089
-81.163
-82.308
-83.524
-84.812
-86.174
-87.609
-89.117
-90.699
-92.352
-94.077
-95.872
-97.735
-99.665
-101.66
-103.717
-105.833
-108.006
-110.232
-112.508
-114.83
-117.193
-119.593
-122.026
-124.486
-126.97
-129.472
-131.989
-134.515
-137.045
-139.575
-142.1
-144.615
-147.115
-149.594
-152.048
-154.472
-156.861
-159.211
-161.518
-163.779
-165.991
-168.15
-170.253
-172.297
-174.279
-176.196
-178.044
-179.821
-181.524
-183.152
-184.702
-186.173
-187.565
-188.876
-190.106
-191.255
-192.323
-193.308
-194.211
-195.03
-195.768
-196.425
-197.001
-197.499
-197.921
-198.27
-198.551
-198.767
-198.921
-199.014
-199.05
-199.031
-198.956
-198.829
-198.649
-198.419
-198.144
-197.828
-197.48
-197.107
-196.717
-196.316
-195.913
-195.511
-195.116
-194.728
-194.346
-193.971
-193.607
-193.259
-192.938
-192.651
-192.4
-192.183
-191.997
-191.827
-191.655
-191.459
-191.213
-190.898
-190.504
-190.031
-189.491
-188.897
-188.263
-187.595
-186.887
-186.134
-185.335
-184.489
-183.598
-182.684
-181.784
-180.946
-180.232
-179.688
-179.341
-179.2
-179.249
-179.458
-179.776
-180.164
-180.594
-181.039
-181.476
-181.88
-182.229
-182.471
-182.534
-182.323
-181.718
-180.621
-178.955
-176.672
-173.746
-170.19
-166.058
-161.4
-156.275
-150.739
-144.853
-138.679
-132.288
-125.777
-119.269
-112.923
-106.929
-101.462
-96.674
-92.696
-89.639
-87.572
-86.523
-86.507
-87.521
-89.552
-92.575
-96.557
-101.454
-107.187
-113.656
-120.718
-128.185
-135.885
-143.666
-151.385
-158.919
-166.159
-173.019
-179.435
-185.354
-190.738
-195.566
-199.808
-203.451
-206.527
-209.083
-211.213
-213.06
-214.725
-216.299
-217.891
-219.586
-221.485
-223.691
-226.249
-229.209
-232.651
-236.59
-241.014
-245.839
-250.776
-255.494
-259.711
-263.063
-265.222
-265.994
-265.237
-263.074
-260.08
-256.943
-254.272
-252.613
-252.417
-254.011
-257.596
-262.901
-268.249
-270.953
-268.674
-259.976
-245.775
-228.512
-208.693
-184.289
-150.451
-101.789
-37.63
37.5
115.126
185.529
242.866
284.422
308.117
312.183
291.068
238.254
151.395
30.628
-115.534
-272.291
-425.509
-559.601
-665.746
-741.725
-786.388
-802.46
-790.887
-753.931
-699.208
-636.762
-579.967
-537.262
-508.981
-489.854
-469.994
-444.198
-413.294
-381.179
-354.332
-335.576
-323.948
-317.711
-314.131
-311.556
-309.627
-307.733
-305.252
-301.961
-297.807
-292.886
-287.593
-282.327
-277.411
-273.348
-270.663
-269.499
-269.725
-271.099
-273.206
-275.625
-278.032
-280.04
-281.27
-281.541
-280.785
-279.007
-276.303
-272.765
-268.469
-263.541
-258.121
-252.319
-246.264
-240.068
-233.84
-227.729
-221.86
-216.317
-211.17
-206.453
-202.18
-198.366
-195.004
-192.063
-189.512
-187.313
-185.429
-183.833
-182.481
-181.323
-180.304
-179.359
-178.438
-177.503
-176.521
-175.466
-174.319
-173.061
-171.683
-170.183
-168.556
-166.794
-164.886
-162.82
-160.584
-158.176
-155.589
-152.819
-149.863
-146.714
-143.369
-139.827
-136.085
-132.14
-127.992
-123.64
-119.086
-114.336
-109.397
-104.28
-98.996
-93.558
-87.981
-82.282
-76.479
-70.59
-64.634
-58.631
-52.601
-46.565
-40.547
-34.568
-28.651
-22.817
-17.091
-11.493
-6.048
-0.775
4.304
9.168
13.799
18.177
22.286
26.109
29.632
32.844
35.731
38.285
40.499
42.366
43.884
45.049
45.864
46.329
46.449
46.23
45.681
44.811
43.632
42.157
40.4
38.377
36.106
33.605
30.894
27.992
24.921
21.701
18.356
14.908
11.378
7.789
4.163
0.522
-3.113
-6.721
-10.283
-13.781
-17.198
-20.516
-23.721
-26.8
-29.742
-32.536
-35.174
-37.649
-39.956
-42.092
-44.055
-45.846
-47.467
-48.921
-50.213
-51.349
-52.337
-53.185
-53.904
-54.503
-54.994
-55.388
-55.698
-55.935
-56.114
-56.246
-56.344
-56.42
-56.487
-56.555
-56.637
-56.741
-56.877
-57.052
-57.274
-57.547
-57.877
-58.265
-58.714
-59.223
-59.791
-60.415
-61.091
-61.814
-62.576
-63.371
-64.188
-65.018
-65.848
-66.668
-67.464
-68.225
-68.935
-69.583
-70.154
-70.635
-71.014
-71.276
-71.409
-71.401
-71.24
-70.914
-70.415
-69.734
-68.864
-67.799
-66.534
-65.069
-63.402
-61.538
-59.478
-57.23
-54.801
-52.199
-49.436
-46.525
-43.478
-40.31
-37.036
-33.673
-30.241
-26.76
-23.252
-19.738
-16.242
-12.788
-9.399
-6.1
-2.911
0.149
3.059
5.799
8.346
10.674
12.761
14.589
16.145
17.418
18.406
19.113
19.556
19.766
19.774
19.609
19.298
18.86
18.32
17.707
17.054
16.401
15.786
15.238
14.781
14.438
14.207
14.062
13.953
13.792
13.485
12.951
12.119
10.929
9.322
7.237
4.598
1.336
-2.594
-7.24
-12.664
-18.892
-25.868
-33.421
-41.223
-48.872
-56.016
-62.3
-67.333
-70.778
-72.429
-72.372
-71.03
-68.973
-66.631
-64.19
-61.965
-60.326
-59.287
-58.38
-56.036
-49.643
-37.756
-19.974
3.416
30.801
62.851
101.447
147.93
204.568
270.608
343.451
419.685
491.997
552.722
594.037
608.639
595.138
555.891
495.601
421.936
340.898
257.388
177.575
106.116
46.088
-0.261
-34.823
-63.061
-89.738
-120.596
-160.024
-206.4
-257.043
-307.08
-348.795
-379.369
-398.005
-405.523
-407.537
-407.471
-407.095
-408.108
-408.642
-407.505
-404.783
-399.824
-393.276
-385.578
-376.236
-365.26
-352.669
-338.476
-323.053
-306.765
-289.866
-272.663
-255.483
-238.486
-221.738
-205.293
-189.14
-173.306
-157.894
-142.97
-128.582
-114.807
-101.688
-89.246
-77.502
-66.423
-55.965
-46.116
-36.874
-28.253
-20.282
-12.953
-6.25
-0.137
5.465
10.646
15.506
20.173
24.731
29.227
33.691
38.112
42.47
46.756
50.959
55.062
59.064
62.944
66.685
70.27
73.653
76.776
79.575
81.966
83.897
85.353
86.322
86.823
86.885
86.535
85.823
84.81
83.545
82.079
80.462
78.737
76.967
75.226
73.576
72.091
70.83
69.836
69.166
68.865
68.97
69.518
70.518
71.974
73.907
76.344
79.302
82.804
86.847
91.418
96.538
102.214
108.444
115.222
122.502
130.243
138.415
146.991
155.962
165.323
175.042
185.082
195.415
206.011
216.864
227.976
239.301
250.808
262.487
274.349
286.454
298.861
311.595
324.666
338.055
351.726
365.647
379.777
394.051
408.399
422.727
436.921
450.906
464.583
477.834
490.502
502.364
513.187
522.759
530.893
537.445
542.294
545.338
546.507
545.766
543.099
538.527
532.086
523.801
513.715
501.883
488.4
473.447
457.243
440.018
422.007
403.411
384.425
365.248
346.044
326.942
308.058
289.466
271.241
253.48
236.274
219.73
203.941
188.928
174.678
161.152
148.29
136.043
124.351
113.125
102.304
91.86
81.779
72.085
62.797
53.906
45.398
37.246
29.408
21.878
14.665
7.787
1.283
-4.804
-10.419
-15.478
-19.916
-23.697
-26.804
-29.246
-31.04
-32.188
-32.697
-32.579
-31.835
-30.475
-28.519
-25.983
-22.902
-19.32
-15.295
-10.899
-6.204
-1.269
3.854
9.121
14.492
19.925
25.382
30.832
36.238
41.562
46.766
51.809
56.654
61.273
65.64
69.731
73.529
77.013
80.167
82.974
85.417
87.483
89.156
90.424
91.278
91.711
91.721
91.312
90.487
89.258
87.635
85.631
83.264
80.549
77.507
74.156
70.518
66.614
62.467
58.103
53.55
48.839
44.003
39.072
34.08
29.062
24.052
19.087
14.196
9.409
4.752
0.256
-4.048
-8.126
-11.949
-15.5
-18.762
-21.723
-24.373
-26.707
-28.733
-30.474
-31.95
-33.171
-34.135
-34.834
-35.262
-35.42
-35.313
-34.945
-34.305
-33.382
-32.17
-30.673
-28.892
-26.815
-24.403
-21.599
-18.361
-14.68
-10.581
-6.105
-1.286
3.829
9.188
14.722
20.336
25.956
31.533
37.02
42.366
47.492
52.274
56.568
60.256
63.254
65.521
67.037
67.778
67.751
66.99
65.546
63.502
60.895
57.723
53.996
49.746
45.034
39.985
34.739
29.419
24.155
19.041
14.152
9.568
5.324
1.428
-2.12
-5.333
-8.181
-10.585
-12.496
-13.887
-14.751
-15.14
-15.115
-14.746
-14.138
-13.384
-12.552
-11.712
-10.898
-10.12
-9.4
-8.754
-8.222
-7.877
-7.774
-7.953
-8.449
-9.263
-10.385
-11.793
-13.424
-15.221
-17.146
-19.167
-21.272
-23.462
-25.727
-28.061
-30.459
-32.897
-35.354
-37.817
-40.262
-42.681
-45.074
-47.445
-49.816
-52.207
-54.628
-57.08
-59.558
-62.05
-64.545
-67.027
-69.475
-71.87
-74.196
-76.437
-78.582
-80.617
-82.524
-84.285
-85.88
-87.289
-88.496
-89.487
-90.248
-90.771
-91.048
-91.075
-90.852
-90.378
-89.654
-88.681
-87.461
-85.997
-84.296
-82.362
-80.203
-77.828
-75.249
-72.476
-69.524
-66.409
-63.145
-59.749
-56.238
-52.63
-48.944
-45.199
-41.413
-37.604
-33.793
-29.997
-26.235
-22.524
-18.882
-15.324
-11.865
-8.521
-5.303
-2.224
0.706
3.477
6.08
8.51
10.76
12.825
14.702
16.388
17.881
19.181
20.288
21.205
21.932
22.474
22.834
23.015
23.021
22.856
22.523
22.027
21.372
20.562
19.603
18.498
17.254
15.877
14.372
12.745
10.998
9.135
7.158
5.068
2.868
0.559
-1.857
-4.379
-7
-9.718
-12.526
-15.425
-18.421
-21.515
-24.71
-28.002
-31.385
-34.849
-38.382
-41.961
-45.555
-49.133
-52.66
-56.113
-59.474
-62.725
-65.848
-68.814
-71.584
-74.133
-76.437
-78.489
-80.289
-81.842
-83.176
-84.349
-85.454
-86.583
-87.823
-89.244
-90.909
-92.897
-95.291
-98.187
-101.668
-105.804
-110.686
-116.331
-122.701
-129.683
-137.012
-144.338
-151.3
-157.482
-162.443
-165.922
-167.726
-167.845
-166.678
-164.655
-162.248
-160.013
-158.271
-157.252
-157.214
-157.956
-158.638
-157.619
-152.415
-140.984
-122.313
-97.182
-67.491
-33.431
6.274
54.908
115.883
188.195
267.888
348.454
422.411
485.025
531.396
555.961
552.793
514.97
439.924
329.979
192.039
38.637
-116.596
-259.672
-377.468
-462.575
-514.382
-537.597
-540.408
-529.413
-505.688
-469.355
-422.148
-368.962
-318.856
-278.251
-248.32
-226.054
-206.473
-187.375
-169.915
-156.893
-150.19
-149.281
-151.926
-155.352
-157.678
-157.995
-156.159
-152.551
-147.558
-141.677
-135.59
-129.957
-125.479
-122.848
-122.31
-123.769
-126.986
-131.534
-136.979
-142.938
-148.91
-154.369
-158.985
-162.581
-165.093
-166.568
-167.027
-166.465
-164.936
-162.532
-159.351
-155.496
-151.043
-146.063
-140.644
-134.898
-128.962
-122.963
-116.986
-111.092
-105.314
-99.675
-94.201
-88.903
-83.773
-78.793
-73.94
-69.194
-64.546
-59.98
-55.476
-51.004
-46.528
-42.025
-37.485
-32.906
-28.293
-23.657
-19.005
-14.353
-9.723
-5.139
-0.618
3.824
8.178
12.431
16.57
20.579
24.445
28.157
31.71
35.095
38.309
41.348
44.211
46.9
49.418
51.77
53.959
55.988
57.863
59.589
61.172
62.62
63.939
65.138
66.226
67.214
68.112
68.932
69.683
70.378
71.026
71.638
72.224
72.793
73.353
73.913
74.479
75.058
75.654
76.273
76.916
77.586
78.282
79.004
79.75
80.516
81.297
82.086
82.878
83.662
84.431
85.173
85.877
86.533
87.127
87.648
88.082
88.416
88.638
88.734
88.691
88.497
88.142
87.613
86.902
86
84.898
83.591
82.073
80.34
78.39
76.221
73.834
71.23
68.412
65.385
62.157
58.734
55.127
51.347
47.405
43.317
39.096
34.757
30.319
25.797
21.21
16.575
11.912
7.238
2.572
-2.067
-6.663
-11.197
-15.653
-20.015
-24.269
-28.399
-32.393
-36.24
-39.928
-43.447
-46.79
-49.948
-52.914
-55.685
-58.257
-60.627
-62.794
-64.76
-66.524
-68.091
-69.465
-70.651
-71.654
-72.482
-73.142
-73.642
-73.991
-74.196
-74.267
-74.212
-74.04
-73.759
-73.378
-72.905
-72.346
-71.707
-70.996
-70.216
-69.372
-68.467
-67.504
-66.485
-65.41
-64.281
-63.096
-61.856
-60.557
-59.197
-57.773
-56.28
-54.714
-53.069
-51.338
-49.516
-47.595
-45.569
-43.432
-41.176
-38.797
-36.292
-33.656
-30.888
-27.984
-24.945
-21.768
-18.454
-15.003
-11.413
-7.684
-3.82
0.177
4.301
8.544
12.902
17.367
21.93
26.585
31.32
36.128
41.003
45.938
50.921
55.934
60.952
65.951
70.919
75.841
80.707
85.509
90.24
94.905
99.522
104.111
108.687
113.261
117.834
122.411
127.011
131.662
136.399
141.249
146.215
151.284
156.451
161.697
166.987
172.267
177.436
182.379
187
191.208
194.913
198.041
200.478
202.067
202.709
202.355
201.052
198.989
196.346
193.268
189.988
186.8
183.937
181.6
179.746
177.947
175.806
173.007
169.232
164.36
158.434
151.537
144.178
137.519
132.886
131.697
135.301
144.689
160.793
184.539
216.485
255.635
299.482
345.37
390.596
435.032
481.112
528.67
575.686
615.77
637.096
632.017
596.703
533.492
454.615
371.731
295.41
232.266
180.007
135.196
92.734
49.217
5.881
-37.256
-78.138
-115.97
-152.357
-185.392
-214.751
-239.936
-258.711
-272.643
-283.007
-290.2
-295.974
-300.215
-302.224
-302.308
-300.239
-295.697
-288.938
-280.024
-268.912
-256.132
-242.285
-227.817
-213.546
-200.437
-188.964
-179.366
-171.614
-165.177
-159.654
-154.857
-150.37
-145.698
-140.573
-134.884
-128.806
-122.833
-117.266
-112.189
-107.714
-103.96
-101.009
-98.936
-97.679
-96.996
-96.709
-96.729
-96.962
-97.351
-97.823
-98.252
-98.528
-98.611
-98.474
-98.104
-97.509
-96.656
-95.512
-94.061
-92.291
-90.201
-87.807
-85.116
-82.143
-78.921
-75.497
-71.938
-68.331
-64.733
-61.172
-57.665
-54.203
-50.782
-47.403
-44.05
-40.7
-37.33
-33.918
-30.449
-26.913
-23.29
-19.549
-15.655
-11.562
-7.239
-2.666
2.171
7.278
12.657
18.309
24.225
30.39
36.792
43.42
50.266
57.327
64.594
72.052
79.688
87.486
95.427
103.498
111.68
119.956
128.308
136.718
145.167
153.641
162.121
170.584
179.01
187.374
195.652
203.819
211.849
219.716
227.392
234.853
242.071
249.022
255.679
262.018
268.013
273.64
278.874
283.693
288.072
291.988
295.421
298.349
300.753
302.615
303.918
304.648
304.791
304.337
303.277
301.605
299.315
296.406
292.879
288.737
283.986
278.635
272.695
266.182
259.111
251.503
243.379
234.765
225.687
216.174
206.256
195.967
185.341
174.415
163.225
151.811
140.214
128.473
116.632
104.733
92.817
80.927
69.107
57.396
45.837
34.469
23.331
12.461
1.894
-8.337
-18.2
-27.665
-36.706
-45.3
-53.424
-61.06
-68.193
-74.81
-80.901
-86.459
-91.48
-95.963
-99.91
-103.324
-106.214
-108.587
-110.457
-111.837
-112.745
-113.197
-113.216
-112.821
-112.038
-110.891
-109.406
-107.61
-105.53
-103.195
-100.633
-97.872
-94.941
-91.867
-88.679
-85.402
-82.064
-78.687
-75.296
-71.912
-68.557
-65.249
-62.006
-58.844
-55.777
-52.818
-49.978
-47.266
-44.689
-42.254
-39.965
-37.824
-35.834
-33.993
-32.301
-30.754
-29.349
-28.08
-26.942
-25.928
-25.031
-24.24
-23.549
-22.947
-22.426
-21.974
-21.583
-21.244
-20.946
-20.681
-20.44
-20.215
-20
-19.786
-19.568
-19.341
-19.099
-18.84
-18.559
-18.255
-17.926
-17.571
-17.189
-16.782
-16.35
-15.896
-15.421
-14.928
-14.422
-13.904
-13.381
-12.855
-12.332
-11.816
-11.314
-10.829
-10.367
-9.933
-9.532
-9.168
-8.847
-8.57
-8.344
-8.169
-8.05
-7.988
-7.985
-8.042
-8.16
-8.339
-8.578
-8.877
-9.234
-9.648
-10.116
-10.636
-11.205
-11.821
-12.48
-13.178
-13.913
-14.681
-15.478
-16.3
-17.144
-18.007
-18.884
-19.772
-20.669
-21.57
-22.474
-23.377
-24.277
-25.174
-26.064
-26.947
-27.822
-28.689
-29.547
-30.397
-31.241
-32.078
-32.91
-33.74
-34.568
-35.397
-36.229
-37.067
-37.912
-38.768
-39.636
-40.519
-41.418
-42.337
-43.276
-44.237
-45.223
-46.233
-47.27
-48.333
-49.424
-50.542
-51.688
-52.861
-54.061
-55.287
-56.537
-57.811
-59.107
-60.422
-61.754
-63.101
-64.46
-65.828
-67.201
-68.577
-69.952
-71.322
-72.684
-74.035
-75.371
-76.69
-77.987
-79.261
-80.508
-81.727
-82.915
-84.07
-85.192
-86.278
-87.329
-88.344
-89.322
-90.264
-91.17
-92.041
-92.877
-93.679
-94.449
-95.188
-95.897
-96.578
-97.233
-97.864
-98.473
-99.063
-99.635
-100.192
-100.735
-101.267
-101.789
-102.303
-102.81
-103.312
-103.809
-104.302
-104.791
-105.277
-105.758
-106.233
-106.7
-107.157
-107.602
-108.031
-108.44
-108.826
-109.183
-109.508
-109.795
-110.039
-110.235
-110.376
-110.457
-110.472
-110.414
-110.278
-110.056
-109.742
-109.331
-108.816
-108.193
-107.456
-106.6
-105.621
-104.515
-103.279
-101.911
-100.408
-98.768
-96.991
-95.076
-93.026
-90.843
-88.53
-86.091
-83.531
-80.858
-78.079
-75.203
-72.239
-69.196
-66.087
-62.923
-59.717
-56.484
-53.237
-49.991
-46.763
-43.572
-40.434
-37.367
-34.389
-31.516
-28.767
-26.158
-23.705
-21.421
-19.319
-17.41
-15.71
-14.229
-12.981
-11.973
-11.215
-10.712
-10.469
-10.49
-10.774
-11.312
-12.098
-13.124
-14.384
-15.878
-17.6
-19.537
-21.677
-24.003
-26.492
-29.121
-31.856
-34.652
-37.466
-40.26
-43
-45.664
-48.222
-50.642
-52.892
-54.932
-56.728
-58.267
-59.524
-60.479
-61.147
-61.544
-61.715
-61.738
-61.668
-61.557
-61.481
-61.495
-61.671
-62.096
-62.817
-63.902
-65.444
-67.467
-69.963
-72.858
-75.908
-78.835
-81.384
-83.213
-83.974
-83.433
-81.411
-77.99
-73.624
-68.811
-64.089
-59.971
-56.855
-55.201
-55.243
-56.601
-58.468
-59.111
-56.47
-49.676
-37.523
-19.788
3.297
34.261
74.359
124.201
183.153
245.329
304.867
357.543
401.176
437.115
465.774
483.307
481.276
449.465
379.415
268.969
125.074
-38.763
-203.59
-350.213
-464.99
-540.37
-578.349
-585.585
-568.305
-534.469
-488.644
-436.307
-386.788
-344.654
-312.793
-290.099
-269.202
-246.76
-222.288
-197.073
-176.062
-161.176
-151.424
-145.29
-139.745
-132.794
-123.97
-113.198
-101.015
-88.11
-74.99
-62.218
-50.462
-40.388
-32.633
-27.52
-24.974
-24.74
-26.438
-29.66
-34.051
-39.202
-44.616
-49.914
-54.837
-59.181
-62.875
-65.881
-68.132
-69.631
-70.42
-70.532
-70.042
-69.031
-67.559
-65.716
-63.593
-61.266
-58.853
-56.467
-54.213
-52.208
-50.526
-49.203
-48.272
-47.737
-47.586
-47.8
-48.34
-49.149
-50.182
-51.39
-52.727
-54.157
-55.626
-57.081
-58.467
-59.727
-60.816
-61.704
-62.361
-62.768
-62.91
-62.776
-62.362
-61.673
-60.706
-59.459
-57.929
-56.109
-53.997
-51.595
-48.906
-45.932
-42.679
-39.15
-35.351
-31.288
-26.97
-22.403
-17.595
-12.555
-7.293
-1.822
3.843
9.686
15.69
21.836
28.107
34.482
40.943
47.468
54.038
60.634
67.236
73.823
80.374
86.868
93.286
99.607
105.81
111.875
117.782
123.513
129.048
134.369
139.461
144.306
148.89
153.199
157.221
160.943
164.356
167.452
170.222
172.661
174.766
176.531
177.957
179.042
179.788
180.197
180.272
180.019
179.444
178.553
177.356
175.862
174.082
172.027
169.712
167.15
164.356
161.347
158.139
154.75
151.197
147.498
143.673
139.74
135.718
131.626
127.481
123.302
119.106
114.91
110.731
106.583
102.482
98.441
94.473
90.59
86.805
83.126
79.564
76.127
72.822
69.654
66.631
63.754
61.028
58.454
56.033
53.764
51.648
49.681
47.862
46.186
44.649
43.246
41.972
40.819
39.781
38.852
38.025
37.292
36.646
36.081
35.589
35.165
34.802
34.494
34.235
34.019
33.842
33.697
33.58
33.487
33.414
33.356
33.312
33.277
33.25
33.227
33.208
33.19
33.172
33.151
33.127
33.1
33.067
33.029
32.986
32.936
32.88
32.816
32.744
32.662
32.569
32.461
32.336
32.19
32.018
31.814
31.573
31.289
30.956
30.566
30.113
29.589
28.99
28.31
27.542
26.681
25.717
24.646
23.459
22.149
20.711
19.139
17.428
15.576
13.582
11.445
9.167
6.745
4.17
1.44
-1.445
-4.484
-7.666
-10.977
-14.399
-17.903
-21.449
-25.001
-28.517
-31.965
-35.318
-38.545
-41.615
-44.491
-47.122
-49.467
-51.492
-53.167
-54.478
-55.433
-56.051
-56.379
-56.503
-56.498
-56.436
-56.397
-56.439
-56.626
-57.042
-57.764
-58.869
-60.454
-62.616
-65.389
-68.751
-72.573
-76.605
-80.596
-84.285
-87.33
-89.395
-90.282
-89.875
-88.307
-86.015
-83.296
-80.369
-77.585
-75.062
-72.665
-70.403
-67.893
-63.993
-57.872
-48.122
-32.335
-9.916
18.91
53.42
89.893
126.685
165.598
208.221
259.011
320.403
387.615
453.646
508.781
542.794
551.112
533.718
492.449
431.519
357.16
274.382
190.269
113.613
47.803
-6.239
-51.443
-95.577
-142.513
-192.75
-243.955
-290.374
-328.896
-359.144
-382.416
-401.922
-418.492
-431.169
-438.779
-438.764
-432.094
-422.809
-414.655
-412.558
-416.879
-423.108
-427.249
-424.865
-415.148
-401.543
-386.311
-371.246
-356.932
-342.069
-326.544
-310.925
-295.419
-280.42
-266.009
-251.925
-238.235
-225.161
-212.656
-200.658
-189.168
-178.155
-167.707
-157.963
-148.919
-140.513
-132.741
-125.597
-119.11
-113.351
-108.328
-104.025
-100.413
-97.418
-94.981
-93.052
-91.549
-90.384
-89.457
-88.645
-87.875
-87.121
-86.351
-85.545
-84.675
-83.691
-82.57
-81.31
-79.912
-78.399
-76.787
-75.084
-73.322
-71.541
-69.796
-68.155
-66.65
-65.282
-64.043
-62.915
-61.877
-60.911
-59.984
-59.049
-58.061
-56.979
-55.763
-54.382
-52.793
-50.943
-48.779
-46.241
-43.285
-39.879
-36
-31.628
-26.752
-21.361
-15.456
-9.047
-2.14
5.259
13.144
21.512
30.35
39.642
49.37
59.511
70.045
80.946
92.19
103.749
115.595
127.698
140.031
152.564
165.264
178.098
191.029
204.018
217.027
230.017
242.947
255.775
268.462
280.966
293.248
305.27
316.994
328.382
339.399
350.009
360.179
369.877
379.072
387.734
395.836
403.353
410.262
416.542
422.174
427.143
431.434
435.036
437.94
440.141
441.633
442.417
442.494
441.868
440.546
438.537
435.854
432.513
428.529
423.923
418.717
412.934
406.599
399.74
392.386
384.566
376.312
367.656
358.631
349.271
339.611
329.686
319.532
309.184
298.677
288.048
277.332
266.562
255.774
245.001
234.275
223.629
213.094
202.699
192.473
182.443
172.635
163.072
153.778
144.773
136.076
127.705
119.675
112
104.691
97.76
91.216
85.064
79.31
73.958
69.011
64.467
60.328
56.589
53.248
50.298
47.735
45.549
43.731
42.273
41.162
40.386
39.932
39.785
39.931
40.353
41.036
41.96
43.109
44.465
46.009
47.721
49.584
51.578
53.684
55.883
58.156
60.484
62.85
65.236
67.623
69.995
72.336
74.629
76.861
79.015
81.08
83.043
84.89
86.613
88.2
89.643
90.934
92.067
93.035
93.834
94.461
94.915
95.192
95.295
95.224
94.982
94.571
93.997
93.263
92.377
91.346
90.175
88.875
87.453
85.918
84.28
82.548
80.733
78.845
76.893
74.888
72.839
70.756
68.649
66.528
64.4
62.274
60.16
58.063
55.992
53.953
51.951
49.993
48.081
46.221
44.415
42.666
40.976
39.345
37.774
36.262
34.809
33.413
32.073
30.786
29.549
28.36
27.215
26.111
25.045
24.012
23.009
22.032
21.079
20.145
19.227
18.323
17.428
16.541
15.658
14.777
13.896
13.014
12.127
11.235
10.336
9.431
8.517
7.594
6.664
5.724
4.777
3.822
2.859
1.891
0.918
-0.06
-1.04
-2.023
-3.006
-3.988
-4.969
-5.948
-6.923
-7.895
-8.861
-9.822
-10.777
-11.726
-12.669
-13.604
-14.533
-15.454
-16.368
-17.273
-18.171
-19.061
-19.943
-20.816
-21.68
-22.535
-23.381
-24.216
-25.042
-25.856
-26.659
-27.45
-28.228
-28.992
-29.742
-30.476
-31.193
-31.892
-32.572
-33.231
-33.869
-34.483
-35.072
-35.636
-36.173
-36.681
-37.16
-37.61
-38.029
-38.417
-38.774
-39.099
-39.394
-39.659
-39.893
-40.099
-40.278
-40.43
-40.557
-40.661
-40.743
-40.807
-40.853
-40.884
-40.902
-40.91
-40.909
-40.903
-40.895
-40.886
-40.879
-40.877
-40.882
-40.897
-40.922
-40.961
-41.013
-41.082
-41.166
-41.268
-41.386
-41.521
-41.671
-41.836
-42.014
-42.202
-42.398
-42.599
-42.803
-43.005
-43.202
-43.391
-43.568
-43.728
-43.869
-43.985
-44.074
-44.131
-44.152
-44.132
-44.068
-43.955
-43.791
-43.57
-43.291
-42.949
-42.543
-42.07
-41.53
-40.919
-40.239
-39.487
-38.666
-37.775
-36.816
-35.791
-34.704
-33.559
-32.359
-31.11
-29.818
-28.489
-27.128
-25.744
-24.342
-22.93
-21.515
-20.105
-18.708
-17.332
-15.988
-14.685
-13.437
-12.251
-11.14
-10.114
-9.182
-8.353
-7.634
-7.03
-6.545
-6.186
-5.957
-5.862
-5.905
-6.087
-6.407
-6.868
-7.467
-8.2
-9.061
-10.039
-11.126
-12.318
-13.614
-15.018
-16.529
-18.141
-19.847
-21.641
-23.512
-25.444
-27.414
-29.38
-31.311
-33.176
-34.946
-36.6
-38.112
-39.443
-40.562
-41.432
-42.022
-42.321
-42.329
-42.042
-41.477
-40.662
-39.642
-38.517
-37.39
-36.362
-35.548
-35.034
-34.929
-35.393
-36.527
-38.371
-40.891
-43.896
-47.165
-50.521
-53.7
-56.362
-58.277
-59.276
-59.439
-59.227
-59.12
-59.56
-61.062
-64.083
-68.899
-75.57
-83.61
-91.883
-99.074
-103.709
-104.066
-98.467
-85.389
-63.496
-32.065
8.761
58.559
115.5
175.727
235.331
290.121
337.844
380.462
418.602
450.097
469.122
462.705
419.773
336.262
213.407
63.571
-96.6
-253.274
-391.107
-500.958
-579.885
-625.171
-640.84
-631.756
-600.211
-552.798
-494.682
-432.276
-376.007
-330.636
-298.19
-277.529
-262.055
-248.825
-237.332
-227.906
-223.579
-224.689
-229.039
-234.363
-237.689
-237.217
-232.981
-225.462
-215.428
-203.841
-191.576
-179.503
-168.575
-159.606
-152.9
-148.418
-145.943
-145.085
-145.505
-146.91
-148.925
-151.175
-153.418
-155.508
-157.38
-159.023
-160.373
-161.362
-161.971
-162.203
-162.099
-161.699
-161.034
-160.131
-159.019
-157.728
-156.3
-154.778
-153.202
-151.62
-150.076
-148.624
-147.343
-146.289
-145.496
-144.98
-144.728
-144.718
-144.932
-145.342
-145.911
-146.607
-147.398
-148.255
-149.16
-150.086
-151.004
-151.877
-152.659
-153.312
-153.808
-154.124
-154.245
-154.162
-153.861
-153.339
-152.6
-151.646
-150.477
-149.09
-147.478
-145.638
-143.573
-141.283
-138.774
-136.05
-133.115
-129.974
-126.634
-123.102
-119.385
-115.489
-111.42
-107.184
-102.792
-98.255
-93.585
-88.795
-83.896
-78.904
-73.833
-68.699
-63.516
-58.3
-53.064
-47.826
-42.599
-37.401
-32.246
-27.151
-22.131
-17.202
-12.381
-7.684
-3.128
1.272
5.5
9.541
13.378
16.998
20.387
23.531
26.417
29.034
31.371
33.418
35.166
36.606
37.733
38.541
39.024
39.181
39.01
38.51
37.682
36.528
35.051
33.258
31.152
28.743
26.039
23.05
19.787
16.264
12.495
8.494
4.279
-0.132
-4.721
-9.469
-14.355
-19.357
-24.455
-29.626
-34.848
-40.099
-45.356
-50.597
-55.801
-60.945
-66.008
-70.97
-75.81
-80.508
-85.047
-89.408
-93.575
-97.532
-101.266
-104.762
-108.008
-110.994
-113.711
-116.148
-118.3
-120.161
-121.726
-122.992
-123.957
-124.622
-124.988
-125.056
-124.83
-124.316
-123.518
-122.443
-121.099
-119.492
-117.634
-115.531
-113.195
-110.636
-107.866
-104.896
-101.738
-98.405
-94.909
-91.263
-87.48
-83.572
-79.554
-75.436
-71.234
-66.959
-62.626
-58.247
-53.835
-49.404
-44.967
-40.535
-36.122
-31.74
-27.401
-23.116
-18.896
-14.754
-10.702
-6.752
-2.914
0.799
4.374
7.798
11.059
14.143
17.04
19.737
22.221
24.483
26.511
28.298
29.835
31.115
32.129
32.87
33.331
33.506
33.39
32.979
32.271
31.264
29.961
28.368
26.49
24.335
21.908
19.209
16.242
13.019
9.554
5.863
1.97
-2.096
-6.296
-10.579
-14.895
-19.194
-23.435
-27.584
-31.603
-35.449
-39.076
-42.429
-45.462
-48.141
-50.431
-52.307
-53.761
-54.807
-55.49
-55.89
-56.082
-56.123
-56.075
-55.985
-55.915
-55.942
-56.14
-56.571
-57.308
-58.44
-60.024
-62.065
-64.461
-66.966
-69.282
-71.092
-72.051
-71.782
-69.985
-66.512
-61.488
-55.372
-48.711
-42.018
-35.813
-30.589
-26.689
-24.136
-22.339
-20.057
-15.807
-7.989
5.1
25.162
53.902
92.022
138.354
190.876
247.176
305.975
368.575
435.157
502.8
565.643
613.157
635.08
626.801
587.549
522.922
444.114
360.864
282.776
216.376
160.818
112.811
66.835
17.67
-35.156
-89.453
-141.321
-187.412
-226.774
-260.003
-288.609
-313.411
-334.41
-351.516
-364.729
-374.524
-381.545
-386.151
-388.408
-388.299
-385.834
-381.01
-373.633
-363.458
-350.37
-334.424
-316.109
-296.047
-274.647
-252.37
-229.836
-207.563
-186.083
-165.842
-146.72
-128.566
-111.494
-95.533
-80.694
-67.013
-54.291
-42.338
-31.381
-21.589
-12.972
-5.551
0.812
6.237
10.643
13.969
16.323
17.844
18.712
19.107
19.09
18.736
18.174
17.546
16.999
16.621
16.43
16.416
16.567
16.892
17.419
18.156
19.084
20.172
21.367
22.632
23.95
25.276
26.551
27.705
28.649
29.339
29.776
29.966
29.934
29.707
29.303
28.76
28.132
27.469
26.819
26.226
25.726
25.365
25.202
25.297
25.718
26.517
27.729
29.385
31.505
34.106
37.207
40.817
44.939
49.575
54.722
60.376
66.528
73.165
80.263
87.786
95.689
103.93
112.471
121.281
130.336
139.603
149.044
158.615
168.276
178
187.775
197.59
207.441
217.339
227.313
237.414
247.711
258.245
269.04
280.101
291.421
302.997
314.835
326.933
339.275
351.824
364.516
377.282
390.028
402.623
414.9
426.641
437.62
447.657
456.6
464.316
470.688
475.596
478.929
480.606
480.567
478.771
475.206
469.88
462.848
454.226
444.191
432.985
420.858
408.022
394.687
381.056
367.339
353.755
340.504
327.746
315.631
304.314
293.928
284.587
276.355
269.233
263.175
258.081
253.846
250.378
247.567
245.291
243.413
241.778
240.256
238.753
237.17
235.398
233.339
230.907
228.046
224.741
221.008
216.88
212.393
207.586
202.507
197.21
191.782
186.32
180.868
175.45
170.099
164.841
159.733
154.846
150.176
145.686
141.459
137.596
134.027
130.748
127.759
124.807
122.469
121.304
120.442
119.614
117.251
111.483
104.362
97.257
92.214
92.05
94.289
96.825
98.218
96.087
92.138
88.104
84.375
82.007
80.391
78.741
77.205
75.681
74.216
72.965
71.815
70.674
69.561
68.476
67.4
66.33
65.264
64.199
63.143
62.108
61.079
60.044
58.996
57.929
56.836
55.713
54.552
53.345
52.09
50.783
49.421
48.004
46.529
44.994
43.401
41.749
40.039
38.275
36.458
34.593
32.682
30.732
28.747
26.733
24.696
22.642
20.577
18.508
16.441
14.382
12.339
10.317
8.322
6.361
4.439
2.562
0.735
-1.038
-2.753
-4.407
-5.996
-7.52
-8.976
-10.366
-11.69
-12.95
-14.146
-15.283
-16.364
-17.393
-18.374
-19.313
-20.216
-21.088
-21.937
-22.77
-23.592
-24.412
-25.237
-26.074
-26.93
-27.812
-28.727
-29.681
-30.68
-31.73
-32.836
-34.003
-35.236
-36.537
-37.909
-39.354
-40.874
-42.469
-44.139
-45.881
-47.695
-49.576
-51.522
-53.528
-55.588
-57.697
-59.849
-62.036
-64.251
-66.486
-68.733
-70.982
-73.226
-75.454
-77.658
-79.829
-81.957
-84.035
-86.052
-88.001
-89.873
-91.661
-93.358
-94.956
-96.449
-97.832
-99.099
-100.246
-101.27
-102.167
-102.935
-103.572
-104.078
-104.452
-104.696
-104.81
-104.798
-104.661
-104.404
-104.031
-103.547
-102.959
-102.271
-101.49
-100.624
-99.681
-98.667
-97.591
-96.461
-95.285
-94.071
-92.827
-91.562
-90.283
-88.998
-87.714
-86.439
-85.18
-83.945
-82.739
-81.569
-80.443
-79.365
-78.344
-77.383
-76.49
-75.668
-74.922
-74.257
-73.676
-73.182
-72.779
-72.468
-72.251
-72.13
-72.105
-72.178
-72.347
-72.613
-72.975
-73.433
-73.986
-74.632
-75.371
-76.202
-77.123
-78.133
-79.231
-80.415
-81.683
-83.032
-84.459
-85.96
-87.531
-89.164
-90.853
-92.591
-94.372
-96.185
-98.024
-99.879
-101.743
-103.611
-105.476
-107.329
-109.16
-110.959
-112.715
-114.42
-116.06
-117.622
-119.09
-120.451
-121.693
-122.807
-123.783
-124.605
-125.249
-125.692
-125.915
-125.91
-125.667
-125.182
-124.454
-123.488
-122.303
-120.931
-119.4
-117.729
-115.93
-114.002
-111.951
-109.8
-107.578
-105.314
-103.03
-100.718
-98.349
-95.906
-93.355
-90.649
-87.743
-84.543
-80.927
-76.888
-72.494
-67.823
-62.989
-57.982
-52.655
-46.989
-41.104
-34.991
-28.572
-21.746
-14.323
-6.478
1.203
8.31
14.636
19.883
23.772
25.948
25.843
23.379
19.037
13.147
5.938
-2.313
-11.428
-21.067
-30.603
-39.758
-48.653
-57.299
-65.71
-73.876
-81.625
-88.91
-95.84
-102.368
-108.326
-113.605
-118.086
-121.727
-124.622
-126.857
-128.53
-129.797
-130.797
-131.644
-132.448
-133.289
-134.226
-135.333
-136.666
-138.252
-140.137
-142.388
-145.02
-147.99
-151.129
-154.085
-156.464
-157.904
-158
-156.374
-152.777
-147.068
-139.436
-130.494
-120.866
-111.214
-102.276
-94.54
-88.341
-83.985
-81.024
-78.227
-74.435
-67.364
-54.602
-35.4
-8.24
26.941
68.864
119.211
177.782
243.182
314.337
384.696
448.706
503.958
547.423
579.795
599.253
598.048
568.294
501.533
394.299
253.122
90.533
-76.055
-227.444
-349.965
-436.199
-484.53
-500.899
-491.96
-462.217
-417.605
-361.691
-299.523
-240.241
-188.696
-147.418
-115.998
-88.771
-63.113
-38.912
-16.988
-0.427
10.084
15.94
19.052
22.102
26.662
33.261
41.89
51.866
62.506
73.262
83.405
92.297
99.342
103.894
105.784
105.191
102.399
97.859
91.995
85.161
77.818
70.462
63.43
56.962
51.181
46.076
41.665
37.953
34.895
32.435
30.494
28.982
27.831
26.973
26.34
25.865
25.446
24.977
24.356
23.478
22.272
20.71
18.766
16.44
13.751
10.724
7.4
3.839
0.089
-3.802
-7.79
-11.838
-15.899
-19.918
-23.844
-27.62
-31.202
-34.562
-37.672
-40.511
-43.069
-45.333
-47.303
-48.983
-50.373
-51.472
-52.277
-52.783
-52.989
-52.897
-52.51
-51.831
-50.865
-49.617
-48.091
-46.296
-44.238
-41.924
-39.363
-36.562
-33.53
-30.28
-26.825
-23.181
-19.362
-15.386
-11.268
-7.027
-2.682
1.751
6.253
10.807
15.395
19.999
24.602
29.185
33.731
38.223
42.642
46.971
51.194
55.294
59.254
63.059
66.695
70.147
73.404
76.452
79.281
81.882
84.245
86.365
88.234
89.849
91.206
92.304
93.142
93.721
94.045
94.115
93.939
93.52
92.868
91.99
90.896
89.596
88.102
86.426
84.582
82.584
80.447
78.188
75.823
73.369
70.843
68.264
65.648
63.014
60.38
57.763
55.179
52.646
50.178
47.79
45.497
43.311
41.244
39.305
37.505
35.85
34.347
33.001
31.815
30.793
29.933
29.236
28.699
28.32
28.093
28.011
28.07
28.258
28.569
28.99
29.511
30.12
30.804
31.55
32.344
33.172
34.019
34.872
35.715
36.535
37.317
38.05
38.72
39.316
39.828
40.244
40.556
40.756
40.837
40.794
40.621
40.315
39.873
39.296
38.583
37.735
36.756
35.648
34.417
33.067
31.606
30.04
28.377
26.626
24.797
22.898
20.939
18.933
16.889
14.817
12.728
10.633
8.541
6.46
4.397
2.357
0.348
-1.628
-3.564
-5.46
-7.311
-9.115
-10.868
-12.568
-14.213
-15.806
-17.347
-18.842
-20.293
-21.703
-23.077
-24.421
-25.739
-27.035
-28.31
-29.565
-30.804
-32.036
-33.276
-34.538
-35.826
-37.143
-38.489
-39.859
-41.246
-42.632
-43.985
-45.275
-46.471
-47.547
-48.488
-49.275
-49.881
-50.272
-50.403
-50.241
-49.769
-48.975
-47.863
-46.451
-44.764
-42.858
-40.82
-38.75
-36.752
-34.927
-33.358
-32.141
-31.367
-31.152
-31.639
-32.903
-34.944
-37.702
-41.024
-44.75
-48.749
-52.773
-56.476
-59.651
-62.188
-64.099
-65.632
-66.973
-68.182
-69.472
-71.015
-72.612
-74.033
-74.994
-74.834
-72.942
-68.046
-57.926
-41.276
-18.079
9.654
38.487
67.522
98.309
134.579
180.905
237.166
300.185
365.248
424.94
474.126
508.407
521.915
512.512
479.536
423.737
350.7
266.231
176.552
89.664
10.665
-58.318
-118.053
-173.083
-227.327
-281.68
-334.256
-381.132
-419.571
-449.176
-471.309
-488.314
-501.728
-512.358
-520.917
-527.634
-532.695
-536.315
-538.239
-538.099
-535.608
-530.314
-521.827
-510.118
-495.343
-477.802
-458.005
-436.471
-413.723
-390.384
-367.01
-343.974
-321.536
-299.872
-279.149
-259.564
-241.29
-224.452
-209.12
-195.36
-183.256
-172.893
-164.285
-157.384
-152.072
-148.191
-145.638
-144.326
-144.154
-145.007
-146.71
-149.071
-151.927
-155.128
-158.514
-161.92
-165.166
-168.07
-170.529
-172.49
-173.934
-174.875
-175.309
-175.223
-174.636
-173.582
-172.115
-170.3
-168.187
-165.813
-163.241
-160.543
-157.801
-155.098
-152.47
-149.92
-147.437
-144.989
-142.548
-140.082
-137.542
-134.868
-132.004
-128.896
-125.497
-121.766
-117.652
-113.096
-108.041
-102.429
-96.218
-89.383
-81.908
-73.783
-65.006
-55.579
-45.51
-34.815
-23.507
-11.607
0.863
13.878
27.404
41.399
55.814
70.591
85.674
101.01
116.549
132.246
148.058
163.942
179.854
195.749
211.591
227.357
243.031
258.602
274.067
289.419
304.666
319.829
334.917
349.927
364.846
379.641
394.276
408.703
422.869
436.719
450.175
463.138
475.494
487.115
497.875
507.66
516.344
523.791
529.888
534.547
537.703
539.322
539.386
537.897
534.872
530.345
524.381
517.073
508.539
498.922
488.361
476.984
464.93
452.345
439.36
426.093
412.639
399.072
385.457
371.853
358.309
344.863
331.536
318.331
305.237
292.224
279.274
266.379
253.531
240.721
227.951
215.225
202.564
190.001
177.567
165.291
153.201
141.327
129.704
118.369
107.365
96.737
86.518
76.735
67.41
58.558
50.188
42.305
34.906
27.978
21.508
15.485
9.898
4.734
-0.022
-4.389
-8.386
-12.034
-15.352
-18.36
-21.077
-23.523
-25.717
-27.675
-29.415
-30.953
-32.302
-33.482
-34.508
-35.398
-36.167
-36.833
-37.408
-37.91
-38.35
-38.741
-39.093
-39.416
-39.718
-40.006
-40.287
-40.566
-40.846
-41.132
-41.427
-41.731
-42.047
-42.375
-42.715
-43.066
-43.427
-43.797
-44.173
-44.554
-44.937
-45.319
-45.699
-46.072
-46.436
-46.787
-47.123
-47.441
-47.736
-48.006
-48.247
-48.457
-48.632
-48.77
-48.87
-48.928
-48.944
-48.918
-48.847
-48.732
-48.573
-48.371
-48.125
-47.837
-47.508
-47.14
-46.735
-46.295
-45.822
-45.32
-44.791
-44.239
-43.668
-43.081
-42.481
-41.872
-41.259
-40.645
-40.035
-39.432
-38.84
-38.264
-37.709
-37.178
-36.677
-36.209
-35.779
-35.391
-35.05
-34.759
-34.522
-34.344
-34.227
-34.175
-34.191
-34.279
-34.44
-34.678
-34.993
-35.388
-35.863
-36.42
-37.058
-37.776
-38.576
-39.455
-40.412
-41.447
-42.556
-43.738
-44.989
-46.307
-47.689
-49.131
-50.628
-52.176
-53.77
-55.406
-57.078
-58.78
-60.507
-62.252
-64.01
-65.775
-67.54
-69.298
-71.044
-72.772
-74.475
-76.148
-77.786
-79.382
-80.933
-82.434
-83.881
-85.27
-86.599
-87.863
-89.062
-90.192
-91.252
-92.241
-93.158
-94.002
-94.773
-95.472
-96.097
-96.651
-97.134
-97.547
-97.892
-98.17
-98.382
-98.53
-98.615
-98.64
-98.605
-98.513
-98.364
-98.158
-97.898
-97.582
-97.21
-96.783
-96.298
-95.754
-95.15
-94.481
-93.746
-92.94
-92.06
-91.101
-90.059
-88.928
-87.703
-86.379
-84.95
-83.412
-81.757
-79.982
-78.081
-76.049
-73.882
-71.576
-69.127
-66.533
-63.792
-60.901
-57.861
-54.673
-51.337
-47.857
-44.236
-40.48
-36.593
-32.585
-28.464
-24.239
-19.923
-15.527
-11.065
-6.554
-2.008
2.555
7.118
11.66
16.163
20.607
24.971
29.235
33.378
37.379
41.218
44.874
48.327
51.559
54.551
57.284
59.744
61.913
63.78
65.331
66.555
67.444
67.99
68.187
68.034
67.527
66.667
65.459
63.906
62.016
59.8
57.267
54.433
51.313
47.924
44.286
40.42
36.347
32.09
27.673
23.122
18.463
13.72
8.922
4.095
-0.734
-5.538
-10.291
-14.966
-19.539
-23.986
-28.283
-32.408
-36.342
-40.064
-43.558
-46.808
-49.8
-52.522
-54.966
-57.125
-58.994
-60.571
-61.859
-62.86
-63.581
-64.031
-64.219
-64.157
-63.858
-63.337
-62.611
-61.695
-60.606
-59.362
-57.985
-56.494
-54.913
-53.263
-51.565
-49.842
-48.115
-46.404
-44.732
-43.114
-41.564
-40.097
-38.725
-37.463
-36.328
-35.328
-34.463
-33.732
-33.128
-32.639
-32.253
-31.945
-31.679
-31.422
-31.143
-30.819
-30.437
-29.974
-29.408
-28.711
-27.846
-26.79
-25.533
-24.065
-22.38
-20.484
-18.382
-16.104
-13.72
-11.289
-8.859
-6.471
-4.135
-1.866
0.3
2.321
4.15
5.743
7.076
8.144
8.93
9.41
9.61
9.626
9.669
10.067
11.144
13.151
16.318
20.898
27.069
34.944
44.423
54.999
66.065
77.114
87.695
97.402
105.824
112.545
117.494
121.927
128
137.559
151.596
168.85
187.048
206.022
228.498
259.924
305.023
363.954
431.372
498.624
559.292
610.398
651.395
681.028
692.522
675.85
622.388
528.812
399.338
245.198
80.714
-79.818
-221.919
-335.263
-414.824
-460.33
-477.413
-472.593
-451.002
-416.659
-372.99
-325.179
-278.918
-238.589
-205.616
-177.772
-152.708
-129.64
-109.315
-94.202
-85.493
-82.235
-82.519
-83.515
-82.976
-79.832
-73.775
-65.15
-54.542
-42.572
-29.933
-17.442
-5.975
3.655
11.037
16.212
19.443
21.141
21.729
21.588
21.165
20.971
21.365
22.52
24.499
27.247
30.707
34.865
39.668
45.021
50.828
56.971
63.343
69.862
76.426
82.918
89.218
95.175
100.667
105.612
109.953
113.657
116.709
119.09
120.798
121.858
122.302
122.171
121.506
120.34
118.714
116.678
114.291
111.618
108.717
105.628
102.388
99.029
95.58
92.07
88.523
84.954
81.379
77.819
74.295
70.833
67.455
64.18
61.024
58.005
55.138
52.443
49.936
47.631
45.543
43.684
42.068
40.706
39.608
38.779
38.222
37.939
37.928
38.188
38.712
39.495
40.527
41.8
43.303
45.024
46.949
49.064
51.352
53.796
56.378
59.079
61.879
64.755
67.687
70.652
73.628
76.592
79.521
82.391
85.181
87.867
90.428
92.842
95.088
97.147
99
100.629
102.017
103.15
104.012
104.593
104.88
104.864
104.539
103.897
102.933
101.646
100.033
98.095
95.834
93.253
90.358
87.156
83.655
79.865
75.799
71.469
66.89
62.076
57.046
51.816
46.406
40.834
35.122
29.289
23.357
17.346
11.278
5.175
-0.943
-7.055
-13.141
-19.182
-25.159
-31.052
-36.847
-42.526
-48.075
-53.479
-58.726
-63.805
-68.705
-73.417
-77.934
-82.248
-86.356
-90.252
-93.934
-97.402
-100.653
-103.691
-106.516
-109.132
-111.544
-113.756
-115.775
-117.608
-119.262
-120.745
-122.067
-123.236
-124.261
-125.152
-125.918
-126.568
-127.113
-127.56
-127.919
-128.198
-128.405
-128.547
-128.632
-128.666
-128.655
-128.604
-128.517
-128.401
-128.258
-128.092
-127.906
-127.702
-127.482
-127.247
-127
-126.739
-126.466
-126.18
-125.881
-125.568
-125.241
-124.898
-124.538
-124.162
-123.77
-123.364
-122.943
-122.508
-122.062
-121.607
-121.143
-120.673
-120.196
-119.714
-119.228
-118.741
-118.256
-117.776
-117.306
-116.848
-116.405
-115.98
-115.576
-115.193
-114.83
-114.482
-114.149
-113.833
-113.542
-113.283
-113.056
-112.858
-112.684
-112.526
-112.372
-112.206
-111.995
-111.713
-111.333
-110.834
-110.205
-109.432
-108.494
-107.361
-105.998
-104.373
-102.468
-100.275
-97.792
-95.031
-92.014
-88.794
-85.451
-82.058
-78.685
-75.397
-72.245
-69.305
-66.665
-64.407
-62.631
-61.448
-60.913
-61.031
-61.732
-62.817
-64.068
-65.246
-66.049
-66.189
-65.443
-63.698
-61.126
-58.182
-55.321
-53.006
-51.588
-51.199
-52.101
-54.463
-57.704
-60.728
-61.736
-58.203
-48.989
-33.728
-12.627
12.665
42.21
76.801
117.44
166.12
222.684
285.459
349.848
408.849
454.787
478.105
473.256
438.091
374.551
293.369
205.954
123.458
54.693
-1.079
-48.435
-93.672
-142.701
-195.869
-250.287
-301.717
-346.729
-384.443
-415.719
-442.318
-465.25
-484.737
-500.877
-513.708
-523.667
-531.315
-536.898
-540.453
-541.954
-541.283
-538.29
-532.802
-524.595
-513.646
-500.164
-484.463
-466.941
-448.029
-428.161
-407.819
-387.471
-367.445
-347.96
-329.211
-311.378
-294.64
-279.184
-265.133
-252.55
-241.504
-232.037
-224.152
-217.812
-212.921
-209.342
-206.936
-205.603
-205.248
-205.765
-207.015
-208.818
-211.003
-213.405
-215.863
-218.214
-220.282
-221.931
-223.076
-223.686
-223.765
-223.333
-222.413
-221.019
-219.179
-216.931
-214.329
-211.437
-208.314
-205.025
-201.642
-198.254
-194.961
-191.831
-188.897
-186.163
-183.611
-181.218
-178.961
-176.804
-174.701
-172.603
-170.465
-168.245
-165.906
-163.406
-160.695
-157.715
-154.408
-150.727
-146.643
-142.136
-137.191
-131.801
-125.96
-119.672
-112.949
-105.801
-98.235
-90.258
-81.873
-73.09
-63.924
-54.39
-44.506
-34.291
-23.76
-12.935
-1.835
9.517
21.1
32.893
44.873
57.016
69.293
81.677
94.135
106.636
119.148
131.638
144.069
156.407
168.618
180.667
192.52
204.143
215.501
226.561
237.291
247.659
257.634
267.185
276.283
284.9
293.01
300.589
307.613
314.062
319.916
325.16
329.779
333.761
337.098
339.781
341.808
343.176
343.886
343.943
343.353
342.125
340.271
337.806
334.748
331.115
326.93
322.217
317.001
311.311
305.176
298.628
291.697
284.418
276.826
268.956
260.845
252.528
244.044
235.428
226.718
217.95
209.16
200.383
191.653
183.002
174.463
166.065
157.838
149.809
142.003
134.443
127.152
120.15
113.453
107.078
101.038
95.345
90.008
85.035
80.431
76.199
72.342
68.86
65.75
63.01
60.635
58.619
56.955
55.633
54.643
53.975
53.617
53.557
53.782
54.279
55.033
56.03
57.257
58.699
60.341
62.169
64.168
66.324
68.623
71.05
73.593
76.238
78.973
81.783
84.659
87.586
90.556
93.555
96.574
99.602
102.631
105.649
108.65
111.623
114.562
117.46
120.308
123.1
125.831
128.493
131.083
133.593
136.02
138.358
140.604
142.753
144.801
146.746
148.584
150.313
151.931
153.435
154.825
156.098
157.255
158.295
159.219
160.026
160.717
161.295
161.761
162.117
162.366
162.51
162.553
162.498
162.348
162.107
161.779
161.368
160.878
160.315
159.681
158.982
158.222
157.407
156.54
155.627
154.672
153.68
152.656
151.603
150.526
149.429
148.317
147.192
146.06
144.922
143.783
142.645
141.51
140.382
139.262
138.152
137.054
135.97
134.901
133.848
132.812
131.796
130.799
129.822
128.867
127.935
127.026
126.14
125.279
124.444
123.635
122.852
122.097
121.37
120.671
120.002
119.361
118.751
118.17
117.619
117.098
116.606
116.142
115.707
115.299
114.917
114.559
114.224
113.909
113.613
113.331
113.062
112.802
112.547
112.293
112.035
111.769
111.489
111.191
110.869
110.517
110.128
109.697
109.217
108.683
108.086
107.422
106.683
105.864
104.958
103.961
102.866
101.669
100.366
98.953
97.427
95.787
94.032
92.159
90.172
88.069
85.855
83.532
81.105
78.579
75.96
73.256
70.474
67.623
64.713
61.755
58.76
55.739
52.706
49.673
46.653
43.661
40.711
37.817
34.994
32.256
29.618
27.093
24.695
22.438
20.334
18.395
16.631
15.052
13.667
12.484
11.507
10.743
10.194
9.862
9.747
9.849
10.165
10.691
11.422
12.351
13.469
14.768
16.237
17.863
19.635
21.539
23.559
25.681
27.887
30.163
32.489
34.85
37.226
39.6
41.953
44.269
46.53
48.718
50.819
52.817
54.697
56.447
58.056
59.512
60.806
61.931
62.879
63.647
64.23
64.625
64.834
64.856
64.693
64.35
63.832
63.145
62.296
61.295
60.15
58.87
57.469
55.955
54.343
52.644
50.87
49.037
47.156
45.242
43.306
41.362
39.421
37.494
35.591
33.721
31.892
30.11
28.381
26.709
25.099
23.552
22.069
20.648
19.288
17.985
16.733
15.525
14.351
13.2
12.061
10.921
9.769
8.591
7.373
6.104
4.774
3.371
1.884
0.299
-1.397
-3.214
-5.165
-7.256
-9.497
-11.894
-14.452
-17.172
-20.05
-23.082
-26.269
-29.615
-33.13
-36.817
-40.673
-44.69
-48.858
-53.163
-57.588
-62.104
-66.667
-71.233
-75.767
-80.239
-84.627
-88.903
-93.031
-96.964
-100.654
-104.063
-107.171
-109.969
-112.451
-114.626
-116.518
-118.174
-119.681
-121.141
-122.646
-124.284
-126.142
-128.285
-130.816
-133.886
-137.572
-141.884
-146.728
-151.849
-157.001
-161.99
-166.511
-170.18
-172.713
-173.912
-173.912
-173.304
-172.614
-172.294
-172.853
-174.658
-177.958
-182.847
-188.735
-194.261
-198.007
-198.362
-193.593
-182.325
-163.172
-134.87
-97.045
-50.255
4.609
65.097
127.133
186.856
239.721
282.87
317.576
344.334
361.944
366.646
347.86
295.944
207.282
83.125
-64.298
-218.167
-363.937
-487.264
-581.605
-645.611
-678.632
-684.181
-663.618
-619.153
-558.216
-488.9
-423.449
-372.893
-339.635
-321.408
-310.489
-297.926
-280.963
-260.671
-240.475
-224.44
-213.369
-205.795
-199.639
-192.871
-184.668
-174.987
-164.163
-152.753
-141.071
-129.468
-118.375
-108.096
-99.034
-91.579
-85.769
-81.457
-78.437
-76.376
-74.979
-73.973
-72.958
-71.552
-69.532
-66.786
-63.31
-59.157
-54.349
-48.91
-42.916
-36.472
-29.687
-22.66
-15.457
-8.14
-0.788
6.49
13.556
20.302
26.66
32.587
38.065
43.08
47.613
51.674
55.293
58.503
61.341
63.836
66.005
67.876
69.484
70.872
72.092
73.182
74.168
75.069
75.9
76.673
77.399
78.082
78.714
79.294
79.821
80.3
80.738
81.139
81.504
81.833
82.128
82.39
82.623
82.831
83.015
83.18
83.33
83.47
83.608
83.749
83.896
84.053
84.222
84.406
84.608
84.828
85.07
85.333
85.621
85.935
86.278
86.652
87.057
87.495
87.966
88.472
89.011
89.582
90.186
90.819
91.48
92.166
92.873
93.598
94.336
95.081
95.828
96.57
97.301
98.011
98.695
99.341
99.943
100.489
100.971
101.378
101.7
101.926
102.046
102.049
101.925
101.661
101.249
100.678
99.937
99.018
97.912
96.611
95.107
93.394
91.466
89.319
86.949
84.352
81.528
78.475
75.195
71.688
67.958
64.009
59.845
55.475
50.904
46.143
41.2
36.087
30.815
25.397
19.845
14.175
8.401
2.538
-3.396
-9.386
-15.415
-21.465
-27.519
-33.56
-39.571
-45.534
-51.432
-57.249
-62.968
-68.573
-74.047
-79.376
-84.545
-89.539
-94.346
-98.953
-103.348
-107.522
-111.464
-115.166
-118.621
-121.821
-124.763
-127.44
-129.85
-131.989
-133.856
-135.45
-136.772
-137.823
-138.605
-139.122
-139.378
-139.377
-139.125
-138.629
-137.895
-136.93
-135.744
-134.343
-132.74
-130.942
-128.962
-126.81
-124.497
-122.035
-119.437
-116.715
-113.879
-110.943
-107.917
-104.815
-101.647
-98.425
-95.16
-91.866
-88.556
-85.241
-81.935
-78.65
-75.398
-72.19
-69.036
-65.947
-62.928
-59.987
-57.13
-54.362
-51.693
-49.126
-46.668
-44.319
-42.083
-39.96
-37.951
-36.055
-34.265
-32.573
-30.976
-29.473
-28.071
-26.773
-25.573
-24.466
-23.439
-22.48
-21.575
-20.699
-19.815
-18.884
-17.87
-16.741
-15.477
-14.052
-12.431
-10.572
-8.425
-5.948
-3.126
0.047
3.569
7.428
11.593
16.008
20.584
25.216
29.803
34.252
38.465
42.337
45.764
48.609
50.717
52.005
52.472
52.198
51.377
50.197
48.816
47.489
46.527
46.124
46.387
47.174
48.018
48.571
48.586
47.839
46.335
44.134
41.227
38.11
35.897
36.212
41.228
52.563
70.704
94.29
121.094
149.854
180.263
215.356
258.995
312.521
375.783
443.445
506.558
557.087
586.476
588.456
562.089
508.181
430.912
339.664
242.638
148.792
66.982
-0.578
-53.523
-94.612
-130.457
-165.621
-203.993
-247.323
-294.496
-342.847
-388.276
-427.849
-459.21
-482.288
-499.678
-513.063
-524.182
-533.742
-540.528
-544.126
-544.613
-541.978
-536.678
-528.842
-518.107
-504.456
-488.117
-469.32
-448.466
-425.983
-402.263
-377.809
-353.142
-328.629
-304.533
-281.11
-258.612
-237.296
-217.396
-199.072
-182.433
-167.599
-154.709
-143.855
-135.047
-128.211
-123.194
-119.832
-118.014
-117.643
-118.606
-120.741
-123.823
-127.636
-132.009
-136.778
-141.753
-146.703
-151.35
-155.483
-158.99
-161.825
-163.993
-165.507
-166.344
-166.496
-165.981
-164.851
-163.177
-161.014
-158.372
-155.268
-151.768
-148.002
-144.147
-140.335
-136.619
-133.017
-129.522
-126.127
-122.842
-119.648
-116.499
-113.342
-110.136
-106.865
-103.547
-100.196
-96.785
-93.247
-89.48
-85.411
-81.002
-76.232
-71.087
-65.546
-59.597
-53.248
-46.534
-39.488
-32.128
-24.457
-16.465
-8.143
0.493
9.414
18.576
27.942
37.481
47.164
56.958
66.825
76.733
86.66
96.596
106.525
116.426
126.272
136.03
145.671
155.169
164.498
173.633
182.551
191.226
199.637
207.762
215.583
223.08
230.229
237.008
243.394
249.366
254.906
259.996
264.62
268.763
272.411
275.556
278.188
280.301
281.89
282.95
283.48
283.48
282.954
281.905
280.342
278.271
275.706
272.66
269.149
265.191
260.806
256.017
250.849
245.328
239.481
233.338
226.931
220.292
213.454
206.454
199.328
192.111
184.842
177.557
170.296
163.094
155.99
149.018
142.215
135.613
129.246
123.146
117.34
111.858
106.724
101.962
97.593
93.635
90.104
87.013
84.371
82.186
80.463
79.203
78.404
78.062
78.17
78.717
79.69
81.075
82.852
85.001
87.5
90.323
93.443
96.832
100.461
104.297
108.31
112.465
116.73
121.071
125.455
129.847
134.215
138.527
142.751
146.856
150.814
154.597
158.179
161.535
164.643
167.482
170.035
172.284
174.215
175.818
177.081
177.998
178.564
178.777
178.636
178.144
177.304
176.124
174.61
172.774
170.626
168.18
165.451
162.453
159.205
155.723
152.027
148.134
144.065
139.838
135.472
130.988
126.403
121.737
117.005
112.226
107.416
102.589
97.76
92.943
88.148
83.387
78.669
74.002
69.393
64.847
60.368
55.959
51.621
47.354
43.156
39.026
34.961
30.956
27.007
23.107
19.252
15.433
11.645
7.88
4.13
0.389
-3.352
-7.097
-10.855
-14.63
-18.427
-22.253
-26.11
-30.001
-33.93
-37.897
-41.903
-45.947
-50.028
-54.142
-58.288
-62.458
-66.648
-70.85
-75.056
-79.258
-83.444
-87.606
-91.731
-95.808
-99.824
-103.767
-107.623
-111.379
-115.021
-118.537
-121.912
-125.135
-128.192
-131.071
-133.762
-136.253
-138.535
-140.598
-142.435
-144.038
-145.4
-146.518
-147.386
-148.003
-148.366
-148.476
-148.334
-147.942
-147.305
-146.427
-145.316
-143.979
-142.425
-140.665
-138.708
-136.569
-134.258
-131.791
-129.182
-126.445
-123.596
-120.651
-117.626
-114.537
-111.401
-108.235
-105.053
-101.872
-98.708
-95.575
-92.488
-89.463
-86.511
-83.647
-80.883
-78.23
-75.699
-73.299
-71.04
-68.928
-66.969
-65.17
-63.535
-62.066
-60.766
-59.636
-58.676
-57.884
-57.259
-56.798
-56.497
-56.351
-56.356
-56.505
-56.792
-57.209
-57.75
-58.406
-59.169
-60.031
-60.982
-62.013
-63.116
-64.28
-65.497
-66.756
-68.048
-69.363
-70.692
-72.026
-73.356
-74.675
-75.973
-77.244
-78.48
-79.675
-80.824
-81.92
-82.96
-83.939
-84.854
-85.701
-86.48
-87.187
-87.823
-88.385
-88.875
-89.293
-89.638
-89.913
-90.119
-90.257
-90.331
-90.342
-90.294
-90.19
-90.034
-89.829
-89.58
-89.291
-88.965
-88.609
-88.224
-87.816
-87.389
-86.946
-86.491
-86.027
-85.555
-85.079
-84.6
-84.12
-83.637
-83.153
-82.666
-82.176
-81.681
-81.177
-80.664
-80.136
-79.59
-79.022
-78.427
-77.8
-77.135
-76.426
-75.666
-74.849
-73.968
-73.016
-71.986
-70.871
-69.664
-68.358
-66.947
-65.424
-63.784
-62.02
-60.128
-58.103
-55.943
-53.644
-51.205
-48.625
-45.904
-43.043
-40.046
-36.914
-33.654
-30.269
-26.768
-23.157
-19.447
-15.648
-11.771
-7.828
-3.835
0.194
4.242
8.294
12.331
16.339
20.298
24.192
28.005
31.724
35.331
38.814
42.155
45.339
48.354
51.187
53.825
56.26
58.48
60.481
62.262
63.823
65.164
66.285
67.18
67.851
68.303
68.546
68.59
68.453
68.155
67.725
67.205
66.635
66.05
65.482
64.95
64.483
64.113
63.872
63.799
63.921
64.248
64.8
65.592
66.617
67.851
69.239
70.695
72.159
73.586
74.921
76.121
77.119
77.835
78.21
78.198
77.747
76.797
75.321
73.343
71.013
68.625
66.504
64.977
64.394
65.095
67.311
71.151
76.471
82.757
89.447
96.009
101.771
106.211
109.167
110.514
110.502
110.232
110.798
113.958
122.72
138.594
161.922
192.287
226.324
262.823
303.894
350.719
406.315
470.35
535.531
595.417
642.231
668.079
670.952
647.125
592.367
506.89
390.278
247.569
90.938
-66.287
-208.182
-321.381
-398.859
-439.879
-448.783
-431.833
-397.933
-353.912
-306.59
-264.378
-229.457
-202.153
-180.211
-156.864
-130.222
-101.361
-72.338
-48.089
-30.684
-19.142
-12.165
-7.653
-4.378
-2.28
-1.289
-0.92
-0.351
0.832
2.637
4.983
7.699
10.754
14.302
17.958
20.858
22.59
23.046
22.203
20.259
17.277
13.096
7.995
2.651
-2.491
-7.142
-11.149
-14.592
-17.454
-19.571
-20.987
-21.918
-22.532
-22.984
-23.356
-23.614
-23.79
-23.981
-24.252
-24.662
-25.27
-26.096
-27.163
-28.505
-30.121
-31.996
-34.11
-36.42
-38.878
-41.448
-44.094
-46.787
-49.502
-52.206
-54.863
-57.431
-59.861
-62.118
-64.174
-66.007
-67.6
-68.941
-70.022
-70.843
-71.412
-71.733
-71.807
-71.635
-71.213
-70.54
-69.621
-68.461
-67.066
-65.442
-63.595
-61.533
-59.263
-56.795
-54.136
-51.293
-48.272
-45.082
-41.732
-38.234
-34.598
-30.838
-26.964
-22.99
-18.93
-14.797
-10.604
-6.364
-2.089
2.21
6.519
10.826
15.119
19.387
23.618
27.8
31.921
35.969
39.933
43.802
47.564
51.208
54.725
58.103
61.335
64.41
67.32
70.058
72.616
74.986
77.164
79.142
80.916
82.483
83.838
84.979
85.905
86.613
87.105
87.379
87.437
87.281
86.911
86.332
85.546
84.559
83.374
81.998
80.438
78.701
76.795
74.728
72.509
70.147
67.653
65.034
62.303
59.468
56.54
53.529
50.446
47.3
44.102
40.861
37.586
34.286
30.97
27.646
24.322
21.003
17.698
14.412
11.151
7.921
4.726
1.57
-1.542
-4.608
-7.625
-10.591
-13.505
-16.365
-19.171
-21.921
-24.616
-27.256
-29.84
-32.368
-34.841
-37.258
-39.62
-41.926
-44.177
-46.373
-48.514
-50.6
-52.629
-54.601
-56.515
-58.37
-60.164
-61.894
-63.56
-65.16
-66.69
-68.15
-69.536
-70.847
-72.08
-73.232
-74.3
-75.282
-76.175
-76.977
-77.687
-78.303
-78.824
-79.251
-79.585
-79.828
-79.982
-80.052
-80.041
-79.955
-79.798
-79.577
-79.299
-78.971
-78.6
-78.192
-77.757
-77.303
-76.842
-76.384
-75.937
-75.515
-75.128
-74.786
-74.501
-74.279
-74.128
-74.056
-74.068
-74.174
-74.387
-74.715
-75.161
-75.73
-76.418
-77.22
-78.127
-79.118
-80.164
-81.239
-82.315
-83.372
-84.397
-85.369
-86.266
-87.066
-87.731
-88.236
-88.563
-88.687
-88.597
-88.298
-87.798
-87.14
-86.398
-85.634
-84.906
-84.262
-83.725
-83.333
-83.14
-83.194
-83.561
-84.281
-85.393
-86.979
-89.078
-91.653
-94.583
-97.603
-100.38
-102.632
-104.081
-104.412
-103.388
-100.899
-97.112
-92.504
-87.651
-83.101
-79.203
-76.24
-74.626
-74.429
-74.986
-75.297
-73.404
-67.171
-55.911
-38.434
-14.382
15.211
50.743
91.527
137.13
189.232
247.914
311.653
375.775
431.498
469.272
481.383
465.186
422.489
358.882
283.227
203.607
128.117
62.672
7.822
-38.816
-82.505
-127.905
-175.945
-224.75
-270.082
-308.916
-340.545
-365.601
-386.022
-403.04
-416.877
-427.853
-436.249
-442.247
-446.177
-448.166
-448.002
-445.558
-440.743
-433.321
-423.089
-410.078
-394.464
-376.563
-356.85
-335.773
-313.767
-291.342
-268.963
-246.962
-225.582
-205.006
-185.395
-166.909
-149.697
-133.861
-119.451
-106.522
-95.103
-85.187
-76.724
-69.612
-63.714
-58.894
-55.051
-52.098
-49.937
-48.449
-47.482
-46.891
-46.543
-46.303
-46.033
-45.576
-44.813
-43.673
-42.137
-40.22
-37.948
-35.348
-32.442
-29.258
-25.834
-22.221
-18.476
-14.649
-10.796
-6.983
-3.291
0.183
3.373
6.247
8.8
11.051
13.023
14.74
16.239
17.571
18.783
19.925
21.039
22.162
23.338
24.617
26.056
27.718
29.651
31.89
34.462
37.39
40.688
44.371
48.445
52.907
57.756
62.995
68.625
74.65
81.069
87.879
95.082
102.67
110.631
118.951
127.609
136.582
145.843
155.362
165.094
174.999
185.036
195.165
205.361
215.598
225.845
236.073
246.247
256.341
266.353
276.284
286.13
295.893
305.572
315.178
324.75
334.316
343.885
353.461
363.009
372.488
381.862
391.084
400.097
408.824
417.158
424.977
432.185
438.687
444.391
449.201
452.986
455.635
457.075
457.249
456.142
453.756
450.094
445.177
439.065
431.838
423.613
414.534
404.711
394.252
383.266
371.865
360.189
348.366
336.493
324.649
312.896
301.286
289.874
278.707
267.795
257.137
246.709
236.472
226.412
216.524
206.803
197.245
187.837
178.57
169.454
160.511
151.762
143.226
134.917
126.849
119.051
111.556
104.401
97.625
91.254
85.303
79.786
74.711
70.084
65.903
62.161
58.839
55.922
53.396
51.245
49.458
48.012
46.886
46.057
45.502
45.198
45.124
45.259
45.581
46.07
46.708
47.478
48.365
49.351
50.42
51.555
52.739
53.955
55.189
56.425
57.65
58.849
60.012
61.127
62.187
63.182
64.104
64.949
65.709
66.381
66.96
67.443
67.828
68.112
68.294
68.374
68.351
68.225
67.997
67.668
67.24
66.713
66.09
65.372
64.564
63.666
62.684
61.619
60.475
59.257
57.969
56.614
55.198
53.724
52.198
50.624
49.005
47.346
45.652
43.926
42.173
40.396
38.6
36.789
34.967
33.139
31.309
29.481
27.66
25.849
24.053
22.275
20.52
18.792
17.094
15.429
13.802
12.215
10.671
9.173
7.723
6.324
4.977
3.684
2.445
1.263
0.138
-0.93
-1.94
-2.892
-3.787
-4.624
-5.405
-6.13
-6.8
-7.419
-7.986
-8.505
-8.978
-9.408
-9.798
-10.15
-10.469
-10.758
-11.021
-11.261
-11.483
-11.689
-11.885
-12.074
-12.26
-12.447
-12.638
-12.836
-13.046
-13.27
-13.511
-13.773
-14.058
-14.368
-14.706
-15.075
-15.476
-15.911
-16.382
-16.889
-17.435
-18.019
-18.643
-19.306
-20.008
-20.749
-21.528
-22.345
-23.198
-24.085
-25.006
-25.958
-26.939
-27.948
-28.981
-30.036
-31.111
-32.204
-33.311
-34.431
-35.559
-36.695
-37.835
-38.976
-40.115
-41.251
-42.38
-43.5
-44.607
-45.701
-46.777
-47.835
-48.872
-49.885
-50.873
-51.834
-52.766
-53.668
-54.539
-55.376
-56.18
-56.95
-57.684
-58.382
-59.045
-59.672
-60.264
-60.821
-61.343
-61.831
-62.286
-62.71
-63.103
-63.468
-63.806
-64.118
-64.408
-64.677
-64.927
-65.16
-65.38
-65.589
-65.79
-65.984
-66.176
-66.368
-66.562
-66.762
-66.97
-67.189
-67.423
-67.672
-67.941
-68.231
-68.543
-68.881
-69.244
-69.636
-70.055
-70.504
-70.982
-71.488
-72.022
-72.582
-73.166
-73.773
-74.398
-75.04
-75.693
-76.354
-77.019
-77.682
-78.338
-78.981
-79.606
-80.206
-80.773
-81.302
-81.784
-82.212
-82.579
-82.877
-83.1
-83.24
-83.29
-83.243
-83.094
-82.836
-82.463
-81.972
-81.356
-80.614
-79.742
-78.738
-77.603
-76.337
-74.94
-73.416
-71.769
-70.003
-68.126
-66.143
-64.062
-61.893
-59.647
-57.336
-54.971
-52.566
-50.137
-47.703
-45.28
-42.887
-40.543
-38.266
-36.077
-33.994
-32.035
-30.216
-28.552
-27.061
-25.757
-24.659
-23.782
-23.139
-22.742
-22.602
-22.727
-23.127
-23.803
-24.753
-25.974
-27.463
-29.223
-31.261
-33.577
-36.166
-39.017
-42.115
-45.441
-48.974
-52.68
-56.511
-60.422
-64.369
-68.315
-72.237
-76.102
-79.873
-83.506
-86.945
-90.148
-93.092
-95.752
-98.119
-100.2
-102.012
-103.604
-105.059
-106.454
-107.872
-109.387
-111.058
-112.966
-115.171
-117.747
-120.803
-124.366
-128.418
-132.89
-137.569
-142.199
-146.566
-150.365
-153.233
-154.966
-155.375
-154.451
-152.615
-150.303
-147.886
-145.749
-144.143
-143.202
-143.146
-144.006
-144.519
-142.507
-136.019
-123.303
-105.16
-85.01
-64.24
-42.258
-15.325
24.093
79.543
149.166
227.279
303.883
370.369
422.47
456.979
470.757
461.511
424.908
357.788
261.892
140.026
-0.322
-147.595
-289.69
-412.599
-505.866
-564.255
-588.504
-584.395
-557.319
-513.605
-458.594
-397.372
-339.015
-291.051
-257.458
-238.958
-230.032
-223.777
-216.729
-207.864
-199.3
-194.371
-193.482
-195.015
-196.636
-195.734
-191.525
-184.659
-175.89
-166.089
-155.964
-146.095
-137.258
-130.254
-125.463
-122.834
-122.118
-122.933
-124.924
-127.801
-131.198
-134.675
-137.895
-140.644
-142.819
-144.431
-145.498
-146.009
-145.971
-145.415
-144.383
-142.945
-141.175
-139.127
-136.857
-134.424
-131.894
-129.359
-126.934
-124.71
-122.75
-121.089
-119.741
-118.72
-118.04
-117.697
-117.666
-117.909
-118.388
-119.07
-119.933
-120.951
-122.089
-123.3
-124.533
-125.747
-126.916
-128.016
-129.029
-129.937
-130.723
-131.377
-131.9
-132.292
-132.548
-132.661
-132.623
-132.424
-132.064
-131.539
-130.848
-129.988
-128.952
-127.74
-126.347
-124.773
-123.015
-121.07
-118.935
-116.609
-114.091
-111.384
-108.49
-105.415
-102.16
-98.733
-95.14
-91.387
-87.481
-83.43
-79.241
-74.924
-70.486
-65.938
-61.29
-56.551
-51.734
-46.849
-41.909
-36.927
-31.915
-26.886
-21.854
-16.833
-11.838
-6.883
-1.982
2.851
7.601
12.254
16.796
21.214
25.493
29.623
33.589
37.382
40.988
44.399
47.604
50.595
53.364
55.904
58.21
60.275
62.096
63.67
64.996
66.073
66.9
67.481
67.817
67.914
67.775
67.409
66.822
66.024
65.023
63.832
62.46
60.922
59.228
57.394
55.434
53.361
51.192
48.94
46.621
44.25
41.842
39.414
36.978
34.551
32.144
29.773
27.45
25.186
22.993
20.882
18.862
16.941
15.129
13.431
11.855
10.405
9.085
7.899
6.848
5.934
5.157
4.515
4.008
3.632
3.386
3.265
3.265
3.381
3.609
3.944
4.38
4.91
5.529
6.23
7.007
7.854
8.764
9.731
10.75
11.814
12.919
14.06
15.232
16.431
17.652
18.892
20.146
21.412
22.686
23.967
25.251
26.538
27.826
29.113
30.399
31.683
32.962
34.237
35.504
36.763
38.01
39.242
40.455
41.644
42.807
43.938
45.033
46.087
47.094
48.053
48.957
49.803
50.585
51.296
51.931
52.482
52.945
53.311
53.576
53.732
53.777
53.711
53.533
53.241
52.831
52.295
51.629
50.831
49.905
48.854
47.69
46.424
45.086
43.713
42.342
41.008
39.741
38.56
37.493
36.567
35.814
35.274
34.978
34.947
35.202
35.756
36.607
37.737
39.089
40.569
42.091
43.575
44.961
46.201
47.226
47.96
48.325
48.239
47.657
46.519
44.733
42.264
39.173
35.64
32.014
28.692
25.99
24.257
23.897
25.157
28.097
32.45
37.603
42.922
47.933
52.216
55.316
57.013
57.559
57.901
59.556
64.139
73.222
88.275
110.853
142.423
182.86
230.177
282.172
336.228
391.547
449.451
507.855
562.365
605.787
628.141
624.163
593.208
538.805
468.618
390.444
311.212
235.648
166.684
104.441
46.275
-9.522
-64.671
-118.991
-169.352
-213.956
-251.882
-283.169
-309.629
-332.28
-351.349
-367.057
-379.414
-388.706
-395.295
-399.262
-400.493
-398.913
-394.524
-387.361
-377.448
-364.72
-349.28
-331.458
-311.69
-290.497
-268.377
-245.776
-223.113
-200.827
-179.253
-158.635
-139.202
-121.091
-104.41
-89.272
-75.731
-63.808
-53.504
-44.773
-37.517
-31.615
-26.916
-23.252
-20.505
-18.565
-17.312
-16.615
-16.312
-16.257
-16.32
-16.378
-16.302
-15.951
-15.223
-14.063
-12.468
-10.473
-8.121
-5.452
-2.501
0.692
4.077
7.595
11.18
14.779
18.331
21.774
25.029
28.003
30.633
32.891
34.779
36.319
37.538
38.465
39.137
39.607
39.928
40.149
40.317
40.468
40.649
40.913
41.318
41.928
42.792
43.947
45.419
47.232
49.402
51.943
54.862
58.157
61.831
65.888
70.336
75.18
80.425
86.072
92.125
98.586
105.454
112.72
120.371
128.39
136.755
145.439
154.41
163.621
173.033
182.607
192.311
202.116
211.986
221.881
231.76
241.585
251.328
260.975
270.517
279.948
289.285
298.56
307.816
317.116
326.502
335.99
345.588
355.285
365.067
374.917
384.8
394.667
404.459
414.101
423.511
432.597
441.227
449.248
456.493
462.776
467.94
471.858
474.409
475.511
475.106
473.158
469.672
464.67
458.183
450.26
440.961
430.365
418.598
405.807
392.15
377.818
362.992
347.855
332.602
317.391
302.344
287.559
273.101
259.029
245.405
232.281
219.702
207.706
196.305
185.516
175.35
165.779
156.766
148.245
140.123
132.339
124.863
117.678
110.785
104.183
97.863
91.827
86.08
80.616
75.428
70.486
65.759
61.246
56.959
52.935
49.235
45.891
42.92
40.336
38.134
36.311
34.863
33.765
32.99
32.519
32.339
32.454
32.866
33.561
34.514
35.686
37.031
38.509
40.085
41.721
43.386
45.052
46.697
48.306
49.873
51.386
52.829
54.184
55.432
56.56
57.56
58.423
59.146
59.724
60.156
60.444
60.587
60.587
60.443
60.152
59.712
59.121
58.381
57.492
56.458
55.281
53.967
52.52
50.948
49.257
47.455
45.547
43.541
41.442
39.259
36.997
34.665
32.268
29.813
27.307
24.757
22.17
19.55
16.904
14.236
11.553
8.859
6.157
3.453
0.75
-1.948
-4.637
-7.314
-9.975
-12.618
-15.239
-17.836
-20.407
-22.949
-25.463
-27.946
-30.398
-32.818
-35.207
-37.562
-39.885
-42.175
-44.431
-46.654
-48.844
-51.001
-53.124
-55.215
-57.272
-59.297
-61.289
-63.248
-65.175
-67.069
-68.93
-70.759
-72.555
-74.318
-76.049
-77.747
-79.413
-81.047
-82.648
-84.217
-85.755
-87.26
-88.734
-90.176
-91.586
-92.964
-94.311
-95.626
-96.909
-98.161
-99.381
-100.571
-101.73
-102.858
-103.956
-105.024
-106.064
-107.075
-108.058
-109.014
-109.945
-110.849
-111.73
-112.587
-113.422
-114.235
-115.028
-115.802
-116.558
-117.296
-118.017
-118.723
-119.415
-120.092
-120.756
-121.407
-122.046
-122.673
-123.288
-123.892
-124.486
-125.068
-125.64
-126.202
-126.752
-127.291
-127.819
-128.335
-128.839
-129.329
-129.806
-130.268
-130.715
-131.146
-131.56
-131.956
-132.333
-132.69
-133.026
-133.341
-133.632
-133.9
-134.142
-134.36
-134.552
-134.717
-134.856
-134.968
-135.053
-135.113
-135.146
-135.154
-135.136
-135.095
-135.031
-134.946
-134.84
-134.716
-134.576
-134.421
-134.253
-134.076
-133.89
-133.698
-133.502
-133.305
-133.108
-132.915
-132.727
-132.547
-132.377
-132.22
-132.076
-131.948
-131.838
-131.746
-131.675
-131.623
-131.591
-131.581
-131.589
-131.617
-131.662
-131.723
-131.796
-131.879
-131.969
-132.06
-132.149
-132.23
-132.296
-132.343
-132.363
-132.351
-132.297
-132.196
-132.04
-131.821
-131.53
-131.161
-130.703
-130.149
-129.491
-128.72
-127.829
-126.811
-125.657
-124.362
-122.92
-121.326
-119.573
-117.66
-115.581
-113.335
-110.921
-108.339
-105.589
-102.674
-99.598
-96.365
-92.982
-89.458
-85.799
-82.018
-78.123
-74.129
-70.048
-65.895
-61.685
-57.435
-53.162
-48.887
-44.631
-40.414
-36.256
-32.179
-28.206
-24.357
-20.652
-17.109
-13.745
-10.577
-7.624
-4.903
-2.43
-0.219
1.72
3.374
4.735
5.796
6.554
7.014
7.178
7.051
6.632
5.917
4.907
3.613
2.045
0.22
-1.844
-4.126
-6.593
-9.201
-11.908
-14.675
-17.468
-20.264
-23.025
-25.715
-28.286
-30.688
-32.883
-34.843
-36.543
-37.972
-39.136
-40.053
-40.765
-41.331
-41.805
-42.261
-42.765
-43.383
-44.198
-45.27
-46.689
-48.579
-50.984
-53.883
-57.182
-60.628
-63.959
-66.975
-69.355
-70.741
-70.951
-69.879
-67.68
-64.925
-62.085
-59.531
-57.757
-57.069
-57.491
-59.009
-61.178
-62.906
-63.165
-60.267
-51.809
-36.163
-12.584
17.657
51.648
87.291
124.592
166.629
216.65
275.647
341.326
406.331
463.196
505.215
525.215
519.884
485.253
417.994
320.302
194.523
48.302
-104.797
-251.795
-376.628
-467.135
-520.943
-540.481
-534.315
-512.629
-480.586
-442.205
-401.384
-360.453
-322.767
-289.873
-259.193
-228.844
-198.226
-168.136
-142.111
-122.611
-109.547
-101.696
-96.889
-93.292
-90.107
-86.938
-83.37
-78.941
-73.531
-67.303
-60.541
-53.733
-47.315
-41.612
-37.064
-34.064
-32.669
-32.758
-34.123
-36.438
-39.393
-42.668
-45.85
-48.571
-50.63
-51.954
-52.55
-52.471
-51.754
-50.444
-48.636
-46.444
-43.971
-41.294
-38.458
-35.514
-32.539
-29.647
-26.964
-24.577
-22.533
-20.859
-19.564
-18.658
-18.14
-17.98
-18.132
-18.551
-19.193
-20.026
-21.025
-22.153
-23.363
-24.605
-25.819
-26.963
-28.006
-28.92
-29.682
-30.276
-30.684
-30.903
-30.934
-30.777
-30.427
-29.877
-29.117
-28.144
-26.956
-25.552
-23.931
-22.093
-20.037
-17.764
-15.277
-12.577
-9.666
-6.546
-3.22
0.309
4.032
7.943
12.03
16.284
20.691
25.239
29.914
34.702
39.587
44.555
49.591
54.679
59.803
64.946
70.093
75.226
80.329
85.384
90.375
95.286
100.099
104.798
109.366
113.789
118.051
122.136
126.032
129.724
133.2
136.448
139.458
142.221
144.726
146.968
148.939
150.634
152.051
153.185
154.036
154.603
154.888
154.892
154.618
154.071
153.256
152.18
150.851
149.277
147.467
145.434
143.187
140.74
138.105
135.296
132.327
129.214
125.972
122.615
119.159
115.621
112.016
108.359
104.665
100.95
97.227
93.511
89.813
86.148
82.526
78.959
75.457
72.029
68.684
65.429
62.271
59.215
56.267
53.43
50.706
48.097
45.605
43.23
40.972
38.829
36.799
34.88
33.068
31.361
29.752
28.238
26.813
25.472
24.21
23.022
21.901
20.843
19.844
18.897
18
17.148
16.337
15.563
14.825
14.119
13.442
12.795
12.174
11.581
11.015
10.475
9.964
9.482
9.029
8.609
8.221
7.868
7.553
7.277
7.043
6.853
6.711
6.618
6.578
6.592
6.661
6.788
6.973
7.215
7.513
7.866
8.269
8.718
9.211
9.74
10.3
10.886
11.49
12.107
12.733
13.358
13.977
14.58
15.157
15.7
16.199
16.644
17.027
17.339
17.573
17.724
17.79
17.766
17.643
17.408
17.049
16.561
15.943
15.194
14.321
13.337
12.261
11.129
9.972
8.823
7.707
6.641
5.648
4.751
3.982
3.385
2.992
2.827
2.903
3.225
3.784
4.551
5.466
6.432
7.361
8.178
8.818
9.227
9.334
9.055
8.309
7.031
5.146
2.566
-0.735
-4.716
-9.22
-13.957
-18.599
-22.833
-26.318
-28.662
-29.603
-29.078
-27.302
-24.793
-22.066
-19.489
-17.392
-16.148
-15.973
-16.691
-17.467
-16.915
-13.622
-6.226
6.637
26.34
54.33
90.842
133.968
181.422
230.97
281.821
335.879
393.079
449.673
499.103
531.343
537.849
516.23
467.579
397.037
314.141
226.661
143.253
73.007
17.998
-22.624
-53.722
-84.755
-119.936
-159.366
-200.776
-238.633
-270.511
-297.282
-319.948
-339.779
-357.072
-371.086
-381.523
-388.733
-392.878
-393.826
-391.702
-386.897
-379.951
-371.432
-361.645
-350.592
-338.658
-326.584
-314.834
-303.53
-292.446
-281.309
-270.077
-258.839
-247.464
-235.613
-223.093
-210.006
-196.81
-183.987
-171.796
-160.39
-149.887
-140.443
-132.189
-125.077
-118.882
-113.406
-108.56
-104.318
-100.716
-97.747
-95.35
-93.491
-92.119
-91.134
-90.411
-89.79
-89.119
-88.311
-87.315
-86.111
-84.707
-83.106
-81.304
-79.312
-77.134
-74.773
-72.24
-69.545
-66.724
-63.849
-61.007
-58.3
-55.805
-53.566
-51.604
-49.921
-48.504
-47.33
-46.365
-45.564
-44.888
-44.303
-43.777
-43.286
-42.794
-42.25
-41.599
-40.777
-39.732
-38.422
-36.814
-34.878
-32.594
-29.945
-26.923
-23.531
-19.767
-15.626
-11.101
-6.182
-0.856
4.878
11.017
17.549
24.459
31.73
39.335
47.241
55.407
63.79
72.353
81.063
89.895
98.82
107.813
116.846
125.889
134.924
143.946
152.959
161.971
170.994
180.041
189.139
198.328
207.638
217.085
226.672
236.381
246.184
256.044
265.912
275.733
285.423
294.87
303.953
312.536
320.494
327.711
334.069
339.438
343.715
346.821
348.695
349.304
348.623
346.635
343.342
338.762
332.954
326.018
318.074
309.266
299.721
289.552
278.869
267.777
256.361
244.681
232.793
220.744
208.6
196.445
184.362
172.44
160.73
149.251
138.003
126.964
116.128
105.504
95.113
84.986
75.179
65.768
56.823
48.405
40.536
33.204
26.374
19.985
13.998
8.392
3.157
-1.698
-6.174
-10.277
-14.023
-17.438
-20.57
-23.487
-26.253
-28.925
-31.531
-34.07
-36.519
-38.836
-40.984
-42.941
-44.691
-46.235
-47.577
-48.726
-49.695
-50.495
-51.129
-51.584
-51.851
-51.92
-51.795
-51.494
-51.043
-50.48
-49.839
-49.153
-48.448
-47.744
-47.054
-46.385
-45.74
-45.116
-44.513
-43.936
-43.39
-42.88
-42.411
-41.983
-41.594
-41.24
-40.917
-40.618
-40.339
-40.075
-39.822
-39.581
-39.349
-39.128
-38.92
-38.723
-38.536
-38.359
-38.188
-38.02
-37.852
-37.681
-37.503
-37.316
-37.117
-36.905
-36.677
-36.433
-36.171
-35.892
-35.593
-35.274
-34.936
-34.576
-34.196
-33.794
-33.37
-32.924
-32.456
-31.967
-31.455
-30.922
-30.368
-29.792
-29.197
-28.581
-27.944
-27.289
-26.614
-25.921
-25.211
-24.485
-23.745
-22.993
-22.231
-21.462
-20.686
-19.906
-19.125
-18.343
-17.563
-16.786
-16.015
-15.251
-14.496
-13.754
-13.025
-12.312
-11.617
-10.943
-10.291
-9.664
-9.064
-8.493
-7.953
-7.447
-6.975
-6.541
-6.145
-5.791
-5.479
-5.21
-4.987
-4.809
-4.677
-4.591
-4.552
-4.559
-4.613
-4.711
-4.855
-5.043
-5.275
-5.549
-5.865
-6.221
-6.617
-7.05
-7.519
-8.023
-8.559
-9.126
-9.723
-10.345
-10.993
-11.663
-12.352
-13.059
-13.779
-14.511
-15.251
-15.997
-16.744
-17.491
-18.234
-18.97
-19.698
-20.414
-21.117
-21.804
-22.473
-23.122
-23.75
-24.356
-24.936
-25.491
-26.018
-26.518
-26.987
-27.427
-27.835
-28.213
-28.558
-28.87
-29.151
-29.399
-29.616
-29.802
-29.958
-30.086
-30.189
-30.268
-30.326
-30.365
-30.391
-30.405
-30.411
-30.412
-30.413
-30.417
-30.427
-30.448
-30.482
-30.534
-30.607
-30.703
-30.826
-30.978
-31.164
-31.384
-31.641
-31.937
-32.273
-32.652
-33.075
-33.541
-34.052
-34.607
-35.204
-35.843
-36.521
-37.236
-37.982
-38.757
-39.554
-40.369
-41.194
-42.023
-42.848
-43.662
-44.455
-45.22
-45.947
-46.626
-47.248
-47.804
-48.285
-48.682
-48.986
-49.19
-49.284
-49.261
-49.115
-48.839
-48.425
-47.87
-47.167
-46.313
-45.306
-44.144
-42.825
-41.351
-39.723
-37.945
-36.021
-33.958
-31.761
-29.44
-27.004
-24.465
-21.837
-19.132
-16.367
-13.557
-10.723
-7.883
-5.058
-2.267
0.47
3.132
5.698
8.151
10.471
12.643
14.649
16.472
18.095
19.502
20.679
21.612
22.288
22.698
22.832
22.684
22.257
21.552
20.57
19.313
17.778
15.966
13.889
11.556
8.983
6.19
3.203
0.06
-3.192
-6.503
-9.83
-13.132
-16.382
-19.543
-22.576
-25.445
-28.106
-30.528
-32.691
-34.571
-36.146
-37.42
-38.417
-39.19
-39.828
-40.404
-40.971
-41.596
-42.337
-43.264
-44.458
-45.965
-47.803
-50.006
-52.619
-55.675
-59.152
-62.883
-66.571
-69.914
-72.624
-74.398
-74.877
-73.72
-70.736
-66.071
-60.158
-53.434
-46.332
-39.359
-33.114
-28.188
-24.352
-20.276
-14.587
-6.407
3.356
12.648
21.675
33.61
54.556
90.989
144.376
209.638
277.673
339.341
390.026
432.096
469.487
502.595
526.841
530.024
499.603
429.782
320.68
182.208
30.021
-121.021
-255.208
-361.312
-434.745
-475.11
-487.642
-479.081
-454.485
-417.968
-373.385
-326.005
-281.599
-244.403
-214.961
-189.88
-165.797
-141.347
-117.743
-98.538
-85.77
-79.087
-76.933
-76.611
-76.251
-75.315
-73.478
-70.727
-67.176
-62.696
-57.406
-51.82
-46.296
-41.072
-36.399
-32.251
-28.685
-26.046
-24.429
-23.709
-23.838
-24.657
-26.015
-27.963
-30.304
-32.58
-34.548
-36.059
-37.007
-37.433
-37.317
-36.533
-35.135
-33.317
-31.207
-28.921
-26.518
-23.993
-21.414
-18.906
-16.561
-14.423
-12.514
-10.834
-9.391
-8.21
-7.291
-6.61
-6.129
-5.804
-5.606
-5.512
-5.505
-5.556
-5.631
-5.689
-5.685
-5.586
-5.366
-5.004
-4.48
-3.782
-2.9
-1.831
-0.581
0.845
2.447
4.223
6.178
8.313
10.624
13.11
15.765
18.586
21.569
24.71
28.001
31.439
35.015
38.724
42.561
46.521
50.594
54.771
59.041
63.392
67.813
72.292
76.814
81.367
85.938
90.512
95.078
99.623
104.133
108.596
112.999
117.329
121.573
125.718
129.751
133.66
137.432
141.054
144.513
147.798
150.896
153.797
156.488
158.96
161.204
163.209
164.967
166.472
167.715
168.692
169.395
169.823
169.97
169.835
169.417
168.714
167.728
166.459
164.909
163.081
160.978
158.606
155.969
153.073
149.925
146.533
142.907
139.055
134.988
130.718
126.256
121.614
116.806
111.845
106.746
101.523
96.191
90.764
85.258
79.689
74.071
68.42
62.75
57.075
51.411
45.771
40.168
34.615
29.126
23.711
18.382
13.15
8.027
3.02
-1.859
-6.604
-11.206
-15.657
-19.952
-24.085
-28.049
-31.841
-35.457
-38.894
-42.149
-45.221
-48.109
-50.813
-53.333
-55.671
-57.828
-59.807
-61.612
-63.244
-64.707
-66.007
-67.145
-68.128
-68.958
-69.642
-70.184
-70.589
-70.862
-71.01
-71.037
-70.948
-70.751
-70.45
-70.051
-69.561
-68.985
-68.331
-67.604
-66.812
-65.962
-65.06
-64.113
-63.127
-62.11
-61.068
-60.007
-58.933
-57.852
-56.77
-55.693
-54.628
-53.579
-52.555
-51.563
-50.611
-49.706
-48.856
-48.069
-47.353
-46.713
-46.158
-45.689
-45.313
-45.033
-44.854
-44.782
-44.822
-44.976
-45.245
-45.632
-46.136
-46.758
-47.494
-48.335
-49.274
-50.307
-51.431
-52.652
-53.97
-55.378
-56.866
-58.424
-60.034
-61.68
-63.336
-64.959
-66.512
-67.96
-69.273
-70.432
-71.414
-72.183
-72.7
-72.917
-72.792
-72.308
-71.456
-70.227
-68.63
-66.689
-64.452
-62.002
-59.422
-56.787
-54.167
-51.632
-49.261
-47.138
-45.37
-44.089
-43.38
-43.26
-43.67
-44.436
-45.367
-46.282
-46.91
-46.901
-45.986
-43.992
-41.012
-37.514
-33.931
-30.634
-28.035
-26.433
-26.07
-27.109
-29.106
-30.836
-30.967
-28.089
-20.688
-7.514
12.836
41.911
79.562
123.692
172.227
222.701
274.853
331.091
390.131
447.817
496.416
524.447
526.039
500.723
451.764
387.509
314.784
238.762
165.239
97.414
36.974
-16.454
-66.703
-116.889
-168.216
-219.569
-267.041
-307.9
-341.333
-367.649
-388.578
-405.271
-417.979
-427.22
-433.563
-437.428
-439.319
-439.483
-437.817
-434.267
-428.762
-421.05
-410.865
-398.178
-383.151
-366.105
-347.52
-327.856
-307.556
-287.094
-266.942
-247.444
-228.836
-211.313
-194.99
-179.967
-166.354
-154.205
-143.525
-134.308
-126.514
-120.06
-114.846
-110.737
-107.573
-105.236
-103.625
-102.631
-102.135
-101.995
-102.068
-102.228
-102.358
-102.331
-102.011
-101.299
-100.138
-98.52
-96.474
-94.035
-91.245
-88.137
-84.75
-81.131
-77.335
-73.425
-69.454
-65.481
-61.568
-57.793
-54.246
-50.99
-48.056
-45.447
-43.147
-41.132
-39.378
-37.851
-36.504
-35.293
-34.174
-33.105
-32.054
-30.98
-29.839
-28.579
-27.14
-25.477
-23.553
-21.343
-18.828
-15.991
-12.818
-9.302
-5.442
-1.237
3.314
8.218
13.486
19.129
25.158
31.576
38.375
45.549
53.086
60.969
69.178
77.68
86.432
95.396
104.54
113.841
123.278
132.823
142.442
152.096
161.748
171.374
180.964
190.509
200.002
209.452
218.884
228.347
237.905
247.601
257.455
267.466
277.618
287.898
298.289
308.767
319.287
329.777
340.159
350.348
360.247
369.74
378.68
386.89
394.194
400.445
405.528
409.353
411.843
412.925
412.545
410.669
407.295
402.449
396.166
388.494
379.513
369.322
358.054
345.871
332.907
319.286
305.134
290.56
275.682
260.63
245.512
230.438
215.517
200.839
186.488
172.537
159.018
145.962
133.39
121.311
109.777
98.829
88.483
78.759
69.662
61.175
53.286
45.957
39.117
32.71
26.693
21.026
15.71
10.728
6.056
1.666
-2.493
-6.466
-10.275
-13.947
-17.507
-20.959
-24.302
-27.515
-30.537
-33.326
-35.863
-38.134
-40.149
-41.915
-43.427
-44.686
-45.695
-46.455
-46.98
-47.276
-47.35
-47.217
-46.902
-46.439
-45.883
-45.276
-44.647
-44.021
-43.413
-42.836
-42.307
-41.832
-41.413
-41.051
-40.747
-40.504
-40.329
-40.223
-40.181
-40.198
-40.262
-40.366
-40.503
-40.666
-40.849
-41.046
-41.251
-41.46
-41.674
-41.889
-42.099
-42.301
-42.486
-42.65
-42.787
-42.89
-42.953
-42.971
-42.94
-42.857
-42.717
-42.521
-42.266
-41.951
-41.577
-41.142
-40.649
-40.098
-39.492
-38.832
-38.121
-37.363
-36.561
-35.718
-34.838
-33.924
-32.981
-32.011
-31.02
-30.009
-28.984
-27.947
-26.903
-25.854
-24.805
-23.76
-22.722
-21.694
-20.68
-19.684
-18.707
-17.753
-16.823
-15.917
-15.039
-14.187
-13.363
-12.566
-11.796
-11.053
-10.337
-9.646
-8.979
-8.336
-7.715
-7.115
-6.534
-5.971
-5.426
-4.896
-4.38
-3.878
-3.388
-2.908
-2.438
-1.977
-1.523
-1.075
-0.632
-0.192
0.245
0.68
1.115
1.55
1.985
2.422
2.86
3.299
3.74
4.183
4.626
5.072
5.518
5.964
6.411
6.858
7.305
7.75
8.194
8.637
9.077
9.515
9.951
10.385
10.815
11.243
11.669
12.091
12.51
12.927
13.339
13.748
14.153
14.553
14.949
15.34
15.726
16.106
16.48
16.849
17.211
17.567
17.915
18.256
18.589
18.914
19.23
19.537
19.834
20.121
20.397
20.661
20.913
21.152
21.375
21.583
21.774
21.947
22.099
22.23
22.337
22.42
22.476
22.503
22.501
22.466
22.397
22.292
22.149
21.965
21.74
21.47
21.155
20.791
20.378
19.914
19.397
18.826
18.2
17.517
16.776
15.977
15.119
14.202
13.226
12.19
11.097
9.946
8.74
7.481
6.171
4.813
3.41
1.967
0.488
-1.023
-2.56
-4.117
-5.688
-7.265
-8.841
-10.408
-11.958
-13.483
-14.972
-16.418
-17.811
-19.142
-20.402
-21.582
-22.673
-23.665
-24.55
-25.319
-25.964
-26.477
-26.852
-27.08
-27.156
-27.076
-26.834
-26.428
-25.854
-25.113
-24.202
-23.124
-21.881
-20.477
-18.915
-17.202
-15.348
-13.36
-11.25
-9.03
-6.714
-4.317
-1.858
0.647
3.178
5.718
8.246
10.743
13.19
15.566
17.855
20.037
22.093
24.004
25.748
27.308
28.667
29.808
30.716
31.376
31.779
31.918
31.791
31.393
30.72
29.762
28.516
26.984
25.174
23.096
20.766
18.205
15.444
12.526
9.495
6.39
3.244
0.083
-3.067
-6.169
-9.184
-12.068
-14.783
-17.31
-19.63
-21.717
-23.568
-25.203
-26.668
-28.042
-29.398
-30.777
-32.225
-33.798
-35.551
-37.561
-39.905
-42.616
-45.751
-49.384
-53.52
-58.134
-63.102
-68.116
-72.849
-77.011
-80.226
-82.125
-82.493
-81.155
-78.202
-74.137
-69.408
-64.415
-59.688
-55.675
-52.599
-50.57
-49.328
-47.872
-45.093
-39.976
-30.609
-15.161
7.015
37.012
74.11
115.891
162.428
212.732
265.845
322.569
379.916
434.018
481.316
515.664
531.398
523.399
485.519
413.499
307.203
170.62
14.078
-146.046
-292.46
-409.845
-489.19
-531.717
-545.218
-540.466
-527.191
-509.003
-485.629
-455.524
-417.241
-372.9
-326.423
-281.432
-241.575
-208.587
-182.585
-163.408
-150.168
-141.596
-136.644
-134.141
-132.555
-130.674
-127.609
-122.648
-115.797
-107.5
-98.167
-88.356
-78.788
-70.077
-62.845
-57.661
-54.619
-53.527
-54.127
-56.061
-58.988
-62.583
-66.409
-70.012
-73.095
-75.512
-77.221
-78.254
-78.625
-78.341
-77.45
-76.037
-74.199
-72.026
-69.586
-66.928
-64.097
-61.175
-58.268
-55.487
-52.946
-50.716
-48.833
-47.325
-46.208
-45.482
-45.134
-45.13
-45.42
-45.958
-46.705
-47.627
-48.695
-49.868
-51.097
-52.33
-53.511
-54.601
-55.569
-56.391
-57.043
-57.51
-57.781
-57.852
-57.729
-57.411
-56.893
-56.171
-55.24
-54.095
-52.737
-51.166
-49.384
-47.393
-45.195
-42.792
-40.188
-37.387
-34.393
-31.21
-27.841
-24.292
-20.57
-16.684
-12.645
-8.463
-4.149
0.284
4.824
9.457
14.171
18.954
23.793
28.674
33.585
38.513
43.443
48.362
53.256
58.11
62.91
67.641
72.29
76.84
81.278
85.589
89.76
93.776
97.626
101.295
104.771
108.044
111.102
113.934
116.532
118.886
120.988
122.83
124.408
125.714
126.744
127.495
127.963
128.145
128.041
127.65
126.972
126.009
124.763
123.238
121.439
119.372
117.044
114.465
111.643
108.589
105.315
101.833
98.155
94.297
90.273
86.097
81.785
77.353
72.817
68.193
63.497
58.745
53.953
49.136
44.309
39.489
34.688
29.922
25.204
20.547
15.964
11.468
7.07
2.78
-1.391
-5.435
-9.344
-13.109
-16.726
-20.188
-23.492
-26.634
-29.611
-32.422
-35.066
-37.544
-39.856
-42.005
-43.992
-45.821
-47.495
-49.017
-50.392
-51.622
-52.713
-53.667
-54.489
-55.183
-55.753
-56.204
-56.54
-56.765
-56.883
-56.899
-56.817
-56.64
-56.374
-56.021
-55.586
-55.071
-54.481
-53.819
-53.087
-52.29
-51.43
-50.509
-49.531
-48.497
-47.409
-46.27
-45.082
-43.847
-42.568
-41.247
-39.889
-38.497
-37.079
-35.641
-34.189
-32.731
-31.275
-29.829
-28.401
-26.998
-25.627
-24.292
-23.002
-21.763
-20.583
-19.473
-18.438
-17.487
-16.626
-15.862
-15.202
-14.649
-14.204
-13.867
-13.638
-13.524
-13.536
-13.685
-13.973
-14.399
-14.959
-15.641
-16.434
-17.315
-18.245
-19.189
-20.11
-20.978
-21.773
-22.472
-23.046
-23.456
-23.653
-23.597
-23.263
-22.636
-21.714
-20.509
-19.044
-17.375
-15.597
-13.79
-12.039
-10.424
-9.002
-7.857
-7.082
-6.75
-6.974
-7.875
-9.497
-11.834
-14.775
-18.063
-21.461
-24.733
-27.54
-29.54
-30.453
-30.107
-28.722
-26.806
-24.764
-22.931
-21.516
-20.634
-20.497
-21.119
-21.749
-21.054
-17.64
-10.18
2.283
20.647
46.176
80.013
121.545
168.308
217.772
267.264
316.839
369.247
423.675
476.977
522.131
546.712
543.502
510.887
452.042
379.861
306.314
238.292
180.497
129.328
79.03
27.708
-26.309
-81.105
-132.559
-179.112
-219.654
-253.92
-283.183
-308.015
-328.523
-345.034
-357.656
-366.722
-373.002
-377.112
-379.406
-380.121
-379.379
-377.157
-373.384
-367.907
-360.441
-350.921
-339.518
-326.487
-312.175
-296.957
-281.181
-265.228
-249.496
-234.212
-219.489
-205.406
-191.999
-179.339
-167.528
-156.604
-146.568
-137.437
-129.215
-121.881
-115.408
-109.714
-104.695
-100.284
-96.449
-93.181
-90.466
-88.263
-86.505
-85.108
-83.985
-83.046
-82.184
-81.275
-80.224
-78.977
-77.514
-75.854
-74.018
-72.012
-69.835
-67.489
-64.98
-62.329
-59.561
-56.704
-53.796
-50.89
-48.059
-45.392
-42.95
-40.765
-38.847
-37.181
-35.747
-34.531
-33.501
-32.618
-31.848
-31.151
-30.495
-29.853
-29.188
-28.455
-27.603
-26.571
-25.31
-23.786
-21.966
-19.832
-17.364
-14.547
-11.373
-7.843
-3.954
0.299
4.918
9.915
15.294
21.059
27.216
33.762
40.687
47.983
55.633
63.614
71.904
80.467
89.26
98.249
107.396
116.67
126.045
135.484
144.954
154.426
163.864
173.245
182.563
191.809
200.984
210.104
219.186
228.258
237.368
246.536
255.773
265.079
274.435
283.83
293.24
302.618
311.912
321.051
329.937
338.474
346.557
354.043
360.811
366.739
371.687
375.563
378.291
379.798
380.036
378.955
376.518
372.721
367.591
361.172
353.547
344.806
335.057
324.452
313.116
301.159
288.7
275.809
262.561
249.048
235.357
221.591
207.861
194.271
180.895
167.796
155.01
142.557
130.444
118.649
107.176
96.055
85.322
75.053
65.307
56.119
47.504
39.457
31.938
24.891
18.273
12.047
6.191
0.7
-4.425
-9.173
-13.546
-17.563
-21.264
-24.712
-27.964
-31.062
-34.031
-36.876
-39.577
-42.093
-44.39
-46.44
-48.225
-49.744
-51.005
-52.021
-52.805
-53.374
-53.733
-53.872
-53.787
-53.475
-52.942
-52.208
-51.302
-50.261
-49.126
-47.931
-46.707
-45.475
-44.253
-43.052
-41.877
-40.731
-39.617
-38.543
-37.515
-36.543
-35.634
-34.789
-34.009
-33.292
-32.637
-32.038
-31.494
-31.003
-30.563
-30.175
-29.84
-29.563
-29.345
-29.187
-29.091
-29.054
-29.077
-29.157
-29.292
-29.48
-29.718
-30.004
-30.336
-30.714
-31.135
-31.598
-32.102
-32.645
-33.226
-33.845
-34.499
-35.187
-35.909
-36.662
-37.446
-38.26
-39.101
-39.967
-40.857
-41.769
-42.699
-43.647
-44.607
-45.579
-46.558
-47.541
-48.525
-49.507
-50.483
-51.451
-52.407
-53.349
-54.274
-55.18
-56.062
-56.918
-57.747
-58.543
-59.306
-60.032
-60.719
-61.364
-61.966
-62.522
-63.03
-63.489
-63.898
-64.254
-64.558
-64.807
-65.003
-65.143
-65.23
-65.263
-65.242
-65.169
-65.044
-64.87
-64.647
-64.377
-64.063
-63.705
-63.306
-62.868
-62.393
-61.883
-61.342
-60.77
-60.17
-59.544
-58.895
-58.225
-57.535
-56.827
-56.104
-55.367
-54.619
-53.86
-53.093
-52.319
-51.539
-50.756
-49.969
-49.18
-48.389
-47.598
-46.807
-46.016
-45.225
-44.435
-43.644
-42.853
-42.062
-41.27
-40.476
-39.681
-38.882
-38.081
-37.276
-36.467
-35.653
-34.834
-34.01
-33.181
-32.347
-31.506
-30.661
-29.809
-28.953
-28.091
-27.224
-26.352
-25.477
-24.597
-23.715
-22.831
-21.945
-21.059
-20.174
-19.292
-18.414
-17.543
-16.679
-15.825
-14.985
-14.159
-13.35
-12.562
-11.796
-11.055
-10.342
-9.659
-9.009
-8.393
-7.816
-7.277
-6.781
-6.328
-5.921
-5.561
-5.251
-4.99
-4.782
-4.627
-4.526
-4.479
-4.487
-4.549
-4.667
-4.839
-5.065
-5.341
-5.668
-6.042
-6.46
-6.92
-7.416
-7.945
-8.502
-9.082
-9.679
-10.287
-10.901
-11.514
-12.118
-12.707
-13.275
-13.812
-14.312
-14.766
-15.167
-15.506
-15.778
-15.972
-16.084
-16.104
-16.027
-15.846
-15.554
-15.146
-14.616
-13.959
-13.172
-12.252
-11.196
-10.004
-8.674
-7.208
-5.607
-3.875
-2.017
-0.036
2.06
4.266
6.572
8.969
11.446
13.992
16.593
19.237
21.906
24.584
27.253
29.896
32.496
35.034
37.493
39.855
42.105
44.227
46.206
48.027
49.671
51.123
52.368
53.394
54.19
54.745
55.048
55.097
54.893
54.437
53.73
52.771
51.552
50.071
48.336
46.354
44.139
41.711
39.09
36.309
33.415
30.45
27.454
24.461
21.49
18.569
15.737
13.027
10.49
8.162
6.059
4.205
2.618
1.283
0.177
-0.75
-1.587
-2.397
-3.237
-4.184
-5.291
-6.629
-8.284
-10.306
-12.768
-15.762
-19.285
-23.299
-27.696
-32.188
-36.483
-40.307
-43.28
-45.049
-45.418
-44.251
-41.691
-38.239
-34.355
-30.509
-27.18
-24.634
-23.098
-22.744
-23.197
-23.569
-22.215
-16.676
-5.229
12.895
36.641
63.564
93.27
127.232
168.927
221.94
284.984
353.165
419.894
478.966
527.457
562.754
579.907
570.701
525.903
440.717
316.764
164.89
1.954
-154.703
-288.556
-390.159
-456.868
-491.231
-499.608
-486.525
-456.872
-414.633
-365.152
-317.872
-278.425
-249.728
-230.275
-212.753
-193.568
-172.196
-150.311
-132.895
-121.774
-115.999
-114.173
-113.407
-111.948
-109.438
-105.39
-99.901
-93.416
-86.164
-78.515
-71.054
-64.221
-58.484
-54.411
-52.155
-51.566
-52.442
-54.429
-57.179
-60.418
-63.759
-66.757
-69.155
-70.825
-71.727
-71.926
-71.448
-70.295
-68.528
-66.235
-63.514
-60.462
-57.149
-53.636
-50.001
-46.343
-42.786
-39.445
-36.39
-33.667
-31.299
-29.293
-27.659
-26.394
-25.472
-24.857
-24.509
-24.391
-24.476
-24.733
-25.119
-25.586
-26.078
-26.548
-26.963
-27.296
-27.528
-27.641
-27.621
-27.456
-27.149
-26.698
-26.1
-25.35
-24.438
-23.359
-22.112
-20.695
-19.109
-17.353
-15.426
-13.327
-11.056
-8.614
-6.002
-3.221
-0.269
2.85
6.132
9.572
13.162
16.894
20.76
24.751
28.857
33.066
37.368
41.753
46.21
50.726
55.291
59.891
64.515
69.149
73.782
78.399
82.988
87.534
92.024
96.445
100.782
105.022
109.15
113.154
117.019
120.734
124.286
127.662
130.851
133.842
136.625
139.189
141.526
143.626
145.481
147.084
148.429
149.51
150.322
150.861
151.123
151.107
150.81
150.233
149.375
148.24
146.829
145.147
143.198
140.99
138.529
135.824
132.884
129.719
126.342
122.763
118.996
115.054
110.95
106.699
102.315
97.813
93.209
88.517
83.754
78.935
74.075
69.189
64.293
59.402
54.531
49.693
44.902
40.171
35.514
30.94
26.462
22.09
17.832
13.698
9.693
5.826
2.1
-1.479
-4.909
-8.186
-11.309
-14.277
-17.091
-19.75
-22.256
-24.611
-26.818
-28.878
-30.795
-32.573
-34.216
-35.727
-37.111
-38.372
-39.515
-40.546
-41.469
-42.289
-43.012
-43.642
-44.184
-44.643
-45.023
-45.327
-45.561
-45.727
-45.829
-45.869
-45.85
-45.775
-45.645
-45.461
-45.225
-44.938
-44.601
-44.214
-43.78
-43.298
-42.77
-42.198
-41.583
-40.928
-40.236
-39.51
-38.756
-37.977
-37.178
-36.365
-35.544
-34.72
-33.898
-33.082
-32.278
-31.491
-30.725
-29.989
-29.288
-28.629
-28.02
-27.468
-26.978
-26.558
-26.213
-25.942
-25.751
-25.639
-25.611
-25.678
-25.844
-26.113
-26.486
-26.957
-27.518
-28.158
-28.857
-29.58
-30.297
-30.976
-31.589
-32.12
-32.544
-32.834
-32.964
-32.892
-32.584
-32.021
-31.183
-30.057
-28.654
-26.993
-25.116
-23.11
-21.056
-19.019
-17.073
-15.27
-13.671
-12.369
-11.456
-11.004
-11.093
-11.809
-13.203
-15.282
-17.955
-20.994
-24.1
-26.977
-29.318
-30.779
-31.087
-30.105
-27.92
-24.948
-21.759
-18.786
-16.336
-14.849
-14.712
-15.917
-18.068
-19.579
-17.838
-11.435
0.329
17.529
38.751
64.871
98.038
139.647
192.014
254.451
324.028
397.085
466.422
524.897
565.14
579.804
567.137
527.95
465.802
389.158
304.671
219.158
140.378
71.052
12.901
-34.649
-76.215
-115.667
-156.986
-202.174
-250.609
-299.797
-345.22
-384.043
-414.283
-435.87
-451.643
-463.45
-472.773
-480.417
-485.395
-487.186
-485.874
-481.445
-474.174
-464.151
-451.064
-434.879
-415.874
-394.384
-370.874
-345.853
-319.791
-293.228
-266.752
-240.788
-215.648
-191.628
-168.949
-147.814
-128.441
-110.958
-95.433
-81.941
-70.503
-61.091
-53.641
-48.015
-44.038
-41.535
-40.349
-40.331
-41.315
-43.094
-45.458
-48.217
-51.179
-54.171
-57.011
-59.509
-61.532
-63.007
-63.908
-64.251
-64.069
-63.392
-62.262
-60.731
-58.864
-56.747
-54.457
-52.066
-49.654
-47.304
-45.113
-43.191
-41.604
-40.377
-39.513
-38.989
-38.776
-38.844
-39.145
-39.618
-40.204
-40.847
-41.493
-42.1
-42.613
-42.976
-43.127
-43
-42.546
-41.732
-40.53
-38.922
-36.894
-34.433
-31.54
-28.218
-24.47
-20.3
-15.707
-10.691
-5.251
0.612
6.891
13.573
20.642
28.079
35.861
43.96
52.345
60.971
69.797
78.783
87.892
97.099
106.381
115.711
125.059
134.396
143.699
152.968
162.207
171.416
180.599
189.761
198.916
208.108
217.372
226.722
236.164
245.671
255.2
264.714
274.167
283.496
292.624
301.436
309.806
317.63
324.811
331.249
336.843
341.453
344.96
347.28
348.348
348.142
346.661
343.902
339.885
334.668
328.332
320.997
312.808
303.879
294.316
284.228
273.725
262.95
252.033
241.07
230.14
219.306
208.616
198.123
187.871
177.864
168.094
158.531
149.128
139.863
130.731
121.719
112.822
104.024
95.313
86.697
78.198
69.834
61.625
53.586
45.73
38.091
30.704
23.609
16.85
10.456
4.445
-1.165
-6.363
-11.142
-15.499
-19.44
-22.981
-26.134
-28.911
-31.323
-33.382
-35.104
-36.512
-37.624
-38.463
-39.049
-39.401
-39.539
-39.482
-39.247
-38.852
-38.311
-37.638
-36.848
-35.957
-34.98
-33.932
-32.83
-31.685
-30.513
-29.327
-28.139
-26.959
-25.797
-24.661
-23.559
-22.497
-21.481
-20.515
-19.603
-18.749
-17.955
-17.222
-16.552
-15.944
-15.399
-14.915
-14.492
-14.128
-13.82
-13.568
-13.369
-13.219
-13.118
-13.061
-13.046
-13.07
-13.13
-13.223
-13.345
-13.493
-13.665
-13.856
-14.065
-14.288
-14.523
-14.768
-15.021
-15.28
-15.544
-15.81
-16.079
-16.348
-16.618
-16.887
-17.156
-17.424
-17.69
-17.955
-18.219
-18.482
-18.745
-19.007
-19.269
-19.532
-19.795
-20.06
-20.327
-20.595
-20.866
-21.139
-21.415
-21.694
-21.976
-22.261
-22.55
-22.841
-23.136
-23.434
-23.736
-24.04
-24.348
-24.658
-24.971
-25.286
-25.603
-25.922
-26.243
-26.564
-26.887
-27.21
-27.534
-27.857
-28.181
-28.504
-28.826
-29.148
-29.467
-29.785
-30.101
-30.415
-30.727
-31.037
-31.346
-31.652
-31.957
-32.261
-32.564
-32.867
-33.168
-33.469
-33.77
-34.071
-34.371
-34.672
-34.972
-35.273
-35.573
-35.874
-36.175
-36.475
-36.774
-37.071
-37.367
-37.66
-37.95
-38.237
-38.52
-38.799
-39.073
-39.341
-39.604
-39.859
-40.107
-40.347
-40.578
-40.798
-41.007
-41.205
-41.39
-41.562
-41.72
-41.864
-41.994
-42.108
-42.207
-42.29
-42.356
-42.407
-42.442
-42.461
-42.465
-42.454
-42.429
-42.391
-42.34
-42.278
-42.206
-42.123
-42.032
-41.932
-41.826
-41.714
-41.597
-41.477
-41.354
-41.231
-41.108
-40.986
-40.868
-40.754
-40.646
-40.544
-40.45
-40.366
-40.292
-40.229
-40.178
-40.142
-40.119
-40.113
-40.122
-40.149
-40.192
-40.254
-40.335
-40.434
-40.553
-40.692
-40.851
-41.032
-41.234
-41.458
-41.705
-41.975
-42.269
-42.586
-42.928
-43.293
-43.683
-44.097
-44.535
-44.996
-45.481
-45.988
-46.517
-47.066
-47.634
-48.221
-48.824
-49.442
-50.072
-50.712
-51.359
-52.012
-52.666
-53.318
-53.965
-54.603
-55.226
-55.831
-56.412
-56.965
-57.483
-57.96
-58.391
-58.769
-59.089
-59.342
-59.523
-59.624
-59.64
-59.564
-59.39
-59.113
-58.727
-58.227
-57.608
-56.867
-56
-55.003
-53.875
-52.614
-51.217
-49.686
-48.021
-46.224
-44.296
-42.241
-40.063
-37.769
-35.363
-32.854
-30.25
-27.559
-24.793
-21.963
-19.082
-16.163
-13.222
-10.276
-7.342
-4.437
-1.578
1.216
3.926
6.536
9.028
11.387
13.6
15.651
17.524
19.205
20.68
21.939
22.973
23.772
24.329
24.635
24.688
24.492
24.052
23.368
22.439
21.259
19.827
18.155
16.254
14.136
11.819
9.316
6.654
3.876
1.022
-1.867
-4.759
-7.639
-10.482
-13.252
-15.915
-18.411
-20.695
-22.756
-24.575
-26.138
-27.464
-28.533
-29.34
-30.01
-30.643
-31.347
-32.267
-33.394
-34.695
-36.306
-38.371
-40.86
-43.738
-46.772
-49.588
-52.197
-54.664
-56.814
-58.455
-59.48
-59.829
-59.866
-60.235
-61.052
-62.258
-63.893
-65.919
-68.342
-71.043
-73.287
-74.029
-72.732
-69.022
-62.591
-52.346
-36.133
-12.5
18.409
53.269
87.225
117.704
145.763
177.573
219.987
275.996
343.67
414.412
478.219
525.777
548.381
540.154
495.746
413.077
294.971
149.552
-9.013
-164.767
-302.045
-409.679
-482.771
-522.278
-533.275
-520.672
-490.488
-447.416
-397.272
-349.291
-308.561
-277.889
-255.639
-234.243
-210.185
-183.092
-154.965
-131.543
-115.182
-104.994
-99.622
-96.313
-93.29
-90.28
-86.79
-82.343
-76.909
-70.558
-63.444
-56.008
-48.681
-41.763
-35.749
-31.154
-28.111
-26.542
-26.255
-26.913
-28.218
-29.89
-31.537
-32.782
-33.413
-33.346
-32.595
-31.232
-29.301
-26.849
-23.961
-20.753
-17.326
-13.758
-10.114
-6.448
-2.84
0.598
3.765
6.588
9.024
11.057
12.683
13.899
14.71
15.148
15.251
15.061
14.617
13.945
13.079
12.058
10.927
9.742
8.55
7.385
6.274
5.24
4.3
3.474
2.77
2.191
1.739
1.42
1.24
1.21
1.339
1.631
2.09
2.718
3.519
4.498
5.66
7.008
8.543
10.271
12.193
14.316
16.64
19.166
21.893
24.818
27.939
31.25
34.749
38.427
42.281
46.302
50.485
54.823
59.309
63.934
68.689
73.566
78.555
83.647
88.831
94.095
99.429
104.82
110.257
115.726
121.215
126.71
132.197
137.663
143.092
148.471
153.787
159.024
164.168
169.207
174.127
178.916
183.56
188.048
192.368
196.509
200.462
204.215
207.76
211.088
214.191
217.062
219.696
222.085
224.226
226.115
227.75
229.128
230.251
231.116
231.728
232.087
232.197
232.064
231.692
231.087
230.258
229.211
227.955
226.5
224.853
223.026
221.027
218.868
216.559
214.111
211.534
208.838
206.035
203.136
200.149
197.087
193.958
190.772
187.539
184.268
180.967
177.645
174.31
170.969
167.629
164.296
160.976
157.674
154.393
151.139
147.915
144.723
141.567
138.448
135.369
132.331
129.337
126.387
123.484
120.627
117.818
115.057
112.345
109.683
107.072
104.512
102.004
99.548
97.145
94.796
92.502
90.263
88.079
85.95
83.877
81.861
79.902
78
76.156
74.37
72.644
70.976
69.367
67.817
66.324
64.887
63.504
62.171
60.885
59.64
58.434
57.26
56.114
54.988
53.876
52.773
51.672
50.568
49.452
48.317
47.154
45.955
44.712
43.416
42.058
40.63
39.122
37.53
35.85
34.077
32.208
30.235
28.148
25.942
23.616
21.173
18.618
15.96
13.211
10.393
7.544
4.698
1.887
-0.863
-3.535
-6.108
-8.554
-10.846
-12.946
-14.824
-16.469
-17.865
-19.002
-19.889
-20.539
-20.994
-21.35
-21.692
-22.102
-22.649
-23.358
-24.264
-25.433
-26.928
-28.821
-31.169
-33.971
-37.252
-41.092
-45.495
-50.394
-55.575
-60.62
-65.135
-68.839
-71.4
-72.453
-71.773
-69.281
-65.258
-60.388
-55.273
-50.43
-46.491
-44.047
-43.459
-44.053
-43.952
-41.259
-34.654
-24.751
-13.167
0.918
20.116
48.672
90.99
146.829
212.798
284.662
356.704
423.477
479.644
517.242
528.134
509.072
460.049
385.754
297.102
202.231
108.845
26.028
-43.969
-99.111
-139.39
-172.492
-204.143
-239.811
-283.89
-333.284
-383.103
-428.017
-463.09
-487.639
-503.682
-514.393
-522.564
-529.455
-534.954
-538.057
-538.286
-535.764
-530.657
-523.272
-513.63
-501.409
-486.593
-469.428
-450.209
-429.38
-407.417
-384.731
-361.762
-338.983
-316.715
-295.197
-274.68
-255.326
-237.275
-220.673
-205.585
-192.057
-180.156
-169.903
-161.261
-154.165
-148.485
-144.067
-140.814
-138.629
-137.405
-137.024
-137.31
-138.094
-139.239
-140.601
-142.036
-143.392
-144.493
-145.222
-145.527
-145.393
-144.839
-143.894
-142.566
-140.875
-138.864
-136.583
-134.105
-131.496
-128.806
-126.098
-123.448
-120.947
-118.693
-116.749
-115.134
-113.846
-112.867
-112.171
-111.735
-111.516
-111.458
-111.507
-111.61
-111.72
-111.798
-111.794
-111.655
-111.32
-110.729
-109.835
-108.607
-107.018
-105.047
-102.679
-99.901
-96.71
-93.109
-89.097
-84.671
-79.835
-74.584
-68.922
-62.851
-56.369
-49.484
-42.209
-34.557
-26.549
-18.208
-9.555
-0.625
8.535
17.884
27.378
36.983
46.682
56.451
66.262
76.087
85.892
95.661
105.397
115.093
124.739
134.329
143.853
153.326
162.794
172.281
181.799
191.334
200.838
210.266
219.577
228.713
237.606
246.163
254.255
261.783
268.666
274.824
280.18
284.632
288.04
290.301
291.343
291.121
289.635
286.884
282.869
277.629
271.233
263.78
255.409
246.231
236.326
225.781
214.682
203.138
191.289
179.246
167.089
154.889
142.695
130.56
118.54
106.659
94.913
83.282
71.722
60.216
48.774
37.402
26.108
14.894
3.75
-7.318
-18.282
-29.119
-39.804
-50.316
-60.639
-70.743
-80.583
-90.112
-99.279
-108.046
-116.392
-124.295
-131.738
-138.708
-145.193
-151.192
-156.714
-161.763
-166.345
-170.465
-174.125
-177.337
-180.117
-182.48
-184.445
-186.029
-187.247
-188.115
-188.653
-188.875
-188.799
-188.438
-187.807
-186.921
-185.798
-184.455
-182.911
-181.183
-179.29
-177.248
-175.076
-172.791
-170.408
-167.942
-165.407
-162.817
-160.184
-157.52
-154.837
-152.146
-149.455
-146.774
-144.112
-141.476
-138.873
-136.309
-133.789
-131.318
-128.9
-126.54
-124.24
-122.003
-119.83
-117.723
-115.682
-113.708
-111.801
-109.958
-108.178
-106.459
-104.798
-103.193
-101.64
-100.136
-98.677
-97.26
-95.88
-94.534
-93.218
-91.928
-90.662
-89.414
-88.183
-86.964
-85.755
-84.553
-83.354
-82.157
-80.959
-79.757
-78.549
-77.334
-76.11
-74.875
-73.629
-72.37
-71.098
-69.812
-68.514
-67.202
-65.878
-64.542
-63.196
-61.84
-60.477
-59.108
-57.735
-56.361
-54.987
-53.615
-52.249
-50.891
-49.541
-48.203
-46.879
-45.57
-44.277
-43.004
-41.75
-40.517
-39.307
-38.121
-36.96
-35.824
-34.715
-33.633
-32.577
-31.549
-30.547
-29.572
-28.624
-27.701
-26.803
-25.928
-25.076
-24.246
-23.435
-22.642
-21.865
-21.101
-20.349
-19.605
-18.868
-18.136
-17.405
-16.674
-15.942
-15.205
-14.461
-13.71
-12.948
-12.174
-11.387
-10.584
-9.763
-8.924
-8.065
-7.185
-6.282
-5.355
-4.404
-3.427
-2.424
-1.393
-0.334
0.754
1.871
3.018
4.194
5.4
6.635
7.899
9.192
10.512
11.86
13.235
14.637
16.064
17.517
18.993
20.494
22.017
23.563
25.129
26.716
28.322
29.945
31.586
33.242
34.914
36.598
38.295
40.001
41.717
43.44
45.167
46.898
48.63
50.36
52.087
53.809
55.523
57.226
58.917
60.592
62.25
63.886
65.499
67.084
68.639
70.16
71.644
73.087
74.486
75.837
77.136
78.379
79.563
80.684
81.737
82.721
83.629
84.46
85.21
85.875
86.453
86.942
87.337
87.638
87.842
87.948
87.955
87.861
87.666
87.37
86.974
86.478
85.884
85.194
84.41
83.535
82.574
81.53
80.408
79.214
77.954
76.635
75.263
73.847
72.395
70.915
69.417
67.909
66.402
64.905
63.429
61.983
60.578
59.226
57.936
56.719
55.586
54.545
53.607
52.781
52.075
51.498
51.056
50.755
50.602
50.602
50.759
51.075
51.553
52.192
52.992
53.952
55.068
56.335
57.749
59.3
60.983
62.787
64.703
66.718
68.82
70.995
73.228
75.503
77.804
80.109
82.398
84.652
86.85
88.971
90.994
92.899
94.665
96.278
97.72
98.976
100.028
100.86
101.456
101.804
101.893
101.714
101.259
100.521
99.499
98.197
96.62
94.771
92.65
90.251
87.574
84.627
81.421
77.972
74.302
70.431
66.394
62.239
58.012
53.759
49.518
45.315
41.186
37.169
33.312
29.672
26.295
23.207
20.432
17.978
15.836
13.99
12.395
10.975
9.657
8.35
6.967
5.441
3.686
1.634
-0.807
-3.784
-7.346
-11.466
-16.031
-20.782
-25.458
-29.87
-33.7
-36.549
-38.213
-38.572
-37.766
-36.355
-34.759
-33.29
-32.388
-32.295
-32.948
-34.246
-35.698
-36.194
-34.799
-29.917
-19.156
-1.044
24.904
57.2
92.555
129.12
167.718
211.549
263.992
324.762
389.3
450.565
502.426
541.839
566.627
574.216
558.683
511.624
428.46
308.081
157.645
-6.509
-167.1
-304.29
-403.271
-461.938
-484.347
-482.177
-469.095
-450.351
-427.144
-397.691
-358.423
-310.993
-259.825
-209.164
-163.82
-126.387
-97.34
-76.771
-63.891
-57.24
-55.425
-57.084
-60.512
-64.216
-66.986
-67.684
-65.917
-61.975
-56.285
-49.41
-42.122
-35.104
-29.067
-24.765
-22.438
-21.951
-23.059
-25.365
-28.461
-31.968
-35.426
-38.368
-40.556
-41.912
-42.445
-42.242
-41.356
-39.824
-37.742
-35.228
-32.384
-29.297
-26.038
-22.668
-19.274
-15.979
-12.893
-10.097
-7.64
-5.544
-3.817
-2.472
-1.506
-0.899
-0.618
-0.627
-0.893
-1.39
-2.087
-2.947
-3.922
-4.958
-6.009
-7.041
-8.029
-8.954
-9.799
-10.55
-11.196
-11.739
-12.176
-12.502
-12.713
-12.796
-12.743
-12.549
-12.213
-11.73
-11.097
-10.308
-9.359
-8.244
-6.962
-5.506
-3.873
-2.057
-0.054
2.135
4.511
7.071
9.812
12.732
15.825
19.084
22.503
26.075
29.793
33.648
37.632
41.735
45.948
50.258
54.655
59.126
63.658
68.239
72.853
77.487
82.125
86.753
91.356
95.916
100.418
104.846
109.185
113.418
117.529
121.503
125.324
128.979
132.453
135.733
138.806
141.661
144.287
146.673
148.81
150.691
152.307
153.652
154.722
155.511
156.017
156.239
156.175
155.826
155.195
154.283
153.095
151.638
149.916
147.938
145.713
143.25
140.561
137.656
134.549
131.253
127.782
124.149
120.371
116.462
112.437
108.311
104.102
99.823
95.491
91.121
86.728
82.327
77.931
73.556
69.214
64.918
60.679
56.511
52.423
48.426
44.53
40.743
37.074
33.53
30.117
26.843
23.71
20.725
17.889
15.206
12.678
10.306
8.09
6.031
4.129
2.382
0.791
-0.647
-1.934
-3.072
-4.064
-4.913
-5.623
-6.196
-6.636
-6.947
-7.132
-7.196
-7.142
-6.974
-6.696
-6.314
-5.832
-5.255
-4.588
-3.836
-3.003
-2.096
-1.118
-0.075
1.027
2.184
3.389
4.637
5.922
7.236
8.573
9.923
11.279
12.631
13.971
15.289
16.576
17.822
19.019
20.159
21.235
22.24
23.164
24
24.738
25.369
25.888
26.287
26.561
26.703
26.711
26.584
26.324
25.93
25.399
24.721
23.89
22.905
21.768
20.487
19.074
17.546
15.925
14.248
12.555
10.882
9.263
7.72
6.278
4.968
3.83
2.915
2.268
1.921
1.893
2.19
2.804
3.718
4.879
6.198
7.592
8.97
10.25
11.373
12.255
12.798
12.92
12.517
11.462
9.695
7.206
4.051
0.452
-3.337
-7.084
-10.468
-13.126
-14.79
-15.256
-14.565
-13.173
-11.576
-10.123
-9.081
-8.722
-9.325
-10.987
-13.407
-14.935
-12.987
-6.275
5.763
22.742
42.677
67.159
99.599
141.41
195.218
258.757
325.816
393.924
458.704
516.005
563.727
594.585
601.142
580.796
532.265
459.357
372.039
278.107
186.324
106.534
41.129
-9.79
-49.524
-87.221
-127.683
-171.878
-218.588
-262.896
-302.245
-337.222
-368.964
-398.775
-426.414
-450.635
-470.528
-485.697
-496.394
-502.72
-504.441
-501.739
-495.186
-485.364
-472.868
-457.987
-440.656
-421.07
-399.664
-376.772
-352.68
-327.694
-302.08
-276.193
-250.517
-225.396
-201.058
-177.767
-155.728
-135.115
-116.08
-98.7
-82.993
-69.013
-56.829
-46.442
-37.82
-30.864
-25.429
-21.436
-18.834
-17.55
-17.487
-18.498
-20.419
-23.143
-26.607
-30.722
-35.378
-40.415
-45.638
-50.931
-56.23
-61.482
-66.66
-71.683
-76.44
-80.867
-84.948
-88.679
-92.069
-95.078
-97.617
-99.651
-101.185
-102.265
-102.985
-103.387
-103.474
-103.276
-102.83
-102.202
-101.492
-100.748
-99.968
-99.16
-98.331
-97.517
-96.795
-96.196
-95.712
-95.322
-94.977
-94.647
-94.322
-93.958
-93.489
-92.835
-91.9
-90.623
-88.986
-86.955
-84.502
-81.588
-78.156
-74.182
-69.671
-64.627
-59.065
-53.002
-46.453
-39.462
-32.102
-24.442
-16.555
-8.5
-0.313
7.963
16.281
24.609
32.902
41.139
49.322
57.452
65.53
73.579
81.62
89.688
97.846
106.128
114.558
123.152
131.899
140.794
149.818
158.93
168.079
177.201
186.199
194.972
203.405
211.346
218.654
225.185
230.777
235.311
238.689
240.823
241.661
241.164
239.308
236.109
231.602
225.832
218.884
210.86
201.885
192.134
181.765
170.933
159.806
148.517
137.184
125.922
114.815
103.933
93.336
83.062
73.135
63.581
54.399
45.576
37.081
28.852
20.842
13.015
5.333
-2.225
-9.671
-17.017
-24.26
-31.379
-38.363
-45.192
-51.844
-58.307
-64.559
-70.574
-76.324
-81.77
-86.885
-91.653
-96.062
-100.106
-103.787
-107.109
-110.082
-112.728
-115.066
-117.112
-118.886
-120.401
-121.676
-122.729
-123.583
-124.256
-124.768
-125.137
-125.376
-125.502
-125.528
-125.466
-125.327
-125.116
-124.843
-124.517
-124.145
-123.736
-123.298
-122.835
-122.353
-121.858
-121.354
-120.842
-120.324
-119.8
-119.271
-118.734
-118.19
-117.636
-117.071
-116.492
-115.895
-115.28
-114.642
-113.979
-113.288
-112.566
-111.811
-111.022
-110.195
-109.331
-108.429
-107.486
-106.504
-105.483
-104.421
-103.321
-102.183
-101.007
-99.797
-98.553
-97.277
-95.973
-94.642
-93.288
-91.915
-90.525
-89.122
-87.71
-86.292
-84.872
-83.454
-82.041
-80.636
-79.243
-77.866
-76.507
-75.169
-73.855
-72.566
-71.306
-70.075
-68.875
-67.707
-66.572
-65.47
-64.402
-63.367
-62.367
-61.399
-60.464
-59.561
-58.688
-57.843
-57.026
-56.234
-55.465
-54.717
-53.989
-53.278
-52.582
-51.9
-51.229
-50.567
-49.913
-49.264
-48.618
-47.974
-47.329
-46.681
-46.03
-45.374
-44.71
-44.039
-43.358
-42.666
-41.963
-41.247
-40.517
-39.772
-39.011
-38.234
-37.439
-36.626
-35.796
-34.947
-34.08
-33.195
-32.292
-31.37
-30.43
-29.472
-28.496
-27.501
-26.488
-25.457
-24.407
-23.339
-22.254
-21.15
-20.029
-18.89
-17.732
-16.557
-15.364
-14.153
-12.923
-11.676
-10.411
-9.129
-7.829
-6.513
-5.181
-3.832
-2.467
-1.087
0.31
1.723
3.152
4.597
6.058
7.536
9.03
10.541
12.069
13.613
15.173
16.751
18.346
19.958
21.588
23.234
24.899
26.58
28.278
29.993
31.724
33.472
35.236
37.016
38.811
40.623
42.45
44.293
46.152
48.025
49.913
51.814
53.729
55.655
57.593
59.541
61.497
63.46
65.429
67.401
69.375
71.348
73.318
75.281
77.236
79.178
81.105
83.013
84.898
86.757
88.587
90.382
92.138
93.852
95.519
97.133
98.689
100.184
101.61
102.964
104.241
105.434
106.54
107.552
108.467
109.279
109.985
110.579
111.058
111.419
111.658
111.772
111.76
111.619
111.35
110.95
110.421
109.764
108.979
108.069
107.037
105.886
104.621
103.247
101.769
100.195
98.532
96.787
94.97
93.09
91.157
89.18
87.172
85.143
83.105
81.07
79.051
77.06
75.11
73.213
71.383
69.63
67.968
66.407
64.957
63.63
62.435
61.38
60.473
59.722
59.131
58.707
58.452
58.368
58.456
58.715
59.143
59.737
60.491
61.399
62.454
63.647
64.968
66.405
67.945
69.574
71.278
73.037
74.835
76.649
78.46
80.248
81.991
83.668
85.258
86.741
88.1
89.318
90.377
91.259
91.945
92.422
92.676
92.694
92.467
91.986
91.244
90.239
88.975
87.455
85.679
83.646
81.35
78.789
75.971
72.907
69.609
66.095
62.384
58.508
54.51
50.436
46.329
42.222
38.143
34.127
30.217
26.465
22.93
19.655
16.668
13.988
11.632
9.601
7.886
6.455
5.226
4.119
3.044
1.915
0.662
-0.793
-2.552
-4.755
-7.507
-10.826
-14.632
-18.737
-22.934
-27.053
-30.878
-34.069
-36.322
-37.487
-37.632
-37.159
-36.538
-36.048
-35.994
-36.714
-38.402
-41.085
-44.306
-47.117
-48.516
-47.399
-42.64
-32.62
-14.909
11.646
46.783
88.884
133.531
178.695
225.515
275.017
331.543
396.305
463.852
528.144
577.578
599.895
589.598
542.182
460.149
351.232
220.428
76.743
-70.042
-209.791
-327.17
-410.915
-457.662
-470.702
-460.865
-439.987
-413.141
-381.209
-344.409
-301.92
-257.552
-217.239
-182.611
-155.399
-135.356
-119.932
-109.705
-104.417
-102.675
-104.167
-106.887
-108.872
-109.412
-107.684
-103.631
-97.909
-91.028
-83.516
-76.09
-69.326
-63.764
-60.003
-58.209
-58.203
-59.733
-62.422
-65.898
-69.863
-73.926
-77.653
-80.792
-83.22
-84.904
-85.909
-86.264
-85.975
-85.099
-83.718
-81.923
-79.804
-77.427
-74.853
-72.153
-69.42
-66.77
-64.306
-62.097
-60.186
-58.597
-57.335
-56.412
-55.827
-55.556
-55.569
-55.83
-56.305
-56.968
-57.788
-58.728
-59.743
-60.779
-61.791
-62.748
-63.626
-64.405
-65.07
-65.606
-66.002
-66.259
-66.374
-66.344
-66.162
-65.82
-65.309
-64.626
-63.771
-62.743
-61.54
-60.159
-58.597
-56.855
-54.93
-52.824
-50.534
-48.058
-45.397
-42.554
-39.532
-36.339
-32.98
-29.461
-25.793
-21.984
-18.044
-13.984
-9.812
-5.541
-1.18
3.258
7.761
12.318
16.914
21.538
26.175
30.812
35.433
40.026
44.575
49.067
53.487
57.82
62.052
66.169
70.157
74.002
77.69
81.209
84.546
87.69
90.63
93.355
95.855
98.123
100.149
101.928
103.453
104.718
105.72
106.454
106.918
107.11
107.03
106.678
106.056
105.166
104.012
102.598
100.931
99.018
96.865
94.482
91.878
89.063
86.048
82.846
79.468
75.926
72.235
68.408
64.458
60.399
56.246
52.011
47.71
43.355
38.96
34.539
30.104
25.668
21.242
16.838
12.468
8.141
3.867
-0.345
-4.486
-8.549
-12.527
-16.414
-20.206
-23.897
-27.483
-30.963
-34.332
-37.589
-40.733
-43.762
-46.677
-49.476
-52.16
-54.729
-57.183
-59.523
-61.751
-63.867
-65.872
-67.768
-69.556
-71.237
-72.813
-74.285
-75.653
-76.919
-78.083
-79.145
-80.108
-80.97
-81.732
-82.395
-82.956
-83.417
-83.776
-84.033
-84.186
-84.235
-84.18
-84.02
-83.756
-83.388
-82.917
-82.347
-81.68
-80.92
-80.072
-79.14
-78.129
-77.047
-75.899
-74.691
-73.429
-72.118
-70.766
-69.38
-67.969
-66.541
-65.104
-63.67
-62.248
-60.847
-59.478
-58.147
-56.86
-55.624
-54.445
-53.33
-52.295
-51.349
-50.497
-49.744
-49.089
-48.527
-48.05
-47.636
-47.253
-46.871
-46.458
-45.991
-45.456
-44.829
-44.09
-43.213
-42.159
-40.899
-39.419
-37.699
-35.735
-33.54
-31.133
-28.574
-25.957
-23.375
-20.91
-18.632
-16.585
-14.832
-13.448
-12.511
-12.111
-12.303
-13.134
-14.689
-16.987
-19.958
-23.447
-27.121
-30.57
-33.476
-35.507
-36.273
-35.558
-33.313
-29.728
-25.375
-20.93
-16.844
-13.433
-11.139
-10.251
-10.623
-11.645
-11.46
-7.17
3.273
20.855
44.967
72.77
102.283
134.402
172.848
223.547
291.209
373.836
461.384
539.929
594.511
615.445
603.084
561.879
498.893
423.235
340.097
255.42
177.122
108.058
49.64
-0.131
-48.64
-99.299
-152.556
-206.712
-256.379
-298.843
-334.123
-362.953
-387.267
-408.094
-425.406
-439.422
-450.504
-458.943
-465.006
-468.746
-470.04
-468.751
-464.753
-457.802
-447.571
-434.004
-417.272
-397.671
-375.632
-351.596
-325.999
-299.384
-272.341
-245.284
-218.505
-192.242
-166.699
-142.145
-118.871
-97.1
-76.998
-58.716
-42.393
-28.135
-16.006
-5.982
2.038
8.184
12.599
15.394
16.679
16.598
15.337
13.13
10.212
6.812
3.155
-0.529
-4.001
-7.074
-9.621
-11.583
-12.946
-13.72
-13.92
-13.562
-12.681
-11.326
-9.573
-7.51
-5.225
-2.816
-0.389
1.938
4.034
5.809
7.216
8.246
8.913
9.242
9.263
9.02
8.572
7.98
7.304
6.601
5.922
5.33
4.891
4.676
4.759
5.192
6.012
7.244
8.905
11.006
13.556
16.552
19.985
23.851
28.147
32.875
38.038
43.629
49.642
56.067
62.898
70.131
77.76
85.767
94.136
102.843
111.861
121.162
130.71
140.457
150.358
160.368
170.445
180.556
190.668
200.749
210.764
220.677
230.464
240.114
249.626
259.004
268.257
277.394
286.434
295.411
304.355
313.276
322.173
331.025
339.797
348.447
356.935
365.217
373.226
380.879
388.074
394.701
400.666
405.878
410.236
413.622
415.924
417.05
416.939
415.558
412.894
408.941
403.69
397.141
389.338
380.341
370.244
359.151
347.132
334.26
320.633
306.365
291.59
276.438
261.013
245.399
229.692
213.997
198.441
183.159
168.236
153.746
139.74
126.261
113.399
101.236
89.823
79.193
69.353
60.296
52.037
44.59
37.931
32.016
26.766
22.077
17.889
14.149
10.81
7.827
5.118
2.606
0.244
-2.004
-4.161
-6.242
-8.279
-10.301
-12.299
-14.253
-16.122
-17.846
-19.395
-20.754
-21.903
-22.832
-23.517
-23.94
-24.105
-24.028
-23.723
-23.207
-22.489
-21.578
-20.503
-19.299
-18.005
-16.666
-15.317
-13.981
-12.683
-11.444
-10.282
-9.211
-8.235
-7.351
-6.559
-5.86
-5.256
-4.749
-4.337
-4.013
-3.772
-3.608
-3.515
-3.49
-3.526
-3.621
-3.77
-3.971
-4.223
-4.525
-4.876
-5.272
-5.711
-6.186
-6.695
-7.232
-7.794
-8.374
-8.968
-9.571
-10.181
-10.792
-11.404
-12.012
-12.615
-13.21
-13.795
-14.37
-14.933
-15.483
-16.02
-16.543
-17.053
-17.549
-18.032
-18.501
-18.957
-19.4
-19.831
-20.249
-20.654
-21.048
-21.431
-21.803
-22.165
-22.519
-22.865
-23.204
-23.539
-23.871
-24.201
-24.53
-24.861
-25.195
-25.532
-25.875
-26.225
-26.582
-26.947
-27.322
-27.707
-28.102
-28.509
-28.927
-29.358
-29.801
-30.257
-30.726
-31.208
-31.704
-32.213
-32.736
-33.273
-33.824
-34.389
-34.968
-35.561
-36.168
-36.788
-37.421
-38.067
-38.724
-39.393
-40.072
-40.76
-41.456
-42.16
-42.869
-43.584
-44.303
-45.026
-45.75
-46.476
-47.202
-47.927
-48.65
-49.371
-50.088
-50.8
-51.506
-52.206
-52.897
-53.58
-54.252
-54.912
-55.559
-56.192
-56.809
-57.408
-57.99
-58.551
-59.091
-59.609
-60.104
-60.575
-61.021
-61.441
-61.835
-62.201
-62.54
-62.85
-63.132
-63.384
-63.605
-63.796
-63.956
-64.085
-64.181
-64.245
-64.277
-64.277
-64.244
-64.179
-64.083
-63.955
-63.796
-63.608
-63.39
-63.144
-62.872
-62.573
-62.251
-61.905
-61.538
-61.15
-60.742
-60.317
-59.875
-59.416
-58.943
-58.457
-57.957
-57.447
-56.926
-56.397
-55.86
-55.317
-54.77
-54.219
-53.666
-53.113
-52.56
-52.01
-51.463
-50.921
-50.385
-49.856
-49.335
-48.824
-48.323
-47.834
-47.356
-46.891
-46.441
-46.005
-45.585
-45.182
-44.797
-44.431
-44.086
-43.764
-43.465
-43.192
-42.945
-42.725
-42.535
-42.374
-42.244
-42.144
-42.076
-42.039
-42.034
-42.059
-42.115
-42.201
-42.314
-42.454
-42.62
-42.807
-43.016
-43.241
-43.481
-43.733
-43.992
-44.255
-44.518
-44.777
-45.025
-45.258
-45.471
-45.656
-45.807
-45.918
-45.981
-45.99
-45.937
-45.817
-45.623
-45.348
-44.987
-44.534
-43.984
-43.333
-42.576
-41.711
-40.733
-39.642
-38.436
-37.116
-35.682
-34.135
-32.478
-30.716
-28.852
-26.893
-24.844
-22.712
-20.506
-18.236
-15.912
-13.547
-11.152
-8.744
-6.337
-3.95
-1.599
0.696
2.92
5.053
7.078
8.977
10.736
12.34
13.776
15.028
16.082
16.923
17.539
17.92
18.056
17.94
17.563
16.926
16.032
14.884
13.487
11.843
9.947
7.799
5.407
2.782
-0.065
-3.111
-6.335
-9.701
-13.163
-16.678
-20.204
-23.704
-27.157
-30.532
-33.793
-36.907
-39.827
-42.519
-44.964
-47.133
-49.008
-50.604
-51.942
-53.074
-54.085
-55.032
-55.975
-56.992
-58.14
-59.499
-61.152
-63.146
-65.558
-68.484
-71.942
-75.912
-80.284
-84.758
-89.027
-92.803
-95.686
-97.315
-97.494
-96.117
-93.371
-89.822
-86.04
-82.571
-80.051
-78.898
-79.15
-80.734
-83.155
-85.183
-85.557
-82.351
-72.826
-55.752
-30.869
1.187
37.648
78.269
124.521
176.23
234.124
294.519
350.604
399.171
436.555
461.554
474.061
467.989
435.76
369.371
263.423
121.826
-43.169
-211.918
-362.958
-479.915
-554.247
-588.962
-592.543
-573.418
-540.548
-497.902
-449.471
-402.809
-361.719
-329.321
-305.321
-283.524
-261.12
-237.605
-214.222
-195.646
-183.541
-176.912
-174.342
-172.872
-170.661
-167.306
-162.32
-155.828
-148.326
-140.118
-131.648
-123.564
-116.345
-110.459
-106.44
-104.403
-104.15
-105.42
-107.847
-111.066
-114.782
-118.603
-122.062
-124.882
-126.93
-128.16
-128.628
-128.353
-127.328
-125.608
-123.288
-120.47
-117.265
-113.759
-110.002
-106.068
-102.054
-98.078
-94.275
-90.736
-87.511
-84.63
-82.107
-79.958
-78.188
-76.78
-75.691
-74.88
-74.306
-73.935
-73.743
-73.692
-73.738
-73.83
-73.913
-73.947
-73.904
-73.763
-73.505
-73.115
-72.578
-71.892
-71.062
-70.087
-68.965
-67.69
-66.255
-64.657
-62.897
-60.974
-58.889
-56.645
-54.239
-51.674
-48.952
-46.075
-43.044
-39.861
-36.528
-33.047
-29.423
-25.664
-21.777
-17.771
-13.653
-9.435
-5.126
-0.736
3.722
8.241
12.808
17.414
22.047
26.695
31.348
35.993
40.619
45.211
49.759
54.249
58.669
63.008
67.253
71.391
75.412
79.303
83.055
86.656
90.095
93.364
96.452
99.35
102.05
104.545
106.826
108.888
110.723
112.326
113.693
114.82
115.702
116.336
116.721
116.854
116.735
116.365
115.744
114.874
113.759
112.404
110.812
108.99
106.944
104.683
102.213
99.545
96.687
93.649
90.443
87.078
83.568
79.922
76.155
72.277
68.303
64.244
60.115
55.928
51.697
47.435
43.155
38.871
34.597
30.345
26.127
21.956
17.845
13.803
9.843
5.973
2.204
-1.456
-4.999
-8.417
-11.703
-14.853
-17.859
-20.718
-23.425
-25.976
-28.369
-30.601
-32.67
-34.575
-36.312
-37.883
-39.286
-40.523
-41.593
-42.499
-43.242
-43.825
-44.251
-44.523
-44.647
-44.625
-44.462
-44.164
-43.736
-43.183
-42.513
-41.73
-40.842
-39.853
-38.772
-37.605
-36.359
-35.039
-33.654
-32.209
-30.713
-29.172
-27.595
-25.989
-24.363
-22.729
-21.097
-19.478
-17.882
-16.321
-14.805
-13.345
-11.95
-10.626
-9.38
-8.219
-7.15
-6.182
-5.321
-4.574
-3.944
-3.437
-3.055
-2.802
-2.68
-2.683
-2.807
-3.051
-3.417
-3.919
-4.561
-5.342
-6.257
-7.295
-8.443
-9.688
-11.003
-12.346
-13.675
-14.949
-16.133
-17.209
-18.148
-18.912
-19.453
-19.714
-19.648
-19.237
-18.472
-17.351
-15.885
-14.103
-12.06
-9.849
-7.574
-5.334
-3.219
-1.317
0.277
1.474
2.14
2.112
1.305
-0.286
-2.551
-5.251
-8.169
-11.137
-13.888
-16.079
-17.441
-17.806
-17.383
-16.737
-16.307
-16.373
-17.086
-18.453
-20.515
-23.227
-25.829
-26.899
-25.011
-18.821
-7.357
10.089
34.502
66.901
106.956
152.513
201.046
250.026
298.741
349.299
402.414
455.702
503.804
536.898
545.466
525.412
476.54
404.736
320.769
233.669
151.998
81.279
21.242
-29.969
-76.417
-121.939
-167.097
-210.788
-250.376
-283.904
-311.582
-334.932
-356.234
-377.019
-397.517
-417.339
-435.808
-452.365
-466.64
-478.15
-486.321
-490.644
-490.889
-487.124
-479.594
-468.644
-454.653
-438.038
-419.272
-398.843
-377.147
-354.494
-331.163
-307.414
-283.464
-259.494
-235.658
-212.074
-188.905
-166.375
-144.68
-123.987
-104.445
-86.168
-69.279
-53.921
-40.194
-28.138
-17.747
-8.955
-1.709
3.999
8.207
10.968
12.36
12.518
11.554
9.549
6.625
2.931
-1.36
-6.018
-10.83
-15.643
-20.319
-24.771
-28.933
-32.72
-36.082
-38.998
-41.444
-43.416
-44.891
-45.809
-46.159
-45.971
-45.3
-44.256
-42.959
-41.502
-39.99
-38.5
-37.069
-35.728
-34.477
-33.289
-32.151
-31.054
-29.999
-29.017
-28.118
-27.283
-26.489
-25.674
-24.762
-23.674
-22.31
-20.58
-18.429
-15.813
-12.709
-9.114
-5.02
-0.418
4.698
10.343
16.533
23.273
30.574
38.432
46.827
55.726
65.075
74.819
84.908
95.296
105.932
116.763
127.739
138.813
149.951
161.124
172.293
183.412
194.428
205.28
215.923
226.328
236.466
246.315
255.858
265.085
274.005
282.654
291.058
299.23
307.163
314.826
322.201
329.283
336.079
342.603
348.847
354.779
360.361
365.561
370.351
374.688
378.496
381.654
384.014
385.478
386.031
385.651
384.268
381.732
377.775
372.176
364.862
355.694
344.439
331.001
315.387
297.883
279.151
259.775
240.243
221.297
203.762
187.589
171.493
153.234
130.213
103.078
76.974
