Name,Criss Capps
Date of Birth,"Feb 5, 1952"
Recorded Date,2020-06-11 20:30:09 -0400
Classification,Poor Recording
Symptoms,
Software Version,1.80
Device,"Watch5,4"
Sample Rate,512.844 hertz


Lead,Lead I
Unit,µV

-3165.091
-3062.054
-3104.772
-2970.927
-2867.95
-2617.546
-2283.623
-2043.625
-1940.547
-1937.653
-1988.876
-2051.291
-2090.619
-2102.029
-2100.086
-2100.376
-2117.812
-2151.691
-2190.733
-2224.122
-2240.4
-2234.122
-2205.465
-2155.803
-2089.175
-2011.089
-1927.205
-1843.616
-1766.089
-1699.974
-1650.46
-1621.778
-1615.687
-1631.557
-1666.415
-1715.124
-1771.983
-1830.576
-1882.864
-1920.905
-1938.562
-1930.905
-1895.998
-1835.518
-1752.041
-1650.052
-1537.339
-1421.991
-1312.013
-1216.484
-1141.727
-1091.11
-1067.904
-1072.545
-1101.978
-1152.86
-1219.754
-1294.229
-1369.28
-1438.139
-1492.684
-1527.486
-1538.9
-1523.254
-1480.146
-1412.301
-1323.068
-1218.759
-1108.213
-999.169
-900.152
-819.973
-764.931
-740.031
-748.129
-787.636
-854.143
-941.692
-1041.298
-1143.347
-1238.237
-1314.907
-1364.406
-1380.989
-1361.02
-1304.745
-1216.363
-1101.263
-967.615
-827.162
-690.959
-569.56
-472.672
-405.881
-372.019
-372.986
-407.046
-468.624
-551.09
-646.299
-745.873
-843.334
-932.272
-1005.579
-1057.671
-1085.286
-1086.941
-1062.77
-1013.561
-940.96
-848.396
-741.49
-627.542
-513.478
-405.345
-309.311
-231.114
-174.722
-142.825
-135.981
-151.608
-186.512
-236.663
-295.765
-357.312
-415.204
-462.688
-494.153
-506.078
-495.484
-461.446
-405.926
-331.926
-244.327
-150.082
-56.134
30.219
101.783
153.306
180.806
182.059
158.102
111.907
47.927
-26.642
-104.265
-177.719
-238.349
-279.373
-296.603
-286.253
-247.437
-182.997
-96.388
6.904
117.961
228.988
332.606
419.806
484.493
523.246
532.883
513.69
469.842
405.396
325.864
239.888
154.818
77.577
16.204
-24.252
-41.673
-33.985
-0.899
54.405
128.385
216.175
310.092
403.683
491.596
567.296
625.194
662.26
675.78
664.629
631.116
577.685
507.702
427.539
343.832
262.384
190.195
134.217
99.061
88.791
106.075
146.518
204.424
277.991
360.005
448.521
542.56
623.928
679.817
696.651
659.708
581.525
476.297
356.706
241.426
132.214
30.24
-57.063
-126.67
-172.021
-188.232
-175.855
-135.576
-69.809
16.89
118.748
229.385
343.027
454.551
558.86
649.692
720.719
767.643
788.27
782.154
750.408
695.253
620.27
532.222
439.929
351.759
275.851
219.274
186.749
181.685
206.405
259.734
337.022
432.282
537.87
645.771
749.83
844.101
921.97
979.075
1014.227
1027.785
1022.14
1000.401
964.077
915.642
859.792
800.522
740.5
682.53
628.457
580.512
543.381
520.46
512.925
522.182
548.756
591.258
648.33
717.1
791.327
865.463
934.481
992.067
1033.667
1056.845
1058.921
1037.985
995.375
933.234
854.551
768.639
684.042
603.323
533.209
474.017
423.393
394.849
395.352
431.824
513.25
621.792
738.741
847.456
926.264
974.095
993.288
981.875
943.374
877.62
786.37
678.06
562.362
447.822
341.442
249.428
176.485
125.646
98.564
93.94
108.271
139.831
188.006
250.969
326.989
413.43
506.65
604.693
706.005
806.507
900.558
982.22
1045.201
1085.463
1101.246
1089.729
1048.8
979.934
886.256
775.868
662.367
553.035
451.566
359.588
271.091
193.468
146.035
144.915
209.104
335.673
497.887
671.216
828.942
957.719
1062.146
1142.659
1199.061
1230.143
1230.037
1198.185
1138.886
1057.667
962.145
859.924
757.665
660.586
572.741
498.163
440.204
401.5
384.626
391.261
421.749
476.909
557.198
660.873
784.876
924.832
1073.842
1223.871
1367.533
1496.817
1604.084
1684.133
1733.109
1748.844
1733.083
1690.113
1624.521
1541.795
1447.102
1344.1
1235.971
1125.061
1012.1
896.06
778.124
663.227
552.784
446.916
343.226
232.295
119.727
25.427
-31.061
-25.044
45.156
154.629
280.718
397.695
493.658
577.1
650.341
713.086
763.292
792.236
796.903
780.469
745.533
694.774
630.748
555.519
470.907
379.177
282.822
182.005
79.992
-14.14
-95.733
-162.741
-215.933
-264.196
-301.707
-308.479
-265.889
-152.79
27.162
245.362
475.054
687.672
869.625
1024.815
1152.408
1251.637
1321.211
1356.295
1358.841
1335.14
1291.696
1236.385
1175.571
1113.914
1054.462
997.899
943.483
889.535
834.083
776.881
719.417
663.654
612.948
570.989
540.772
526.085
530.758
555.894
599.979
659.296
727.691
799.559
870.479
934.795
986.35
1020.38
1033.653
1026.138
1001.146
961.376
908.15
843.847
771.406
693.277
612.366
530.115
444.531
357.389
276.147
202.887
138.06
79.381
15.191
-49.117
-92.276
-95.325
-35.759
85.27
239.839
401.808
544.346
654.468
737.134
794.164
827.122
834.872
812.159
761.356
689.276
604.611
518.153
437.256
366.935
312.446
276.825
259.893
259.492
270.775
288.007
306.518
321.133
326.302
320.489
307.055
289.261
268.302
237.217
184.659
110.031
29.285
-26.214
-26.072
46.294
184.103
360.171
552.503
737.465
895.343
1020.2
1096.213
1120.551
1108.471
1069.26
1020.136
969.586
909.194
837.825
756.867
670.804
589.648
516.786
450.167
386.468
320.957
249.548
168.046
75.702
-21.88
-117.276
-201.679
-276.641
-355.514
-442.836
-533.529
-597.913
-585.28
-464.572
-222.899
116.881
492.564
848.045
1129.149
1301.576
1373.078
1363.203
1306.206
1240.445
1179.427
1125.794
1073.998
1011.602
938.138
858.553
777.128
699.953
627.771
557.675
487.772
415.826
339.908
260.018
176.549
88.25
-6.381
-107.899
-217.587
-333.115
-446.73
-556.68
-663.277
-767.752
-878.455
-985.641
-1064.04
-1089.744
-1033.82
-893.896
-697.343
-470.91
-246.379
-40.781
150.463
324.95
478.287
603.93
688.918
728.893
727.553
690.291
625.163
541.383
446.798
349.103
255.99
172.187
99.39
37.543
-15.29
-62.578
-108.229
-156.621
-212.591
-280.315
-358.328
-438.707
-513.194
-573.785
-625.117
-684.775
-758.896
-841.845
-901.376
-881.607
-749.05
-491.589
-133.947
257.964
626.663
919.625
1103.802
1187.625
1189.025
1138.474
1071.338
999.642
927.116
850.997
761.382
660.61
555.911
453.362
361.52
282.783
214.029
152.095
92.482
30.492
-35.739
-106.588
-182.541
-263.387
-348.316
-437.061
-529.401
-623.787
-719.166
-815.409
-911.412
-1004.87
-1092.632
-1169.446
-1228.382
-1264.149
-1272.4
-1249.043
-1192.74
-1105.044
-989.532
-853.515
-707.395
-560.81
-423.163
-303.358
-206.806
-136.274
-92.916
-74.507
-76.424
-94.026
-121.426
-152.956
-186.044
-219.538
-252.559
-285.373
-318.306
-351.425
-386.69
-426.195
-469.573
-515.826
-564.717
-616.669
-673.463
-737.95
-811.379
-893.902
-986.972
-1087.972
-1188.809
-1281.758
-1360.609
-1427.913
-1493.638
-1557.115
-1601.947
-1596.402
-1505.572
-1316.827
-1042.365
-711.17
-358.847
-13.972
301.637
563.031
744.198
829.283
810.784
701.555
536.724
350.825
181.846
57.22
-22.6
-68.431
-103.685
-151.532
-217.368
-296.261
-376.434
-448.938
-515.381
-583.171
-660.456
-750.658
-851.83
-958.919
-1066.183
-1169.75
-1266.309
-1352.586
-1427.43
-1490.752
-1544.523
-1594.742
-1647.681
-1708.739
-1780.09
-1857.463
-1934.974
-2007.149
-2075.852
-2154.473
-2250.404
-2359.511
-2458.911
-2496.252
-2425.265
-2224.196
-1895.569
-1486.959
-1059.521
-662.287
-337.016
-98.696
52.22
117.915
104.122
17.685
-120.508
-281.248
-425.327
-516.795
-548.344
-532.902
-501
-483.55
-492.421
-524.309
-565.194
-605.361
-643.695
-684.484
-736.691
-803.691
-882.745
-969.18
-1055.957
-1137.4
-1211.402
-1276.438
-1331.183
-1375.797
-1411.263
-1441.461
-1472.389
-1508.894
-1554.961
-1608.779
-1662.504
-1710.896
-1749
-1781.081
-1823.401
-1876.444
-1928.12
-1948.484
-1885.239
-1714.335
-1438.335
-1078.989
-690.312
-314.252
21.89
286.383
463.753
546.573
528.135
425.025
269.263
92.189
-67.392
-183.511
-255.104
-291.985
-319.04
-359.385
-419.436
-496.488
-578.401
-656.128
-730.987
-808.46
-896.694
-996.692
-1099.107
-1192.604
-1266.158
-1322.37
-1378.6
-1445.378
-1525.278
-1592.338
-1591.106
-1481.022
-1235.904
-870.18
-452.697
-52.927
256.976
426.214
461.042
386.07
246.391
95.916
-44.565
-167.941
-276.672
-384.619
-489.346
-582.581
-660.868
-712.162
-729.707
-711.959
-651.514
-560.91
-463.754
-377.209
-326.642
-318.338
-341.818
-394.261
-458.288
-514.332
-548.31
-541.627
-490.647
-405.922
-301.279
-190.528
-80.541
24.908
113.279
168.623
172.087
107.701
-10.371
-154.205
-283.79
-345.579
-320.272
-215.397
-59.691
93.266
211.305
285.637
321.767
339.19
344.625
339.231
324.207
293.121
249.578
195.115
127.595
64.453
21.27
8.509
36.185
93.089
162.628
237.078
308.579
368.261
410.199
425.667
404.554
352.776
275.656
173.308
61.48
-45.412
-129.556
-162.926
-144.704
-93.935
-29.132
23.1
52.932
70.548
75.955
68.665
51.983
18.558
-33.762
-103.271
-198.938
-314.616
-427.893
-515.544
-550.299
-529.268
-477.392
-419.751
-380.008
-364.557
-363.185
-373.709
-395.8
-430.419
-480.927
-541.761
-606.138
-670.898
-730.75
-779.708
-812.654
-825.514
-819.057
-799.637
-773.228
-742.69
-711.113
-682.902
-659.863
-644.294
-639.595
-641.654
-653.66
-681.858
-714.215
-742.35
-752.813
-727.672
-679.314
-622.052
-565.669
-523.806
-490.787
-460.803
-437.065
-419.435
-409.659
-407.077
-407.083
-406.646
-403.198
-392.516
-368.223
-325.767
-265.655
-192.093
-111.006
-27.488
55.501
133.27
197.039
243.219
272.734
285.796
288.505
278.921
251.742
219.632
194.801
192.399
226.859
284.564
349.885
411.636
456.864
489.777
511.737
519.964
518.031
502.509
475.225
435.695
379.526
319.296
267.151
238.816
249.754
288.511
341.415
396.223
438.078
469.07
491.669
505.639
514.742
514.985
495.201
443.525
356.471
248.845
157.718
122.009
156.9
249.497
362.291
456.51
513.684
533.983
527.246
503.556
469.585
423.04
359.219
275.374
164.405
36.356
-83.119
-169.706
-196.033
-160.214
-87.226
-0.929
72.76
123.331
158.177
178.641
183.666
173.067
143.548
94.589
32.884
-41.747
-130.032
-216.727
-290.78
-337.951
-344.113
-323.84
-292.394
-260.645
-243.309
-235.021
-227.669
-225.327
-229.185
-245.704
-287.164
-347.073
-407.662
-451.045
-451.635
-404.558
-328.869
-242.526
-166.877
-109.449
-58.641
-7.496
47.587
105.998
161.094
211.47
260.43
311.643
368.593
432.165
501.237
573.938
647.358
718.004
781.223
831.136
862.537
872.227
859.339
826.322
777.984
719.588
657.527
599.134
551.618
521.672
513.851
528.115
560.797
606.371
657.407
706.782
748.01
773.599
777.051
755.873
711.348
648.488
575.55
499.569
425.87
361.122
312.29
284.323
279.344
294.865
324.031
360.291
399.598
437.579
467.799
486.62
491.69
479.921
455.91
418.98
365.473
307.793
256.159
226.222
236.567
277.816
336.872
401.012
453.332
496.229
532.61
556.841
565.977
554.015
518.753
466.293
404.138
338.919
276.091
221.786
182.591
162.952
164.852
186.27
220.713
261.802
305.438
346.257
381.171
411.716
434.285
444.586
438.828
406.865
353.047
295.575
252.197
245.269
277.173
328.071
379.851
411.461
415.35
401.123
375.649
348.775
322.818
289.876
243.742
176.383
96.017
25.845
-11.411
9.126
87.782
201.801
330.032
446.699
540.303
617.342
678.21
723.364
752.289
758.226
741.143
707.623
664.089
618.017
575.976
541.568
517.116
504.478
503.365
510.507
522.33
535.719
548.09
558.134
565.016
567.562
565.406
560.224
554.264
549.372
546.431
545.304
546.259
549.743
555.279
561.586
565.693
567.061
570.248
575.442
579.454
574.6
546.641
499.148
450.666
420.585
431.738
481.993
547.693
610.772
651.595
664.677
660.487
643.314
619.112
593.262
564.055
532.613
502.065
476.271
462.995
467.988
490.872
527.684
572.673
619.988
665.932
705.955
731.395
738.537
728.523
701.085
662.23
612.216
547.329
481.001
426.582
399.853
416.003
462.799
524.562
587.306
636.124
674.446
703.572
718.41
718.884
701.764
668.599
627.292
581.724
534.901
491.908
457.869
437.406
432.454
439.717
453.728
470.698
487.849
501.76
506.853
499.957
484.197
461.654
433.22
395.525
336.674
261.359
190.909
146.514
152.687
208.691
287.758
367.569
425.819
454.231
461.619
450.954
425.264
387.913
337.892
279.151
217.835
158.496
107.808
71.966
53.738
53.2
67.357
90.889
119.004
148.436
175.912
197.703
210.906
214.41
209.395
198.918
186.058
172.835
160.89
152.759
151.805
160.013
177.012
200.601
227.661
255.498
282.153
304.477
317.169
316.178
300.772
273.051
237.701
199.744
162.584
130.279
109.538
106.53
123.864
160.315
210.275
266.56
324.522
380.164
427.439
459.932
473.52
467.471
445.963
416.003
382.057
347.06
314.99
290.284
276.665
276.313
288.035
306.953
329.349
353.316
375.682
395.972
416.941
435.623
448.174
449.658
427.661
385.942
342.41
314.63
326.7
380.53
454.05
527.869
580.385
604.348
610.544
604.167
587.707
560.911
518.663
461.78
395.986
327.403
262.545
206.827
164.786
139.485
131.477
138.876
157.324
181.799
208.611
234.529
256.135
271.307
279.403
281.127
279.058
276.154
274.073
273.873
276.506
282.249
290.923
301.956
313.894
325.033
334.35
341.193
345.032
345.55
342.413
335.182
323.589
307.643
287.391
263.159
235.692
205.703
173.895
141.104
107.989
74.787
41.278
6.233
-32.4
-76.29
-126.566
-183.512
-245.892
-311.492
-377.003
-436.481
-483.335
-512.091
-517.253
-498.849
-459.402
-397.574
-317.632
-220.633
-106.953
5.79
107.396
186.595
225.025
232.678
214.488
173.714
136.434
106.591
90.2
100.901
123.906
152.033
179.28
189.922
187.302
173.962
150.881
125.197
92.161
50.046
-2.404
-68.103
-131.748
-180.819
-202.829
-184.228
-136.59
-72.876
-5.442
48.778
89.987
118.605
130.29
125.179
99.988
54.449
-4.914
-71.626
-139.338
-201.642
-252.986
-288.345
-305.568
-305.795
-293.043
-273.401
-251.253
-230.099
-215.482
-209.527
-212.237
-226.793
-250.839
-286.361
-337.789
-392.7
-440.597
-467.579
-457.992
-422.968
-375.189
-326.351
-292.463
-271.12
-260.735
-265.839
-286.588
-327.544
-390.441
-469.885
-560.01
-653.593
-742.071
-818.411
-876.582
-912.162
-923.8
-913.172
-884.057
-841.719
-792.606
-742.09
-694.282
-652.26
-617.287
-589.089
-566.229
-545.491
-522.079
-492.843
-456.892
-414.599
-368.051
-320.224
-273.532
-231.517
-200.464
-182.126
-175.681
-183.632
-203.236
-237.029
-289.888
-349.653
-405.817
-445.275
-453.173
-439.058
-414.135
-388.19
-374.412
-369.115
-365.725
-360.065
-347.733
-334.68
-333.848
-358.786
-413.615
-485.041
-547.952
-575.838
-553.625
-492.112
-415.947
-347.434
-310.783
-309.56
-333.171
-380.883
-440.688
-509.184
-596.175
-689.919
-777.377
-843.208
-860.974
-831.461
-774.375
-707.235
-653.635
-620.488
-596.808
-579.742
-568.051
-562.087
-567.868
-584.666
-607.181
-632.145
-655.499
-672.303
-678.885
-673.259
-655.197
-627.511
-594.792
-560.59
-528.743
-502.255
-481.096
-465.09
-455.916
-461.836
-495.209
-559.758
-643.2
-713.243
-733.465
-686.911
-583.689
-458.278
-346.258
-265.817
-216.208
-183.619
-158.861
-141.16
-133.442
-140.332
-160.733
-189.833
-224.401
-260.954
-296.374
-328.906
-356.917
-380.098
-400.593
-420.779
-441.839
-464.895
-490.871
-520.683
-556.141
-598.087
-645.228
-695.593
-746.749
-795.505
-839.351
-875.628
-900.592
-911.847
-908.538
-890.102
-858.302
-816.965
-768.872
-718.01
-666.58
-611.609
-555.302
-503.276
-463.201
-449.411
-459.613
-475.359
-478.277
-444.362
-371.907
-285.003
-203.095
-145.916
-120.02
-110.432
-104.935
-99.661
-96.05
-104.551
-140.552
-202.224
-272.603
-333.212
-358.903
-344.581
-311.13
-277.612
-262.64
-270.93
-288.652
-307.805
-325.456
-342.799
-365.335
-392.322
-420.671
-448.258
-472.117
-490.197
-499.379
-495.585
-478.394
-450.634
-415.824
-378.148
-340.464
-304.509
-274.284
-254.542
-247.229
-252.086
-266.383
-285.313
-306.16
-327.717
-347.04
-360.412
-364.734
-357.894
-341.375
-319.444
-294.576
-268.123
-241.968
-218.757
-202.864
-197.954
-203.427
-215.772
-231.581
-247.768
-262.05
-271.33
-269.274
-250.611
-214.945
-165.026
-105.617
-42.76
19.052
75.39
117.538
139.795
144.524
131.888
102.907
57.46
-15.303
-110.646
-205.457
-276.137
-294.66
-257.584
-191.628
-121.892
-71.175
-46.538
-36.501
-36.809
-46.698
-66.374
-98.631
-139.129
-182.663
-226.692
-267.595
-301.686
-325.054
-335.129
-333.649
-325.593
-314.688
-302.99
-291.743
-282.293
-277.64
-280.099
-289.046
-301.893
-316.232
-330.218
-342.738
-352.64
-356.959
-352.856
-339.677
-318.256
-290.581
-259.631
-228.097
-198.99
-177.211
-167.635
-173.24
-195.465
-232.903
-281.349
-336.064
-391.453
-440.425
-476.354
-493.986
-489.227
-461.651
-414.687
-353.312
-284.17
-214.737
-151.277
-99.303
-63.95
-47.436
-48.817
-65.24
-91.592
-122.301
-153.355
-181.222
-202.46
-215.187
-218.434
-212.278
-199.693
-184.031
-167.212
-151.734
-136.077
-117.928
-101.572
-88.646
-84.762
-95.75
-110.436
-121.111
-118.285
-90.373
-49.205
-5.143
32.392
48.186
47.946
40.522
28.93
17.523
-6.239
-60.625
-147.772
-253.384
-342.931
-377.308
-338.881
-238.301
-110.2
9.793
100.807
159.862
199.713
228.803
247.374
252.836
239.634
207.93
164.471
116.225
69.348
28.873
-2.64
-24.108
-35.211
-37.293
-33.057
-25.131
-15.237
-4.552
6.648
18.755
32.12
47.588
66.424
89.583
117.524
150.137
186.617
226.023
267.529
310.039
352.58
394.656
436.072
477.489
520.115
564.649
611.726
661.867
714.562
768.475
821.315
868.75
905.777
928.1
931.279
912.032
869.235
802.842
715.001
611.581
499.951
388.117
285.33
199.022
134.402
96.232
86.706
103.882
143.308
197.632
256.974
313.37
360.386
391.113
400.245
385.082
346.115
288.718
221.347
150.536
81.617
20.436
-27.278
-55.846
-62.913
-52.241
-30.885
-4.536
22.27
45.345
59.649
57.995
35.899
-4.909
-58.994
-120.549
-184.23
-245.822
-300.233
-339.579
-357.632
-353.049
-328.227
-288.053
-238.431
-184.363
-131.455
-87.134
-57.752
-47.119
-56.604
-83.854
-123.963
-171.852
-221.601
-269.8
-317.028
-362.192
-402.02
-427.6
-426.556
-397.45
-350.467
-307.526
-296.118
-327.135
-397.983
-496.69
-595.423
-673.229
-710.215
-675.221
-558.759
-357.879
-75.402
250.193
584.702
894.642
1129.414
1265.199
1289.615
1196.182
1023.215
818.557
629.72
514.519
489.32
541.141
644.273
747.93
822.925
865.108
878.591
884.177
893.138
901.782
905.991
900.209
883.048
858.435
831.463
806.627
787.96
780.312
785.051
798.865
818.654
842.217
866.126
887.53
902.294
901.976
884.495
857.462
823.761
782.837
731.265
654.193
552.874
453.175
381.177
368.572
429.714
537.014
653.505
741.846
771.439
748.793
698.045
638.164
586.278
540.683
487.278
420.831
340.234
252.277
169.496
98.093
42.781
3.883
-26.462
-49.705
-63.189
-63.198
-34.201
25.822
94.796
147.926
152.28
90.29
-12.825
-119.565
-192.766
-203.358
-161.59
-98.296
-37.972
-2.143
9.138
12.901
17.163
25.039
32.151
29.48
17.786
0.917
-19.815
-50.903
-105.947
-188.278
-286.117
-369.615
-401.964
-369.336
-278.592
-157.038
-47.153
28.982
62.057
51.997
19.292
-24.46
-72.572
-115.975
-159.935
-206.717
-252.563
-296.306
-330.207
-347.754
-350.319
-336.267
-305.447
-264.013
-212.515
-161.199
-126.959
-106.146
-94.114
-71.716
-7.532
96.592
226.094
338.447
389.394
391.282
303.473
81.425
-106.108
-81.552
22.949
37.308
28.438
55.309
76.338
93.344
120.098
150.602
185.711
219.488
246.006
265.587
276.622
278.857
274.051
263.448
247.754
228.143
205.986
182.74
161.861
147.079
140.122
141.66
148.359
155.962
164.8
171.696
176.492
178.41
164.351
130.333
69.351
-30.003
-161.825
-325.601
-510.606
-683.873
-817.701
-887.022
-877.666
-804.153
-688.825
-542.006
-376.43
-197.786
-12.686
140.924
231.877
243.649
171.484
57.68
-49.312
-119.231
-128.509
-93.696
-48.909
-12.447
-2.079
-17.052
-40.713
-69.205
-101.056
-136.681
-183.482
-242.392
-309.287
-380.502
-449.981
-510.732
-557.571
-587.256
-598.311
-592.156
-572.845
-545.408
-515.969
-491.58
-478.898
-482.734
-506.32
-551.092
-615.84
-696.712
-787.578
-881.515
-972.017
-1053.817
-1122.023
-1172.013
-1199.283
-1204.865
-1198.102
-1183.55
-1161.806
-1128.358
-1065.635
-976.571
-888.714
-825.754
-821.716
-883.886
-971.912
-1056.263
-1105.088
-1097.573
-1060.962
-1016.718
-974.799
-946.231
-913.106
-851.541
-765.281
-669.66
-589.763
-560.006
-582.465
-632.174
-686.275
-719.979
-728.68
-729.392
-731.336
-738.856
-751.917
-764.106
-774.608
-786.601
-799.22
-808.249
-814.422
-821.867
-839.638
-884.118
-952.539
-1026.965
-1088.82
-1111.969
-1096.012
-1065.155
-1036.997
-1031.618
-1050.659
-1071.868
-1087.096
-1095.986
-1104.524
-1134.198
-1187.1
-1247.335
-1300.023
-1322.237
-1310.398
-1283.436
-1255.489
-1245.759
-1260.617
-1283.15
-1304.261
-1311.668
-1297.72
-1280.972
-1272.336
-1282.317
-1323.25
-1379.983
-1440.021
-1494.8
-1529.245
-1546.413
-1550.757
-1540.647
-1519.544
-1486.149
-1438.242
-1378.896
-1311.728
-1239.91
-1166.278
-1092.893
-1020.898
-951.467
-886.39
-825.995
-769.589
-717.669
-671.113
-630.49
-596.441
-568.465
-544.874
-525.157
-509.518
-497.482
-489.137
-485.179
-485.751
-491.498
-503.114
-519.219
-538.089
-558.55
-576.702
-586.942
-585.434
-568.15
-535.827
-496.179
-450.758
-398.472
-338.607
-264.414
-184.892
-120.135
-83.369
-92.588
-149.171
-240.413
-360.314
-492.184
-616.623
-709.172
-740.898
-697.851
-586.153
-442.406
-305.453
-201.596
-142.328
-105.193
-70.345
-28.915
25.708
80.197
126.027
164.75
196.075
227.067
263.075
303.885
350.614
402.501
456.521
509.588
557.27
594.456
617.314
622.654
607.252
569.169
508.98
430.437
339.14
241.344
144.638
53.416
-28.064
-90.564
-130.173
-141.257
-115.165
-60.965
7.974
77.988
125.341
147.782
162.582
182.182
226.498
303.021
394.526
489.983
578.729
650.828
712.412
766.685
811.563
845.379
860.347
850.393
817.804
772.175
724.256
678.396
626.855
550.854
440.232
311.012
205.775
182.623
284.073
501.308
778.649
1035.023
1193.749
1231.167
1172.108
1068.022
981.5
941.113
944.588
973.812
996.391
1002.511
1000.827
1003.772
1035.73
1096.53
1160.615
1206.822
1203.588
1142.988
1058.31
975.57
925.648
927.98
959.91
1005.269
1052.799
1090.872
1131.689
1182.702
1241.433
1306.578
1369.28
1422.078
1462.34
1487.652
1497.911
1494.012
1478.137
1455.026
1429.076
1404.36
1385.103
1373.773
1372.444
1383.432
1406.345
1438.623
1477.52
1519.492
1561.437
1601.772
1638.517
1669.295
1693.493
1711.627
1724.704
1734.818
1743.448
1751.269
1759.714
1770.237
1783.141
1798.235
1814.752
1830.89
1845.259
1856.508
1861.951
1859.162
1847.265
1826.341
1798.014
1765.515
1731.813
1700.198
1675.675
1662.922
1664.911
1683.121
1715.723
1758.075
1805.294
1851.787
1891.105
1917.574
1926.114
1912.682
1877.431
1823.776
1756.933
1684.151
1611.648
1543.969
1486.643
1444.966
1421.128
1415.697
1425.564
1443.024
1463.153
1483.564
1499.432
1509.488
1513.178
1503.675
1481.469
1446.163
1393.421
1333.797
1275.456
1228.742
1208.182
1206.833
1215.255
1222.954
1216.939
1202.962
1187.353
1171.967
1160.323
1147.15
1128.764
1107.847
1085.818
1064.727
1046.156
1029.002
1012.732
998.483
986.735
976.816
967.333
956.263
942.37
926.33
909.756
893.559
878.389
865.784
858.406
859.748
872.787
898.144
934.135
978.928
1030.808
1086.461
1141.016
1188.795
1224.116
1243.608
1246.701
1233.257
1203.18
1158.693
1104.001
1044.207
985.218
931.238
884.083
845.542
817.617
800.305
791.965
790.044
790.72
791.352
791.038
788.605
782.664
772.902
759.762
744.424
729.108
715.216
703.084
693.271
686.307
682.327
681.334
682.815
685.653
689.276
693.661
698.417
702.993
706.813
709.012
709.306
708.24
705.752
701.166
694.51
686.193
677.066
669.007
662.581
656.235
648.982
640.331
628.836
613.332
591.867
560.436
517.204
463.753
401.986
334.888
266.806
200.608
139.929
90.922
57.731
41.486
41.897
55.508
77.012
103.279
131.091
155.609
173.11
181.045
178.441
167.973
154.169
139.711
126.532
116.693
111.69
113.28
122.39
137.546
156.022
175.959
196.308
216.535
236.433
255.175
271.953
286.807
300.259
312.657
324.015
333.982
342.06
348.105
352.17
354.229
354.173
351.848
347.157
340.15
330.983
319.816
306.805
292.134
276.069
258.983
241.264
223.281
205.332
187.616
170.286
153.472
137.254
121.663
106.698
92.316
78.481
65.196
52.445
40.154
28.165
16.215
4.042
-8.527
-21.576
-35.12
-49.189
-63.854
-79.153
-94.936
-110.869
-126.722
-142.611
-159.05
-176.574
-195.275
-214.642
-233.95
-253.003
-271.77
-289.547
-304.74
-315.485
-320.742
-321.399
-319.789
-317.36
-314.787
-313.472
-315.75
-324.587
-342.365
-368.284
-398.738
-431.244
-464.521
-496.966
-526.753
-551.05
-566.785
-574.158
-576.342
-575.518
-572.915
-569.418
-565.223
-561.781
-561.466
-564.512
-569.392
-574.731
-579.126
-582.098
-584.296
-585.2
-583.394
-578.145
-569.03
-556.785
-543.475
-530.13
-516.813
-504.298
-493.672
-486.355
-484.369
-487.893
-495.113
-504.934
-516.856
-530.316
-545.145
-560.608
-575.089
-588.322
-601.528
-615.572
-631.081
-648.355
-666.94
-686.67
-707.991
-730.839
-754.682
-779.083
-803.463
-827.422
-850.922
-873.799
-895.744
-916.502
-935.721
-953.06
-968.246
-981.022
-991.538
-1000.041
-1006.675
-1011.613
-1014.592
-1015.223
-1013.817
-1010.855
-1005.938
-998.595
-988.121
-973.602
-956.066
-937.293
-917.742
-897.445
-877.114
-857.607
-840.887
-829.782
-824.01
-821.313
-820.33
-819.998
-819.416
-817.844
-812.924
-800.76
-780.308
-753.444
-722.47
-690.102
-658.177
-627.635
-600.623
-580.81
-570.37
-568.908
-574.584
-584.436
-596.377
-609.584
-622.877
-634.175
-641.553
-644.336
-643.146
-639.693
-635.276
-630.129
-624.153
-617.633
-611.362
-605.947
-601.559
-597.519
-592.75
-586.975
-580.612
-573.693
-565.726
-555.987
-543.394
-528.099
-511.747
-495.261
-478.881
-463.292
-449.234
-437.844
-431.074
-429.137
-430.227
-433.167
-437.186
-441.394
-445.448
-448.537
-449.037
-446.715
-442.739
-437.892
-432.849
-428.083
-423.498
-419.262
-415.891
-413.531
-412.019
-411.315
-411.469
-412.359
-413.618
-415.055
-416.723
-418.255
-419.051
-418.419
-415.264
-409.531
-402.483
-394.773
-386.497
-378.312
-370.94
-365.381
-363.386
-365.029
-368.527
-372.92
-377.847
-382.578
-386.536
-388.63
-386.887
-381.153
-373.263
-364.321
-354.734
-345.058
-335.861
-328.453
-325.081
-326.291
-330.168
-334.968
-339.91
-344.389
-347.619
-348.007
-342.854
-330.781
-313.58
-293.838
-273.069
-252.243
-232.249
-214.473
-201.53
-195.487
-195.314
-198.532
-203.458
-209.027
-214.665
-219.849
-223.04
-222.539
-218.617
-212.822
-206.341
-200.026
-194.18
-188.73
-184.17
-181.344
-180.341
-180.629
-181.767
-183.368
-185.415
-188.272
-192.036
-196.564
-201.775
-207.605
-214.044
-221.186
-228.879
-236.688
-244.361
-251.777
-259.185
-267.306
-276.436
-286.372
-296.825
-307.377
-317.563
-327.047
-334.786
-338.929
-338.651
-334.247
-326.827
-318.502
-311.116
-305.896
-304.865
-310.79
-325.2
-348.36
-379.137
-414.801
-453.223
-493.189
-532.926
-570.225
-603.535
-631.959
-655.814
-676.711
-695.645
-712.727
-728.033
-741.891
-754.759
-767.043
-778.703
-788.786
-796.177
-800.546
-802.193
-801.067
-796.762
-788.706
-775.959
-758.934
-739.515
-718.87
-697.528
-676.48
-656.737
-639.723
-627.726
-621.18
-618.519
-618.846
-621.571
-626.018
-631.984
-638.66
-644.484
-649.338
-654.436
-660.592
-668.444
-678.257
-689.68
-702.712
-717.713
-734.607
-752.806
-771.518
-790.012
-807.664
-824.052
-839.08
-852.507
-863.729
-872.262
-878.043
-881.04
-881.8
-881.178
-878.791
-873.933
-866.142
-854.748
-839.281
-819.48
-794.106
-761.294
-720.783
-673.414
-620.848
-565.67
-509.645
-453.974
-400.818
-353.151
-313.159
-281.88
-258.733
-241.604
-229.194
-220.997
-216.064
-213
-210.273
-206.839
-203.091
-200.698
-200.861
-204.082
-210.605
-220.512
-234.19
-251.947
-273.317
-297.228
-322.648
-348.915
-375.916
-403.545
-431.283
-458.487
-484.412
-508.714
-531.636
-553.051
-572.219
-588.786
-602.875
-615.002
-626.564
-637.904
-647.582
-654.354
-657.381
-655.668
-648.236
-633.453
-608.406
-571.812
-525.269
-471.106
-412.023
-350.368
-287.795
-226.709
-170.869
-123.065
-83.613
-51.404
-24.369
-1.105
18.667
35.549
51.038
66.691
82.967
99.055
113.247
124.384
132.326
137.181
138.832
136.787
130.784
121.289
109.383
96.13
82.04
67.136
51.614
36.063
21.131
7.472
-4.856
-16.555
-27.851
-38.331
-48.222
-58.153
-69.089
-82.883
-100.107
-119.593
-140.911
-164.041
-187.786
-210.539
-229.715
-241.092
-242.712
-235.077
-217.996
-191.899
-158.869
-121.824
-85.822
-58.014
-43.217
-43.782
-62.208
-99.277
-153.903
-223.364
-301.579
-379.847
-450.357
-507.259
-545.171
-560.458
-550.977
-516.279
-459.527
-387.061
-306.149
-222.593
-141.286
-66.172
-0.513
53.083
94.563
126.947
154.953
181.953
209.905
240.393
274.881
315.167
362.104
413.929
466.935
518.602
567.985
614.176
656.233
692.263
719.64
738.207
750.405
758.073
762.257
764.093
764.28
764.96
770.295
781.934
798.434
817.866
837.394
854.396
867.812
875.066
871.426
854.206
823.114
779.766
728.642
673.828
617.195
561.715
511.724
470.846
442.119
425.741
418.06
415.7
417.086
420.264
422.908
422.052
413.897
397.789
376.744
353.756
331.132
310.854
294.546
285.215
286.71
299.544
321.056
347.982
376.48
403.461
426.5
441.529
444.345
433.883
411.587
380.243
343.826
305.251
266.724
231.936
204.47
185.746
175.485
171.756
171.617
173.379
175.998
177.296
174.625
166.31
152.01
133.257
112.921
93.078
75.396
62.574
58.365
66.258
88.561
125.411
174.096
231.257
293.004
354.092
408.819
451.619
477.235
482.001
465.938
431.421
383.257
328.348
272.398
220.523
178.539
152.169
145.053
157.809
186.487
223.929
264.96
305.461
340.773
365.518
373.58
361.049
329.618
285.244
233.364
179.018
126.911
81.786
50.592
39.549
50.101
79.324
122.494
173.632
227.258
279.031
323.043
353.109
365.883
361.103
341.089
310.515
274.135
235.051
196.542
162.207
134.39
114.18
101.101
92.67
86.023
79.628
72.553
64.049
53.979
42.327
29.432
16.56
5.229
-3.617
-9.453
-12.1
-11.674
-8.134
-1.291
8.944
22.581
39.572
59.808
83.196
109.628
138.892
170.633
204.344
239.466
275.5
312.03
348.72
385.239
421.175
456.038
489.265
520.327
548.818
574.4
596.767
615.683
630.972
642.568
650.56
655.079
656.207
654.032
648.643
640.171
628.88
615.113
599.281
581.828
563.147
543.639
523.73
503.818
484.277
465.42
447.451
430.586
415.093
401.192
389.058
378.815
370.478
364.029
359.423
356.53
355.182
355.136
356.08
357.694
359.635
361.582
363.249
364.307
364.41
363.28
360.703
356.502
350.557
342.721
332.834
320.83
306.729
290.642
272.757
253.284
232.488
210.656
188.106
165.202
142.28
119.601
97.376
75.784
54.998
35.229
16.716
-0.372
-15.925
-29.879
-42.214
-52.924
-62.051
-69.681
-75.953
-81.036
-85.059
-88.106
-90.232
-91.48
-91.894
-91.541
-90.494
-88.8
-86.509
-83.671
-80.337
-76.563
-72.383
-67.808
-62.824
-57.418
-51.587
-45.337
-38.677
-31.614
-24.167
-16.378
-8.286
0.07
8.687
17.612
26.875
36.474
46.366
56.467
66.684
76.987
87.287
97.38
107.164
116.628
125.939
135.551
145.864
156.99
168.865
181.275
193.5
204.533
212.976
216.811
214.196
203.865
185.329
159.116
127.14
92.186
57.728
28.104
7.331
-1.262
4.316
24.071
55.76
95.527
138.507
178.968
211.7
232.176
237.222
225.877
199.461
161.076
114.902
65.713
17.55
-26.149
-62.715
-90.875
-110.65
-123.222
-130.514
-134.618
-136.998
-138.705
-140.659
-143.62
-148.041
-153.624
-159.639
-165.194
-169.264
-171.131
-170.008
-164.431
-153.324
-136.859
-115.799
-91.795
-67.64
-45.619
-28.013
-18.039
-17.883
-28.067
-48.32
-76.791
-110.241
-146.282
-182.644
-216.304
-245.286
-268.659
-285.964
-298.121
-306.801
-312.747
-316.433
-318.578
-319.345
-318.823
-317.129
-313.742
-308.007
-299.813
-289.283
-276.734
-262.716
-247.565
-231.482
-214.814
-197.908
-181.085
-164.666
-148.814
-133.594
-119.098
-105.387
-92.52
-80.518
-69.286
-58.657
-48.418
-38.346
-28.298
-18.189
-7.952
2.441
13.023
23.835
34.841
45.979
57.185
68.367
79.465
90.444
101.224
111.717
121.833
131.46
140.523
148.976
156.758
163.846
170.226
175.876
180.847
185.229
189.133
192.733
196.157
199.461
202.695
205.86
208.917
211.836
214.549
216.951
218.985
220.573
221.629
222.091
221.799
220.544
218.081
214.085
208.308
200.601
190.79
178.751
164.409
147.677
128.665
107.549
84.331
59.213
32.523
4.669
-23.413
-50.784
-77.004
-101.554
-124.055
-144.907
-164.415
-183.09
-202.6
-224.166
-248.064
-274.602
-302.815
-330.218
-354.862
-374.551
-385.963
-386.958
-376.329
-352.925
-318.293
-276.229
-230.202
-184.366
-143.296
-110.01
-87.409
-78.621
-83.88
-101.275
-128.429
-161.675
-197.781
-234.973
-270.931
-302.927
-329.838
-351.578
-368.898
-383.781
-397.398
-409.873
-421.647
-433.236
-444.836
-456.579
-468.079
-478.366
-486.989
-493.971
-499.43
-503.692
-507.005
-509.477
-511.327
-512.853
-514.263
-515.696
-517.199
-518.698
-520.15
-521.539
-522.864
-524.146
-525.365
-526.464
-527.368
-527.995
-528.265
-528.11
-527.479
-526.335
-524.657
-522.437
-519.687
-516.436
-512.713
-508.552
-503.977
-498.996
-493.628
-487.898
-481.839
-475.489
-468.891
-462.09
-455.125
-448.048
-440.903
-433.725
-426.55
-419.409
-412.318
-405.285
-398.3
-391.326
-384.336
-377.293
-370.144
-362.848
-355.343
-347.587
-339.568
-331.245
-322.584
-313.55
-304.062
-294.08
-283.638
-272.783
-261.654
-250.477
-239.403
-228.69
-218.698
-209.563
-201.304
-193.717
-186.192
-178.254
-169.664
-160.033
-149.165
-137.503
-125.844
-115.685
-109.236
-108.036
-113.063
-125.147
-143.943
-167.64
-193.254
-216.311
-231.406
-234.077
-220.692
-188.183
-135.672
-64.615
21.31
116.14
212.807
304.752
386.177
451.865
498.626
525.513
533.849
527.182
510.064
487.038
461.973
438.29
418.417
403.526
393.607
387.418
383.105
378.789
373.311
366.019
356.638
345.374
332.683
319.374
306.586
295.469
286.718
280.643
277.339
276.686
278.557
282.798
289.075
296.923
305.914
315.679
325.914
336.422
346.997
357.326
367.092
376.044
383.977
390.797
396.443
400.759
403.608
404.901
404.574
402.781
399.85
395.812
390.441
383.471
374.498
363.575
351.348
338.031
323.315
307.349
290.794
274.779
261.128
250.461
241.494
233.054
224.55
215.344
204.724
191.231
172.014
145.684
113.796
78.77
43.201
9.147
-22.15
-48.844
-67.56
-75.699
-73.217
-61.631
-43.538
-20.967
5.203
33.871
62.995
90.425
115.17
137.491
158.698
179.802
200.923
221.96
242.908
263.984
285.153
305.785
324.769
341.09
354.166
363.74
369.764
372.206
371.085
366.528
358.758
347.922
334.003
317.017
297.085
274.348
248.981
221.348
191.892
161.36
130.87
101.095
72.231
44.37
17.427
-8.833
-34.535
-60.317
-87.667
-117.213
-148.741
-181.817
-215.251
-247.783
-278.591
-305.974
-326.763
-338.7
-340.532
-331.383
-312.074
-283.578
-246.384
-202.731
-157.08
-113.891
-77.178
-50.46
-35.107
-32.392
-43.976
-69.047
-104.16
-144.511
-184.755
-220.328
-248.599
-266.909
-272.236
-263.733
-242.758
-212.633
-177.84
-141.801
-106.446
-73.696
-45.741
-23.721
-7.649
3.924
13.512
22.728
32.202
42.418
53.873
66.93
81.742
97.836
114.189
130.181
145.629
160.511
174.953
188.979
202.504
215.56
228.28
240.706
252.813
264.529
275.712
286.298
296.322
305.839
314.928
323.694
332.198
340.481
348.551
356.33
363.69
370.501
376.688
382.273
387.319
391.835
395.761
398.968
401.282
402.581
402.803
401.723
399.01
394.464
388.126
380.463
372.131
363.461
354.259
344.173
333.134
321.076
307.68
291.886
272.28
248.138
219.875
188.747
155.753
121.813
88.153
57.105
31.893
14.922
7.175
8.167
17.103
33.003
54.361
78.111
99.581
114.72
120.639
116.036
100.703
74.942
39.711
-2.454
-47.397
-91.337
-131.112
-164.685
-191.281
-210.575
-222.74
-228.911
-231.02
-230.688
-229.216
-227.373
-225.247
-222.777
-219.715
-215.501
-209.45
-201.206
-190.74
-178.251
-164.118
-148.69
-132.3
-115.399
-98.542
-82.136
-66.414
-51.526
-37.542
-24.645
-13.145
-3.284
4.8
11.065
15.577
18.407
19.568
19.169
17.409
14.56
10.967
6.823
2.155
-3.03
-8.698
-14.674
-20.656
-26.35
-31.555
-36.064
-39.591
-41.956
-43.09
-43.2
-42.871
-42.761
-43.337
-44.779
-47.094
-49.649
-51.413
-51.293
-47.6
-38.807
-24.056
-2.947
24.147
55.255
87.445
117.76
142.251
157.258
160.177
148.592
121.47
80.141
27.531
-32.704
-95.212
-154.293
-205.152
-242.578
-262.496
-263.059
-243.981
-206.595
-154.541
-92.682
-25.423
42.011
104.369
157.557
198.104
224.337
236.899
237.771
228.712
212.196
191.815
171.35
155.01
145.675
144.382
151.415
167.28
192.166
224.847
263.006
303.303
343.119
381.114
416.154
446.844
471.662
489.876
501.864
508.961
512.123
511.495
507.072
498.898
487.43
473.157
456.046
435.693
411.945
385.071
355.709
324.768
292.907
260.617
228.556
197.397
167.844
140.577
115.993
94.27
75.594
60.131
48.056
39.545
34.551
32.797
33.98
37.834
44.068
52.294
61.831
71.616
80.603
88.3
94.546
99.28
102.879
105.88
109.205
115.015
125.625
141.944
164.047
191.141
220.886
250.858
278.171
297.834
305.084
297.622
274.495
236.866
188.733
134.259
78.816
30.624
-3.081
-17.932
-10.833
18.656
68.1
135.034
214.647
298.816
380.911
456.428
521.442
574.086
613.734
639.218
652.094
656.653
655.672
650.984
644.158
635.74
626.874
619.219
612.22
603.719
592.299
576.92
557.224
532.932
502.481
464.588
419.44
368.764
315.334
261.673
209.481
160.991
119.314
87.104
66.462
57.056
55.911
59.927
66.112
71.181
71.95
65.107
47.173
17.327
-22.498
-69.627
-120.563
-172.262
-222.573
-268.871
-308.242
-339.405
-362.583
-378.91
-390.51
-398.689
-403.762
-406.306
-406.986
-406.124
-403.84
-399.77
-393.087
-383.574
-371.6
-357.62
-342.167
-325.592
-308.076
-289.945
-271.649
-253.56
-235.989
-219.154
-203.221
-188.481
-175.249
-163.805
-154.372
-146.979
-141.532
-137.905
-135.971
-135.659
-136.917
-139.665
-143.828
-149.331
-156.088
-164.039
-173.084
-183.007
-193.608
-204.688
-216.049
-227.639
-239.44
-251.42
-263.582
-275.898
-288.327
-300.861
-313.454
-326.012
-338.432
-350.574
-362.287
-373.478
-384.004
-393.681
-402.36
-409.812
-415.828
-420.267
-422.966
-423.787
-422.633
-419.399
-414.025
-406.533
-396.954
-385.342
-371.826
-356.543
-339.716
-321.654
-302.631
-282.936
-262.844
-242.577
-222.34
-202.324
-182.649
-163.388
-144.615
-126.359
-108.664
-91.607
-75.189
-59.365
-44.053
-29.086
-14.321
0.348
15.06
29.96
45.136
60.65
76.478
92.466
108.498
124.468
140.267
155.845
171.098
185.865
200.019
213.416
225.904
237.38
247.681
256.563
263.865
269.459
273.287
275.475
276.128
275.323
273.21
269.916
265.613
260.552
254.912
248.823
242.446
235.909
229.389
223.177
217.499
212.556
208.541
205.486
203.415
202.369
202.284
203.064
204.58
206.613
209.008
211.695
214.576
217.585
220.639
223.573
226.255
228.569
230.367
231.576
232.144
232.006
231.178
229.72
227.71
225.296
222.588
219.631
216.469
213.121
209.594
205.929
202.148
198.261
194.306
190.31
186.289
182.272
178.253
174.2
170.073
165.804
161.332
156.63
151.678
146.468
141.005
135.288
129.322
123.133
116.732
110.127
103.328
96.333
89.148
81.789
74.274
66.624
58.861
50.991
43.016
34.942
26.771
18.514
10.18
1.756
-6.773
-15.427
-24.229
-33.184
-42.29
-51.556
-60.984
-70.579
-80.334
-90.212
-100.163
-110.142
-120.116
-130.086
-140.047
-149.949
-159.708
-169.175
-178.211
-186.772
-194.847
-202.47
-209.689
-216.417
-222.647
-228.571
-234.252
-239.659
-244.581
-248.298
-250.161
-250.193
-248.544
-245.573
-242.26
-239.343
-237.975
-240.508
-248.948
-264.181
-286.391
-314.271
-345.042
-376.418
-405.308
-427.038
-437.646
-434.063
-414.541
-380.065
-333.618
-278.314
-218.756
-161.069
-110.64
-72.529
-50.229
-44.603
-55.024
-79.521
-114.003
-152.952
-190.989
-223.021
-245.46
-256.084
-253.096
-236.496
-208.307
-171.986
-131.671
-90.817
-51.597
-15.857
14.423
38.293
55.872
68.401
78.014
86.078
93.047
99.259
105.029
110.521
115.787
120.406
123.5
124.599
123.66
120.797
116.326
110.507
103.455
95.349
86.442
76.925
66.961
56.695
46.214
35.613
24.999
14.456
4.068
-6.102
-16.052
-25.825
-35.52
-45.267
-55.143
-65.171
-75.354
-85.683
-96.16
-106.802
-117.614
-128.572
-139.653
-150.84
-162.119
-173.478
-184.877
-196.245
-207.48
-218.473
-229.141
-239.428
-249.288
-258.686
-267.588
-275.964
-283.798
-291.092
-297.84
-304.034
-309.66
-314.702
-319.157
-323.035
-326.355
-329.141
-331.414
-333.193
-334.499
-335.357
-335.791
-335.818
-335.454
-334.707
-333.592
-332.135
-330.364
-328.309
-326.003
-323.475
-320.759
-317.896
-314.918
-311.85
-308.709
-305.501
-302.238
-298.954
-295.689
-292.49
-289.419
-286.528
-283.874
-281.531
-279.548
-277.948
-276.739
-275.891
-275.379
-275.211
-275.399
-275.962
-276.915
-278.223
-279.835
-281.688
-283.664
-285.623
-287.416
-288.853
-289.8
-290.205
-290.047
-289.371
-288.251
-286.709
-284.783
-282.529
-279.99
-277.26
-274.464
-271.735
-269.305
-267.472
-266.52
-266.765
-268.441
-271.652
-276.465
-282.862
-290.731
-299.958
-310.373
-321.734
-333.822
-346.376
-359.065
-371.53
-383.286
-393.762
-402.431
-408.775
-412.331
-412.746
-409.705
-402.957
-392.417
-378.099
-360.102
-338.641
-313.93
-286.238
-255.955
-223.559
-189.645
-154.878
-119.889
-85.285
-51.687
-19.704
10.088
37.144
61.088
81.681
98.748
112.204
122.006
128.164
130.821
130.229
126.711
120.613
112.282
102.056
90.336
77.58
64.215
50.642
37.165
23.987
11.295
-0.76
-12.068
-22.566
-32.258
-41.221
-49.537
-57.27
-64.499
-71.302
-77.798
-84.153
-90.495
-96.918
-103.472
-110.164
-116.997
-123.971
-131.055
-138.186
-145.282
-152.238
-158.96
-165.376
-171.402
-176.946
-181.91
-186.178
-189.666
-192.329
-194.137
-195.075
-195.13
-194.287
-192.544
-189.927
-186.472
-182.221
-177.214
-171.496
-165.131
-158.218
-150.879
-143.239
-135.398
-127.423
-119.361
-111.267
-103.194
-95.188
-87.297
-79.536
-71.919
-64.49
-57.299
-50.372
-43.703
-37.22
-30.787
-24.288
-17.64
-10.791
-3.734
3.535
10.983
18.526
26.035
33.341
40.303
46.842
52.905
58.399
63.179
67.034
69.675
70.835
70.279
67.76
63.083
56.118
46.829
35.311
21.779
6.495
-10.317
-28.478
-47.825
-68.143
-89.145
-110.508
-131.852
-152.767
-172.813
-191.457
-208.164
-222.513
-234.199
-243.06
-249.076
-252.25
-252.551
-249.961
-244.465
-236.071
-224.855
-210.888
-194.252
-175.14
-153.842
-130.786
-106.478
-81.323
-55.643
-29.713
-3.726
22.119
47.569
72.416
96.445
119.382
140.993
161.018
179.165
195.287
209.334
221.351
231.486
239.842
246.489
251.533
255.057
257.142
257.928
257.535
256.108
253.91
251.173
248.124
245.028
242.044
239.269
236.775
234.526
232.458
230.525
228.648
226.778
224.932
223.082
221.19
219.204
216.986
214.456
211.606
208.395
204.82
200.926
196.773
192.549
188.557
185.066
182.307
180.449
179.531
179.59
180.707
182.929
186.288
190.754
196.123
202.168
208.732
215.606
222.539
229.233
235.119
239.523
242.168
243.07
242.337
240.235
236.632
230.95
223.144
213.715
202.735
189.977
175.046
157.184
136.929
116.351
96.956
79.599
65.483
55.776
51.934
56.128
68.752
88.108
112.975
142.472
175.486
211.311
248.738
285.605
321.034
355.568
389.275
422.107
453.93
484.001
511.987
538.198
562.361
583.769
602.024
616.746
627.86
635.769
640.734
642.925
642.751
640.652
637.084
632.591
627.538
622.181
616.835
611.727
607.048
602.989
599.624
596.975
595.052
593.775
593.026
592.671
592.506
592.337
591.975
591.198
589.838
587.768
584.856
581.027
576.233
570.419
563.567
555.693
546.802
536.935
526.152
514.505
502.076
488.956
475.236
461.023
446.407
431.453
416.222
400.761
385.108
369.301
353.374
337.342
321.235
305.083
288.912
272.759
256.655
240.624
224.69
208.875
193.202
177.701
162.404
147.341
132.545
118.049
103.887
90.097
76.713
63.761
51.269
39.257
27.748
16.76
6.312
-3.583
-12.912
-21.663
-29.825
-37.389
-44.347
-50.696
-56.433
-61.558
-66.073
-69.982
-73.292
-76.01
-78.147
-79.715
-80.726
-81.196
-81.142
-80.58
-79.532
-78.019
-76.065
-73.695
-70.935
-67.815
-64.363
-60.611
-56.589
-52.33
-47.865
-43.227
-38.45
-33.565
-28.607
-23.607
-18.6
-13.618
-8.694
-3.86
0.853
5.414
9.793
13.962
17.893
21.56
24.938
28.004
30.733
33.106
35.102
36.704
37.895
38.66
38.988
38.868
38.293
37.256
35.756
33.789
31.358
28.464
25.114
21.312
17.066
12.387
7.285
1.774
-4.133
-10.42
-17.069
-24.062
-31.38
-39.003
-46.908
-55.075
-63.482
-72.107
-80.925
-89.914
-99.051
-108.312
-117.673
-127.112
-136.605
-146.13
-155.667
-165.193
-174.691
-184.142
-193.528
-202.835
-212.047
-221.153
-230.141
-239.001
-247.725
-256.306
-264.739
-273.02
-281.148
-289.122
-296.945
-304.621
-312.156
-319.558
-326.833
-333.99
-341.04
-347.991
-354.852
-361.631
-368.334
-374.972
-381.553
-388.09
-394.594
-401.078
-407.557
-414.043
-420.552
-427.098
-433.698
-440.36
-447.092
-453.901
-460.793
-467.78
-474.878
-482.093
-489.416
-496.831
-504.316
-511.842
-519.375
-526.865
-534.248
-541.455
-548.426
-555.113
-561.478
-567.484
-573.092
-578.251
-582.905
-587.023
-590.609
-593.684
-596.275
-598.414
-600.129
-601.479
-602.568
-603.489
-604.31
-605.059
-605.733
-606.322
-606.815
-607.208
-607.483
-607.562
-607.3
-606.516
-605.02
-602.644
-599.26
-594.724
-588.784
-581.163
-571.622
-559.96
-546.078
-529.984
-511.571
-490.61
-467.115
-441.33
-413.863
-385.732
-357.56
-329.363
-301.19
-273.247
-245.454
-217.564
-188.345
-155.258
-116.902
-73.496
-25.806
24.693
75.91
125.825
170.739
204.657
223.539
225.765
210.973
181.299
140.381
91.965
42.191
-0.048
-27.847
-36.054
-20.611
18.949
81.038
163.115
259.752
363.225
466.426
561.68
641.018
698.547
729.356
730.105
699.79
638.685
548.656
434.318
301.886
158.715
14.009
-124.139
-248.439
-351.065
-430.336
-487.112
-518.261
-526.17
-509.264
-464.97
-408.843
-352.797
-309.605
-294.125
-296.261
-305.744
-314.438
-309.379
-295.056
-276.976
-256.052
-236.815
-217.114
-194.479
-170.61
-146.464
-123.978
-105.009
-89.659
-77.73
-69.129
-63.633
-61.046
-61.11
-63.445
-67.652
-73.377
-80.309
-88.142
-96.577
-105.289
-113.89
-122.018
-129.37
-135.743
-141.051
-145.235
-148.255
-150.097
-150.776
-150.386
-149.09
-147.071
-144.521
-141.619
-138.52
-135.413
-132.522
-130.021
-128.039
-126.635
-125.792
-125.509
-125.79
-126.62
-127.977
-129.799
-132.008
-134.539
-137.332
-140.33
-143.505
-146.811
-150.202
-153.694
-157.324
-161.17
-165.358
-169.962
-175.029
-180.593
-186.661
-193.256
-200.378
-207.979
-216.007
-224.394
-233.03
-241.81
-250.598
-259.165
-267.29
-274.723
-281.166
-286.395
-290.221
-292.48
-293.051
-291.807
-288.641
-283.502
-276.365
-267.217
-256.094
-243.026
-228.104
-211.537
-193.537
-174.346
-154.267
-133.567
-112.497
-91.319
-70.283
-49.657
-29.73
-10.772
6.979
23.295
37.965
50.77
61.542
70.214
76.74
81.11
83.363
83.545
81.723
78.003
72.528
65.473
57.065
47.555
37.161
26.079
14.519
2.704
-9.17
-20.95
-32.502
-43.721
-54.496
-64.724
-74.348
-83.352
-91.776
-99.709
-107.267
-114.6
-121.832
-129.036
-136.292
-143.676
-151.226
-158.978
-166.965
-175.211
-183.795
-192.816
-202.297
-212.211
-222.474
-232.931
-243.427
-253.771
-263.748
-273.203
-282.008
-290.061
-297.341
-303.821
-309.436
-314.101
-317.646
-319.865
-320.637
-319.884
-317.569
-313.724
-308.365
-301.573
-293.521
-284.339
-274.116
-262.883
-250.563
-237.104
-222.528
-206.909
-190.416
-173.265
-155.619
-137.652
-119.551
-101.486
-83.661
-66.196
-49.09
-32.374
-16.108
-0.427
14.425
28.25
40.936
52.416
62.698
71.829
79.84
86.835
92.978
98.461
103.526
108.333
112.947
117.449
121.934
126.551
131.522
137.022
143.159
150.03
157.695
166.205
175.609
185.885
196.941
208.66
220.89
233.53
246.537
259.863
273.459
287.262
301.178
315.147
329.144
343.133
357.076
370.933
384.654
398.23
411.681
425.038
438.336
451.591
464.792
477.926
490.976
503.92
516.732
529.372
541.784
553.923
565.751
577.232
588.334
599.021
609.249
618.978
628.171
636.794
644.82
652.224
658.985
665.088
670.519
675.271
679.341
682.731
685.447
687.499
688.901
689.669
689.818
689.372
688.359
686.807
684.738
682.165
679.099
675.57
671.629
667.337
662.755
657.935
652.93
647.803
642.628
637.462
632.341
627.268
622.233
617.258
612.391
607.71
603.301
599.207
595.424
591.935
588.729
585.79
583.078
580.498
577.915
575.254
572.516
569.79
567.185
564.752
562.489
560.359
558.319
556.385
554.629
553.109
551.859
550.957
550.521
550.777
552.03
554.453
558.07
562.775
568.4
574.84
582.031
589.898
598.346
607.216
616.302
625.45
634.545
643.4
651.778
659.316
665.542
670.151
673.002
674.07
673.413
671.038
666.917
661.092
653.655
644.757
634.606
623.272
610.726
596.978
581.992
565.88
548.95
531.287
512.78
493.433
473.28
452.665
432.331
412.557
393.108
373.726
354.073
333.844
312.926
290.521
265.131
236.29
204.596
171.439
139.066
109.436
83.981
64.976
55.471
57.243
70.745
95.015
127.516
166.191
209.763
256.301
303.316
349.017
392.253
432.952
472.334
510.973
548.604
585.049
620.108
653.418
684.637
712.994
737.203
756.461
770.431
778.95
782.177
780.324
773.606
762.475
747.547
729.401
708.686
686.076
662.178
637.696
613.305
589.575
567.064
546.226
527.414
510.945
497.077
485.957
477.659
472.173
469.412
469.248
471.453
475.72
481.699
488.975
497.159
505.897
514.832
523.669
532.176
540.13
547.333
553.646
558.957
563.205
566.387
568.528
569.705
570.037
569.666
568.773
567.528
566.085
564.591
563.147
561.809
560.634
559.673
558.97
558.579
558.534
558.839
559.478
560.402
561.547
562.85
564.237
565.634
566.993
568.283
569.509
570.716
571.918
573.097
574.194
575.095
575.668
575.765
575.259
574.056
572.071
569.233
565.48
560.761
554.994
548.078
539.875
530.212
518.966
506.076
491.552
475.477
458.001
439.337
419.698
399.305
378.337
356.931
335.203
313.241
291.147
269.044
247.074
225.41
204.198
183.549
163.542
144.225
125.558
107.415
89.635
72.011
54.4
36.746
19.012
1.196
-16.666
-34.521
-52.277
-69.802
-86.991
-103.762
-120.053
-135.84
-151.02
-165.391
-178.707
-190.659
-200.989
-209.508
-216.025
-220.34
-222.339
-222.006
-219.438
-214.856
-208.449
-200.341
-190.631
-179.374
-166.679
-152.735
-137.79
-122.127
-106.057
-89.921
-74.12
-59.14
-45.402
-33.185
-22.647
-13.826
-6.78
-1.632
1.475
2.392
0.975
-2.911
-9.369
-18.481
-30.246
-44.529
-61.099
-79.607
-99.707
-121.15
-143.742
-167.31
-191.641
-216.456
-241.431
-266.236
-290.486
-313.701
-335.385
-355.033
-372.231
-386.697
-398.234
-406.715
-412.016
-413.997
-412.537
-407.576
-399.158
-387.41
-372.555
-354.873
-334.74
-312.683
-289.309
-265.25
-241.093
-217.358
-194.518
-173.062
-153.546
-136.509
-122.475
-111.91
-105.139
-102.399
-103.834
-109.487
-119.309
-133.126
-150.648
-171.566
-195.606
-222.504
-252.032
-283.896
-317.673
-352.932
-389.226
-426.095
-463.174
-500.137
-536.675
-572.557
-607.606
-641.707
-674.823
-706.89
-737.777
-767.335
-795.372
-821.745
-846.404
-869.284
-890.308
-909.456
-926.696
-942.01
-955.426
-966.926
-976.442
-983.908
-989.242
-992.418
-993.488
-992.521
-989.599
-984.796
-978.194
-969.964
-960.361
-949.597
-937.841
-925.251
-911.957
-898.161
-884.144
-870.16
-856.431
-843.155
-830.516
-818.734
-808.078
-798.811
-791.109
-785.025
-780.481
-777.419
-775.855
-775.813
-777.292
-780.157
-784.104
-788.828
-794.108
-799.751
-805.562
-811.212
-816.14
-819.929
-822.54
-824.303
-825.727
-826.993
-827.699
-827.379
-826.047
-823.769
-820.357
-815.034
-806.652
-794.992
-781.343
-767.761
-755.878
-746.998
-742.454
-744.133
-754.323
-774.144
-802.803
-838.209
-878.583
-922.669
-969.183
-1016.35
-1061.82
-1103.84
-1142.082
-1177.332
-1209.948
-1239.536
-1265.656
-1288.168
-1307.712
-1324.998
-1339.711
-1350.5
-1356.138
-1356.219
-1350.684
-1339.428
-1321.581
-1295.948
-1262.529
-1222.921
-1179.539
-1134.281
-1088.54
-1043.713
-1001.884
-965.687
-936.677
-914.564
-897.746
-884.919
-875.335
-868.342
-862.898
-857.296
-850.368
-842.309
-834.293
-827.239
-821.537
-817.251
-814.345
-813.211
-814.12
-816.665
-820.009
-823.42
-826.448
-828.966
-831.122
-832.899
-834.253
-835.302
-836.199
-837.155
-838.341
-839.799
-841.533
-843.542
-845.786
-848.234
-850.864
-853.538
-856.107
-858.372
-859.969
-860.585
-859.95
-857.768
-853.835
-847.945
-839.833
-829.268
-816.06
-800.043
-781.172
-759.472
-734.966
-707.816
-678.248
-646.569
-613.273
-578.814
-543.582
-507.983
-472.381
-437.14
-402.718
-369.577
-338.104
-308.698
-281.653
-257.176
-235.468
-216.612
-200.599
-187.344
-176.627
-168.217
-161.928
-157.566
-154.916
-153.754
-153.763
-154.587
-155.938
-157.514
-159.057
-160.381
-161.293
-161.659
-161.416
-160.547
-159.089
-157.105
-154.629
-151.689
-148.344
-144.662
-140.759
-136.791
-132.862
-129.064
-125.478
-122.141
-119.094
-116.362
-113.926
-111.746
-109.775
-107.954
-106.238
-104.599
-102.99
-101.358
-99.642
-97.764
-95.673
-93.337
-90.731
-87.843
-84.668
-81.205
-77.473
-73.505
-69.331
-64.981
-60.484
-55.861
-51.14
-46.361
-41.558
-36.771
-32.035
-27.38
-22.839
-18.445
-14.228
-10.215
-6.427
-2.883
0.399
3.399
6.098
8.485
10.545
12.268
13.643
14.656
15.299
15.57
15.463
14.977
14.109
12.853
11.212
9.196
6.807
4.047
0.914
-2.597
-6.478
-10.703
-15.242
-20.064
-25.125
-30.379
-35.762
-41.187
-46.586
-51.907
-57.101
-62.137
-66.968
-71.527
-75.763
-79.624
-83.081
-86.132
-88.782
-91.037
-92.946
-94.592
-96.072
-97.515
-99
-100.544
-102.164
-103.853
-105.616
-107.474
-109.418
-111.409
-113.405
-115.351
-117.155
-118.708
-119.82
-120.218
-119.637
-117.799
-114.486
-109.567
-102.907
-94.378
-83.867
-71.267
-56.49
-39.486
-20.194
1.462
25.468
51.741
80.091
110.204
141.776
174.507
208.105
242.312
276.852
311.423
345.731
379.496
412.397
444.1
474.257
502.483
528.503
552.145
573.317
592.038
608.331
622.215
633.758
643.057
650.227
655.411
658.773
660.47
660.747
659.916
658.284
656.18
653.858
651.484
649.195
647.078
645.199
643.612
642.329
641.326
640.58
640.073
639.758
639.588
639.456
639.193
638.663
637.739
636.331
634.395
631.899
628.819
625.166
620.97
616.274
611.141
605.618
599.743
593.573
587.167
580.607
573.996
567.412
560.917
554.563
548.387
542.415
536.674
531.175
525.911
520.887
516.108
511.577
507.314
503.327
499.621
496.204
493.068
490.204
487.609
485.282
483.227
481.457
479.978
478.784
477.875
477.241
476.862
476.718
476.76
476.917
477.122
477.31
477.438
477.497
477.47
477.336
477.083
476.692
476.168
475.56
474.889
474.158
473.392
472.62
471.928
471.468
471.372
471.751
472.686
474.201
476.314
479.041
482.343
486.14
490.306
494.637
498.973
503.204
507.187
510.754
513.669
515.604
516.251
515.36
512.701
508.087
501.384
492.481
481.375
468.181
453.082
436.367
418.317
399.158
379.168
358.68
338.085
317.866
298.52
280.457
264.087
249.825
238.005
228.932
222.804
219.676
219.534
222.28
227.782
235.917
246.529
259.378
274.181
290.598
308.243
326.809
345.998
365.472
384.95
404.179
422.944
441.123
458.633
475.396
491.363
506.521
520.87
534.477
547.463
559.955
572.128
584.113
595.994
607.879
619.843
631.927
644.17
656.597
669.218
682.095
695.301
708.834
722.671
736.736
750.875
764.926
778.686
791.922
804.462
816.158
826.875
836.533
845.054
852.327
858.246
862.656
865.359
866.241
865.228
862.281
857.465
850.873
842.655
833.042
822.235
810.386
797.646
784.112
769.875
755.069
739.829
724.31
708.721
693.224
677.951
663.033
648.524
634.445
620.778
607.429
594.321
581.418
568.697
556.166
543.849
531.742
519.847
508.173
496.698
485.404
474.285
463.317
452.511
441.901
431.536
421.494
411.846
402.629
393.863
385.555
377.701
370.291
363.303
356.696
350.434
344.494
338.865
333.538
328.484
323.658
318.99
314.422
309.913
305.429
300.944
296.43
291.856
287.225
282.581
277.973
273.448
269.013
264.624
260.249
255.873
251.495
247.134
242.764
238.309
233.706
228.905
223.893
218.687
213.239
207.434
201.118
194.101
186.288
177.706
168.4
158.458
147.891
136.535
124.55
112.463
100.768
90.026
80.416
71.465
63.077
55.804
49.726
44.429
39.267
32.759
24.257
14.988
5.934
-2.527
-9.503
-14.107
-15.174
-9.914
3.595
24.347
50.853
81.276
112.861
143.598
171.562
193.147
205.249
207.499
200.478
186.006
167.269
146.301
124.618
104.745
88.947
78.066
72.337
70.813
71.421
73.095
75.382
77.549
79.085
79.714
79.212
77.922
76.662
75.743
75.134
74.785
74.494
74.204
73.997
73.814
73.517
73.06
72.451
71.732
71.004
70.304
69.621
68.972
68.384
67.923
67.705
67.818
68.328
69.274
70.671
72.514
74.78
77.41
80.315
83.411
86.639
89.976
93.436
97.023
100.745
104.597
108.566
112.664
116.909
121.307
125.852
130.548
135.423
140.558
146.085
152.112
158.686
165.798
173.387
181.388
189.715
198.253
206.85
215.297
223.404
231.025
238.048
244.365
249.828
254.235
257.33
258.909
258.844
257.067
253.563
248.327
241.403
232.898
222.993
211.937
199.939
187.153
173.696
159.68
145.254
130.614
115.983
101.536
87.403
73.684
60.454
47.789
35.719
24.213
13.18
2.487
-7.957
-18.193
-28.231
-38.075
-47.745
-57.278
-66.708
-76.041
-85.271
-94.394
-103.408
-112.313
-121.091
-129.691
-138.032
-146.024
-153.603
-160.731
-167.39
-173.568
-179.259
-184.451
-189.148
-193.37
-197.134
-200.455
-203.345
-205.808
-207.858
-209.522
-210.846
-211.884
-212.687
-213.293
-213.734
-214.033
-214.227
-214.36
-214.479
-214.625
-214.83
-215.125
-215.549
-216.159
-217.016
-218.16
-219.602
-221.326
-223.32
-225.593
-228.19
-231.172
-234.558
-238.335
-242.449
-246.823
-251.458
-256.401
-261.709
-267.43
-273.536
-279.957
-286.774
-294.245
-302.515
-311.535
-320.874
-329.723
-337.688
-344.999
-352.113
-359.43
-367.267
-375.988
-386.747
-401.913
-423.29
-451.039
-483.964
-519.84
-556.494
-592.355
-625.296
-651.375
-666.779
-669.772
-660.811
-643.104
-620.874
-597.319
-575.5
-559.874
-555.119
-564.628
-590.378
-630.826
-681.699
-738.93
-798.363
-855.296
-905.35
-944.462
-968.191
-974.453
-964.513
-940.953
-908.091
-871.028
-833.716
-799.662
-773.57
-759.648
-760.005
-774.979
-801.677
-835.06
-871.085
-906.918
-939.324
-964.836
-980.364
-983.559
-975.074
-958.473
-937.343
-913.971
-889.986
-866.821
-846.219
-830.311
-819.745
-813.04
-808.077
-803.388
-798.337
-792.875
-786.863
-779.595
-770.611
-760.247
-749.302
-738.5
-728.193
-718.349
-708.816
-699.637
-690.939
-682.758
-675.013
-667.538
-660.173
-652.806
-645.359
-637.76
-629.924
-621.733
-613.05
-603.783
-593.848
-583.199
-571.846
-559.783
-547.032
-533.691
-519.871
-505.779
-491.751
-478.008
-464.825
-452.762
-442.305
-434.051
-428.713
-426.452
-427.372
-432.078
-440.801
-453.059
-468.327
-485.304
-502.643
-520.522
-538.928
-557.203
-575.606
-595.137
-617.301
-645.052
-680.6
-723.611
-773.662
-829.755
-889.143
-948.316
-1002.122
-1043.668
-1067.391
-1069.918
-1048.67
-1003.467
-936.395
-850.75
-752.536
-649.279
-547.835
-454.774
-375.705
-313.486
-269.22
-242.552
-230.745
-230.402
-237.922
-248.666
-258.699
-265.771
-268.516
-266.816
-261.772
-254.409
-246.059
-238.745
-233.929
-232.38
-234.452
-239.749
-247.433
-256.629
-266.309
-275.559
-283.861
-291.061
-297.183
-302.051
-305.465
-307.604
-308.826
-309.206
-308.59
-306.23
-301.277
-294.063
-285.539
-276.573
-267.739
-259.386
-252.11
-247.428
-247.098
-251.564
-259.943
-270.507
-281.941
-293.731
-305.139
-314.701
-320.516
-321.225
-317.177
-310.298
-302.065
-293.088
-283.964
-275.349
-268.404
-264.561
-263.873
-265.009
-266.956
-269.155
-271.299
-273.492
-275.456
-276.454
-276.399
-275.821
-275.147
-274.758
-274.796
-275.036
-275.418
-276.082
-277.052
-278.293
-279.752
-281.313
-282.939
-284.697
-286.639
-288.833
-291.315
-294.08
-297.104
-300.342
-303.777
-307.426
-311.337
-315.591
-320.199
-325.094
-330.202
-335.418
-340.693
-346.092
-351.524
-356.731
-361.591
-366.037
-370.363
-375.303
-381.13
-387.576
-394.229
-400.447
-405.606
-409.338
-410.34
-406.365
-395.987
-378.613
-354.912
-327.039
-296.932
-266.037
-236.873
-212.786
-196.556
-190.464
-194.268
-204.98
-219.633
-235.417
-249.16
-257.789
-258.114
-246.827
-223.291
-189.633
-148.558
-103.338
-56.692
-10.342
33.574
72.552
105.586
133.131
156.45
177.695
198.3
218.61
239.01
260.108
282.327
306.043
331.514
358.363
386.038
414.299
443.015
471.702
499.631
525.5
546.863
561.536
568.881
569.152
563.412
553.813
542.538
532.394
528.356
535.416
556.149
591.328
639.652
697.988
763.205
831.155
895.061
947.707
983.991
1000.63
996.402
971.466
926.2
862.836
786.266
702.536
616.88
533.395
455.74
388.244
335.29
299.4
281.231
279.685
293.249
321.226
361.736
410.296
461.837
511.826
556.057
592.27
619.002
633.734
635.512
626.026
607.484
582.947
556.285
529.592
504.377
483.124
467.108
456.258
450.395
448.127
447.22
446.691
445.828
443.568
439.653
434.08
426.814
418.587
410.401
402.724
395.952
390.379
385.915
382.611
380.545
379.579
379.651
380.762
382.907
386.176
390.698
396.489
403.502
411.686
420.947
431.2
442.355
454.306
466.955
480.138
493.661
507.286
520.711
533.663
545.893
557.15
567.186
575.815
582.93
588.449
592.307
594.397
594.573
592.698
588.721
582.714
574.803
565.152
553.895
541.146
527.106
512.055
496.355
480.215
463.617
446.675
429.824
413.872
399.757
388.045
378.604
371.206
366.095
363.225
362.028
361.099
358.368
352.729
344.754
335.802
326.804
318.993
314.117
314.815
324.634
345.531
376.965
416.535
461.588
508.999
554.691
594.102
622.207
635.482
632.786
615.263
584.702
543.515
495.892
445.995
397.696
354.194
317.168
286.752
262.999
245.547
231.98
220.26
209.039
196.947
183.53
168.897
152.603
134.399
115.455
96.539
77.907
59.968
42.457
25.056
7.968
-8.747
-25.514
-42.532
-59.836
-77.448
-95.019
-112.222
-128.882
-144.705
-159.352
-172.487
-183.748
-192.815
-199.445
-203.445
-204.664
-202.996
-198.429
-191.045
-181.001
-168.557
-154.01
-137.658
-119.87
-101.075
-81.681
-62.144
-42.942
-24.502
-7.27
8.37
22.143
33.813
43.239
50.361
55.185
57.827
58.471
57.306
54.572
50.569
45.607
40.07
34.394
28.954
24.132
20.268
17.623
16.445
16.926
19.182
23.275
29.202
36.899
46.297
57.303
69.756
83.493
98.294
113.909
130.156
146.857
163.86
181.072
198.392
215.756
233.177
250.696
268.38
286.35
304.714
323.597
343.181
363.613
385.034
407.576
431.295
456.221
482.346
509.593
537.865
567.025
596.853
627.096
657.479
687.647
717.276
746.034
773.538
799.475
823.571
845.573
865.31
882.651
897.505
909.862
919.758
927.259
932.516
935.716
937.084
936.929
935.528
933.144
930.077
926.565
922.818
919.034
915.352
911.88
908.711
905.889
903.422
901.307
899.496
897.913
896.466
895.013
893.443
891.665
889.582
887.136
884.276
880.942
877.095
872.697
867.701
862.081
855.826
848.924
841.383
833.225
824.484
815.225
805.507
795.39
784.928
774.164
763.176
752.084
741.041
730.239
719.871
710.114
701.15
693.156
686.279
680.61
676.172
672.924
670.797
669.71
669.593
670.319
671.62
673.113
674.295
674.603
673.57
670.682
665.309
656.988
645.45
630.672
613.115
593.252
571.035
546.358
519.097
488.669
454.723
416.875
373.943
325.202
271.171
212.901
152.387
92.662
35.905
-16.065
-60.508
-95.323
-119.433
-132.311
-135.409
-131.574
-122.451
-108.982
-92.627
-74.736
-57.158
-42.119
-29.887
-19.549
-11.179
-5.676
-4.277
-7.833
-15.498
-25.212
-36.006
-47.743
-59.994
-71.852
-81.639
-88.005
-91.129
-92.297
-92.459
-91.988
-90.973
-89.468
-88.042
-87.206
-86.791
-86.147
-84.641
-81.94
-78.039
-73.114
-67.243
-60.465
-52.92
-44.871
-36.664
-28.613
-20.997
-14.082
-8.09
-3.279
0.061
1.704
1.422
-1.006
-5.736
-12.879
-22.499
-34.591
-49.144
-66.137
-85.413
-106.716
-129.68
-153.853
-178.866
-204.402
-230.128
-255.765
-281.025
-305.61
-329.298
-351.935
-373.366
-393.465
-412.08
-429.045
-444.331
-458.04
-470.389
-481.647
-491.998
-501.564
-510.464
-518.802
-526.684
-534.203
-541.383
-548.203
-554.675
-560.832
-566.754
-572.543
-578.216
-583.698
-588.853
-593.54
-597.676
-601.222
-604.142
-606.398
-607.964
-608.851
-609.116
-608.841
-608.079
-606.856
-605.171
-603.016
-600.423
-597.458
-594.208
-590.75
-587.144
-583.438
-579.682
-575.933
-572.236
-568.612
-565.058
-561.57
-558.158
-554.843
-551.652
-548.606
-545.715
-542.984
-540.416
-538.014
-535.778
-533.69
-531.733
-529.881
-528.111
-526.405
-524.751
-523.114
-521.463
-519.76
-517.961
-516.041
-513.975
-511.727
-509.26
-506.547
-503.573
-500.363
-496.959
-493.389
-489.689
-485.885
-482.002
-478.109
-474.252
-470.465
-466.774
-463.147
-459.545
-455.961
-452.407
-448.907
-445.437
-441.865
-438.001
-433.659
-428.716
-423.172
-416.937
-409.762
-401.586
-392.471
-382.8
-373.425
-364.838
-357.038
-350.041
-343.728
-337.851
-332.406
-326.578
-318.593
-307.649
-293.726
-277.478
-260.9
-245.826
-233.524
-226.644
-228.545
-241.28
-266.42
-303.808
-350.633
-404.362
-462.541
-521.001
-575.72
-623.516
-660.918
-686.494
-701.461
-706.955
-704.908
-698.699
-690.855
-683.649
-679.962
-681.211
-687.377
-698.339
-712.93
-729.232
-746.264
-763.191
-778.935
-793.181
-805.914
-817.174
-827.61
-838.025
-848.699
-859.729
-871.104
-882.558
-893.943
-905.183
-916.059
-926.323
-935.824
-944.537
-952.549
-959.992
-966.954
-973.254
-978.631
-983.208
-987.152
-990.706
-994.255
-997.62
-1000.387
-1002.807
-1005.248
-1007.402
-1009.094
-1009.425
-1006.861
-1001.729
-995.038
-987.14
-978.787
-971.045
-964.463
-961.25
-964.701
-975.299
-992.513
-1015.285
-1040.897
-1067.067
-1092.28
-1113.141
-1125.348
-1126.758
-1115.96
-1093.791
-1063.858
-1029.099
-991.94
-955.675
-923.831
-899.75
-886.916
-885.878
-894.508
-910.846
-932.844
-958.971
-987.769
-1016.125
-1039.937
-1057.186
-1067.475
-1070.794
-1067.471
-1056.591
-1037.349
-1011.165
-980.703
-947.826
-913.615
-878.529
-842.868
-808.071
-775.406
-744.608
-714.474
-683.966
-652.608
-620.588
-588.243
-555.349
-521.704
-487.657
-454.033
-421.673
-391.096
-362.419
-335.494
-310.267
-286.744
-264.913
-244.682
-225.835
-208.096
-191.171
-174.864
-159.002
-143.379
-127.726
-111.669
-94.877
-77.113
-58.244
-38.224
-16.997
5.522
29.462
54.944
81.992
110.52
140.386
171.462
203.619
236.711
270.508
304.679
338.946
373.107
407.036
440.671
473.91
506.617
538.641
569.843
600.14
629.515
657.963
685.476
712.069
737.778
762.699
786.993
810.772
834.102
857.008
879.48
901.527
923.177
944.446
965.34
985.852
1005.965
1025.67
1044.967
1063.858
1082.339
1100.38
1117.935
1134.969
1151.443
1167.338
1182.635
1197.313
1211.392
1224.884
1237.781
1250.053
1261.613
1272.349
1282.192
1291.005
1298.565
1304.785
1309.677
1313.462
1316.664
1319.798
1323.23
1327.179
1331.696
1336.356
1340.318
1342.269
1340.3
1332.505
1317.402
1294.501
1264.278
1228.397
1189.726
1151.779
1118.938
1095.906
1086.586
1092.871
1114.735
1150.05
1194.483
1242.844
1288.656
1324.312
1343.031
1340.166
1313.193
1262.01
1188.965
1097.403
992.246
880.281
768.059
660.768
562.171
474.199
397.047
330.255
272.144
218.532
164.956
108.167
45.062
-23.055
-93.45
-167.521
-242.748
-320.413
-401.54
-471.422
-519.306
-531.574
-493.596
-416.988
-313.964
-196.373
-82.529
27.261
132.538
225.324
302.366
357.085
384.439
386.12
364.519
321.958
262.688
192.911
118.703
44.731
-25.865
-92.007
-152.149
-202.541
-240.281
-264.427
-274.672
-270.911
-252.032
-215.484
-161.078
-92.126
-12.935
71.508
156.14
236.469
306.45
358.542
388.001
393.241
374.502
334.565
277.139
205.88
126.547
46.089
-30.904
-101.33
-163.089
-216.478
-262.445
-302.085
-338.236
-373.449
-407.944
-441.755
-474.833
-505.811
-533.386
-556.122
-571.442
-578.283
-577.969
-571.626
-560.306
-545.555
-528.463
-510.466
-493.911
-479.804
-467.566
-456.884
-447.439
-438.943
-431.658
-425.422
-419.466
-413.588
-408.055
-402.925
-398.257
-393.844
-389.105
-383.652
-377.255
-369.589
-360.34
-349.272
-336.218
-321.206
-304.464
-286.289
-266.951
-246.764
-226.153
-205.408
-184.73
-164.266
-143.793
-123.149
-102.72
-82.889
-64.048
-47.152
-33.057
-22.715
-17.87
-19.645
-27.824
-41.842
-60.362
-80.959
-101.706
-120.506
-134.278
-140.972
-140.043
-131.606
-117.199
-99.488
-80.317
-61.515
-45.592
-34.137
-27.877
-27.062
-30.703
-37.14
-45.494
-55.151
-65.277
-75.523
-85.705
-95.66
-105.835
-116.946
-129.249
-142.764
-157.437
-172.937
-188.942
-205.184
-221.119
-236.102
-249.533
-260.721
-269.315
-275.312
-278.896
-280.686
-281.253
-280.846
-279.96
-279.022
-277.642
-275.036
-269.76
-259.432
-242.521
-218.345
-186.195
-146.734
-102.238
-55.759
-12.061
23.011
44.93
49.694
33.747
-3.68
-61.161
-135.55
-220.807
-309.869
-396.315
-473.158
-534.064
-575.499
-595.81
-595.511
-578.002
-547.482
-508.472
-466.575
-426.632
-391.629
-363.512
-342.718
-328.107
-318.263
-311.154
-303.983
-294.751
-282.486
-266.75
-247.855
-226.341
-202.436
-176.921
-151.111
-125.946
-102.16
-79.872
-58.405
-37.556
-17.789
0.916
18.952
36.836
55.601
75.106
93.678
110.303
124.578
135.685
142.937
145.355
141.174
130.357
114.83
95.951
74.812
52.749
30.583
9.577
-8.232
-22.258
-33.286
-41.665
-47.657
-51.399
-52.503
-51.048
-47.67
-42.409
-34.895
-24.984
-12.598
1.99
18.16
35.482
53.679
72.417
91.361
110.16
128.451
146.022
162.772
178.598
193.459
207.33
220.229
232.261
243.589
254.436
265.051
275.704
286.657
298.107
310.183
322.966
336.492
350.734
365.65
381.173
397.149
413.39
429.663
445.668
461.117
475.734
489.212
501.225
511.474
519.716
525.787
529.613
531.162
530.447
527.501
522.373
515.204
506.191
495.586
483.704
470.804
457.092
442.765
428.004
412.969
397.784
382.526
367.221
351.849
336.345
320.621
304.558
288.036
271.014
253.336
234.7
215.03
194.417
173.324
152.674
133.026
114.427
96.878
80.311
64.566
49.651
34.701
17.781
-2.139
-24.959
-49.573
-73.628
-95.026
-112.659
-124.481
-127.282
-118.767
-97.865
-65.775
-26.519
15.967
59.185
100.238
135.605
161.987
176.46
178.562
171.02
157.036
138.645
117.494
95.117
73.321
54.452
39.529
27.542
16.839
6.362
-4.197
-14.611
-24.737
-35.024
-45.715
-56.346
-66.065
-74.133
-80.236
-84.489
-87.169
-88.379
-88.115
-86.478
-83.676
-80.009
-75.759
-71.086
-66.046
-60.668
-54.994
-49.087
-43.021
-36.83
-30.496
-23.977
-17.222
-10.196
-2.885
4.728
12.676
21.011
29.792
39.053
48.793
58.998
69.646
80.721
92.211
104.082
116.284
128.766
141.48
154.385
167.447
180.625
193.873
207.142
220.388
233.571
246.659
259.624
272.434
285.065
297.491
309.693
321.656
333.362
344.79
355.921
366.734
377.21
387.334
397.089
406.459
415.43
423.992
432.135
439.851
447.133
453.97
460.355
466.28
471.738
476.72
481.218
485.227
488.739
491.75
494.254
496.247
497.723
498.674
499.093
498.975
498.312
497.097
495.323
492.985
490.081
486.609
482.573
477.973
472.814
467.101
460.839
454.036
446.699
438.837
430.458
421.575
412.201
402.355
392.055
381.326
370.194
358.687
346.835
334.667
322.215
309.51
296.581
283.461
270.179
256.769
243.27
229.719
216.161
202.64
189.203
175.895
162.763
149.847
137.192
124.833
112.8
101.125
89.841
78.984
68.602
58.736
49.413
40.652
32.468
24.856
17.809
11.301
5.271
-0.336
-5.575
-10.492
-15.095
-19.386
-23.364
-27.035
-30.41
-33.484
-36.221
-38.573
-40.501
-41.955
-42.883
-43.19
-42.7
-41.239
-38.647
-34.797
-29.64
-23.167
-15.386
-6.333
3.897
15.145
27.174
39.713
52.528
65.389
78.064
90.244
101.516
111.465
119.7
125.896
129.81
131.239
130.008
126.02
119.336
110.173
98.891
85.892
71.542
56.175
40.112
23.839
7.956
-6.937
-20.222
-31.41
-40.135
-45.931
-48.244
-46.787
-41.568
-33.032
-22.098
-9.302
5.313
21.701
39.807
59.578
80.908
104.409
131.463
162.537
197.042
233.818
271.058
307.178
341.073
370.779
393.547
407.509
411.702
406.261
392.557
371.704
344.484
312.574
278.235
243.98
212.603
185.874
164.805
150.919
145.742
150.438
166.048
192.085
226.763
268.893
316.759
367.508
417.868
463.643
500.148
524.463
535.035
530.162
509.665
475.065
429.312
377.484
325.639
278.856
241.205
216.458
206.787
212.632
232.626
263.21
299.722
337.568
372.889
402.343
423.685
435.944
439.357
435.458
426.479
414.82
402.412
390.859
381.235
373.87
368.417
363.809
359.04
353.591
347.476
340.927
334.191
327.719
322.749
321.679
326.451
337.429
353.502
372.433
392.159
411.166
427.083
435.772
433.132
417.111
388.454
350.859
308.544
264.647
222.776
187.979
165.753
160.238
172.515
199.537
236.575
279.67
324.374
365.719
398.677
418.472
422.306
410.877
386.784
352.699
312.711
271.197
231.764
198.255
173.687
159.194
155.058
161.142
175.144
193.994
215.611
237.888
259.205
278.775
295.574
308.59
318.397
326.39
333.302
339.59
345.17
349.358
351.875
352.82
351.849
348.368
342.094
332.958
321.172
307.281
291.718
274.704
256.525
237.526
218.014
198.301
178.831
160.221
143.026
127.688
114.338
102.575
91.98
82.54
74.202
66.849
60.881
56.715
55.068
57.675
65.716
78.952
96.614
116.983
137.074
154.383
166.348
169.368
161.099
141.075
109.677
69.044
22.698
-26.784
-76.912
-124.465
-167.361
-204.603
-235.684
-261.562
-283.933
-303.396
-320.247
-334.97
-347.453
-357.646
-365.685
-371.001
-372.755
-370.874
-365.655
-357.866
-348.981
-339.833
-330.53
-321.359
-312.685
-304.653
-297.418
-290.148
-280.725
-268.086
-252.514
-234.781
-216.359
-198.948
-184.081
-174.898
-176.251
-191.153
-220.491
-263.708
-318.314
-381.076
-448.422
-514.304
-570.562
-611.215
-632.486
-632.308
-611.128
-570.156
-511.353
-439.552
-361.951
-284.497
-212.226
-149.444
-98.459
-61.376
-39.732
-32.783
-38.013
-52.902
-74.327
-98.736
-123.716
-146.808
-165.951
-180.464
-190.283
-195.647
-197.694
-198.125
-198.053
-198.434
-199.753
-201.694
-203.97
-206.267
-207.964
-208.364
-207.016
-203.674
-198.421
-191.697
-183.934
-175.543
-166.865
-158.149
-149.62
-141.448
-133.789
-126.791
-120.508
-114.977
-110.301
-106.593
-103.999
-102.696
-102.801
-104.406
-107.618
-112.508
-119.163
-127.714
-138.289
-151.01
-166.005
-183.406
-203.391
-226.161
-251.947
-280.897
-312.796
-347.36
-384.23
-422.915
-463.281
-505.254
-548.29
-591.857
-635.957
-680.417
-725.282
-770.716
-815.504
-858.237
-898.38
-935.334
-968.279
-996.846
-1020.096
-1037.026
-1048.586
-1055.855
-1059.214
-1059.369
-1056.818
-1051.769
-1045.294
-1038.564
-1031.39
-1023.72
-1015.788
-1007.495
-999.159
-991.149
-983.242
-975.212
-967.333
-959.736
-952.491
-945.773
-939.433
-933.321
-927.435
-921.689
-915.898
-909.872
-903.431
-896.432
-888.842
-880.658
-871.876
-862.531
-852.674
-842.392
-831.782
-820.923
-809.892
-798.772
-787.648
-776.63
-765.819
-755.271
-745.03
-735.115
-725.524
-716.317
-707.531
-699.141
-691.137
-683.485
-676.116
-669.129
-662.616
-656.341
-650.156
-643.908
-637.348
-630.721
-624.34
-618.026
-611.699
-605.806
-600.582
-596.544
-594.485
-594.041
-594.766
-596.837
-599.999
-603.49
-606.938
-609.567
-609.921
-607.437
-601.992
-593.647
-583.647
-574.208
-564.005
-549.001
-528.735
-505.988
-492.051
-503.414
-544.162
-604.548
-661.601
-686.697
-665.542
-599.179
-503.526
-403.208
-317.515
-263.766
-251.284
-279.659
-349.74
-454.6
-578.853
-705.144
-803.779
-844.609
-818.669
-733.459
-617.724
-514.001
-444.937
-416.417
-420.576
-433.027
-441.219
-440.818
-428.539
-412.324
-394.317
-372.582
-349.184
-320.988
-286.986
-250.658
-213.794
-180.485
-156.372
-144.705
-148.017
-167.713
-202.059
-247.689
-301.102
-357.214
-410.598
-457.04
-491.914
-511.781
-516.032
-505.669
-483.576
-454.884
-424.151
-394.383
-369.008
-350.821
-341.82
-343.633
-355.111
-372.618
-393.03
-414.824
-437.093
-458.903
-477.959
-490.899
-496.365
-494.935
-487.503
-473.957
-452.983
-423.781
-387.6
-347.369
-305.413
-262.929
-220.442
-178.84
-140
-105.414
-75.313
-48.728
-24.716
-2.99
16.323
33.08
47.608
60.251
70.934
79.191
84.684
87.463
87.767
85.983
82.348
77.001
70.31
62.757
54.802
46.818
38.982
31.333
24.054
17.501
11.875
7.093
2.642
-2.142
-7.525
-13.259
-18.899
-24.427
-29.953
-35.02
-38.401
-38.484
-34.15
-25.742
-14.906
-2.791
9.646
20.508
27.359
27.132
16.785
-4.394
-34.706
-72.77
-116.821
-163.544
-209.73
-251.354
-283.347
-303.048
-310.298
-304.705
-287.11
-260.414
-227.02
-190.324
-155.863
-127.571
-107.609
-98.36
-100.66
-113.446
-136.085
-166.976
-201.811
-236.606
-268.533
-294.725
-313.515
-324.454
-326.715
-319.987
-306.457
-289.001
-269.641
-250.207
-231.794
-214.824
-200.218
-188.98
-180.491
-173.259
-166.322
-158.915
-150.749
-141.99
-132.345
-121.217
-108.661
-95.193
-81.168
-66.907
-52.459
-37.591
-22.294
-6.731
9.036
25.005
41.189
57.645
74.331
91.11
107.88
124.559
141.082
157.42
173.527
189.337
204.797
219.855
234.471
248.615
262.265
275.396
287.992
300.036
311.518
322.431
332.774
342.548
351.755
360.392
368.459
375.951
382.865
389.207
394.986
400.221
404.937
409.152
412.877
416.122
418.903
421.246
423.182
424.734
425.915
426.737
427.222
427.421
427.399
427.22
426.94
426.586
426.172
425.737
425.346
425.094
425.07
425.301
425.741
426.329
427.05
427.954
429.126
430.529
431.955
433.246
434.491
436.111
438.582
442.061
446.191
450.388
454.487
458.458
461.799
463.27
461.233
454.448
443.027
428.447
411.845
394.179
377.244
363.461
355.844
357.434
369.35
390.039
417.801
450.606
484.832
517.069
543.761
560.721
565.543
558.702
541.021
514.377
483.079
450.412
418.992
392.267
372.398
359.792
355.046
357.62
364.471
373.636
384.094
394.297
403.644
412.042
418.656
423.262
427.217
431.303
435.786
441.08
446.888
452.894
459.327
466.195
472.921
479.058
484.22
487.999
490.341
491.159
490.23
487.477
482.985
476.867
469.283
460.421
450.395
439.374
427.607
415.29
402.594
389.677
376.703
363.856
351.367
339.474
328.346
318.097
308.791
300.459
293.138
286.831
281.508
277.097
273.487
270.601
268.407
266.885
266.002
265.705
265.899
266.467
267.335
268.437
269.725
271.181
272.764
274.447
276.224
278.099
280.115
282.34
284.821
287.602
290.756
294.371
298.581
303.594
309.571
316.637
324.897
334.395
345.191
357.358
370.947
385.977
402.388
420.023
438.683
458.162
478.169
498.367
518.337
537.534
555.47
571.746
586.004
597.935
607.23
613.529
616.483
615.842
611.453
603.285
591.418
575.964
557.157
535.356
511.024
484.757
457.105
428.506
399.367
370.108
341.174
313.087
286.426
261.662
239.219
219.478
202.683
189.027
178.605
171.354
167.123
165.718
166.978
170.835
177.274
186.203
197.496
210.973
226.343
243.335
261.648
280.902
300.821
321.206
341.882
362.781
383.856
404.965
425.925
446.479
466.272
484.982
502.259
517.714
531.043
542.02
550.526
556.542
559.92
560.373
557.585
551.215
541.089
527.157
509.313
487.709
462.72
434.889
405.241
374.817
344.153
313.757
283.986
254.503
225.149
195.689
165.125
133.148
100.345
67.271
35.319
6.915
-15.794
-30.139
-32.944
-22.685
1.149
38.764
88.881
149.323
217.436
289.021
359.785
427.033
488.526
542.513
588.272
625.118
653.389
675.194
692.239
705.3
715.101
721.907
725.899
727.87
727.816
724.72
718.214
708.445
695.766
680.998
664.715
647.007
628.364
609.714
591.735
575.002
559.938
546.607
535.185
526.032
519.316
514.988
512.861
512.504
513.383
515.12
517.36
519.768
522.147
524.286
525.934
526.896
527.003
526.086
524.024
520.648
515.637
508.713
499.744
488.767
476.082
462.031
446.742
430.183
412.45
393.823
374.978
356.935
340.176
324.648
310.287
297.071
285.023
274.159
263.554
251.281
236.443
219.472
201.623
184.971
171.28
161.638
157.991
163.215
178.772
204.556
239.012
278.99
321.884
366.121
409.627
449.913
485.426
515.392
540.185
561.458
580.19
596.575
610.954
623.614
634.677
644.283
652.031
656.968
658.542
656.419
650.31
640.25
626.208
608.055
586.091
560.86
533.017
503.597
473.506
443.108
412.761
382.703
352.56
322.01
290.54
256.931
220.61
182.204
142.661
103.582
67.512
36.515
12.71
-0.86
-2.307
8.458
30.785
62.594
100.561
142.208
185.108
225.829
261.836
291.895
315.349
333.228
347.72
359.639
369.135
376.643
381.919
384.491
383.966
378.497
365.266
343.218
312.773
275.298
233.36
189.077
143.916
100.498
62.31
31.338
8.083
-8.507
-21.12
-31.724
-41.324
-51.567
-64.579
-81.667
-103.375
-129.013
-156.57
-184.74
-213.084
-241.074
-268.212
-294.2
-318.823
-342.425
-365.957
-389.956
-414.535
-439.716
-465.354
-491.405
-517.975
-545.02
-572.303
-599.613
-626.704
-653.303
-679.255
-704.299
-728.061
-750.378
-771.254
-790.884
-809.871
-828.784
-847.641
-866.367
-884.81
-902.195
-917.749
-930.583
-939.017
-941.75
-938.772
-930.463
-917.848
-903.205
-888.455
-875.562
-867.587
-867.293
-876.368
-895.994
-926.051
-964.668
-1010.183
-1060.75
-1113.484
-1164.783
-1210.49
-1246.583
-1270.141
-1279.959
-1275.425
-1256.07
-1221.87
-1174.668
-1118.422
-1057.657
-997.006
-939.761
-887.857
-843.524
-809.281
-785.734
-771.457
-764.035
-759.965
-756.873
-753.963
-749.953
-743.177
-733.015
-719.696
-704.346
-689.192
-675.546
-663.588
-653.675
-646.114
-640.948
-638.201
-637.332
-637.211
-637.138
-636.773
-635.875
-634.452
-632.433
-629.634
-626.043
-621.759
-616.906
-611.712
-606.372
-600.991
-595.68
-590.485
-585.535
-581.153
-577.517
-574.551
-571.865
-568.91
-565.467
-561.833
-558.44
-555.35
-552.565
-550.532
-550.411
-553.773
-561.614
-573.625
-588.546
-605.398
-623.352
-640.73
-654.854
-662.443
-660.543
-648.075
-625.686
-594.131
-554.609
-509.861
-463.872
-421.415
-387.595
-366.028
-358.805
-367.542
-392.256
-430.633
-478.77
-531.686
-583.493
-628.634
-661.856
-678.347
-675.581
-653.541
-613.938
-559.71
-494.649
-423.08
-350.117
-280.761
-218.256
-164.211
-118.993
-82.138
-52.989
-30.473
-12.754
1.894
14.433
25.287
34.286
40.975
45.128
46.44
44.435
38.977
30.176
18.262
3.768
-12.701
-30.608
-49.278
-68.071
-86.601
-104.57
-121.796
-138.261
-153.923
-168.812
-183.095
-196.922
-210.467
-223.888
-237.253
-250.635
-264.146
-277.882
-291.982
-306.566
-321.617
-337.078
-352.847
-368.708
-384.451
-399.809
-414.404
-427.898
-439.99
-450.391
-458.917
-465.43
-469.797
-471.946
-471.823
-469.377
-464.641
-457.674
-448.566
-437.501
-424.673
-410.308
-394.734
-378.267
-361.214
-343.904
-326.576
-309.404
-292.552
-276.128
-260.213
-244.902
-230.264
-216.354
-203.234
-190.93
-179.451
-168.795
-158.878
-149.589
-140.79
-132.292
-123.966
-115.739
-107.549
-99.37
-91.189
-82.985
-74.739
-66.444
-58.065
-49.555
-40.877
-31.998
-22.931
-13.73
-4.479
4.696
13.701
22.478
30.981
39.186
47.081
54.654
61.902
68.837
75.446
81.693
87.545
92.971
97.961
102.539
106.748
110.646
114.278
117.678
120.862
123.846
126.648
129.278
131.747
134.064
136.26
138.397
140.559
142.823
145.252
147.887
150.741
153.829
157.164
160.758
164.63
168.774
173.163
177.772
182.562
187.468
192.405
197.234
201.757
205.791
209.169
211.755
213.476
214.274
214.093
212.888
210.63
207.374
203.292
198.597
193.494
188.181
182.858
177.854
173.704
170.822
169.324
169.054
169.813
171.7
175.148
180.615
188.123
197.652
209.632
225.107
245.132
269.776
298.236
329.072
360.588
391.642
420.938
445.418
465.091
481.019
490.07
492.923
484.398
457.471
421.74
384.258
355.581
348.942
353.575
359.25
358.782
341.567
314.81
285.984
256.449
230.457
205.773
179.836
153.986
128.206
102.788
78.251
54.121
30.065
6.168
-17.558
-41.143
-64.472
-87.273
-109.291
-130.262
-149.911
-168.109
-184.722
-199.559
-212.476
-223.296
-231.783
-237.678
-240.676
-240.544
-237.209
-230.71
-221.213
-208.983
-194.288
-177.443
-158.842
-138.863
-117.899
-96.319
-74.414
-52.541
-31.128
-10.692
8.137
24.837
39.036
50.458
58.957
64.454
66.874
66.268
62.815
56.698
48.139
37.313
24.303
9.308
-7.378
-25.337
-44.001
-62.89
-81.64
-99.896
-117.369
-133.765
-148.751
-162.138
-173.871
-183.888
-192.159
-198.586
-202.977
-205.262
-205.473
-203.722
-200.247
-195.224
-188.756
-181.002
-172.13
-162.347
-151.92
-141.006
-129.651
-117.927
-105.897
-93.675
-81.454
-69.338
-57.355
-45.514
-33.773
-22.12
-10.587
0.855
12.275
23.762
35.44
47.37
59.54
71.953
84.613
97.534
110.762
124.297
138.091
152.104
166.291
180.613
195.048
209.538
223.994
238.324
252.428
266.227
279.675
292.722
305.32
317.429
329.006
340.03
350.499
360.404
369.731
378.472
386.612
394.153
401.108
407.491
413.316
418.601
423.357
427.6
431.348
434.617
437.42
439.769
441.675
443.155
444.228
444.917
445.248
445.249
444.95
444.388
443.597
442.612
441.467
440.195
438.826
437.39
435.914
434.421
432.931
431.469
430.055
428.711
427.461
426.326
425.325
424.478
423.801
423.313
423.023
422.937
423.054
423.381
423.929
424.722
425.78
427.112
428.721
430.599
432.724
435.066
437.572
440.153
442.72
445.187
447.477
449.554
451.404
453.014
454.367
455.429
456.177
456.61
456.747
456.612
456.246
455.715
455.125
454.678
454.587
455.058
456.272
458.301
461.134
464.727
469.004
473.882
479.29
485.083
491.037
496.932
502.5
507.44
511.451
514.053
514.637
512.776
508.224
501.015
491.543
480.174
467.109
452.586
436.792
419.414
399.768
376.757
348.93
315.447
276.065
231.088
181.533
129.441
77.967
30.904
-8.099
-36.711
-53.418
-57.512
-49.306
-30.116
-3.372
26.222
54.65
79.39
98.511
110.578
114.642
109.914
98.057
82.781
66.861
51.696
38.144
26.315
16.131
8.26
1.359
-8.284
-23.464
-45.758
-75.611
-111.185
-149.68
-189.207
-226.412
-256.219
-274.405
-277.373
-263.35
-234.454
-194.781
-148.29
-100.197
-55.973
-20.207
2.203
8.239
-1.288
-23.594
-54.975
-90.605
-126.733
-160.482
-188.205
-207.553
-218.289
-221.172
-218.254
-212.275
-204.535
-195.631
-186.553
-177.695
-169.133
-160.873
-152.014
-141.365
-128.612
-114.019
-98.231
-82.062
-65.76
-49.155
-32.326
-15.843
-0.342
14.078
28.074
42.237
56.369
69.321
79.477
85.886
88.053
85.621
77.44
62.196
39.841
7.447
-36.696
-89.18
-150.162
-209.93
-257.574
-303.897
-352.381
-415.684
-511.154
-614.057
-704.949
-764.735
-766.534
-727.644
-669.956
-607.978
-559.69
-520.076
-475.782
-421.989
-367.166
-323.283
-304.251
-319.814
-354.867
-394.699
-428.758
-444.218
-445.93
-439.599
-426.182
-410.788
-393.31
-373.396
-353.553
-334.58
-317.683
-304.018
-293.456
-285.622
-279.865
-275.273
-271.401
-268.206
-265.907
-264.894
-265.468
-267.968
-272.616
-279.471
-288.589
-299.858
-312.995
-327.965
-344.905
-363.498
-383.714
-405.867
-428.914
-451.513
-473.456
-493.519
-512.208
-533.946
-557.814
-579.275
-592.369
-584.369
-552.369
-508.299
-470.248
-459.103
-482.6
-526.826
-561.389
-560.948
-516.675
-431.608
-326.55
-214.763
-91.739
36.777
162.6
269.306
320.399
300.998
221.177
102.008
-8.09
-72.334
-77.46
-16.642
84.576
194.96
284.242
309.966
253.454
112.329
-93.421
-308.656
-480.084
-570.521
-571.026
-512.044
-437.486
-379.654
-352.419
-347.69
-346.193
-337.517
-320.189
-298.43
-280.69
-270.077
-265.177
-264.055
-263.542
-261.873
-259.165
-255.465
-250.941
-246.119
-241.359
-237.158
-234.329
-233.182
-233.454
-234.847
-237.016
-239.859
-243.778
-249.174
-256.031
-264.136
-273.43
-283.429
-293.208
-301.46
-305.887
-304.023
-294.562
-277.485
-253.187
-223.643
-193.111
-165.927
-147.392
-144.162
-157.345
-186.24
-234.887
-301.233
-386.294
-491.749
-600.122
-697.027
-766.82
-791.885
-780.959
-744.699
-695.181
-650.967
-611.389
-575.965
-547.248
-520.18
-501.577
-499.619
-516.874
-565.395
-645.21
-739.209
-827.315
-872.148
-850.276
-775.252
-676.384
-606.427
-605.894
-672.276
-786.2
-909.886
-1010.604
-1085.914
-1133.697
-1152.61
-1142.44
-1085.915
-976.846
-819.824
-617.272
-389.919
-162.842
36.093
172.91
232.684
222.336
167.367
100.722
44.521
3.781
-29.73
-61.526
-89.393
-105.795
-99.131
-66.708
-16.938
44.898
115.291
194.247
294.146
415.596
542.346
654.919
718.888
715.026
656.22
568.216
500.522
490.996
545.402
651.09
761.98
839.576
867.494
841.689
791.751
742.178
703.5
684.275
671.388
654.331
632.585
603.192
569.9
536.516
502.028
465.97
431.258
400.286
370.457
341.736
307.749
260.819
210.505
163.106
127.783
117.084
120.097
127.455
132.754
125.355
112.567
101.771
94.331
94.483
98.994
103.776
108.977
113.698
117.779
121.698
124.686
125.932
125.345
122.868
118.332
111.833
103.461
92.94
80.227
65.718
49.258
30.348
9.516
-12.577
-35.963
-58.934
-82.146
-110.435
-141.847
-170.879
-189.393
-179.112
-136.059
-77.119
-23.402
-6.71
-43.74
-111.645
-177.463
-206.145
-171.781
-90.142
6.269
92.475
147.048
173.473
190.934
208.986
234.6
267.954
301.227
331.669
359.125
382.877
403.727
421.666
435.56
445.001
450.135
451.083
448.124
441.73
432.331
420.274
406.145
390.666
374.238
357.178
339.794
322.088
304.404
287.6
272.037
257.615
244.646
233.541
224.787
219.365
217.106
216.488
216.593
216.972
216.675
214.744
209.946
200.419
186.006
168.421
148.834
128.065
107.207
87.11
69.057
55.042
45.681
40.139
38.051
39.296
43.889
52.348
64.725
80.424
99.452
122.347
149.346
180.564
215.706
253.884
294.428
336.952
380.867
425.464
469.931
513.261
554.624
593.477
629.264
661.364
689.178
712.242
730.305
743.359
751.562
755.073
753.979
748.561
739.406
726.746
710.868
693.025
674.097
654.741
636.94
619.034
599.147
581.731
568.147
565.129
581.013
606.589
635.581
658.679
663.494
662.059
665.365
681.835
723.382
782.42
850.807
925.828
1000.596
1074.394
1145.938
1209.207
1260.278
1296.042
1313.802
1312.757
1293.849
1260.119
1216.597
1169.261
1123.428
1082.312
1048.567
1025.226
1013.899
1014.189
1024.1
1040.066
1058.956
1080.235
1103.379
1126.462
1147.42
1163.883
1174.243
1178.963
1178.075
1169.255
1150.371
1120.459
1080.249
1033.24
982.957
930.867
878.507
828.499
783.45
745.946
716.578
692.517
670.564
649.121
627.32
604.998
581.929
556.665
528.667
499.622
471.363
444.926
420.245
395.181
367.57
337.574
306.183
274.11
242.563
213.397
189.747
176.768
180.143
200.25
232.37
275.864
331.083
401.575
496.832
608.087
713.598
793.796
824.469
804.289
755.695
697.051
649.232
620.954
602.503
588.594
575.723
563.036
555.978
555.999
560.829
567.634
573.148
576.084
576.739
575.195
571.563
566.557
561.04
556.345
553.478
551.717
550.049
548.08
545.429
541.557
536.071
527.896
515.948
501.019
484.035
465.314
445.466
424.916
403.948
383.676
365.257
348.411
332.741
318.085
303.961
290.268
277.067
263.911
250.39
236.655
222.77
208.688
194.352
179.345
163.078
145.02
124.699
101.886
76.77
49.768
21.392
-8.032
-38.511
-70.005
-102.384
-136.61
-174.479
-217.298
-266.772
-320.733
-372.773
-422.303
-470.937
-524.168
-594.473
-676.149
-750.74
-800.391
-801.279
-755.049
-686.604
-616.101
-565.962
-542.568
-533.866
-534.018
-539.447
-550.049
-571.784
-605.989
-650.333
-701.981
-756.684
-811.198
-863.288
-911.053
-953.527
-990.468
-1022.353
-1050.24
-1075.311
-1098.447
-1120.271
-1140.956
-1160.296
-1177.845
-1192.577
-1203.444
-1209.673
-1210.161
-1203.872
-1191.09
-1172.596
-1149.085
-1122.996
-1093.423
-1055.158
-1010.383
-963.97
-923.3
-906.676
-913.493
-923.006
-918.206
-869.486
-769.062
-650.377
-538.329
-462.479
-441.918
-452.481
-476.714
-503.104
-518.594
-533.877
-556.406
-584.462
-618.422
-650.607
-673.522
-684.598
-681.28
-666.997
-648.645
-626.354
-599.422
-562.589
-503.452
-428.488
-352.455
-289.116
-263.992
-276.508
-310.539
-356.152
-386.597
-396.15
-388.268
-354.034
-303.618
-234.729
-151.366
-80.125
-31.633
-22.966
-57.186
-109.186
-163.982
-205.496
-226.663
-240.542
-253.68
-269.148
-287.813
-302.559
-310.393
-312.287
-308.793
-302.629
-295.516
-287.03
-277.281
-265.997
-251.373
-231.945
-207.058
-175.79
-138.786
-98.427
-56.632
-16.501
17.11
39.997
48.717
40.95
17.128
-20.458
-69.171
-124.522
-180.379
-230.556
-268.617
-289.767
-291.536
-272.635
-233.696
-177.541
-108.306
-31.206
47.655
122.82
188.857
240.211
274.004
289.268
285.927
264.95
227.432
175.173
112.16
43.581
-27.13
-97.544
-165.401
-228.131
-281.789
-323.343
-351.894
-367.57
-369.885
-357.989
-331.812
-292.943
-244.976
-191.807
-137.33
-85.695
-41.91
-11.566
1.376
-5.202
-32.128
-78.328
-140.598
-214.608
-294.074
-370.953
-439.556
-495.663
-534.301
-556.396
-565.134
-559.085
-542.031
-512.805
-466.926
-416.702
-371.402
-341.82
-340.987
-357.098
-378.185
-394.884
-394.965
-385.112
-372.202
-357.698
-346.265
-335.439
-322.85
-310.515
-298.742
-288.197
-279.907
-273.573
-269.112
-266.869
-266.748
-268.413
-271.612
-276.197
-282.143
-289.372
-297.633
-307.048
-317.807
-329.305
-341.267
-353.528
-364.742
-377.175
-392.909
-407.629
-419.989
-423.518
-410.454
-390.077
-368.419
-353.73
-358.015
-371.209
-384.215
-390.491
-379.404
-357.284
-331.911
-306.922
-288.135
-273.639
-261.229
-252.727
-249.145
-252.831
-264.706
-282.339
-303.974
-329.011
-356.719
-386.149
-415.745
-443.631
-469.008
-492.903
-516.985
-538.947
-556.343
-572.035
-586.647
-607.797
-644.01
-685.267
-724.593
-751.45
-751.962
-737.788
-719.604
-704.243
-702.486
-707.718
-713.375
-720.487
-727.989
-738.829
-754.673
-772.952
-792.202
-810.628
-826.316
-836.508
-836.744
-825.388
-803.571
-773.867
-739.912
-704.563
-669.857
-639.164
-617.27
-606.781
-608.407
-621.101
-641.707
-667.267
-695.084
-721.7
-743.077
-756.39
-759.434
-750.874
-731.239
-701.616
-664.134
-621.916
-578.192
-535.389
-495.743
-461.495
-434.19
-414.847
-402.834
-396.035
-391.958
-388.782
-385.226
-379.933
-371.456
-358.321
-340.089
-317.625
-292.485
-265.859
-238.287
-210.147
-181.892
-154.283
-127.911
-102.753
-78.331
-54.265
-30.496
-7.181
15.38
37.06
57.81
77.431
95.698
112.413
127.446
140.818
152.661
163.116
172.343
180.528
187.79
194.245
199.99
205.082
209.613
213.618
217.112
220.124
222.637
224.662
226.23
227.314
227.799
227.542
226.431
224.426
221.632
218.19
214.167
209.545
204.409
199.098
193.895
188.993
184.203
178.821
172.534
165.723
159.017
153.139
148.751
146.166
146.472
152.022
164.375
183.829
209.406
238.424
268.217
297.256
323.11
341.917
350.557
346.637
329.779
303.254
270.851
235.054
198.955
166.113
139.752
123.885
121.053
129.734
146.925
169.564
193.893
217.042
236.589
247.914
246.032
229.152
197.343
154.968
110.932
67.957
25.363
-20.302
-78.823
-147.109
-212.374
-258.263
-259.5
-208.13
-113.584
2.427
101.903
160.114
167.621
133.438
87.138
49.762
35.069
44.311
63.5
85.232
105.158
121.282
137.675
155.06
171.581
185.515
193.208
191.171
177.887
153.48
119.649
78.585
32.561
-15.236
-60.572
-98.786
-126.004
-140.455
-142.216
-131.919
-110.674
-81.045
-46.661
-11.007
23.343
55.26
84.304
109.616
130.143
146.24
159.427
170.619
179.414
184.399
184.374
179.31
170.467
158.265
141.633
120.085
94.693
67.744
42.029
19.851
1.876
-11.203
-17.354
-14.684
-2.373
19.257
48.445
82.703
120.74
162.134
206.069
251.137
295.795
338.54
378.826
417.495
454.59
488.45
516.688
537.607
550.611
556.416
555.801
547.932
532.647
511.704
488.169
465.415
445.683
429.415
416.744
409.245
407.958
412.593
421.652
432.352
442.615
451.811
459.388
464.092
465.037
461.795
454.681
445.175
434.316
422.414
409.907
397.196
384.408
371.763
359.264
346.653
334.107
321.713
309.048
295.768
281.752
266.815
250.753
232.752
211.546
186.59
158.25
127.521
95.489
63.062
31.383
2.848
-19.799
-34.737
-40.88
-38.582
-28.839
-12.484
8.589
30.545
49.399
62.021
65.527
58.68
41.038
12.062
-26.704
-71.2
-117.225
-161.367
-200.41
-232.456
-255.96
-269.067
-272.11
-267.868
-259.509
-249.593
-240.144
-232.279
-227.193
-226.617
-230.996
-239.185
-249.481
-260.483
-271.453
-282.212
-292.475
-301.499
-308.836
-314.641
-319.472
-323.814
-327.727
-331.003
-333.389
-334.829
-335.435
-335.229
-334.105
-331.964
-328.788
-324.687
-319.879
-314.56
-308.875
-302.994
-297.103
-291.438
-286.255
-281.81
-278.583
-277.099
-277.466
-279.653
-283.417
-288.486
-295.219
-303.614
-312.469
-320.809
-329.004
-338.082
-350.058
-364.002
-374.064
-377.075
-375.564
-380.631
-408.109
-462.701
-531.643
-587.026
-599.795
-557.903
-473.498
-378.446
-304.417
-269.189
-270.419
-288.114
-306.063
-319.76
-339.595
-386.241
-465.571
-563.849
-650.24
-685.079
-647.62
-542.947
-393.687
-238.146
-109.913
-23.274
16.392
21.253
14.854
10.918
21.117
46.435
74.409
98.133
113.123
118.416
119.76
119.673
117.805
113.723
105.878
94.01
79.324
62.759
45.11
27.133
9.421
-7.414
-22.808
-36.313
-47.573
-56.262
-62.051
-64.728
-64.219
-60.486
-53.519
-43.376
-30.188
-14.205
4.187
24.622
46.821
70.539
95.544
121.534
148.111
174.899
201.569
227.895
253.749
279.019
303.592
327.405
350.469
372.889
394.849
416.481
437.804
458.791
479.412
499.723
519.854
539.925
560
580.083
600.126
620.09
639.956
659.662
679.086
698.042
716.308
733.74
750.309
766.038
780.953
795.034
808.225
820.491
831.844
842.311
851.938
860.758
868.773
876.015
882.54
888.415
893.745
898.589
902.942
906.779
910.058
912.738
914.796
916.201
916.895
916.844
916
914.306
911.773
908.439
904.373
899.706
894.513
888.846
882.785
876.399
869.787
863.087
856.407
849.829
843.464
837.402
831.752
826.665
822.169
818.196
814.636
811.3
808.07
804.913
801.779
798.627
795.416
792.069
788.553
784.895
781.071
777.039
772.761
768.17
763.335
758.472
753.78
749.46
745.645
742.343
739.56
737.299
735.49
734.025
732.764
731.5
730.07
728.376
726.254
723.52
719.896
714.95
708.328
699.776
689.089
676.18
661.008
643.541
623.882
602.274
578.98
554.323
528.629
502.154
475.258
448.371
421.958
396.597
372.792
350.915
331.318
314.288
300.053
288.836
280.733
275.64
273.414
273.845
276.662
281.634
288.434
296.636
305.814
315.469
325.12
334.377
342.835
350.08
355.706
359.257
360.339
358.734
354.295
346.957
336.731
323.601
307.608
288.874
267.545
243.825
217.944
190.103
160.51
129.417
97.161
64.131
30.746
-2.607
-35.673
-68.293
-100.307
-131.612
-162.042
-191.103
-218.502
-244.398
-269.016
-292.802
-315.993
-338.111
-359.045
-379.937
-401.893
-424.619
-446.776
-466.48
-482.2
-497.154
-516.956
-540.268
-563.983
-580.427
-576.643
-557.178
-534.257
-524.255
-553.753
-628.276
-738.504
-864.006
-966.721
-1023.113
-1022.414
-971.173
-897.996
-823.794
-764.434
-723.925
-690.019
-657.589
-625.252
-594.415
-572.404
-561.222
-558.741
-563.331
-572.247
-582.694
-592.297
-598.305
-598.69
-592.289
-578.156
-555.37
-523.024
-481.44
-432.524
-378.404
-321.112
-263.564
-209.676
-163.674
-129.507
-109.542
-104.326
-114.156
-138.921
-176.512
-222.694
-272.412
-321.096
-365.53
-403.781
-433.955
-454.317
-465.036
-468.605
-468.467
-467.375
-466.973
-468.074
-471.574
-478.77
-489.959
-503.803
-518.196
-531.53
-543.07
-552.768
-560.635
-566.177
-569.059
-569.599
-568.579
-566.759
-564.495
-561.738
-558.322
-554.292
-549.849
-545.197
-540.42
-535.497
-530.441
-525.309
-520.17
-515.114
-510.163
-505.29
-500.505
-495.782
-491.079
-486.409
-481.734
-476.987
-472.206
-467.298
-461.977
-456.104
-449.585
-442.478
-435.388
-428.84
-422.778
-417.092
-411.478
-405.145
-397.566
-387.748
-373.525
-353.043
-325.421
-290.538
-250.007
-206.769
-163.25
-122.644
-89.391
-67.389
-60.155
-69.956
-95.644
-133.96
-181.724
-234.495
-287.069
-334.655
-371.489
-392.676
-397.021
-385.298
-359.036
-322.037
-278.89
-234.57
-196.191
-170.716
-162.502
-174.969
-210.54
-268.298
-345.538
-437.878
-538.011
-638.239
-732.079
-812.682
-873.418
-910.74
-923.241
-911.522
-879.214
-830.367
-768.572
-698.625
-625.738
-553.508
-484.661
-421.097
-362.865
-310.39
-264.581
-225.029
-191.484
-164.464
-144.206
-130.932
-125.117
-125.897
-131.965
-143.268
-158.691
-176.207
-193.843
-209.026
-219.735
-225.581
-226.131
-219.818
-206.256
-185.996
-160.233
-131.588
-102.008
-72.157
-43.054
-16.355
6.973
26.426
42.288
56.148
69.017
81.179
93.147
105.485
118.602
132.86
148.129
163.659
179.013
194.02
208.491
222.38
235.544
247.821
259.257
270.032
280.283
290.032
299.181
307.516
314.831
320.935
325.622
328.705
329.996
329.439
327.121
323.245
318.15
312.1
305.275
297.824
289.841
281.447
272.807
264.083
255.434
247.07
239.227
232.168
226.202
221.492
218.064
215.822
214.518
213.968
214.061
214.697
215.822
217.373
219.279
221.508
224.076
226.95
230.053
233.253
236.35
239.235
241.878
244.312
246.654
248.976
251.31
253.704
256.207
258.873
261.748
264.838
268.082
271.429
274.865
278.407
282.118
286.022
290.125
294.424
298.913
303.624
308.581
313.768
319.124
324.562
329.99
335.329
340.543
345.603
350.465
355.071
359.36
363.282
366.783
369.802
372.241
373.955
374.83
374.785
373.779
371.812
368.883
364.997
360.154
354.356
347.632
340.021
331.568
322.32
312.328
301.643
290.353
278.59
266.487
254.198
241.889
229.728
217.924
206.719
196.357
187.091
179.153
172.751
168.08
165.331
164.699
166.395
170.619
177.54
187.273
199.861
215.268
233.401
254.073
277.004
301.868
328.277
355.812
384.054
412.558
440.845
468.409
494.715
519.189
541.297
560.569
576.609
589.116
597.862
602.707
603.624
600.654
593.909
583.599
569.985
553.397
534.277
513.087
490.319
466.525
442.198
417.779
393.684
370.24
347.725
326.385
306.392
287.884
270.989
255.725
242.041
229.811
218.775
208.679
199.277
190.282
181.466
172.652
163.666
154.41
144.832
134.868
124.484
113.645
102.273
90.363
77.971
65.195
52.226
39.239
26.381
13.817
1.682
-9.925
-20.916
-31.249
-40.932
-49.951
-58.295
-65.945
-72.844
-78.967
-84.319
-88.918
-92.817
-96.064
-98.69
-100.738
-102.251
-103.26
-103.787
-103.836
-103.388
-102.436
-100.982
-99.029
-96.596
-93.694
-90.331
-86.518
-82.267
-77.588
-72.497
-67.008
-61.131
-54.883
-48.284
-41.357
-34.126
-26.617
-18.849
-10.842
-2.614
5.815
14.428
23.207
32.133
41.179
50.322
59.535
68.799
78.102
87.423
96.732
105.997
115.179
124.229
133.094
141.703
149.971
157.814
165.157
171.935
178.107
183.634
188.488
192.651
196.093
198.812
200.833
202.183
202.914
203.102
202.832
202.229
201.471
200.722
200.142
199.884
200.054
200.726
201.937
203.678
205.923
208.602
211.603
214.795
218.007
221.025
223.626
225.542
226.427
225.945
223.75
219.478
212.846
203.651
191.764
177.159
159.878
140.011
117.719
93.217
66.77
38.714
9.418
-20.699
-51.112
-81.255
-110.516
-138.221
-163.765
-186.649
-206.454
-222.877
-235.698
-244.734
-249.869
-251.048
-248.236
-241.469
-230.852
-216.556
-198.892
-178.282
-155.227
-130.319
-104.146
-77.216
-49.988
-22.858
3.84
29.783
54.651
78.121
99.814
119.358
136.429
150.79
162.331
171.061
177.056
180.455
181.451
180.202
176.834
171.443
164.061
154.713
143.487
130.567
116.25
100.908
84.913
68.56
52.074
35.639
19.408
3.512
-11.987
-27.04
-41.54
-55.313
-68.078
-79.521
-89.432
-97.73
-104.44
-109.669
-113.536
-116.101
-117.429
-117.617
-116.74
-114.831
-111.818
-107.584
-102.093
-95.483
-88.067
-80.157
-71.904
-63.305
-54.276
-44.751
-34.795
-24.455
-13.57
-2.088
9.8
21.572
32.098
40.262
45.73
48.553
48.871
47.317
44.581
41.715
41.215
45.524
55.359
70.417
89.3
109.077
126.927
139.625
141.708
127.896
95.349
42.84
-28.004
-112.223
-204.473
-298.349
-384.604
-454.435
-501.142
-519.379
-507.957
-469.946
-409.075
-331.819
-248.07
-166.002
-93.271
-34.706
12.498
48.216
69.081
71.207
44.574
-5.966
-59.512
-95.357
-87.883
-34.098
42.562
121.733
181.15
214.37
236.881
257.991
284.12
317.549
351.206
382.361
412.127
440.386
468.03
495.12
520.179
542.466
561.815
577.715
589.631
597.246
600.278
598.547
592.046
580.722
564.491
543.5
518.053
488.501
455.284
418.872
379.766
338.558
295.839
252.141
207.995
163.963
120.695
78.933
39.393
2.693
-30.68
-60.37
-86.12
-107.763
-125.237
-138.584
-147.931
-153.434
-155.267
-153.612
-148.701
-140.88
-130.625
-118.503
-105.102
-91.006
-76.727
-62.732
-49.439
-37.13
-26.012
-16.211
-7.823
-0.994
4.152
7.547
9.164
9.071
7.423
4.401
0.253
-4.682
-10.103
-15.714
-21.259
-26.662
-31.888
-36.92
-41.749
-46.283
-50.432
-54.15
-57.362
-59.983
-61.937
-63.105
-63.46
-63.117
-62.149
-60.616
-58.534
-55.754
-52.108
-47.452
-41.604
-34.405
-25.755
-15.555
-3.816
9.307
23.609
38.812
54.681
71.118
87.997
105.103
122.163
138.83
154.727
169.555
182.997
194.576
203.804
210.406
214.356
215.76
214.809
211.599
205.982
197.961
187.881
175.583
160.287
141.991
121.081
97.566
72.748
44.946
8.946
-33.244
-76.457
-111.675
-122.799
-112.014
-94.925
-87.548
-112.599
-169.657
-237.435
-299.552
-337.739
-350.058
-352.315
-353.779
-361.31
-376.347
-392.289
-406.446
-418.896
-429.395
-438.881
-447.428
-454.066
-458.493
-460.811
-460.952
-458.927
-454.88
-448.942
-441.301
-432.182
-421.702
-409.945
-397.07
-383.272
-368.752
-353.684
-338.274
-322.86
-307.821
-293.586
-280.603
-269.111
-259.377
-251.828
-246.702
-244.097
-243.902
-245.492
-248.331
-252.491
-258.057
-265.129
-274.335
-286.128
-301.225
-321.288
-347.318
-378.897
-415.1
-454.106
-492.964
-529.284
-560.545
-583.187
-594.955
-595.391
-584.832
-565.213
-539.685
-510.557
-480.267
-452.009
-427.648
-408.039
-393.64
-383.766
-377.605
-375.239
-376.358
-380.196
-386.522
-394.975
-405.275
-417.262
-429.541
-440.061
-447.743
-452.486
-455.165
-457.332
-460.124
-465.875
-479.29
-504.996
-546.565
-602.785
-666.973
-737.259
-814.264
-900.838
-1004.322
-1114.402
-1209.49
-1270.156
-1272.415
-1215.244
-1120.029
-1005.673
-895.531
-799.721
-709.411
-620.502
-531.627
-446.485
-375.98
-325.329
-294.166
-280.6
-282.277
-298.257
-326.816
-363.326
-401.666
-436.654
-465.247
-486.013
-497.043
-495.755
-481.311
-455.417
-422.028
-385.684
-349.342
-314.645
-283.369
-257.649
-238.781
-226.781
-219.494
-213.524
-206.446
-196.356
-181.792
-161.707
-135.254
-102.484
-65.495
-27.686
7.537
36.111
54.433
59.503
48.342
19.541
-26.214
-86.989
-159.473
-238.392
-317.83
-391.43
-452.596
-496.539
-519.987
-520.315
-497.103
-452.892
-392.131
-320.981
-246.039
-172.527
-105.554
-51.094
-13.546
5.448
6.051
-9.761
-40.105
-84.599
-141.697
-207.57
-278.363
-350.952
-422.55
-490.941
-551.584
-597.638
-623.915
-626.395
-605.481
-563.224
-497.333
-409.352
-298.226
-164.774
-26.492
102.918
207.438
270.389
300.877
308.217
302.003
298.331
295.202
290.894
289.287
289.423
296.138
313.394
338.965
370.722
405.693
439.956
470.605
494.872
510.521
517.029
515.474
507.648
495.187
480.221
465.831
456.286
455.89
467.001
489.791
523.318
566.474
617.005
670.854
721.8
762.356
786.378
789.247
767.115
717.141
640.913
544.625
435.768
321.004
197.562
58.183
-97.077
-258.369
-394.593
-469.17
-460.84
-365.042
-215.021
-59.697
66.411
138.387
167.489
185.425
209.163
252.378
310.854
364.635
405.571
429.505
435.893
432.837
426.181
418.926
414.408
414.654
420.666
433.851
456.194
487.974
527.272
571.826
618.473
663.381
704.335
739.523
766.425
783.875
792.002
791.163
782.895
769.355
751.615
730.599
707.558
683.07
657.468
631.056
603.473
574.213
543.317
510.943
477.273
442.662
407.297
371.336
335.134
299.009
263.141
227.632
192.482
157.736
123.614
90.359
58.172
27.22
-2.413
-30.619
-57.186
-81.877
-104.485
-124.854
-142.896
-158.524
-171.535
-181.674
-188.704
-192.493
-193.082
-190.613
-185.131
-176.607
-165.164
-151.144
-135.27
-118.579
-101.966
-86.031
-71.187
-57.741
-45.644
-34.574
-23.606
-11.021
4.78
24.951
49.757
78.285
108.979
139.414
165.857
184.195
188.781
174.749
141.074
87.938
22.716
-51.082
-124.739
-164.237
-216.999
-370.359
-495.371
-433.732
-325.492
-315.79
-317.939
-268.722
-207.682
-151.495
-99.325
-58.85
-33.712
-24.126
-27.228
-37.826
-51.748
-66.08
-79.074
-89.135
-94.479
-94.35
-89.2
-80.965
-72.041
-63.7
-56.486
-51.172
-48.654
-50.112
-57.026
-69.717
-87.421
-109.425
-134.622
-161.241
-187.703
-211.916
-230.93
-242.699
-246.213
-240.766
-226.562
-204.729
-176.191
-142.23
-104.769
-65.278
-25.409
12.455
45.945
73.068
91.861
100.61
97.653
81.397
51.795
10.779
-38.246
-91.142
-143.735
-191.687
-230.041
-254.151
-261.141
-250.148
-222.274
-179.826
-125.477
-62.732
4.031
70.832
134.732
193.915
247.525
295.019
336.443
372.952
406.335
438.079
469.007
499.159
528.904
559.456
591.161
623.224
653.905
680.69
701.615
715.598
720.453
712.714
690.009
651.012
596.267
528.76
451.588
367.535
281.064
197.975
123.306
61.618
15.586
-14.864
-30.325
-31.7
-21.603
-3.683
18.833
42.753
65.969
87.975
108.41
127.141
144.974
163.134
182.436
203.473
226.223
249.988
274.128
297.978
320.6
340.932
358.13
371.605
381.102
386.702
388.561
386.885
382.008
374.38
364.467
352.739
339.631
325.474
310.617
295.43
280.239
265.353
251.027
237.386
224.589
212.884
202.313
192.659
183.437
174.064
164.304
154.425
144.751
135.235
125.937
117.316
110.452
106.699
106.5
108.949
112.526
116.29
119.601
121.572
120.616
114.554
102.225
84.385
63.021
39.627
15.008
-10.055
-34.391
-55.961
-72.983
-85.49
-94.976
-102.771
-109.769
-116.698
-124.08
-133.396
-146.904
-165.25
-187.714
-213.304
-240.171
-266.526
-291.324
-312.472
-326.682
-332.222
-328.218
-314.144
-291.887
-263.641
-230.763
-196.04
-163.144
-134.438
-112.528
-100.4
-98.207
-105.482
-122.435
-147.399
-178.229
-213.822
-251.651
-287.721
-319.961
-346.6
-364.878
-373.898
-373.244
-361.512
-339.414
-309.883
-275.163
-238.463
-205.109
-179.217
-164.174
-164.296
-181.681
-216.287
-268.198
-335.148
-411.696
-492.753
-574.762
-653.604
-725.773
-789.326
-839.834
-875.479
-903.497
-929.043
-956.602
-984.31
-1003.144
-1034.318
-1038.417
-934.386
-871.829
-1018.463
-1201.944
-1250.73
-1227.523
-1189.917
-1134.497
-1075.969
-1041.571
-1037.543
-1044.72
-1049.47
-1045.567
-1030.833
-1012.343
-994.049
-975.124
-954.29
-928.357
-895.655
-857.098
-814.088
-768.801
-723.437
-679.31
-638.642
-604.837
-580.417
-566.649
-562.726
-565.251
-570.755
-577.218
-582.371
-583.405
-577.891
-563.702
-540.875
-512.355
-481.491
-450.609
-421.645
-396.196
-375.937
-362.857
-357.574
-359.045
-365.828
-376.471
-389.701
-405.487
-423.405
-441.747
-460.471
-477.853
-491.329
-505.233
-522.46
-544.675
-571.478
-596.266
-634.922
-643.613
-532.618
-443.048
-552.68
-696.052
-710.155
-672.226
-630.739
-571.43
-501.692
-437.398
-392.465
-358.657
-327.784
-301.735
-278.381
-261.635
-255.611
-258.056
-266.826
-279.731
-294.232
-308.847
-322.077
-332.545
-339.687
-343.918
-346.54
-348.383
-349.698
-350.686
-351.342
-351.404
-350.479
-347.814
-342.307
-333.33
-320.722
-304.478
-284.863
-262.249
-236.949
-209.374
-180.028
-149.265
-117.394
-84.766
-51.726
-18.809
13.315
44.022
72.74
98.991
122.43
142.823
159.997
173.877
184.415
191.527
195.158
195.323
192.139
185.739
176.272
164.147
150.021
134.884
120.027
106.39
94.429
84.526
77.053
72.215
70.188
70.547
72.084
74.365
77.928
83.671
92.885
106.908
126.805
154.361
192.274
242.059
303.848
377.127
460.484
551.937
649.317
749.276
847.294
939.889
1024.793
1100.013
1164.135
1216.588
1257.404
1288.042
1311.399
1329.658
1344.125
1356.235
1367.353
1378.42
1390.104
1402.091
1412.969
1421.921
1428.807
1433.515
1436.088
1436.618
1435.117
1432.001
1428.149
1424.098
1420.058
1416.105
1412.072
1407.805
1403.227
1398.136
1392.264
1385.409
1377.391
1368.053
1357.296
1345.022
1331.165
1315.712
1298.663
1280.051
1259.917
1238.303
1215.295
1190.995
1165.49
1138.862
1111.145
1082.338
1052.488
1021.678
990.026
957.689
924.796
891.456
857.803
823.967
790.099
756.395
723.011
690.076
657.759
626.24
595.755
566.608
539.048
513.247
489.329
467.349
447.339
429.344
413.361
399.348
387.246
376.944
368.329
361.316
355.766
351.487
348.233
345.669
343.468
341.396
339.254
336.887
334.183
331.017
327.289
322.94
317.893
312.086
305.485
298.049
289.776
280.733
271.015
260.785
250.249
239.533
228.725
217.882
206.996
196.076
185.145
174.211
163.317
152.522
141.839
131.274
120.812
110.403
100.006
89.545
78.888
67.965
56.765
45.335
33.813
22.3
10.831
-0.572
-11.928
-23.258
-34.531
-45.71
-56.75
-67.617
-78.315
-88.829
-99.113
-109.193
-119.181
-129.299
-139.886
-151.203
-163.396
-176.564
-190.726
-205.952
-222.418
-240.312
-259.871
-281.326
-304.772
-330.361
-358.364
-388.786
-421.387
-455.62
-490.386
-524.738
-558.477
-591.522
-623.899
-656.119
-688.449
-721.575
-757.415
-797.479
-841.78
-889.419
-938.144
-984.72
-1027.12
-1062.837
-1087.423
-1096.841
-1088.514
-1062.026
-1020.478
-968.416
-908.575
-844.194
-780.547
-723.203
-677.42
-645.686
-626.01
-614.524
-608.131
-603.481
-595.727
-582.342
-563.802
-539.694
-509.015
-461.856
-381.555
-265.567
-130.81
-14.558
39.93
14.239
-77.455
-197.552
-306.93
-386.146
-437.591
-475.923
-511.058
-542.484
-564.099
-568.269
-553.615
-524.261
-485.089
-441.624
-397.922
-356.747
-320.389
-289.785
-264.42
-243.057
-224.203
-206.243
-188.252
-169.484
-149.426
-128.4
-106.892
-85.532
-65.086
-45.821
-27.663
-10.881
4.397
18.161
29.661
38.381
43.902
44.703
39.638
28.512
11.051
-11.684
-36.82
-61.974
-84.598
-100.929
-108.335
-104.968
-88.781
-60.579
-23.841
18.103
61.133
100.648
133.663
157.123
167.441
163.932
148.225
122.499
90.28
54.623
16.952
-20.862
-56.337
-88.363
-116.709
-141.925
-166.037
-190.657
-216.306
-243.32
-272.176
-303.331
-337.529
-375.183
-415.171
-455.469
-494.066
-529.615
-561.044
-587.056
-605.635
-614.299
-612.025
-599.754
-579.367
-552.577
-520.826
-485.5
-448.71
-413.685
-382.947
-356.75
-333.743
-312.455
-291.108
-270.737
-254.812
-240.306
-221.893
-191.961
-137.289
-62.099
16.153
80.258
105.247
86.96
44.109
-8.709
-53.486
-84.103
-112.967
-146.473
-186.275
-229.933
-267.618
-292.575
-303.475
-300.923
-286.263
-260.686
-225.967
-184.489
-139.764
-96.43
-57.066
-22.494
6.106
28.161
43.697
52.621
56.423
58.115
59.324
60.599
62.559
65.267
69.036
74.779
82.18
89.816
96.92
103.139
108.354
112.915
116.747
119.267
120.459
120.812
120.699
120.497
120.366
120.16
119.89
119.727
119.722
119.809
119.906
119.88
119.659
119.33
118.975
118.615
118.238
117.734
116.938
115.759
114.051
111.555
108.201
104.03
99.246
94.494
90.319
86.774
83.903
81.605
79.257
76.333
71.893
64.049
51.347
33.399
10.432
-16.299
-44.649
-72.842
-98.393
-117.346
-126.037
-121.91
-103.799
-72.602
-30.48
20.608
77.678
135.803
189.414
233.344
263.697
278.682
277.889
261.079
229.326
185.937
135.85
84.515
37.042
-2.58
-31.454
-46.952
-47.831
-34.843
-10.634
20.979
56.113
91.251
123.504
150.361
170.348
183.088
189.767
193.056
195.016
197.12
200.66
206.149
212.836
219.361
223.573
221.332
212.371
200.345
183.054
157.371
117.52
50.881
-37.415
-128.297
-203.862
-239.774
-232.622
-202.624
-166.149
-141.497
-134.175
-131.561
-126.028
-113.349
-93.946
-74.566
-58.076
-43.722
-29.879
-14.716
2.16
20.504
40.419
61.603
83.218
103.833
121.499
135.216
144.909
150.57
152.41
152.127
152.628
156.19
165.801
180.437
192.945
202.064
209.516
219.489
246.644
289.946
326.924
332.811
273.821
136.259
-47.755
-234.501
-378.138
-443.516
-441.627
-402.823
-350.969
-309.457
-279.781
-248.493
-212.491
-170.9
-127.334
-92.943
-73.211
-67.799
-74.239
-86.758
-99.771
-110.252
-116.257
-115.746
-106.795
-88.856
-62.71
-30.46
5.013
41.966
79.658
117.273
154.09
189.896
224.672
258.579
291.937
324.359
355.036
383.85
410.425
433.265
451.719
466.469
478.219
489.257
499.653
504.234
503.485
502.54
509.497
539.414
591.622
650.061
695.911
701.198
654.159
564.482
447.404
334.502
257.482
231.131
261.289
335.128
424.399
509.046
577.789
629.748
677.677
729.39
784.022
836.591
876.803
899.032
905.391
899.397
887.585
875.656
862.909
852.451
841.058
819.659
794.567
771.666
769.463
816.438
908.305
1022.504
1116.7
1140.014
1078.314
950.572
798.86
666.322
576.815
520.961
477.746
464.621
423.853
264.672
148.584
247.662
385.468
383.92
316.788
258.854
198.166
141.411
114.832
118.643
135.201
154.764
172.061
186.556
204.84
228.802
255.868
283.86
309.801
330.695
343.723
345.736
333.708
307.16
267.932
217.885
159.866
97.52
34.708
-23.002
-72.689
-116.776
-153.53
-179.611
-189.009
-168.482
-123.614
-74.943
-43.577
-57.879
-121.418
-212.469
-312.927
-401.739
-473.204
-542.91
-618.981
-704.345
-786.932
-852.226
-925.393
-957.573
-845.32
-778.521
-1005.807
-1211.648
-1023.489
-692.967
-492.736
-328.477
-176.872
-115.627
-137.178
-199.986
-253.497
-265.204
-237.214
-181.592
-118.609
-60.716
-7.474
43.374
94.016
142.369
184.366
216.622
235.389
239.355
229.302
207.065
176.463
141.195
103.461
65.63
30.347
-0.746
-26.627
-47.466
-64.893
-79.977
-92.932
-104.006
-113.464
-121.484
-128.293
-133.64
-136.662
-136.904
-134.349
-129.13
-121.61
-112.086
-100.68
-87.608
-73.272
-58.052
-42.345
-26.567
-10.965
4.227
18.742
32.338
44.791
55.946
65.739
74.137
81.074
86.454
90.113
91.887
91.681
89.426
85.121
78.83
70.635
60.69
49.222
36.517
22.838
8.369
-6.716
-22.198
-37.81
-53.2
-67.929
-81.657
-94.051
-104.582
-112.809
-118.344
-120.776
-120.075
-116.606
-110.643
-102.336
-92.257
-80.847
-67.867
-53.832
-39.192
-22.377
-5.494
8.645
23.1
37.08
58.038
98.743
152.37
209.599
247.44
233.83
170.832
77.892
-7.888
-42.135
-16.967
49.662
124.355
171.623
178.488
150.563
102.507
49.154
0.987
-39.498
-78.4
-126.943
-200.839
-306.449
-429.374
-534.719
-577.428
-528.154
-392.239
-213.06
-52.898
40.844
55.384
16.403
-30.576
-50.841
-32.655
13.254
64.881
107.91
138.82
160.974
181.2
201.986
222.163
240.517
255.653
267.6
277.455
285.817
292.882
298.85
303.814
307.103
307.519
304.276
297.215
287.212
277.021
265.898
248.074
221.177
185.827
154.66
157.156
211.95
316.774
441.401
519.65
494.724
350.532
120.479
-111.482
-288.657
-349.437
-160.813
189.989
344.623
245.988
199.518
302.417
418.488
507.279
579.959
596.517
521.548
354.423
130.92
-95.569
-273.197
-367.068
-379.181
-335.839
-275.155
-230.06
-209.492
-207.034
-208.076
-201.005
-186.293
-169.719
-157.474
-151.28
-147.973
-143.779
-136.525
-126.537
-114.463
-100.845
-86.827
-74.449
-66.669
-65.569
-71.137
-81.643
-95.491
-111.55
-128.741
-145.636
-160.07
-170.461
-176.768
-180.198
-181.945
-182.657
-182.623
-181.982
-181.165
-180.507
-179.743
-178.164
-175.204
-170.554
-164.033
-155.769
-146.003
-135.157
-124.163
-113.908
-104.578
-96.009
-87.932
-79.744
-70.775
-59.855
-44.531
-22.361
7.601
44.951
87.881
133.939
180.893
225.057
261.261
284.367
289.911
279.384
257.404
224.644
184.905
137.206
80.505
31.542
2.893
7.608
58.339
140.432
238.814
339.659
424.172
491.739
542.395
572.1
582.367
570.78
537.587
489.545
433.33
376.407
325.827
286.28
261.78
254.395
263.037
284.472
313.913
346.385
378.304
406.892
429.355
444.002
450.606
450.086
444.808
437.429
429.458
421.918
415.802
411.606
409.554
409.57
410.863
412.505
414.121
415.501
416.441
417.008
417.348
417.798
418.907
420.918
423.488
426.107
428.578
430.634
431.725
430.798
426.561
418.566
407.702
395.561
383.223
371.475
361.34
354.487
353.058
358.172
369.036
383.529
399.912
417.03
433.844
448.959
460.302
466.291
466.766
462.67
454.805
443.461
428.451
409.422
386.631
360.446
331.011
298.44
262.582
223.168
180.217
133.917
84.329
31.614
-24.609
-85.396
-150.744
-219.556
-290.014
-359.47
-425.565
-486.528
-539.813
-582.16
-611.645
-627.685
-631.131
-624.464
-609.648
-587.864
-560.962
-531.31
-500.62
-470.041
-439.62
-408.115
-374.983
-340.504
-304.829
-268.082
-230.466
-192.163
-153.92
-117.153
-82.854
-51.555
-23.589
1.036
22.31
40.17
54.783
66.532
75.787
82.948
88.346
92.121
94.431
95.421
95.25
94.204
92.535
90.433
88.074
85.554
82.868
79.956
76.652
72.678
67.835
61.858
54.412
45.403
34.9
23.285
11.261
-0.597
-12.012
-22.943
-33.509
-44.264
-55.995
-69.915
-87.812
-111.274
-141.333
-177.763
-219.075
-262.561
-304.695
-341.825
-369.902
-384.821
-383.067
-363.375
-326.998
-277.563
-220.464
-160.637
-102.627
-51.234
-10.905
15.927
29.252
31.7
27.972
21.81
15.794
12.392
13.794
21.701
36.794
57.248
79.985
102.985
124.315
145.947
170.018
192.395
211.67
221.589
215.44
203.515
192.668
192.25
214.519
248.615
284.994
316.524
331.405
335.136
333.456
326.8
319.564
310.061
297.074
284.327
275.04
273.503
284.067
309.485
350.909
407.28
475.391
550.228
625.886
696.988
758.753
806.343
836.591
849.013
845.036
828.393
803.887
774.914
744.139
714.609
688.314
665.514
645.542
626.756
606.537
583.455
557.886
526.758
487.68
444.594
398.93
358.347
332.231
312.643
293.037
263.757
213.34
152.591
92.933
43.579
10.154
-18.592
-53.738
-95.549
-142.493
-210.525
-238.302
-130.739
-34.276
-112.225
-257.633
-415.758
-568.345
-519.103
-283.286
-200.086
-378.15
-543.387
-539.297
-500.976
-518.048
-550.048
-582.834
-624.548
-667.89
-706.659
-736.008
-752.55
-758.718
-760.519
-762.255
-763.637
-753.958
-718.456
-651.425
-562.719
-486.938
-467.042
-537.319
-708.042
-948.888
-1210.653
-1435.88
-1579.146
-1628.572
-1593.889
-1513.058
-1434.085
-1395.189
-1420.938
-1500.952
-1601.304
-1682.226
-1708.498
-1672.01
-1593.602
-1500.08
-1413.502
-1332.261
-1227.999
-1111.476
-961.265
-671.897
-346.988
-297.596
-581.661
-943.528
-1097.177
-958.328
-732.928
-602.766
-517.425
-439.701
-407.938
-406.638
-397.727
-373.908
-359.142
-386.729
-486.365
-673.474
-918.38
-1175.714
-1396.303
-1524.176
-1548.986
-1482.474
-1338.943
-1156.9
-956.218
-749.314
-576.102
-471.349
-470.596
-602.888
-840.508
-1125.383
-1383.971
-1534.75
-1550.429
-1442.311
-1254.418
-1069.063
-937.577
-886.5
-918.043
-980.405
-1023.514
-1013.163
-918.67
-750.946
-551.031
-351.402
-192.96
-112.262
-103.024
-166.355
-299.045
-428.361
-565.078
-840.992
-1148.817
-1139.028
-805.735
-521.662
-412.765
-335.867
-275.566
-267.262
-269.108
-251.525
-209.258
-156.702
-120.483
-112.066
-131.932
-168.22
-206.834
-256.29
-356.992
-496.829
-593.395
-719.716
-1048.151
-1476.08
-1665.017
-1425.588
-951.277
-620.687
-532.901
-483.26
-352.479
-209.683
-102.351
7.688
123.965
216.198
290.01
347.893
377.394
370.557
298.206
144.134
-67.289
-298.307
-489.291
-589.501
-595.023
-528.626
-436.01
-362.127
-322.713
-313.481
-317.754
-321.756
-324.72
-334.051
-359.24
-403.678
-464.705
-536.793
-613.796
-692.436
-770.386
-843.746
-908.134
-958.753
-991.823
-1006.916
-1004.631
-984.906
-948.553
-897.161
-834.291
-766.412
-699.115
-635.294
-577.228
-526.724
-484.971
-453.515
-431.525
-415.089
-401.38
-389.057
-377.042
-365.143
-352.87
-338.683
-322.693
-306.748
-291.913
-278.918
-268.13
-258.831
-250.395
-242.749
-235.278
-227.027
-217.311
-204.613
-187.011
-164.344
-138.724
-112.908
-89.15
-65.467
-35.219
5.134
52.115
91.833
107.126
89.266
46.103
11.99
25.443
116.362
295.436
524.9
751.839
924.969
999.082
977.546
885.131
741.703
571.581
381.662
172.232
-24.986
-161.448
-195.448
-96.058
112.802
357.546
562.941
663.652
644.433
536.674
389.098
250.344
133.764
43.185
-26.016
-82.128
-102.685
-84.358
-45.817
-4.687
-1.46
-54.31
-131.994
-196.312
-205.997
-133.015
-1.472
146.965
280.915
372.029
420.514
444.494
451.504
449.021
440.147
419.762
389.058
352.616
313.148
275.073
241.736
213.507
190.255
171.571
155.739
140.908
126.515
111.71
95.295
77.624
59.618
41.819
26.301
12.433
-4.573
-22.968
-37.601
-40.312
-15.716
34.542
94.209
146.958
169.928
161.542
142.322
128.079
135.988
168.383
209.152
248.297
278.76
298.332
313.086
325.328
334.136
338.942
338.116
331.284
319.571
303.532
283.433
261.001
239.278
221.071
209.318
202.806
195.994
188.814
182.947
182.719
197.901
220.521
230.927
211.953
141.777
22.597
-119.28
-261.071
-376.291
-451.247
-492.038
-501.648
-482.394
-435.598
-358.739
-254.755
-132.307
-2.682
123.019
236.581
331.956
405.592
456.699
486.461
498.659
499.544
494.944
489.224
486.146
488.002
495.69
509.2
527.01
546.165
563.718
577.77
587.038
590.976
589.613
583.116
572.211
558.302
542.961
527.341
512.111
497.526
483.573
470.315
457.85
446.161
435.251
425.249
416.353
408.854
403.055
399.102
397.081
397.136
399.038
402.23
406.457
411.678
418.377
427.714
440.192
455.311
473.026
494.019
517.847
543.325
568.623
589.476
605.893
623.669
642.172
657.561
662.314
641.01
598.567
557.443
538.903
568.738
646.122
744.042
840.386
910.983
947.087
958.404
948.368
920.552
877.214
814.279
732.6
637.706
535.669
435.623
347.122
275.813
224.131
193.738
185.805
199.877
235.048
285.772
340.536
390.207
431.179
468.304
511.893
568.26
630.025
669.713
655.4
560.761
380.924
149.449
-84.469
-266.861
-360.155
-365.876
-307.394
-223.346
-143.013
-79.657
-27.856
52.083
115.077
67.44
27.886
143.17
270.024
268.475
232.743
236.414
249.368
261.249
277.722
294.807
311.05
325.725
338.258
348.482
355.576
359.426
360.461
358.985
355.903
352.189
347.835
343.608
338.663
331.87
325.672
320.576
322.107
327.768
333.725
374.65
381.861
218.062
94.34
303.761
564.707
478.389
212.099
145.518
320.925
495.102
537.44
529.9
511.172
450.674
364.552
280.955
220.299
187.465
168.781
161.037
157.679
159.654
169.915
160.032
182.309
330.171
468.586
430.102
355.257
387.054
432.469
423.33
391.714
350.835
292.971
219.309
145.857
83.467
43.347
38.326
57.876
91.505
130.366
160.912
187.061
213.804
241.499
274.054
308.523
341.23
372.579
401.834
428.886
454.079
476.026
492.308
500.329
496.906
480.994
454.332
420.415
387.718
355.638
329.158
334.405
316.156
172.502
7.331
40.57
218.378
261.428
107.307
-24.594
-21.881
9.765
4.978
-5.208
-9.916
-14.77
-15.674
-11.889
-4.727
4.354
13.034
20.319
26.041
29.741
31.418
32.323
34.25
39.41
50.292
64.538
75.4
78.856
73.44
67.96
77.372
105.031
141.122
154.855
107.34
