Name,Criss Capps
Date of Birth,"Feb 5, 1952"
Recorded Date,2021-08-22 13:45:11 -0400
Classification,High Heart Rate
Symptoms,
Software Version,1.90
Device,"Watch5,4"
Sample Rate,512.844 hertz


Lead,Lead I
Unit,µV

-92.014
-88.493
-85.907
-84.15
-82.946
-81.695
-79.849
-77.201
-73.518
-68.582
-62.441
-55.024
-46.587
-38.139
-30.522
-24
-18.629
-13.857
-8.558
-2.144
6.454
19.387
38.415
65.147
101.099
146.236
199.67
259.684
321.943
381.791
436.688
487.458
537.043
585.449
625.425
641.951
621.765
559.608
461.09
342.352
217.136
97.593
-5.655
-87.737
-140.847
-164.493
-167.437
-156.65
-142.954
-131.614
-119.544
-107.515
-95.688
-84.73
-78.807
-78.871
-83.483
-91.621
-101.104
-109.589
-116.328
-120.969
-123.282
-123.83
-123.26
-121.979
-120.644
-120.006
-120.36
-121.811
-124.337
-127.615
-131.39
-135.498
-139.684
-143.721
-147.438
-150.653
-153.257
-155.228
-156.529
-157.141
-157.069
-156.299
-154.851
-152.779
-150.138
-146.992
-143.403
-139.42
-135.107
-130.53
-125.763
-120.888
-115.972
-111.058
-106.187
-101.386
-96.681
-92.096
-87.643
-83.32
-79.124
-75.055
-71.117
-67.316
-63.655
-60.127
-56.728
-53.449
-50.286
-47.235
-44.294
-41.458
-38.722
-36.082
-33.536
-31.085
-28.724
-26.448
-24.25
-22.122
-20.055
-18.043
-16.077
-14.15
-12.252
-10.376
-8.517
-6.669
-4.826
-2.981
-1.13
0.732
2.61
4.507
6.426
8.368
10.337
12.333
14.355
16.402
18.474
20.568
22.682
24.813
26.957
29.11
31.268
33.425
35.577
37.718
39.843
41.945
44.019
46.06
48.062
50.018
51.924
53.775
55.565
57.291
58.946
60.527
62.031
63.451
64.787
66.032
67.186
68.244
69.204
70.063
70.82
71.472
72.019
72.459
72.791
73.015
73.131
73.139
73.041
72.836
72.526
72.113
71.598
70.983
70.27
69.462
68.561
67.569
66.49
65.327
64.084
62.764
61.372
59.911
58.387
56.805
55.17
53.489
51.766
50.01
48.227
46.425
44.613
42.8
40.992
39.2
37.432
35.697
34.004
32.362
30.779
29.265
27.827
26.475
25.217
24.061
23.015
22.085
21.278
20.601
20.06
19.658
19.4
19.289
19.326
19.514
19.853
20.342
20.978
21.758
22.676
23.728
24.903
26.189
27.573
29.039
30.573
32.159
33.779
35.413
37.044
38.657
40.236
41.765
43.223
44.591
45.848
46.973
47.951
48.761
49.383
49.798
49.994
49.961
49.692
49.173
48.385
47.304
45.911
44.196
42.153
39.78
37.085
34.08
30.795
27.279
23.579
19.735
15.781
11.743
7.657
3.578
-0.437
-4.33
-8.06
-11.6
-14.916
-17.989
-20.843
-23.526
-26.128
-28.756
-31.477
-34.355
-37.476
-40.924
-44.799
-49.224
-54.25
-59.946
-66.443
-73.722
-81.678
-90.078
-98.388
-106.089
-112.822
-118.081
-121.324
-122.456
-121.564
-119.09
-116.227
-113.84
-112.343
-112.519
-114.962
-119.335
-124.886
-130.016
-131.685
-127.484
-115.726
-93.749
-59.159
-10.997
51.03
124.188
202.241
280.045
353.949
422.859
487.662
546.772
594.313
617.263
602.934
543.678
437.625
299.524
150.567
12.714
-89.772
-148.783
-167.841
-157.536
-137.593
-119.365
-106.42
-98.15
-88.482
-76.161
-63.685
-53.528
-49.062
-50.698
-56.352
-64.218
-72.136
-78.285
-82.067
-83.222
-81.849
-78.635
-74.287
-69.412
-64.71
-60.788
-57.937
-56.282
-55.792
-56.254
-57.488
-59.336
-61.612
-64.161
-66.864
-69.618
-72.322
-74.858
-77.123
-79.037
-80.551
-81.644
-82.305
-82.519
-82.3
-81.685
-80.714
-79.427
-77.857
-76.024
-73.961
-71.717
-69.347
-66.921
-64.488
-62.079
-59.722
-57.434
-55.225
-53.105
-51.066
-49.088
-47.16
-45.273
-43.423
-41.612
-39.832
-38.075
-36.329
-34.586
-32.838
-31.079
-29.305
-27.509
-25.689
-23.844
-21.976
-20.091
-18.19
-16.275
-14.345
-12.403
-10.447
-8.481
-6.504
-4.518
-2.523
-0.523
1.478
3.476
5.466
7.445
9.405
11.343
13.252
15.126
16.961
18.751
20.491
22.173
23.793
25.345
26.824
28.224
29.541
30.77
31.906
32.947
33.889
34.731
35.471
36.109
36.642
37.072
37.4
37.625
37.75
37.776
37.705
37.541
37.286
36.947
36.526
36.028
35.46
34.826
34.132
33.382
32.583
31.739
30.856
29.939
28.992
28.021
27.031
26.026
25.012
23.993
22.974
21.958
20.949
19.951
18.967
18
17.053
16.13
15.232
14.364
13.527
12.724
11.96
11.235
10.555
9.921
9.337
8.806
8.331
7.916
7.566
7.285
7.079
6.951
6.909
6.959
7.107
7.361
7.727
8.212
8.822
9.564
10.444
11.469
12.644
13.974
15.465
17.122
18.948
20.948
23.123
25.475
28.006
30.715
33.6
36.66
39.889
43.283
46.835
50.537
54.383
58.359
62.455
66.656
70.947
75.312
79.733
84.187
88.65
93.098
97.507
101.852
106.105
110.24
114.232
118.058
121.696
125.123
128.319
131.26
133.925
136.291
138.336
140.038
141.377
142.336
142.902
143.065
142.822
142.163
141.085
139.58
137.638
135.253
132.426
129.159
125.463
121.362
116.894
112.112
107.077
101.84
96.455
90.969
85.431
79.899
74.416
69.019
63.753
58.661
53.783
49.155
44.784
40.632
36.643
32.742
28.835
24.86
20.762
16.468
11.894
6.947
1.55
-4.338
-10.687
-17.506
-24.849
-32.646
-40.716
-48.7
-55.99
-62.026
-66.546
-69.322
-70.156
-69.168
-66.4
-62.179
-57.611
-53.702
-50.913
-49.436
-48.783
-47.81
-45.899
-42.109
-34.235
-20.111
2.132
33.913
74.845
123.373
178.499
238.395
299.5
357.732
408.135
445.621
467.217
471.065
454.987
418.458
363.077
291.7
209.366
122.373
35.898
-44.964
-114.559
-169.129
-206.852
-227.181
-231.89
-224.268
-207.405
-185.164
-162.254
-141.877
-125.948
-115.637
-110.665
-110.035
-112.86
-117.564
-122.011
-125.004
-126.043
-124.987
-122.35
-118.683
-114.333
-109.934
-106.267
-103.722
-102.448
-102.402
-103.266
-104.812
-106.904
-109.325
-111.867
-114.357
-116.606
-118.499
-120.01
-121.101
-121.749
-121.944
-121.658
-120.897
-119.706
-118.136
-116.241
-114.068
-111.647
-109.021
-106.238
-103.355
-100.439
-97.538
-94.679
-91.885
-89.167
-86.534
-83.999
-81.555
-79.182
-76.862
-74.579
-72.322
-70.086
-67.862
-65.634
-63.387
-61.105
-58.778
-56.397
-53.957
-51.449
-48.868
-46.21
-43.476
-40.669
-37.792
-34.843
-31.824
-28.735
-25.579
-22.359
-19.08
-15.744
-12.358
-8.93
-5.469
-1.984
1.513
5.011
8.499
11.964
15.393
18.772
22.088
25.326
28.472
31.512
34.431
37.215
39.849
42.322
44.62
46.733
48.648
50.356
51.847
53.114
54.15
54.947
55.502
55.81
55.869
55.678
55.237
54.548
53.613
52.437
51.025
49.384
47.522
45.448
43.172
40.704
38.058
35.244
32.277
29.171
25.938
22.593
19.15
15.624
12.027
8.372
4.673
0.941
-2.812
-6.575
-10.338
-14.091
-17.825
-21.531
-25.202
-28.832
-32.414
-35.944
-39.417
-42.829
-46.178
-49.462
-52.678
-55.827
-58.906
-61.918
-64.862
-67.741
-70.557
-73.312
-76.009
-78.651
-81.241
-83.781
-86.273
-88.719
-91.118
-93.47
-95.775
-98.031
-100.236
-102.386
-104.478
-106.509
-108.474
-110.369
-112.186
-113.921
-115.567
-117.118
-118.567
-119.907
-121.133
-122.237
-123.216
-124.064
-124.776
-125.348
-125.776
-126.053
-126.175
-126.14
-125.944
-125.585
-125.062
-124.377
-123.535
-122.543
-121.411
-120.147
-118.761
-117.266
-115.674
-113.996
-112.245
-110.431
-108.567
-106.669
-104.752
-102.832
-100.922
-99.034
-97.181
-95.375
-93.626
-91.945
-90.343
-88.826
-87.412
-86.121
-84.975
-84.002
-83.221
-82.643
-82.283
-82.149
-82.246
-82.572
-83.109
-83.823
-84.683
-85.652
-86.682
-87.723
-88.71
-89.58
-90.269
-90.716
-90.887
-90.741
-90.253
-89.417
-88.202
-86.587
-84.62
-82.387
-80.025
-77.756
-75.737
-74.131
-73.303
-73.509
-74.802
-77.08
-79.862
-82.608
-85.139
-87.293
-88.477
-88.262
-87.01
-85.857
-86.422
-90.38
-96.898
-103.004
-109.555
-118.558
-133.277
-160.085
-194.198
-223.319
-236.49
-219.083
-169.138
-98.719
-18.08
60.237
130.563
198.503
267.168
337.541
406.919
467.961
515.633
547.14
561.282
557.568
534.229
490.451
428.017
349.951
260.62
165.632
69.729
-21.845
-102.642
-168.193
-216.352
-246.274
-259.294
-258.443
-246.595
-227.669
-206.807
-187.566
-172.123
-161.88
-156.654
-155.46
-157.431
-160.93
-163.743
-164.642
-163.096
-159.027
-153.083
-145.957
-138.178
-130.534
-123.924
-118.831
-115.45
-113.746
-113.405
-114.165
-115.835
-118.152
-120.823
-123.612
-126.297
-128.673
-130.634
-132.092
-132.958
-133.192
-132.765
-131.663
-129.917
-127.59
-124.744
-121.443
-117.752
-113.72
-109.412
-104.906
-100.282
-95.628
-91.008
-86.462
-82.024
-77.717
-73.558
-69.558
-65.709
-61.991
-58.387
-54.889
-51.49
-48.188
-44.978
-41.845
-38.778
-35.765
-32.799
-29.876
-26.99
-24.137
-21.314
-18.52
-15.759
-13.034
-10.348
-7.699
-5.086
-2.507
0.038
2.55
5.03
7.478
9.894
12.277
14.624
16.933
19.201
21.428
23.609
25.744
27.83
29.864
31.843
33.765
35.627
37.426
39.158
40.82
42.408
43.92
45.353
46.704
47.971
49.151
50.243
51.246
52.158
52.979
53.708
54.344
54.89
55.344
55.71
55.987
56.179
56.287
56.313
56.262
56.134
55.934
55.662
55.322
54.916
54.447
53.916
53.327
52.682
51.982
51.232
50.433
49.587
48.697
47.765
46.793
45.783
44.735
43.652
42.536
41.386
40.205
38.993
37.751
36.479
35.179
33.851
32.495
31.113
29.704
28.271
26.816
25.339
23.845
22.337
20.818
19.293
17.767
16.244
14.728
13.226
11.742
10.282
8.852
7.455
6.098
4.787
3.526
2.321
1.178
0.101
-0.905
-1.837
-2.688
-3.457
-4.14
-4.734
-5.239
-5.651
-5.969
-6.192
-6.322
-6.36
-6.309
-6.172
-5.955
-5.665
-5.312
-4.907
-4.459
-3.979
-3.477
-2.966
-2.458
-1.962
-1.487
-1.043
-0.64
-0.289
-0.003
0.206
0.33
0.357
0.276
0.076
-0.253
-0.718
-1.318
-2.06
-2.952
-4.002
-5.225
-6.625
-8.195
-9.927
-11.812
-13.829
-15.954
-18.144
-20.34
-22.492
-24.554
-26.48
-28.237
-29.772
-31.024
-31.948
-32.5
-32.652
-32.402
-31.737
-30.651
-29.185
-27.397
-25.369
-23.225
-21.06
-18.959
-17.034
-15.378
-14.088
-13.263
-12.959
-13.18
-13.889
-15.031
-16.537
-18.332
-20.32
-22.331
-24.111
-25.428
-26.101
-25.865
-24.453
-21.542
-16.554
-9.092
0.854
13.362
28.471
45.748
64.827
85.512
106.639
128.554
154.025
183.26
215.425
248.162
273.534
289.909
305.348
328.673
372.858
443.195
524.475
596.875
640.794
640.369
600.505
536.76
461.907
389.037
322.352
257.68
195.284
137.375
87.058
49.506
26.664
17.137
18.217
26.64
38.897
51.32
61.386
67.489
68.755
65.605
59.067
50.036
39.894
30.386
22.51
16.815
13.485
12.018
11.825
12.454
13.275
13.63
13.175
11.72
9.218
5.844
1.754
-2.927
-8.019
-13.362
-18.855
-24.402
-29.912
-35.293
-40.439
-45.268
-49.731
-53.802
-57.464
-60.704
-63.526
-65.96
-68.048
-69.835
-71.355
-72.63
-73.688
-74.569
-75.323
-76.012
-76.684
-77.37
-78.094
-78.873
-79.721
-80.647
-81.646
-82.702
-83.801
-84.933
-86.092
-87.278
-88.483
-89.698
-90.91
-92.108
-93.284
-94.432
-95.543
-96.612
-97.633
-98.602
-99.519
-100.385
-101.2
-101.962
-102.668
-103.315
-103.902
-104.426
-104.885
-105.276
-105.599
-105.853
-106.038
-106.158
-106.211
-106.201
-106.128
-105.996
-105.807
-105.564
-105.269
-104.925
-104.537
-104.107
-103.641
-103.142
-102.614
-102.06
-101.485
-100.891
-100.281
-99.659
-99.024
-98.381
-97.73
-97.072
-96.41
-95.745
-95.076
-94.407
-93.735
-93.064
-92.392
-91.719
-91.045
-90.369
-89.691
-89.01
-88.327
-87.64
-86.95
-86.257
-85.561
-84.862
-84.16
-83.457
-82.751
-82.043
-81.335
-80.628
-79.922
-79.221
-78.526
-77.841
-77.168
-76.512
-75.875
-75.261
-74.674
-74.117
-73.594
-73.109
-72.666
-72.267
-71.918
-71.62
-71.377
-71.191
-71.063
-70.996
-70.988
-71.039
-71.148
-71.314
-71.532
-71.801
-72.117
-72.475
-72.872
-73.301
-73.757
-74.233
-74.72
-75.212
-75.698
-76.17
-76.618
-77.031
-77.399
-77.713
-77.963
-78.136
-78.224
-78.215
-78.101
-77.871
-77.517
-77.031
-76.404
-75.633
-74.711
-73.637
-72.408
-71.026
-69.493
-67.812
-65.991
-64.036
-61.955
-59.758
-57.454
-55.056
-52.574
-50.019
-47.405
-44.746
-42.058
-39.359
-36.667
-34.001
-31.382
-28.828
-26.359
-23.994
-21.742
-19.617
-17.633
-15.809
-14.171
-12.741
-11.53
-10.549
-9.808
-9.306
-9.039
-8.982
-9.094
-9.336
-9.67
-10.072
-10.53
-11.024
-11.522
-11.989
-12.373
-12.634
-12.762
-12.739
-12.54
-12.163
-11.629
-11.022
-10.473
-10.099
-9.976
-10.136
-10.614
-11.467
-12.773
-14.627
-17.11
-20.242
-24.048
-28.611
-33.893
-39.733
-45.796
-51.444
-56.047
-59.139
-60.218
-58.919
-55.29
-49.603
-42.516
-35.214
-28.615
-23.422
-20.488
-20.018
-21.279
-23.017
-23.251
-19.435
-9.401
8.952
38.03
79.211
132.278
195.878
267.496
343.597
420.075
492.294
554.906
602.56
631.307
638.686
622.833
584.908
529.586
459.926
379.137
289.984
190.974
88.22
-5.207
-78.238
-118.765
-126.017
-111.951
-87.773
-65.132
-49.432
-37.993
-29.435
-22.437
-17.056
-15.813
-18.86
-25.062
-32.851
-39.617
-44.052
-46.012
-45.505
-43.078
-39.382
-34.885
-30.259
-26.241
-23.179
-21.177
-20.185
-19.947
-20.248
-20.925
-21.77
-22.585
-23.222
-23.546
-23.437
-22.824
-21.648
-19.861
-17.445
-14.394
-10.711
-6.422
-1.581
3.753
9.514
15.644
22.093
28.807
35.722
42.765
49.856
56.932
63.944
70.854
77.633
84.254
90.697
96.955
103.035
108.943
114.681
120.247
125.638
130.853
135.898
140.781
145.51
150.089
154.522
158.814
162.968
166.989
170.88
174.639
178.265
181.757
185.119
188.353
191.462
194.451
197.321
200.075
202.717
205.25
207.673
209.988
212.194
214.291
216.278
218.155
219.92
221.571
223.108
224.528
225.83
227.012
228.073
229.01
229.822
230.507
231.066
231.498
231.804
231.985
232.042
231.98
231.8
231.507
231.106
230.601
229.999
229.305
228.529
227.676
226.756
225.777
224.748
223.679
222.581
221.463
220.336
219.209
218.094
216.999
215.933
214.906
213.925
212.997
212.129
211.326
210.592
209.931
209.345
208.834
208.399
208.038
207.748
207.526
207.366
207.263
207.209
207.197
207.218
207.262
207.32
207.38
207.432
207.464
207.464
207.42
207.321
207.155
206.909
206.573
206.135
205.587
204.92
204.124
203.193
202.123
200.907
199.546
198.037
196.38
194.577
192.631
190.547
188.332
185.992
183.536
180.974
178.316
175.574
172.76
169.889
166.972
164.023
161.057
158.088
155.132
152.2
149.307
146.465
143.687
140.985
138.369
135.85
133.434
131.128
128.937
126.866
124.915
123.08
121.357
119.739
118.218
116.785
115.426
114.128
112.876
111.658
110.459
109.266
108.058
106.818
105.523
104.156
102.694
101.119
99.407
97.538
95.499
93.279
90.866
88.247
85.402
82.305
78.941
75.299
71.37
67.149
62.638
57.85
52.813
47.573
42.169
36.635
30.992
25.259
19.468
13.667
7.91
2.248
-3.285
-8.661
-13.843
-18.801
-23.536
-28.102
-32.584
-37.092
-41.692
-46.403
-51.261
-56.321
-61.658
-67.378
-73.575
-80.266
-87.509
-95.414
-103.958
-113.007
-122.225
-130.987
-138.752
-145.128
-149.631
-151.891
-151.93
-150.018
-146.915
-143.842
-141.576
-140.67
-141.958
-145.726
-151.454
-158.004
-163.146
-164.207
-159.392
-146.785
-123.633
-87.947
-38.851
22.006
89.648
159.206
227.998
296.634
366.329
434.397
492.028
524.291
518.682
469.451
380.445
265.703
137.854
10.475
-103.801
-199.152
-266.509
-303.978
-319.291
-317.644
-308.433
-297.605
-282.716
-264.904
-245.989
-227.746
-214.77
-208.988
-209.499
-214.997
-223.467
-232.65
-240.825
-246.996
-250.643
-251.896
-251.416
-249.835
-247.711
-245.758
-244.654
-244.753
-246.199
-248.896
-252.532
-256.865
-261.707
-266.845
-272.084
-277.264
-282.228
-286.828
-290.994
-294.664
-297.788
-300.347
-302.312
-303.661
-304.411
-304.605
-304.288
-303.507
-302.3
-300.692
-298.722
-296.441
-293.908
-291.19
-288.333
-285.367
-282.316
-279.199
-276.031
-272.825
-269.579
-266.277
-262.91
-259.476
-255.974
-252.412
-248.79
-245.102
-241.346
-237.52
-233.625
-229.665
-225.644
-221.565
-217.434
-213.259
-209.051
-204.823
-200.584
-196.342
-192.105
-187.879
-183.671
-179.489
-175.339
-171.226
-167.156
-163.137
-159.174
-155.274
-151.444
-147.688
-144.011
-140.417
-136.91
-133.495
-130.173
-126.946
-123.817
-120.787
-117.858
-115.031
-112.305
-109.68
-107.156
-104.731
-102.403
-100.17
-98.03
-95.979
-94.013
-92.129
-90.324
-88.593
-86.932
-85.337
-83.802
-82.324
-80.898
-79.519
-78.182
-76.883
-75.618
-74.382
-73.172
-71.984
-70.814
-69.66
-68.52
-67.392
-66.274
-65.165
-64.064
-62.97
-61.885
-60.807
-59.737
-58.677
-57.626
-56.585
-55.557
-54.542
-53.542
-52.559
-51.594
-50.648
-49.723
-48.82
-47.94
-47.083
-46.249
-45.439
-44.652
-43.888
-43.145
-42.422
-41.718
-41.03
-40.355
-39.691
-39.033
-38.377
-37.717
-37.048
-36.364
-35.657
-34.923
-34.153
-33.342
-32.482
-31.566
-30.586
-29.536
-28.41
-27.199
-25.897
-24.497
-22.994
-21.383
-19.66
-17.822
-15.865
-13.788
-11.59
-9.27
-6.831
-4.273
-1.599
1.188
4.082
7.077
10.165
13.338
16.584
19.891
23.245
26.629
30.027
33.421
36.794
40.126
43.398
46.591
49.689
52.675
55.531
58.239
60.779
63.133
65.283
67.209
68.892
70.315
71.46
72.318
72.885
73.154
73.117
72.763
72.073
71.037
69.654
67.917
65.827
63.392
60.628
57.578
54.303
50.858
47.292
43.644
39.937
36.209
32.51
28.887
25.395
22.068
18.926
16.007
13.347
10.949
8.777
6.721
4.626
2.369
-0.136
-2.945
-6.101
-9.697
-13.835
-18.585
-24.009
-30.103
-36.869
-44.437
-52.816
-61.772
-70.903
-79.565
-86.996
-92.678
-96.263
-97.295
-95.73
-92.062
-86.917
-81.283
-76.648
-74.243
-74.353
-77.138
-80.866
-81.316
-76.502
-65.376
-48.085
-28.199
-4.773
28.358
78.668
153.603
252.968
365.572
472.946
557.534
607.56
619.561
600.331
556.599
493.684
417.446
328.628
230.529
129.678
31.209
-57.081
-128.809
-181.611
-214.556
-228.976
-228.119
-215.692
-195.693
-172.882
-151.638
-134.636
-123.295
-117.949
-117.832
-121.756
-128.379
-135.76
-141.969
-146.061
-147.758
-147.275
-145.257
-142.292
-138.888
-135.758
-133.612
-132.794
-133.387
-135.252
-138.079
-141.637
-145.758
-150.216
-154.775
-159.224
-163.362
-167.062
-170.272
-172.94
-175.025
-176.504
-177.353
-177.582
-177.233
-176.357
-175.004
-173.221
-171.045
-168.526
-165.724
-162.712
-159.57
-156.358
-153.116
-149.874
-146.656
-143.478
-140.355
-137.286
-134.255
-131.251
-128.266
-125.296
-122.343
-119.404
-116.471
-113.534
-110.584
-107.616
-104.629
-101.62
-98.587
-95.53
-92.451
-89.356
-86.252
-83.145
-80.039
-76.936
-73.839
-70.751
-67.674
-64.612
-61.567
-58.541
-55.539
-52.567
-49.63
-46.734
-43.887
-41.092
-38.359
-35.692
-33.099
-30.588
-28.163
-25.833
-23.604
-21.483
-19.477
-17.593
-15.835
-14.209
-12.722
-11.375
-10.174
-9.12
-8.215
-7.459
-6.853
-6.395
-6.084
-5.918
-5.893
-6.006
-6.254
-6.63
-7.13
-7.747
-8.472
-9.298
-10.216
-11.218
-12.292
-13.43
-14.62
-15.853
-17.118
-18.405
-19.702
-20.999
-22.285
-23.548
-24.78
-25.968
-27.105
-28.18
-29.186
-30.114
-30.959
-31.714
-32.375
-32.936
-33.395
-33.747
-33.991
-34.124
-34.145
-34.053
-33.847
-33.528
-33.098
-32.556
-31.906
-31.151
-30.292
-29.332
-28.274
-27.122
-25.879
-24.548
-23.131
-21.631
-20.052
-18.397
-16.67
-14.873
-13.009
-11.081
-9.09
-7.038
-4.927
-2.758
-0.529
1.758
4.103
6.506
8.966
11.482
14.056
16.685
19.37
22.108
24.898
27.739
30.63
33.568
36.551
39.574
42.634
45.724
48.841
51.975
55.115
58.252
61.373
64.467
67.522
70.523
73.458
76.313
79.078
81.742
84.294
86.72
89.002
91.126
93.078
94.845
96.412
97.765
98.894
99.791
100.457
100.89
101.083
101.026
100.7
100.091
99.195
98.008
96.53
94.773
92.753
90.501
88.068
85.496
82.823
80.079
77.285
74.472
71.684
68.969
66.377
63.95
61.718
59.719
57.979
56.474
55.162
53.965
52.787
51.578
50.29
48.839
47.155
45.142
42.683
39.731
36.211
31.965
26.991
21.394
15.419
9.659
4.701
0.942
-1.077
-0.824
1.711
6.307
12.288
18.134
22.599
24.889
23.97
19.231
11.234
1.133
-8.952
-15.458
-15.175
-5.361
17.168
54.695
107.586
175.029
254.651
341.83
431.367
517.627
593.756
653.387
691.996
706.133
693.596
654.762
592.014
509.445
413.36
310.739
207.759
110.731
26.331
-40.393
-86.851
-112.524
-119.161
-109.608
-86.616
-54.046
-17.526
17.458
47.301
70.005
85.02
92.4
91.933
84.397
72.404
59.21
46.971
36.754
28.849
23.34
20.798
21.39
24.16
27.525
30.348
32.141
32.895
32.775
31.598
29.221
25.934
22.335
18.978
16.168
13.952
12.233
11.02
10.38
10.315
10.76
11.607
12.763
14.193
15.906
17.904
20.153
22.596
25.162
27.78
30.406
33.009
35.568
38.067
40.49
42.821
45.053
47.193
49.245
51.21
53.084
54.857
56.525
58.097
59.583
60.996
62.342
63.623
64.84
65.995
67.09
68.125
69.097
70.001
70.832
71.589
72.271
72.879
73.41
73.862
74.232
74.517
74.714
74.82
74.831
74.742
74.547
74.244
73.829
73.297
72.645
71.869
70.965
69.928
68.755
67.443
65.988
64.384
62.63
60.722
58.658
56.436
54.055
51.515
48.816
45.96
42.951
39.79
36.484
33.037
29.456
25.747
21.919
17.98
13.939
9.808
5.595
1.314
-3.025
-7.409
-11.826
-16.264
-20.71
-25.152
-29.576
-33.969
-38.319
-42.612
-46.837
-50.979
-55.027
-58.969
-62.792
-66.485
-70.038
-73.441
-76.684
-79.757
-82.654
-85.367
-87.889
-90.214
-92.338
-94.256
-95.964
-97.459
-98.74
-99.803
-100.648
-101.273
-101.677
-101.859
-101.821
-101.561
-101.081
-100.381
-99.462
-98.325
-96.972
-95.405
-93.625
-91.634
-89.434
-87.027
-84.417
-81.606
-78.598
-75.395
-72.002
-68.424
-64.664
-60.727
-56.617
-52.339
-47.899
-43.303
-38.557
-33.668
-28.644
-23.492
-18.223
-12.848
-7.379
-1.826
3.797
9.476
15.196
20.941
26.695
32.44
38.159
43.83
49.43
54.936
60.324
65.573
70.658
75.554
80.238
84.688
88.885
92.811
96.447
99.771
102.761
105.397
107.661
109.535
111.003
112.049
112.662
112.835
112.571
111.868
110.724
109.129
107.072
104.547
101.559
98.114
94.221
89.904
85.19
80.122
74.76
69.157
63.356
57.396
51.308
45.136
38.942
32.782
26.722
20.816
15.104
9.636
4.448
-0.477
-5.169
-9.69
-14.127
-18.515
-22.893
-27.332
-31.878
-36.625
-41.673
-47.06
-52.875
-59.236
-66.112
-73.414
-80.903
-88.069
-94.513
-99.937
-103.867
-105.99
-106.335
-105.07
-102.856
-100.728
-99.204
-98.615
-99.48
-101.838
-105.232
-108.801
-110.69
-108.646
-101.267
-87.373
-65.353
-34.015
7.405
59.299
118.716
180.272
240.681
296.529
348.924
404.554
462.609
518.568
560.946
567.602
527.247
436.997
303.245
150.412
1.5
-122.368
-204.177
-243.951
-250.063
-237.32
-220.871
-206.628
-194.328
-179.144
-158.452
-134.841
-112.311
-95.424
-86.164
-83.422
-85.538
-90.68
-96.885
-102.615
-106.956
-109.446
-110.221
-109.832
-108.77
-107.451
-106.432
-106.258
-107.182
-109.246
-112.263
-115.892
-119.855
-123.934
-127.901
-131.536
-134.695
-137.283
-139.266
-140.668
-141.502
-141.776
-141.509
-140.724
-139.454
-137.749
-135.661
-133.235
-130.53
-127.602
-124.509
-121.314
-118.065
-114.792
-111.52
-108.262
-105.026
-101.819
-98.641
-95.488
-92.356
-89.24
-86.134
-83.037
-79.945
-76.849
-73.742
-70.613
-67.456
-64.266
-61.042
-57.782
-54.487
-51.157
-47.794
-44.405
-40.994
-37.562
-34.113
-30.649
-27.172
-23.687
-20.199
-16.711
-13.23
-9.761
-6.312
-2.891
0.495
3.839
7.132
10.367
13.536
16.631
19.643
22.566
25.39
28.108
30.713
33.196
35.551
37.771
39.851
41.784
43.567
45.196
46.668
47.981
49.134
50.128
50.963
51.642
52.168
52.544
52.775
52.867
52.826
52.66
52.375
51.979
51.481
50.89
50.213
49.461
48.642
47.764
46.838
45.871
44.873
43.852
42.817
41.774
40.731
39.695
38.671
37.667
36.685
35.732
34.809
33.92
33.067
32.25
31.471
30.727
30.017
29.339
28.691
28.069
27.47
26.889
26.323
25.769
25.221
24.678
24.136
23.59
23.039
22.481
21.914
21.337
20.749
20.15
19.539
18.919
18.29
17.654
17.012
16.368
15.725
15.084
14.452
13.831
13.226
12.642
12.084
11.558
11.07
10.627
10.233
9.895
9.618
9.407
9.267
9.202
9.214
9.305
9.476
9.726
10.054
10.454
10.918
11.44
12.01
12.618
13.253
13.903
14.555
15.201
15.829
16.431
16.993
17.501
17.942
18.3
18.56
18.709
18.728
18.603
18.323
17.884
17.277
16.493
15.517
14.328
12.909
11.25
9.343
7.185
4.777
2.138
-0.703
-3.697
-6.797
-9.964
-13.172
-16.399
-19.616
-22.783
-25.851
-28.775
-31.528
-34.086
-36.42
-38.507
-40.358
-42.036
-43.639
-45.295
-47.093
-49.072
-51.284
-53.791
-56.664
-60.015
-63.924
-68.4
-73.493
-79.297
-85.797
-92.885
-100.198
-107.054
-112.825
-117.029
-119.158
-118.895
-116.239
-111.398
-105.254
-99.285
-94.638
-92.271
-93.007
-96.804
-102.935
-110.208
-116.061
-117.076
-110.49
-93.665
-63.92
-20.103
37.541
108.158
187.137
266.876
343.146
411.958
470.554
521.823
560.762
577.725
567.705
521.362
439.487
334.287
213.311
92.185
-13.599
-97.532
-149.203
-169.367
-169.142
-155.68
-140.23
-128.094
-115.622
-103.528
-91.978
-81.495
-76.283
-77.301
-82.982
-92.151
-102.451
-111.415
-118.209
-122.378
-123.619
-122.515
-119.808
-116.042
-112.013
-108.542
-105.97
-104.479
-104.14
-104.732
-106.084
-108.072
-110.486
-113.157
-115.965
-118.796
-121.558
-124.154
-126.471
-128.417
-129.931
-130.972
-131.533
-131.607
-131.199
-130.347
-129.09
-127.474
-125.54
-123.313
-120.828
-118.136
-115.295
-112.379
-109.448
-106.541
-103.693
-100.93
-98.266
-95.716
-93.276
-90.932
-88.672
-86.489
-84.379
-82.342
-80.376
-78.471
-76.616
-74.801
-73.017
-71.259
-69.52
-67.792
-66.07
-64.353
-62.639
-60.933
-59.233
-57.538
-55.845
-54.151
-52.455
-50.753
-49.044
-47.323
-45.59
-43.843
-42.083
-40.31
-38.526
-36.732
-34.93
-33.123
-31.313
-29.504
-27.698
-25.899
-24.111
-22.339
-20.586
-18.858
-17.158
-15.492
-13.863
-12.275
-10.733
-9.238
-7.793
-6.4
-5.061
-3.776
-2.548
-1.374
-0.256
0.807
1.817
2.775
3.682
4.542
5.358
6.132
6.87
7.575
8.251
8.902
9.533
10.147
10.749
11.344
11.934
12.523
13.117
13.718
14.33
14.955
15.596
16.255
16.933
17.63
18.347
19.083
19.836
20.606
21.389
22.183
22.986
23.792
24.599
25.401
26.195
26.974
27.734
28.47
29.177
29.85
30.485
31.079
31.63
32.134
32.591
33.001
33.361
33.673
33.937
34.156
34.332
34.468
34.57
34.641
34.688
34.719
34.741
34.762
34.791
34.837
34.91
35.021
35.179
35.396
35.68
36.045
36.499
37.056
37.724
38.513
39.431
40.487
41.685
43.029
44.52
46.156
47.934
49.851
51.899
54.075
56.369
58.774
61.282
63.885
66.573
69.33
72.138
74.979
77.836
80.69
83.524
86.32
89.054
91.711
94.28
96.742
99.074
101.244
103.21
104.94
106.414
107.611
108.523
109.143
109.467
109.511
109.305
108.877
108.253
107.447
106.463
105.334
104.109
102.85
101.631
100.494
99.455
98.527
97.71
96.982
96.302
95.588
94.737
93.655
92.257
90.464
88.177
85.253
81.563
76.908
71.075
64.07
56.035
47.251
38.186
29.171
20.463
12.567
5.946
0.625
-3.686
-7.818
-12.814
-18.888
-25.922
-33.99
-42.836
-51.885
-60.026
-64.915
-64.117
-56.627
-41.811
-18.843
12.626
52.986
102.218
158.536
219.644
284.632
351.019
413.749
470.077
517.705
555.98
589.652
616.168
625.432
608.593
555.675
468.461
361.997
250.045
146.119
57.202
-17.782
-77.783
-122.529
-152.185
-165.143
-162.814
-148.123
-123.971
-95.591
-68.467
-45.728
-29.028
-18.977
-15.049
-16.852
-24.323
-35.665
-47.944
-59.453
-69.343
-77.271
-83.639
-88.435
-91.084
-92.116
-92.926
-94.313
-96.756
-100.366
-104.723
-109.746
-115.714
-122.441
-129.401
-136.182
-142.406
-147.928
-152.88
-157.271
-161.004
-164.071
-166.496
-168.344
-169.73
-170.706
-171.27
-171.437
-171.235
-170.715
-169.952
-169.019
-167.962
-166.812
-165.59
-164.311
-162.988
-161.634
-160.255
-158.843
-157.392
-155.9
-154.369
-152.804
-151.211
-149.586
-147.918
-146.199
-144.424
-142.59
-140.701
-138.755
-136.752
-134.695
-132.587
-130.434
-128.242
-126.013
-123.748
-121.448
-119.114
-116.751
-114.361
-111.947
-109.514
-107.067
-104.61
-102.151
-99.695
-97.249
-94.818
-92.409
-90.028
-87.682
-85.378
-83.122
-80.921
-78.783
-76.715
-74.723
-72.817
-71
-69.281
-67.664
-66.155
-64.758
-63.477
-62.315
-61.273
-60.355
-59.56
-58.888
-58.338
-57.909
-57.596
-57.397
-57.307
-57.319
-57.428
-57.628
-57.911
-58.269
-58.696
-59.184
-59.725
-60.31
-60.931
-61.58
-62.246
-62.922
-63.598
-64.264
-64.912
-65.535
-66.126
-66.678
-67.185
-67.643
-68.048
-68.395
-68.683
-68.909
-69.073
-69.174
-69.214
-69.194
-69.118
-68.99
-68.815
-68.597
-68.34
-68.051
-67.733
-67.391
-67.028
-66.648
-66.252
-65.844
-65.428
-65.007
-64.587
-64.172
-63.767
-63.378
-63.011
-62.67
-62.355
-62.065
-61.795
-61.541
-61.297
-61.054
-60.806
-60.547
-60.269
-59.969
-59.642
-59.284
-58.883
-58.425
-57.889
-57.26
-56.528
-55.691
-54.751
-53.721
-52.623
-51.482
-50.326
-49.175
-48.035
-46.899
-45.742
-44.543
-43.273
-41.921
-40.493
-38.993
-37.421
-35.769
-34.02
-32.134
-30.058
-27.73
-25.072
-22.039
-18.613
-14.817
-10.718
-6.406
-1.988
2.449
6.852
11.172
15.365
19.38
23.159
26.621
29.671
32.197
34.065
35.173
35.471
34.973
33.762
31.973
29.766
27.271
24.595
21.826
19.046
16.335
13.761
11.402
9.34
7.683
6.564
6.085
6.277
7.084
8.39
10.023
11.818
13.654
15.404
16.949
18.165
18.928
19.16
18.849
17.949
16.339
14.002
11.049
7.839
5.019
3.219
2.943
4.582
8.41
14.351
22.068
30.813
39.31
46.317
50.735
52.003
50.372
46.912
43.241
41.553
44.57
54.93
75.804
109.726
157.164
217.328
287.067
360.669
433.939
503.284
565.629
621.208
666.008
692.786
692.762
654.034
574.161
458.768
322.671
190.491
79.502
1.603
-41.663
-62.661
-70.744
-73.807
-75.457
-70.97
-59.001
-41.203
-20.767
-3.458
7.798
12.863
12.497
8.551
2.629
-3.783
-8.971
-11.936
-12.395
-10.607
-7.208
-2.781
2.181
7.093
11.324
14.499
16.513
17.482
17.678
17.321
16.567
15.571
14.493
13.469
12.633
12.119
11.993
12.297
13.069
14.312
16.04
18.261
20.947
24.043
27.491
31.235
35.229
39.447
43.847
48.374
52.967
57.552
62.08
66.517
70.839
75.026
79.063
82.937
86.653
90.232
93.686
97.026
100.255
103.374
106.389
109.311
112.153
114.923
117.63
120.278
122.874
125.424
127.932
130.398
132.822
135.198
137.525
139.802
142.027
144.2
146.318
148.379
150.38
152.319
154.192
155.995
157.722
159.365
160.919
162.377
163.732
164.976
166.103
167.103
167.971
168.701
169.284
169.715
169.986
170.094
170.031
169.795
169.381
168.785
168.006
167.042
165.893
164.559
163.044
161.348
159.476
157.433
155.223
152.853
150.329
147.66
144.852
141.916
138.861
135.697
132.436
129.087
125.664
122.177
118.638
115.058
111.45
107.823
104.19
100.559
96.942
93.348
89.786
86.264
82.791
79.374
76.019
72.731
69.516
66.376
63.314
60.334
57.435
54.619
51.886
49.236
46.668
44.181
41.772
39.44
37.183
34.998
32.881
30.83
28.841
26.912
25.039
23.221
21.454
19.736
18.066
16.443
14.866
13.334
11.847
10.403
9.005
7.653
6.35
5.095
3.893
2.745
1.655
0.627
-0.336
-1.229
-2.051
-2.796
-3.462
-4.045
-4.542
-4.951
-5.271
-5.499
-5.636
-5.68
-5.633
-5.495
-5.271
-4.962
-4.575
-4.114
-3.589
-3.012
-2.392
-1.741
-1.072
-0.399
0.266
0.907
1.515
2.078
2.583
3.017
3.363
3.603
3.724
3.711
3.549
3.224
2.723
2.037
1.164
0.102
-1.155
-2.62
-4.313
-6.249
-8.431
-10.86
-13.536
-16.448
-19.582
-22.908
-26.376
-29.941
-33.564
-37.215
-40.879
-44.527
-48.111
-51.574
-54.853
-57.904
-60.705
-63.228
-65.439
-67.344
-68.978
-70.413
-71.76
-73.077
-74.406
-75.812
-77.35
-79.113
-81.224
-83.765
-86.841
-90.602
-95.044
-100.055
-105.426
-110.678
-115.324
-119.007
-121.2
-121.359
-119.428
-115.68
-110.801
-106.005
-102.217
-99.882
-99.648
-102.204
-107.351
-114.079
-120.391
-123.352
-120.504
-110.064
-90.02
-58.071
-12.927
45.284
114.844
192.367
274.07
356.115
434.003
501.937
554.086
585.838
593.729
577.539
540.195
484.872
414.254
328.488
226.3
110.816
-7.346
-109.562
-177.65
-203.47
-191.571
-159.081
-124.095
-96.751
-79.679
-68.426
-58.673
-50.014
-43.927
-42.886
-47.249
-55.256
-64.539
-72.608
-78.37
-81.746
-82.851
-82.212
-80.458
-78.142
-76.017
-74.8
-74.772
-75.993
-78.376
-81.663
-85.663
-90.223
-95.115
-100.129
-105.101
-109.874
-114.366
-118.538
-122.338
-125.731
-128.7
-131.232
-133.34
-135.061
-136.43
-137.493
-138.29
-138.854
-139.225
-139.45
-139.58
-139.682
-139.803
-139.973
-140.219
-140.552
-140.984
-141.521
-142.156
-142.867
-143.637
-144.447
-145.282
-146.133
-146.985
-147.82
-148.62
-149.364
-150.035
-150.62
-151.108
-151.485
-151.74
-151.865
-151.854
-151.706
-151.418
-150.986
-150.406
-149.674
-148.789
-147.751
-146.56
-145.217
-143.723
-142.084
-140.306
-138.397
-136.366
-134.221
-131.974
-129.637
-127.221
-124.74
-122.209
-119.641
-117.051
-114.454
-111.866
-109.3
-106.773
-104.298
-101.89
-99.56
-97.322
-95.187
-93.167
-91.269
-89.502
-87.874
-86.39
-85.055
-83.872
-82.842
-81.967
-81.245
-80.675
-80.252
-79.972
-79.826
-79.808
-79.909
-80.118
-80.424
-80.815
-81.28
-81.804
-82.375
-82.98
-83.604
-84.234
-84.856
-85.456
-86.021
-86.539
-86.999
-87.388
-87.697
-87.917
-88.039
-88.055
-87.961
-87.75
-87.418
-86.963
-86.383
-85.677
-84.847
-83.894
-82.821
-81.633
-80.334
-78.932
-77.431
-75.84
-74.166
-72.416
-70.598
-68.72
-66.791
-64.817
-62.808
-60.769
-58.71
-56.636
-54.555
-52.471
-50.39
-48.315
-46.25
-44.198
-42.16
-40.137
-38.129
-36.136
-34.156
-32.187
-30.225
-28.266
-26.303
-24.332
-22.347
-20.339
-18.303
-16.231
-14.117
-11.955
-9.741
-7.471
-5.143
-2.755
-0.307
2.201
4.766
7.385
10.054
12.77
15.525
18.316
21.135
23.973
26.822
29.67
32.504
35.312
38.078
40.788
43.426
45.973
48.414
50.736
52.925
54.964
56.835
58.512
59.972
61.203
62.195
62.941
63.441
63.697
63.726
63.564
63.246
62.8
62.251
61.603
60.867
60.067
59.234
58.408
57.623
56.886
56.194
55.556
54.968
54.406
53.808
53.044
51.993
50.575
48.746
46.509
43.848
40.695
36.984
32.658
27.675
22.08
15.886
8.997
1.466
-6.488
-14.479
-21.826
-27.941
-32.556
-35.298
-35.695
-33.659
-29.284
-23.122
-16.46
-10.181
-4.649
-0.526
1.637
1.965
0.865
-0.215
1.355
7.38
19.386
39.613
70.056
112.091
165.178
225.749
289.338
353.496
419.939
491.584
566.427
635.389
681.212
687.76
650.288
574.849
477.111
369.775
256.707
139.55
20.363
-88.867
-170.968
-216.189
-224.689
-209.464
-186.777
-166.275
-150.571
-136.283
-121.022
-105.692
-92.639
-85.048
-83.697
-87.079
-93.454
-100.508
-106.236
-109.928
-111.371
-110.714
-108.62
-105.71
-102.472
-99.574
-97.661
-97.009
-97.676
-99.544
-102.288
-105.662
-109.504
-113.582
-117.687
-121.641
-125.247
-128.4
-131.074
-133.233
-134.859
-135.949
-136.484
-136.481
-135.999
-135.088
-133.8
-132.181
-130.258
-128.075
-125.687
-123.154
-120.543
-117.903
-115.259
-112.63
-110.028
-107.457
-104.923
-102.415
-99.905
-97.373
-94.805
-92.187
-89.515
-86.779
-83.962
-81.052
-78.035
-74.903
-71.651
-68.276
-64.773
-61.143
-57.39
-53.52
-49.545
-45.473
-41.315
-37.08
-32.779
-28.424
-24.028
-19.607
-15.173
-10.743
-6.334
-1.965
2.345
6.576
10.709
14.725
18.603
22.323
25.867
29.215
32.349
35.251
37.906
40.296
42.407
44.227
45.742
46.942
47.819
48.365
48.575
48.446
47.976
47.165
46.018
44.536
42.729
40.602
38.166
35.432
32.413
29.121
25.572
21.783
17.769
13.551
9.146
4.574
-0.145
-4.99
-9.941
-14.977
-20.076
-25.22
-30.388
-35.559
-40.716
-45.839
-50.911
-55.914
-60.832
-65.65
-70.354
-74.93
-79.367
-83.655
-87.784
-91.748
-95.538
-99.149
-102.577
-105.818
-108.868
-111.725
-114.387
-116.853
-119.122
-121.196
-123.075
-124.761
-126.256
-127.564
-128.688
-129.631
-130.397
-130.991
-131.416
-131.675
-131.774
-131.716
-131.507
-131.151
-130.653
-130.017
-129.248
-128.352
-127.333
-126.194
-124.94
-123.574
-122.101
-120.524
-118.85
-117.082
-115.225
-113.288
-111.276
-109.198
-107.061
-104.873
-102.643
-100.379
-98.09
-95.785
-93.474
-91.166
-88.87
-86.599
-84.365
-82.183
-80.067
-78.03
-76.088
-74.254
-72.542
-70.964
-69.532
-68.252
-67.134
-66.187
-65.418
-64.839
-64.458
-64.284
-64.327
-64.593
-65.084
-65.801
-66.738
-67.888
-69.245
-70.803
-72.555
-74.505
-76.655
-79.004
-81.548
-84.274
-87.153
-90.153
-93.23
-96.33
-99.408
-102.416
-105.302
-108.023
-110.531
-112.791
-114.777
-116.441
-117.727
-118.591
-118.993
-118.935
-118.47
-117.638
-116.497
-115.119
-113.547
-111.868
-110.194
-108.628
-107.289
-106.261
-105.555
-105.247
-105.469
-106.213
-107.369
-108.619
-109.367
-109.079
-107.361
-103.863
-98.361
-90.969
-81.979
-72.038
-62.309
-53.993
-48.183
-45.467
-45.602
-47.389
-49.21
-49.234
-44.874
-33.059
-10.383
25.856
75.328
134.735
200.636
270.54
345.346
427.416
513.239
592.958
650.273
668.656
641.621
574.5
483.305
385.254
291.625
206.966
129.461
59.032
-0.952
-46.945
-75.12
-84.415
-77.146
-56.543
-26.638
7.289
40.25
69.035
91.633
107.086
115.155
115.709
109.422
98.687
86.65
75.307
65.701
58.235
53.042
50.666
51.289
53.998
57.219
59.841
61.363
61.729
61.09
59.263
56.1
51.887
47.216
42.64
38.464
34.765
31.469
28.603
26.258
24.452
23.146
22.259
21.729
21.539
21.712
22.265
23.173
24.395
25.869
27.534
29.352
31.3
33.361
35.526
37.786
40.129
42.552
45.064
47.667
50.363
53.148
56.011
58.948
61.961
65.059
68.248
71.529
74.899
78.348
81.869
85.453
89.089
92.762
96.453
100.145
103.822
107.471
111.077
114.627
118.102
121.488
124.767
127.926
130.947
133.815
136.514
139.028
141.344
143.448
145.329
146.973
148.371
149.512
150.387
150.987
151.306
151.337
151.075
150.517
149.659
148.503
147.048
145.297
143.256
140.93
138.328
135.46
132.337
128.972
125.38
121.576
117.577
113.4
109.062
104.582
99.979
95.271
90.476
85.613
80.7
75.755
70.795
65.84
60.905
56.007
51.162
46.387
41.695
37.101
32.618
28.257
24.028
19.94
16.002
12.221
8.601
5.146
1.857
-1.264
-4.219
-7.01
-9.644
-12.125
-14.46
-16.656
-18.72
-20.659
-22.48
-24.187
-25.786
-27.281
-28.675
-29.973
-31.181
-32.303
-33.344
-34.31
-35.208
-36.045
-36.826
-37.552
-38.223
-38.838
-39.394
-39.887
-40.312
-40.662
-40.925
-41.097
-41.173
-41.148
-41.012
-40.751
-40.343
-39.773
-39.036
-38.126
-37.045
-35.798
-34.387
-32.834
-31.179
-29.457
-27.702
-25.932
-24.139
-22.323
-20.485
-18.626
-16.755
-14.855
-12.878
-10.791
-8.571
-6.189
-3.622
-0.814
2.335
5.899
9.931
14.449
19.413
24.79
30.556
36.654
43.01
49.501
55.941
62.188
68.144
73.699
78.765
83.208
86.842
89.546
91.254
91.934
91.607
90.282
87.945
84.652
80.507
75.677
70.404
64.869
59.176
53.435
47.749
42.242
37.063
32.252
27.763
23.548
19.573
15.865
12.468
9.335
6.355
3.356
0.136
-3.414
-7.384
-11.894
-16.942
-22.413
-28.03
-33.256
-37.586
-40.656
-42.041
-41.428
-38.859
-34.667
-29.635
-24.697
-20.324
-16.787
-14.528
-13.848
-14.512
-15.394
-14.321
-9.309
0.675
16.791
40.699
74.016
118.098
171.479
229.311
289.409
351.481
416.14
486.919
558.556
618.325
655.348
656.933
620.903
558.114
478.574
394.142
312.41
232.413
155.243
83.408
20.382
-28.329
-60.241
-75.679
-76.676
-67.102
-50.594
-30.746
-10.882
7.2
22.354
33.578
40.512
43.525
43.248
40.754
36.863
31.336
24.008
15.376
6.258
-2.796
-11.555
-20.082
-28.31
-35.493
-41.053
-45.136
-48.387
-51.372
-54.33
-57.219
-59.945
-62.767
-65.934
-69.341
-72.628
-75.425
-77.541
-78.987
-79.877
-80.229
-80.014
-79.27
-78.087
-76.593
-74.893
-73.042
-71.055
-68.945
-66.739
-64.477
-62.198
-59.929
-57.687
-55.476
-53.298
-51.157
-49.064
-47.028
-45.058
-43.159
-41.333
-39.582
-37.911
-36.323
-34.823
-33.41
-32.079
-30.826
-29.651
-28.556
-27.548
-26.627
-25.794
-25.046
-24.381
-23.797
-23.29
-22.858
-22.494
-22.192
-21.949
-21.762
-21.629
-21.546
-21.512
-21.522
-21.572
-21.66
-21.781
-21.933
-22.111
-22.313
-22.536
-22.778
-23.039
-23.319
-23.616
-23.933
-24.268
-24.622
-24.997
-25.391
-25.804
-26.237
-26.69
-27.162
-27.654
-28.168
-28.703
-29.26
-29.842
-30.449
-31.082
-31.742
-32.429
-33.146
-33.893
-34.673
-35.488
-36.342
-37.238
-38.18
-39.174
-40.222
-41.329
-42.499
-43.733
-45.034
-46.405
-47.848
-49.364
-50.955
-52.623
-54.37
-56.2
-58.115
-60.116
-62.206
-64.384
-66.654
-69.015
-71.469
-74.014
-76.65
-79.378
-82.198
-85.108
-88.107
-91.19
-94.353
-97.591
-100.895
-104.256
-107.661
-111.097
-114.553
-118.016
-121.474
-124.916
-128.329
-131.703
-135.032
-138.305
-141.514
-144.645
-147.683
-150.613
-153.42
-156.087
-158.598
-160.933
-163.074
-165.006
-166.721
-168.21
-169.458
-170.451
-171.161
-171.576
-171.691
-171.505
-171.025
-170.261
-169.225
-167.951
-166.492
-164.897
-163.211
-161.46
-159.641
-157.762
-155.83
-153.85
-151.836
-149.777
-147.631
-145.373
-142.985
-140.435
-137.697
-134.701
-131.335
-127.512
-123.167
-118.278
-112.884
-107.023
-100.737
-94.1
-87.196
-80.145
-73.125
-66.271
-59.686
-53.495
-47.8
-42.748
-38.551
-35.371
-33.316
-32.448
-32.736
-34.128
-36.577
-39.977
-44.187
-49.032
-54.263
-59.679
-65.134
-70.471
-75.566
-80.269
-84.359
-87.673
-90.127
-91.684
-92.416
-92.415
-91.735
-90.472
-88.743
-86.7
-84.575
-82.549
-80.749
-79.276
-78.151
-77.465
-77.41
-77.99
-79.022
-80.123
-80.624
-79.969
-77.815
-73.68
-67.136
-58.104
-46.719
-33.759
-20.559
-8.127
2.609
10.775
16.22
19.416
21.419
24.498
31.323
44.386
66.906
101.794
150.568
212.367
283.266
358.256
433.864
510.748
590.273
669.48
738.76
780.914
781.002
732.663
640.5
519.968
385.545
252.156
132.646
33.15
-38.284
-82.539
-106.282
-111.111
-101.062
-73.857
-28.307
25.001
74.686
106.495
114.392
106.23
89.697
74.376
64.213
54.411
43.521
30.518
15.506
2.698
-5.678
-9.623
-9.338
-6.557
-3.439
-0.755
1.149
1.844
1.214
-0.792
-4.235
-8.732
-13.538
-18.225
-22.546
-26.31
-29.545
-32.227
-34.272
-35.708
-36.617
-37.051
-37.069
-36.694
-35.9
-34.69
-33.09
-31.139
-28.906
-26.457
-23.859
-21.17
-18.423
-15.653
-12.887
-10.147
-7.455
-4.82
-2.237
0.294
2.765
5.17
7.499
9.752
11.944
14.084
16.18
18.238
20.259
22.245
24.201
26.13
28.03
29.899
31.732
33.527
35.284
37.004
38.687
40.333
41.938
43.502
45.024
46.503
47.935
49.317
50.644
51.913
53.119
54.259
55.327
56.319
57.23
58.054
58.786
59.42
59.952
60.375
60.683
60.872
60.937
60.874
60.679
60.349
59.881
59.275
58.53
57.646
56.624
55.467
54.176
52.758
51.215
49.553
47.78
45.901
43.927
41.865
39.725
37.518
35.253
32.942
30.597
28.227
25.845
23.462
21.088
18.735
16.413
14.133
11.904
9.736
7.639
5.62
3.688
1.85
0.11
-1.527
-3.056
-4.477
-5.786
-6.984
-8.072
-9.052
-9.926
-10.697
-11.37
-11.95
-12.443
-12.857
-13.198
-13.474
-13.692
-13.861
-13.989
-14.083
-14.15
-14.196
-14.227
-14.248
-14.263
-14.275
-14.285
-14.298
-14.316
-14.342
-14.376
-14.42
-14.471
-14.53
-14.593
-14.653
-14.702
-14.726
-14.716
-14.661
-14.551
-14.374
-14.119
-13.772
-13.323
-12.763
-12.083
-11.268
-10.293
-9.135
-7.778
-6.222
-4.479
-2.553
-0.446
1.836
4.28
6.863
9.569
12.4
15.38
18.535
21.873
25.383
29.032
32.791
36.652
40.627
44.735
48.974
53.339
57.835
62.489
67.347
72.411
77.633
82.909
88.142
93.275
98.277
103.135
107.819
112.267
116.413
120.205
123.616
126.611
129.143
131.128
132.489
133.222
133.396
133.136
132.551
131.693
130.607
129.333
127.944
126.527
125.143
123.811
122.546
121.39
120.38
119.55
118.899
118.332
117.735
116.999
116.022
114.716
112.985
110.725
107.813
104.196
99.831
94.629
88.625
81.929
74.809
67.807
61.475
56.249
52.667
51.304
52.301
55.531
60.412
65.629
70.149
73.288
74.067
71.779
66.68
59.665
52.723
49.027
51.078
61.283
82.845
118.019
167.781
230.745
301.991
377.453
454.67
532.551
612.136
686.506
743.184
770.481
755.987
701.847
620.762
522.824
419.528
313.314
203.372
98.245
8.034
-54.814
-84.999
-90.227
-80.201
-66.39
-54.188
-41.22
-27.967
-14.732
-2.597
4.636
6.33
3.839
-1.902
-8.79
-14.576
-18.457
-20.014
-19.145
-16.557
-12.974
-8.879
-4.972
-2.037
-0.441
-0.352
-1.775
-4.422
-8.039
-12.463
-17.461
-22.789
-28.262
-33.689
-38.884
-43.757
-48.235
-52.242
-55.749
-58.731
-61.169
-63.082
-64.521
-65.527
-66.151
-66.44
-66.427
-66.16
-65.701
-65.119
-64.493
-63.879
-63.313
-62.823
-62.427
-62.139
-61.967
-61.902
-61.923
-62.012
-62.16
-62.362
-62.617
-62.92
-63.258
-63.621
-63.999
-64.387
-64.779
-65.175
-65.57
-65.963
-66.357
-66.759
-67.175
-67.611
-68.071
-68.556
-69.069
-69.613
-70.191
-70.804
-71.453
-72.142
-72.874
-73.654
-74.486
-75.376
-76.326
-77.341
-78.425
-79.583
-80.817
-82.13
-83.524
-85.001
-86.562
-88.208
-89.938
-91.752
-93.647
-95.621
-97.67
-99.79
-101.976
-104.221
-106.518
-108.861
-111.24
-113.647
-116.074
-118.511
-120.949
-123.377
-125.785
-128.163
-130.5
-132.785
-135.006
-137.152
-139.211
-141.172
-143.025
-144.758
-146.362
-147.828
-149.146
-150.31
-151.314
-152.151
-152.817
-153.31
-153.628
-153.769
-153.735
-153.528
-153.15
-152.606
-151.902
-151.043
-150.037
-148.892
-147.618
-146.223
-144.718
-143.112
-141.418
-139.647
-137.81
-135.918
-133.985
-132.021
-130.04
-128.054
-126.074
-124.111
-122.176
-120.28
-118.431
-116.637
-114.905
-113.239
-111.644
-110.122
-108.674
-107.301
-106.001
-104.77
-103.605
-102.5
-101.45
-100.445
-99.477
-98.536
-97.611
-96.69
-95.764
-94.818
-93.841
-92.819
-91.741
-90.594
-89.365
-88.044
-86.615
-85.068
-83.393
-81.578
-79.616
-77.497
-75.217
-72.771
-70.159
-67.382
-64.443
-61.347
-58.1
-54.709
-51.183
-47.534
-43.769
-39.898
-35.936
-31.896
-27.797
-23.658
-19.498
-15.338
-11.203
-7.115
-3.097
0.832
4.662
8.372
11.942
15.347
18.553
21.538
24.287
26.778
28.995
30.932
32.591
34
35.2
36.225
37.097
37.833
38.437
38.94
39.376
39.78
40.182
40.593
41.017
41.48
41.996
42.545
43.069
43.446
43.539
43.25
42.513
41.288
39.531
37.144
34.024
30.086
25.266
19.618
13.163
5.831
-2.297
-11.006
-19.911
-28.284
-35.448
-41.132
-45.089
-47.121
-47.386
-45.912
-43.003
-39.789
-37.275
-35.909
-35.9
-36.729
-37.188
-36.641
-34.127
-27.447
-14.454
6.784
37.823
78.442
127.18
183.107
244.423
307.455
367.994
420.93
460.819
484.271
489.067
472.576
434.015
375.159
298.941
210.458
116.367
22.122
-66.62
-143.135
-203.052
-244.493
-266.603
-270.886
-260.531
-238.215
-208.257
-176.842
-148.029
-124.093
-106.803
-96.281
-92.067
-94.318
-101.321
-109.59
-117.132
-122.956
-126.421
-127.913
-127.526
-124.637
-119.838
-114.75
-110.298
-107.068
-105.28
-104.493
-104.624
-106.009
-108.482
-111.541
-114.798
-117.829
-120.436
-122.736
-124.721
-126.281
-127.399
-128.07
-128.332
-128.295
-128.019
-127.511
-126.789
-125.866
-124.774
-123.574
-122.326
-121.091
-119.908
-118.795
-117.767
-116.83
-115.991
-115.256
-114.615
-114.042
-113.514
-113.013
-112.527
-112.052
-111.573
-111.067
-110.509
-109.88
-109.165
-108.354
-107.437
-106.403
-105.242
-103.949
-102.52
-100.957
-99.259
-97.423
-95.446
-93.326
-91.064
-88.662
-86.122
-83.447
-80.642
-77.714
-74.671
-71.524
-68.284
-64.961
-61.57
-58.123
-54.637
-51.125
-47.605
-44.092
-40.603
-37.154
-33.763
-30.448
-27.224
-24.108
-21.115
-18.261
-15.56
-13.027
-10.673
-8.51
-6.549
-4.8
-3.27
-1.969
-0.9
-0.07
0.519
0.863
0.963
0.819
0.434
-0.188
-1.042
-2.121
-3.418
-4.922
-6.623
-8.511
-10.573
-12.798
-15.172
-17.682
-20.314
-23.055
-25.892
-28.809
-31.795
-34.835
-37.917
-41.028
-44.157
-47.291
-50.419
-53.533
-56.621
-59.675
-62.687
-65.649
-68.554
-71.395
-74.169
-76.868
-79.49
-82.031
-84.488
-86.86
-89.146
-91.346
-93.459
-95.485
-97.427
-99.283
-101.056
-102.746
-104.352
-105.874
-107.312
-108.665
-109.932
-111.113
-112.205
-113.207
-114.117
-114.934
-115.654
-116.276
-116.794
-117.208
-117.512
-117.705
-117.783
-117.743
-117.582
-117.298
-116.89
-116.356
-115.695
-114.906
-113.989
-112.943
-111.768
-110.466
-109.039
-107.49
-105.822
-104.042
-102.158
-100.182
-98.124
-95.997
-93.815
-91.593
-89.346
-87.09
-84.837
-82.6
-80.393
-78.23
-76.128
-74.101
-72.165
-70.338
-68.64
-67.087
-65.694
-64.473
-63.43
-62.569
-61.898
-61.423
-61.153
-61.101
-61.277
-61.689
-62.348
-63.257
-64.404
-65.768
-67.313
-68.994
-70.776
-72.623
-74.503
-76.384
-78.23
-80.016
-81.72
-83.313
-84.763
-86.038
-87.105
-87.952
-88.612
-89.139
-89.606
-90.104
-90.693
-91.425
-92.363
-93.587
-95.171
-97.161
-99.587
-102.439
-105.75
-109.629
-114.045
-118.802
-123.558
-127.838
-131.121
-132.995
-133.14
-131.217
-127.279
-121.746
-115.165
-108.284
-102.297
-98.587
-97.703
-99.851
-103.271
-103.857
-100.111
-91.822
-80.307
-70.29
-60.121
-43.123
-11.232
47.485
134.576
240.928
351.56
443.178
500.199
516.487
493.428
442.59
373.532
293.394
206.414
112.542
14.74
-82.442
-172.487
-247.228
-302.189
-335.557
-347.45
-340.616
-318.1
-283.304
-241.615
-198.429
-157.756
-122.991
-95.983
-77.404
-68.097
-67.916
-74.83
-86.283
-99.869
-113.182
-124.98
-134.564
-140.698
-142.83
-141.39
-137.16
-131.405
-125.561
-120.235
-115.715
-112.517
-110.766
-110.387
-111.227
-112.691
-114.1
-115.152
-115.705
-115.678
-115.147
-114.112
-112.538
-110.536
-108.234
-105.708
-103.012
-100.137
-97.051
-93.774
-90.351
-86.844
-83.31
-79.774
-76.245
-72.728
-69.226
-65.747
-62.297
-58.861
-55.429
-51.995
-48.554
-45.115
-41.68
-38.239
-34.781
-31.29
-27.751
-24.157
-20.504
-16.787
-13.005
-9.157
-5.244
-1.271
2.758
6.843
10.982
15.175
19.42
23.713
28.05
32.426
36.835
41.271
45.726
50.19
54.656
59.116
63.56
67.979
72.364
76.703
80.987
85.204
89.343
93.393
97.341
101.177
104.888
108.463
111.893
115.166
118.273
121.204
123.951
126.506
128.862
131.015
132.959
134.691
136.208
137.509
138.593
139.462
140.117
140.559
140.795
140.827
140.662
140.307
139.768
139.055
138.177
137.143
135.963
134.649
133.211
131.662
130.013
128.276
126.463
124.588
122.662
120.699
118.71
116.709
114.706
112.715
110.745
108.808
106.914
105.071
103.289
101.576
99.94
98.387
96.924
95.556
94.289
93.129
92.077
91.138
90.313
89.606
89.018
88.551
88.205
87.98
87.88
87.904
88.053
88.33
88.733
89.263
89.92
90.705
91.617
92.656
93.821
95.11
96.524
98.06
99.72
101.499
103.398
105.413
107.544
109.787
112.14
114.598
117.158
119.815
122.565
125.402
128.323
131.319
134.385
137.512
140.693
143.918
147.175
150.451
153.729
156.996
160.235
163.43
166.565
169.622
172.586
175.445
178.186
180.795
183.259
185.561
187.688
189.626
191.359
192.874
194.16
195.206
196.008
196.568
196.884
196.951
196.765
196.314
195.592
194.602
193.343
191.822
190.056
188.074
185.92
183.654
181.322
178.965
176.625
174.33
172.13
170.081
168.225
166.603
165.254
164.208
163.503
163.169
163.18
163.466
163.95
164.526
165.137
165.764
166.338
166.786
167.008
166.882
166.343
165.395
163.995
162.051
159.593
156.763
153.945
151.787
150.848
151.503
154.013
158.575
165.109
173.319
182.579
191.753
199.781
205.938
209.952
212.115
213.442
215.308
219.355
227.947
243.521
268.324
303.988
350.771
407.527
472.421
543.01
615.58
685.695
748.21
797.903
831.075
845.419
839.257
811.998
764.949
700.97
624.717
542.081
458.295
378.159
306.693
248.07
204.677
177.254
164.628
164.105
172.957
188.207
206.054
222.929
236.406
245.168
249.137
249.133
245.989
240.664
234.677
229.568
226.284
225.173
225.969
228.056
230.92
234.131
237.142
239.383
240.514
240.418
239.19
237.083
234.317
231.053
227.458
223.706
219.942
216.315
212.976
210.007
207.466
205.404
203.837
202.787
202.275
202.28
202.755
203.651
204.917
206.51
208.405
210.562
212.93
215.45
218.054
220.695
223.342
225.971
228.562
231.099
233.569
235.974
238.329
240.642
242.919
245.158
247.354
249.506
251.62
253.698
255.742
257.75
259.719
261.644
263.524
265.352
267.12
268.819
270.438
271.968
273.4
274.728
275.944
277.042
278.014
278.854
279.556
280.112
280.515
280.756
280.829
280.725
280.437
279.958
279.281
278.398
277.304
275.993
274.46
272.699
270.707
268.479
266.012
263.305
260.354
257.159
253.72
250.034
246.103
241.928
237.508
232.846
227.943
222.799
217.418
211.802
205.954
199.876
193.572
187.045
180.3
173.342
166.176
158.808
151.244
143.49
135.555
127.446
119.169
110.733
102.146
93.414
84.548
75.553
66.438
57.211
47.88
38.453
28.937
19.341
9.674
-0.056
-9.84
-19.668
-29.53
-39.415
-49.314
-59.213
-69.101
-78.965
-88.792
-98.569
-108.281
-117.914
-127.456
-136.89
-146.203
-155.382
-164.413
-173.282
-181.976
-190.481
-198.784
-206.873
-214.733
-222.353
-229.718
-236.815
-243.632
-250.155
-256.372
-262.272
-267.843
-273.073
-277.952
-282.471
-286.622
-290.396
-293.789
-296.794
-299.409
-301.633
-303.465
-304.908
-305.965
-306.641
-306.942
-306.878
-306.458
-305.691
-304.589
-303.165
-301.431
-299.404
-297.097
-294.528
-291.716
-288.683
-285.452
-282.048
-278.496
-274.823
-271.057
-267.226
-263.357
-259.475
-255.604
-251.77
-247.999
-244.319
-240.753
-237.326
-234.058
-230.968
-228.075
-225.393
-222.933
-220.7
-218.698
-216.937
-215.425
-214.181
-213.224
-212.57
-212.224
-212.195
-212.485
-213.092
-214.006
-215.205
-216.652
-218.309
-220.143
-222.123
-224.211
-226.352
-228.486
-230.541
-232.436
-234.112
-235.524
-236.624
-237.384
-237.782
-237.795
-237.456
-236.842
-236.039
-235.16
-234.314
-233.604
-233.209
-233.375
-234.27
-235.922
-238.173
-240.647
-242.975
-244.88
-246.013
-245.873
-244.17
-241.086
-237.341
-234.277
-233.297
-235.265
-240.88
-250.97
-265.714
-284.162
-304.241
-322.471
-334.905
-338.46
-330.246
-307.139
-267.009
-209.338
-135.388
-48.729
45.712
143.141
237.978
323.557
393.534
442.553
466.884
464.968
436.881
383.669
308.466
216.663
114.704
9.412
-92.955
-186.936
-267.555
-330.566
-373.842
-397.773
-404.378
-396.666
-377.714
-350.727
-319.747
-289.323
-263.019
-242.561
-228.421
-220.356
-218.224
-221.97
-230.503
-241.545
-252.801
-263.006
-271.722
-278.968
-284.588
-287.985
-289.108
-288.85
-288.427
-288.632
-289.715
-291.535
-293.945
-297.133
-301.16
-305.686
-310.158
-314.089
-317.247
-319.638
-321.348
-322.357
-322.619
-322.149
-321.034
-319.401
-317.343
-314.895
-312.074
-308.904
-305.445
-301.782
-297.986
-294.104
-290.168
-286.193
-282.192
-278.178
-274.159
-270.134
-266.109
-262.084
-258.063
-254.055
-250.068
-246.106
-242.173
-238.263
-234.372
-230.497
-226.642
-222.812
-219.013
-215.253
-211.538
-207.877
-204.277
-200.743
-197.278
-193.883
-190.559
-187.305
-184.124
-181.016
-177.982
-175.026
-172.148
-169.353
-166.642
-164.017
-161.48
-159.03
-156.671
-154.401
-152.223
-150.136
-148.14
-146.236
-144.424
-142.704
-141.074
-139.533
-138.08
-136.713
-135.427
-134.222
-133.094
-132.038
-131.052
-130.132
-129.273
-128.473
-127.727
-127.03
-126.38
-125.77
-125.196
-124.654
-124.138
-123.642
-123.161
-122.689
-122.221
-121.751
-121.273
-120.782
-120.273
-119.739
-119.176
-118.579
-117.945
-117.268
-116.545
-115.775
-114.955
-114.083
-113.158
-112.181
-111.152
-110.07
-108.937
-107.755
-106.526
-105.252
-103.936
-102.58
-101.189
-99.767
-98.317
-96.843
-95.349
-93.842
-92.324
-90.802
-89.28
-87.763
-86.257
-84.768
-83.3
-81.86
-80.454
-79.085
-77.758
-76.478
-75.249
-74.073
-72.953
-71.891
-70.887
-69.943
-69.06
-68.237
-67.474
-66.769
-66.121
-65.527
-64.984
-64.49
-64.041
-63.632
-63.258
-62.917
-62.603
-62.312
-62.039
-61.779
-61.525
-61.274
-61.02
-60.759
-60.485
-60.194
-59.881
-59.544
-59.181
-58.789
-58.369
-57.92
-57.445
-56.948
-56.433
-55.905
-55.369
-54.832
-54.3
-53.78
-53.276
-52.795
-52.343
-51.928
-51.559
-51.247
-51.002
-50.833
-50.751
-50.768
-50.894
-51.136
-51.494
-51.969
-52.568
-53.301
-54.185
-55.232
-56.439
-57.807
-59.333
-61.007
-62.813
-64.715
-66.657
-68.59
-70.473
-72.279
-73.997
-75.6
-77.043
-78.278
-79.248
-79.918
-80.284
-80.322
-80.005
-79.331
-78.333
-77.109
-75.802
-74.519
-73.315
-72.212
-71.23
-70.435
-69.926
-69.802
-70.147
-70.971
-72.266
-74.102
-76.442
-79.098
-81.726
-83.711
-84.41
-83.411
-80.413
-75.158
-67.788
-58.65
-48.178
-37.272
-26.778
-17.262
-9.171
-2.528
3.622
10.682
19.905
33.023
51.814
77.929
113.131
158.471
213.254
275.74
344.303
416.404
488.541
556.655
615.824
661.228
689.572
698.784
686.882
653.156
600.604
533.537
455.528
372.596
287.032
200.394
122.868
61.153
21.291
9.519
18.548
40.372
68.603
94.142
115.731
133.749
147.107
156.953
162.457
163.132
160.314
155.439
150.752
147.762
146.75
147.66
149.989
153.154
156.729
160.064
162.418
163.436
163.015
161.247
158.438
154.816
150.551
145.886
141.039
136.187
131.506
127.097
122.992
119.232
115.84
112.823
110.203
107.972
106.092
104.52
103.207
102.108
101.187
100.4
99.699
99.028
98.325
97.545
96.664
95.664
94.538
93.284
91.898
90.39
88.784
87.101
85.361
83.578
81.763
79.929
78.098
76.29
74.526
72.82
71.188
69.642
68.194
66.856
65.635
64.537
63.563
62.716
62
61.42
60.978
60.678
60.518
60.498
60.619
60.875
61.263
61.774
62.401
63.132
63.96
64.872
65.858
66.904
67.999
69.129
70.282
71.445
72.602
73.741
74.846
75.904
76.901
77.825
78.663
79.404
80.037
80.553
80.943
81.2
81.317
81.289
81.11
80.779
80.293
79.651
78.855
77.906
76.808
75.567
74.188
72.679
71.049
69.305
67.457
65.515
63.49
61.392
59.233
57.023
54.775
52.501
50.212
47.92
45.636
43.373
41.14
38.947
36.804
34.72
32.703
30.761
28.902
27.131
25.454
23.877
22.404
21.037
19.781
18.635
17.602
16.68
15.871
15.173
14.586
14.107
13.735
13.469
13.306
13.245
13.282
13.415
13.643
13.961
14.368
14.863
15.442
16.103
16.847
17.672
18.578
19.565
20.633
21.781
23.01
24.32
25.713
27.188
28.747
30.39
32.119
33.937
35.844
37.843
39.933
42.115
44.389
46.757
49.216
51.765
54.402
57.122
59.924
62.804
65.756
68.775
71.853
74.982
78.154
81.36
84.588
87.822
91.049
94.253
97.418
100.528
103.565
106.514
109.356
112.08
114.671
117.117
119.403
121.511
123.428
125.137
126.625
127.878
128.882
129.625
130.101
130.311
130.255
129.928
129.324
128.43
127.24
125.751
123.963
121.879
119.511
116.882
114.033
111.019
107.891
104.695
101.465
98.233
95.036
91.924
88.944
86.143
83.555
81.213
79.156
77.415
75.982
74.796
73.767
72.78
71.754
70.648
69.396
67.915
66.116
63.88
61.124
57.84
53.957
49.354
44.029
38.101
31.95
26.269
21.661
18.587
17.553
18.913
22.698
28.691
35.949
42.972
48.586
51.722
51.49
47.892
41.636
34.075
28.051
26.959
33.595
51.463
83.775
131.594
195.057
271.427
353.899
437.762
519.373
595.278
665.862
724.661
760.719
765.236
726.412
645.883
535.381
406.281
279.776
168.088
75.555
9.441
-35.176
-61.919
-70.417
-66.31
-50.321
-24.023
6.443
37.426
64.578
84.086
94.69
95.801
88.417
75.083
59.136
43.564
30.123
19.764
13.035
10.306
11.523
15.75
21.24
26.437
30.5
33.083
34.115
33.451
30.957
26.862
21.743
16.166
10.473
4.815
-0.762
-6.165
-11.249
-15.939
-20.248
-24.221
-27.879
-31.217
-34.208
-36.848
-39.163
-41.191
-42.969
-44.537
-45.938
-47.224
-48.459
-49.694
-50.963
-52.291
-53.697
-55.19
-56.776
-58.451
-60.197
-61.999
-63.846
-65.725
-67.624
-69.527
-71.416
-73.272
-75.078
-76.82
-78.487
-80.065
-81.545
-82.918
-84.177
-85.321
-86.35
-87.261
-88.051
-88.718
-89.26
-89.676
-89.967
-90.133
-90.174
-90.091
-89.888
-89.57
-89.144
-88.615
-87.992
-87.282
-86.494
-85.639
-84.727
-83.77
-82.779
-81.765
-80.743
-79.724
-78.722
-77.751
-76.822
-75.948
-75.142
-74.414
-73.776
-73.237
-72.804
-72.486
-72.29
-72.22
-72.28
-72.475
-72.805
-73.273
-73.878
-74.619
-75.495
-76.501
-77.634
-78.887
-80.255
-81.729
-83.303
-84.967
-86.711
-88.527
-90.403
-92.328
-94.291
-96.281
-98.286
-100.294
-102.293
-104.271
-106.218
-108.123
-109.977
-111.77
-113.494
-115.143
-116.711
-118.191
-119.58
-120.875
-122.073
-123.173
-124.173
-125.074
-125.876
-126.581
-127.191
-127.708
-128.135
-128.476
-128.735
-128.915
-129.021
-129.058
-129.029
-128.941
-128.797
-128.603
-128.363
-128.082
-127.764
-127.413
-127.031
-126.622
-126.187
-125.728
-125.245
-124.739
-124.208
-123.652
-123.069
-122.456
-121.811
-121.13
-120.409
-119.647
-118.838
-117.979
-117.067
-116.099
-115.071
-113.983
-112.833
-111.62
-110.344
-109.005
-107.605
-106.145
-104.63
-103.062
-101.447
-99.789
-98.097
-96.379
-94.649
-92.918
-91.2
-89.507
-87.857
-86.264
-84.744
-83.309
-81.972
-80.746
-79.644
-78.682
-77.875
-77.24
-76.793
-76.55
-76.523
-76.723
-77.159
-77.836
-78.753
-79.912
-81.318
-82.973
-84.893
-87.089
-89.563
-92.314
-95.332
-98.59
-102.06
-105.703
-109.467
-113.31
-117.188
-121.059
-124.897
-128.666
-132.332
-135.868
-139.215
-142.317
-145.14
-147.658
-149.874
-151.84
-153.596
-155.203
-156.746
-158.276
-159.863
-161.587
-163.513
-165.719
-168.274
-171.183
-174.512
-178.389
-182.775
-187.518
-192.279
-196.457
-199.537
-201.179
-201.067
-198.952
-194.942
-189.377
-182.969
-176.964
-172.476
-170.267
-170.627
-173.229
-177.042
-180.691
-182.428
-179.685
-169.848
-150.556
-120.186
-78.6
-26.881
33.374
99.793
168.508
235.024
294.3
341.079
371.688
383.42
373.446
341.942
292.731
229.681
158.113
79.947
-9.458
-109.669
-216.138
-317.792
-392.97
-427.588
-415.047
-358.782
-280.483
-202.163
-144.963
-123.767
-133.934
-163.445
-196.009
-216.39
-221.768
-216.079
-206.084
-198.108
-193.553
-190.827
-187.761
-183.509
-178.658
-174.282
-171.444
-170.291
-170.464
-171.717
-173.712
-176.19
-179.014
-181.976
-184.908
-187.73
-190.325
-192.59
-194.467
-195.899
-196.852
-197.312
-197.246
-196.652
-195.559
-194.011
-192.059
-189.745
-187.098
-184.156
-180.962
-177.567
-174.031
-170.398
-166.692
-162.935
-159.139
-155.313
-151.468
-147.6
-143.693
-139.732
-135.708
-131.614
-127.451
-123.215
-118.897
-114.491
-109.988
-105.387
-100.69
-95.897
-91.01
-86.033
-80.97
-75.83
-70.625
-65.365
-60.057
-54.711
-49.335
-43.938
-38.532
-33.125
-27.728
-22.351
-17.006
-11.705
-6.461
-1.285
3.809
8.811
13.708
18.488
23.139
27.651
32.011
36.21
40.238
44.084
47.739
51.196
54.445
57.481
60.297
62.886
65.243
67.365
69.249
70.892
72.293
73.452
74.37
75.048
75.488
75.693
75.668
75.415
74.94
74.25
73.349
72.244
70.944
69.455
67.786
65.945
63.942
61.784
59.482
57.044
54.479
51.796
49.006
46.116
43.135
40.074
36.94
33.743
30.491
27.192
23.853
20.483
17.089
13.676
10.253
6.825
3.398
-0.022
-3.429
-6.816
-10.178
-13.51
-16.806
-20.06
-23.266
-26.421
-29.517
-32.551
-35.518
-38.413
-41.232
-43.969
-46.621
-49.183
-51.651
-54.02
-56.287
-58.446
-60.493
-62.424
-64.235
-65.921
-67.478
-68.903
-70.191
-71.34
-72.345
-73.204
-73.914
-74.473
-74.877
-75.127
-75.22
-75.156
-74.935
-74.558
-74.027
-73.344
-72.511
-71.533
-70.412
-69.153
-67.761
-66.24
-64.598
-62.841
-60.974
-59.008
-56.951
-54.815
-52.612
-50.354
-48.055
-45.728
-43.388
-41.048
-38.721
-36.417
-34.146
-31.919
-29.747
-27.639
-25.608
-23.665
-21.823
-20.098
-18.498
-17.032
-15.707
-14.527
-13.492
-12.604
-11.866
-11.279
-10.857
-10.608
-10.538
-10.65
-10.941
-11.394
-11.984
-12.677
-13.432
-14.209
-14.97
-15.677
-16.306
-16.836
-17.257
-17.552
-17.69
-17.639
-17.38
-16.91
-16.241
-15.405
-14.45
-13.446
-12.489
-11.68
-11.087
-10.777
-10.814
-11.242
-12.111
-13.472
-15.327
-17.687
-20.59
-23.951
-27.598
-31.279
-34.474
-36.642
-37.487
-36.726
-34.175
-29.974
-24.256
-17.398
-10.545
-4.873
-0.931
1.077
1.608
1.638
1.691
2.902
7.951
19.791
40.869
71.341
108.256
148.902
193.085
244.3
307.331
381.42
456.812
515.442
538.891
517.694
456.047
371.156
281.113
197.373
123.355
54.222
-12.827
-74.748
-126.78
-163.516
-182.325
-184.68
-173.39
-150.79
-120.152
-86.004
-51.999
-21.13
4.474
24.492
38.776
46.466
48.327
46.576
43.235
40.605
40.131
41.871
46.275
54.265
65.884
80.619
97.579
115.229
132.699
149.862
166.361
181.795
195.889
208.336
219.217
229.005
237.912
245.973
253.178
259.387
264.559
268.734
271.872
273.901
274.775
274.469
273.076
270.767
267.729
264.201
260.366
256.373
252.393
248.548
244.951
241.724
238.94
236.643
234.882
233.677
233.038
232.993
233.514
234.538
235.988
237.735
239.683
241.766
243.904
246.045
248.149
250.174
252.104
253.949
255.706
257.382
258.987
260.516
261.983
263.417
264.845
266.313
267.851
269.473
271.188
272.998
274.896
276.872
278.907
280.965
283.019
285.043
287.012
288.905
290.699
292.368
293.886
295.227
296.37
297.296
297.992
298.445
298.646
298.588
298.267
297.684
296.84
295.732
294.363
292.733
290.843
288.701
286.312
283.686
280.832
277.764
274.497
271.047
267.432
263.67
259.777
255.775
251.683
247.521
243.312
239.076
234.834
230.609
226.423
222.297
218.25
214.296
210.45
206.723
203.124
199.661
196.34
193.167
190.142
187.275
184.571
182.038
179.686
177.509
175.496
173.638
171.924
170.336
168.859
167.468
166.133
164.842
163.584
162.351
161.145
159.94
158.709
157.421
156.034
154.536
152.932
151.205
149.345
147.365
145.272
143.113
140.959
138.815
136.674
134.515
132.288
129.985
127.6
125.115
122.515
119.752
116.762
113.522
110.02
106.205
102.016
97.341
92.019
85.996
79.265
71.844
63.802
55.176
46.017
36.427
26.534
16.496
6.47
-3.44
-13.158
-22.57
-31.54
-39.88
-47.355
-53.837
-59.256
-63.57
-66.787
-68.908
-69.96
-70.043
-69.309
-67.937
-66.081
-63.848
-61.31
-58.562
-55.721
-52.938
-50.391
-48.191
-46.409
-45.1
-44.291
-44.019
-44.291
-45.068
-46.263
-47.771
-49.511
-51.437
-53.528
-55.754
-58.07
-60.404
-62.676
-64.835
-66.846
-68.679
-70.304
-71.668
-72.732
-73.475
-73.902
-74.036
-73.899
-73.494
-72.826
-71.922
-70.816
-69.554
-68.211
-66.863
-65.589
-64.494
-63.695
-63.301
-63.474
-64.418
-66.193
-68.71
-71.749
-74.899
-77.796
-80.229
-81.834
-82.109
-80.98
-78.727
-76.079
-74.304
-74.272
-76.276
-80.781
-88.303
-98.519
-110.383
-121.785
-129.563
-131.255
-125.116
-109.119
-81.198
-40.195
13.776
78.777
151.37
228.27
305.971
380.023
445.201
496.27
529.314
542.188
533.893
504.205
454.431
387.597
308.563
223.495
137.986
56.951
-14.647
-72.701
-114.91
-140.644
-151.236
-149.597
-138.641
-121.444
-101.852
-83.383
-68.368
-58.062
-52.458
-50.66
-51.789
-54.844
-58.313
-60.714
-61.165
-59.373
-55.653
-50.655
-44.926
-38.941
-33.268
-28.494
-24.975
-22.836
-21.993
-22.205
-23.256
-24.981
-27.209
-29.752
-32.454
-35.158
-37.71
-40.027
-42.047
-43.718
-45.026
-45.953
-46.48
-46.631
-46.45
-45.986
-45.296
-44.429
-43.414
-42.301
-41.146
-40.015
-38.981
-38.096
-37.391
-36.891
-36.611
-36.565
-36.762
-37.195
-37.846
-38.698
-39.741
-40.967
-42.374
-43.951
-45.681
-47.551
-49.542
-51.643
-53.842
-56.127
-58.483
-60.898
-63.363
-65.87
-68.412
-70.979
-73.56
-76.141
-78.712
-81.258
-83.769
-86.231
-88.632
-90.961
-93.206
-95.359
-97.411
-99.353
-101.178
-102.878
-104.445
-105.875
-107.162
-108.3
-109.285
-110.114
-110.786
-111.3
-111.655
-111.852
-111.893
-111.78
-111.517
-111.107
-110.556
-109.867
-109.048
-108.104
-107.044
-105.875
-104.605
-103.242
-101.796
-100.275
-98.69
-97.049
-95.361
-93.635
-91.881
-90.108
-88.325
-86.54
-84.764
-83.004
-81.269
-79.569
-77.912
-76.307
-74.76
-73.28
-71.873
-70.549
-69.313
-68.172
-67.131
-66.198
-65.378
-64.675
-64.094
-63.64
-63.316
-63.125
-63.069
-63.152
-63.375
-63.739
-64.245
-64.894
-65.684
-66.616
-67.689
-68.901
-70.249
-71.732
-73.345
-75.087
-76.952
-78.935
-81.031
-83.234
-85.538
-87.933
-90.412
-92.966
-95.583
-98.253
-100.967
-103.711
-106.475
-109.246
-112.01
-114.755
-117.468
-120.138
-122.749
-125.288
-127.744
-130.104
-132.355
-134.488
-136.489
-138.348
-140.055
-141.601
-142.979
-144.18
-145.197
-146.023
-146.655
-147.089
-147.323
-147.357
-147.192
-146.832
-146.284
-145.557
-144.662
-143.612
-142.419
-141.096
-139.661
-138.127
-136.51
-134.823
-133.081
-131.301
-129.504
-127.712
-125.944
-124.219
-122.557
-120.977
-119.497
-118.133
-116.891
-115.782
-114.819
-114.021
-113.417
-113.032
-112.877
-112.963
-113.293
-113.859
-114.649
-115.633
-116.76
-117.985
-119.267
-120.573
-121.89
-123.19
-124.423
-125.534
-126.46
-127.149
-127.581
-127.729
-127.564
-127.11
-126.411
-125.56
-124.693
-123.888
-123.21
-122.735
-122.524
-122.684
-123.352
-124.612
-126.572
-129.36
-132.945
-137.223
-141.981
-146.704
-150.876
-154.02
-155.495
-154.877
-152.195
-147.71
-142.109
-136.496
-131.675
-128.357
-127.428
-129.052
-132.506
-136.364
-138.25
-135.48
-125.852
-107.1
-76.781
-33.541
22.55
89.911
165.461
245.732
327.012
404.675
473.294
527.837
564.629
581.72
578.403
554.481
511.126
451.29
379.61
301.797
222.997
147.479
79.46
22.782
-20.297
-49.085
-64.652
-69.705
-66.867
-58.732
-48.578
-39.346
-32.995
-30.711
-32.514
-37.387
-44.383
-52.446
-60.163
-66.439
-70.525
-71.982
-70.907
-67.957
-64.049
-59.967
-56.298
-53.657
-52.655
-53.847
-57.857
-64.516
-72.741
-81.821
-91.409
-100.884
-109.668
-116.97
-121.486
-123.022
-122.606
-120.843
-118.103
-114.851
-111.256
-107.833
-105.653
-104.874
-104.759
-104.85
-104.754
-104.232
-103.439
-102.27
-100.301
-97.525
-94.276
-90.799
-87.365
-84.08
-80.818
-77.561
-74.385
-71.294
-68.264
-65.265
-62.237
-59.174
-56.122
-53.106
-50.141
-47.232
-44.36
-41.517
-38.7
-35.908
-33.143
-30.408
-27.705
-25.032
-22.386
-19.765
-17.165
-14.584
-12.016
-9.457
-6.897
-4.334
-1.774
0.779
3.321
5.85
8.364
10.863
13.343
15.801
18.235
20.643
23.024
25.375
27.694
29.977
32.221
34.422
36.579
38.687
40.744
42.746
44.689
46.571
48.387
50.136
51.815
53.422
54.956
56.416
57.801
59.113
60.353
61.522
62.621
63.654
64.625
65.537
66.396
67.205
67.97
68.694
69.383
70.04
70.668
71.271
71.85
72.408
72.948
73.471
73.981
74.48
74.969
75.45
75.925
76.395
76.862
77.324
77.781
78.233
78.678
79.116
79.544
79.958
80.356
80.736
81.098
81.44
81.758
82.05
82.315
82.553
82.762
82.941
83.083
83.188
83.257
83.295
83.309
83.304
83.289
83.269
83.256
83.263
83.299
83.368
83.466
83.587
83.74
83.949
84.248
84.664
85.221
85.942
86.86
88.01
89.414
91.078
92.983
95.114
97.482
100.115
103.054
106.337
109.967
113.914
118.127
122.553
127.12
131.747
136.322
140.723
144.877
148.757
152.387
155.789
158.932
161.761
164.217
166.26
167.896
169.19
170.228
171.115
172.028
173.164
174.715
176.881
179.79
183.505
188.085
193.592
200.037
207.44
215.927
225.549
236.273
247.838
259.54
270.569
280.421
288.711
294.868
298.301
298.625
296.193
292.575
289.56
286.473
280.539
269.997
254.855
240.084
233.442
235.826
240.366
233.717
198.804
126.891
22.406
-102.087
-227.117
-333.241
-412.061
-461.713
-485.872
-495.519
-495.083
-486.654
-475.656
-461.1
-446.734
-437.956
-430.083
-422.101
-411.982
-394.515
-373.641
-352.12
-329.857
-309.758
-291.501
-274.073
-259.092
-247.418
-238.856
-233.51
-231.171
-230.876
-231.537
-231.86
-229.509
-221.977
-208.044
-186.676
-156.58
-116.674
-66.233
-5.524
63.547
138.095
215.583
293.213
367.238
432.896
484.977
519.254
534.267
530.88
509.793
471.259
412.77
331.221
229.932
118.722
14.807
-62.759
-104.908
-114.75
-105.3
-91.382
-81.491
-76.109
-70.728
-63.158
-54.367
-46.965
-44.562
-47.973
-55.647
-66.088
-77.233
-86.996
-94.499
-99.226
-100.91
-100.056
-97.293
-93.122
-88.283
-83.545
-79.259
-75.579
-72.49
-69.753
-67.203
-64.75
-62.28
-59.706
-57.015
-54.244
-51.451
-48.708
-46.021
-43.331
-40.571
-37.683
-34.677
-31.635
-28.676
-25.895
-23.366
-21.151
-19.265
-17.71
-16.443
-15.353
-14.348
-13.36
-12.347
-11.313
-10.275
-9.228
-8.145
-6.97
-5.607
-3.986
-2.049
0.26
2.955
6.034
9.458
13.129
16.962
20.898
24.892
28.93
33.012
37.12
41.242
45.37
49.473
53.527
57.513
61.4
65.181
68.861
72.457
76.014
79.572
83.154
86.774
90.436
94.132
97.86
101.606
105.346
109.063
112.741
116.367
119.93
123.417
126.806
130.075
133.196
136.144
138.893
141.423
143.714
145.749
147.515
149
150.197
151.102
151.707
152.005
151.989
151.653
150.995
150.011
148.702
147.067
145.111
142.84
140.261
137.384
134.219
130.778
127.075
123.126
118.945
114.551
109.962
105.197
100.276
95.22
90.05
84.787
79.451
74.063
68.643
63.21
57.783
52.38
47.017
41.712
36.478
31.331
26.284
21.348
16.535
11.854
7.313
2.917
-1.327
-5.418
-9.352
-13.131
-16.753
-20.222
-23.539
-26.709
-29.737
-32.628
-35.388
-38.024
-40.543
-42.954
-45.263
-47.477
-49.604
-51.649
-53.62
-55.521
-57.357
-59.132
-60.851
-62.515
-64.127
-65.69
-67.204
-68.668
-70.079
-71.437
-72.737
-73.974
-75.143
-76.236
-77.246
-78.164
-78.983
-79.693
-80.284
-80.745
-81.067
-81.24
-81.254
-81.099
-80.767
-80.248
-79.537
-78.626
-77.514
-76.196
-74.672
-72.942
-71.009
-68.879
-66.558
-64.053
-61.373
-58.529
-55.531
-52.393
-49.125
-45.742
-42.257
-38.688
-35.055
-31.377
-27.675
-23.972
-20.293
-16.665
-13.113
-9.661
-6.324
-3.122
-0.079
2.779
5.417
7.809
9.942
11.804
13.379
14.661
15.65
16.367
16.861
17.174
17.341
17.381
17.301
17.121
16.88
16.624
16.398
16.224
16.093
16.012
16.004
16.065
16.16
16.193
15.998
15.446
14.453
12.966
10.973
8.426
5.218
1.26
-3.527
-9.172
-15.579
-22.71
-30.629
-39.216
-48.219
-57.179
-65.274
-71.833
-76.614
-79.378
-79.966
-78.517
-75.029
-69.879
-64.265
-59.194
-55.162
-52.346
-50.137
-47.396
-43.52
-37.445
-27.058
-10.319
14.752
49.469
93.342
144.904
202.879
265
327.657
386.692
436.837
473.087
492.336
492.394
471.672
430.394
370.512
295.379
210.584
122.507
36.781
-40.938
-105.678
-154.471
-185.956
-200.32
-199.906
-188.206
-168.906
-146.441
-125.019
-107.345
-95.087
-88.916
-88.314
-92.21
-99.327
-107.79
-115.724
-122.127
-126.53
-128.932
-129.779
-129.513
-128.578
-127.619
-127.278
-127.857
-129.425
-131.857
-134.876
-138.288
-141.922
-145.574
-149.04
-152.151
-154.801
-156.944
-158.581
-159.712
-160.33
-160.436
-160.039
-159.172
-157.876
-156.203
-154.201
-151.911
-149.382
-146.665
-143.818
-140.906
-137.979
-135.07
-132.206
-129.404
-126.679
-124.043
-121.504
-119.052
-116.682
-114.388
-112.165
-110.011
-107.921
-105.887
-103.899
-101.943
-100.011
-98.095
-96.191
-94.291
-92.39
-90.485
-88.573
-86.655
-84.731
-82.8
-80.858
-78.905
-76.938
-74.959
-72.967
-70.965
-68.953
-66.935
-64.916
-62.902
-60.899
-58.913
-56.95
-55.018
-53.125
-51.279
-49.489
-47.762
-46.108
-44.536
-43.055
-41.673
-40.401
-39.246
-38.216
-37.317
-36.557
-35.94
-35.471
-35.154
-34.991
-34.982
-35.129
-35.43
-35.883
-36.484
-37.227
-38.108
-39.117
-40.247
-41.487
-42.827
-44.254
-45.756
-47.319
-48.931
-50.576
-52.241
-53.909
-55.567
-57.198
-58.789
-60.325
-61.79
-63.171
-64.454
-65.627
-66.677
-67.594
-68.367
-68.988
-69.448
-69.741
-69.861
-69.804
-69.568
-69.15
-68.553
-67.775
-66.821
-65.695
-64.401
-62.947
-61.34
-59.588
-57.701
-55.687
-53.559
-51.328
-49.004
-46.599
-44.125
-41.595
-39.02
-36.413
-33.785
-31.146
-28.509
-25.882
-23.276
-20.699
-18.159
-15.662
-13.213
-10.818
-8.48
-6.202
-3.986
-1.831
0.264
2.301
4.282
6.211
8.095
9.94
11.751
13.537
15.305
17.063
18.82
20.584
22.364
24.168
26.004
27.878
29.799
31.773
33.804
35.899
38.058
40.285
42.581
44.945
47.373
49.861
52.402
54.989
57.615
60.268
62.938
65.612
68.279
70.928
73.545
76.115
78.621
81.045
83.371
85.58
87.653
89.571
91.313
92.864
94.216
95.361
96.286
96.979
97.416
97.586
97.485
97.108
96.452
95.518
94.311
92.861
91.212
89.404
87.474
85.445
83.326
81.14
78.923
76.714
74.564
72.497
70.518
68.654
66.939
65.391
63.994
62.669
61.3
59.802
58.131
56.283
54.243
51.953
49.373
46.439
43.102
39.386
35.248
30.564
25.353
19.765
14.091
8.94
4.922
2.472
2.153
4.396
9.14
16.013
24.293
32.769
40.048
44.929
46.312
43.458
38.237
33.277
29.457
29.297
32.79
39.845
57.689
90.752
142.093
213.285
295.981
382.889
469.195
550.313
622.062
675.697
701.04
687.529
634.041
551.5
451.874
349.479
253.363
163.225
80.911
9.504
-48.312
-88.357
-109.578
-114.645
-107.423
-91.999
-72.771
-54.293
-39.638
-30.631
-28.142
-31.462
-39.238
-50.344
-63.107
-75.422
-86.118
-94.624
-100.761
-105.114
-108.319
-110.805
-113.241
-116.352
-120.471
-125.731
-132.089
-139.237
-146.935
-155.016
-163.225
-171.334
-179.171
-186.57
-193.444
-199.759
-205.461
-210.513
-214.895
-218.592
-221.615
-223.997
-225.766
-226.969
-227.648
-227.848
-227.622
-227.023
-226.109
-224.947
-223.587
-222.066
-220.417
-218.66
-216.815
-214.897
-212.912
-210.855
-208.726
-206.522
-204.244
-201.896
-199.48
-196.993
-194.432
-191.793
-189.073
-186.274
-183.399
-180.449
-177.427
-174.337
-171.186
-167.981
-164.729
-161.436
-158.104
-154.738
-151.342
-147.921
-144.481
-141.026
-137.561
-134.095
-130.633
-127.185
-123.76
-120.363
-117.004
-113.69
-110.429
-107.23
-104.102
-101.053
-98.09
-95.223
-92.46
-89.81
-87.28
-84.879
-82.613
-80.488
-78.512
-76.688
-75.023
-73.519
-72.181
-71.01
-70.01
-69.18
-68.521
-68.032
-67.71
-67.554
-67.56
-67.722
-68.035
-68.492
-69.087
-69.811
-70.657
-71.616
-72.679
-73.836
-75.079
-76.397
-77.78
-79.217
-80.699
-82.214
-83.753
-85.305
-86.861
-88.409
-89.942
-91.45
-92.925
-94.358
-95.742
-97.069
-98.335
-99.532
-100.656
-101.702
-102.668
-103.549
-104.345
-105.054
-105.676
-106.211
-106.66
-107.025
-107.306
-107.507
-107.628
-107.673
-107.644
-107.543
-107.373
-107.136
-106.834
-106.47
-106.046
-105.564
-105.026
-104.434
-103.789
-103.092
-102.344
-101.546
-100.698
-99.799
-98.851
-97.852
-96.801
-95.699
-94.543
-93.331
-92.063
-90.734
-89.342
-87.884
-86.355
-84.753
-83.074
-81.315
-79.475
-77.551
-75.543
-73.452
-71.277
-69.024
-66.698
-64.305
-61.849
-59.341
-56.787
-54.199
-51.586
-48.959
-46.326
-43.698
-41.088
-38.513
-35.989
-33.532
-31.157
-28.885
-26.732
-24.719
-22.864
-21.181
-19.684
-18.39
-17.319
-16.496
-15.951
-15.706
-15.772
-16.156
-16.861
-17.879
-19.195
-20.777
-22.577
-24.552
-26.664
-28.882
-31.19
-33.553
-35.929
-38.269
-40.511
-42.605
-44.524
-46.242
-47.745
-49.049
-50.187
-51.232
-52.3
-53.496
-54.903
-56.591
-58.595
-60.955
-63.731
-66.992
-70.805
-75.213
-80.202
-85.723
-91.716
-98.064
-104.632
-111.245
-117.607
-123.388
-128.338
-132.252
-134.935
-136.176
-135.485
-132.08
-125.424
-115.289
-101.512
-84.076
-63.006
-38.191
-10.669
17.26
44.163
69.234
93.058
118.396
145.777
173.751
200.602
223.333
243.663
268.669
307.157
368.401
453.867
554.193
652.333
729.938
774.843
785.416
770.631
736.828
687.148
621.782
533.105
425.802
313.738
209.562
132.318
87.826
66.806
62.171
63.502
65.12
71.571
83.661
99.582
117.385
132.262
141.627
146.012
146.424
144.211
141.059
138.663
137.995
139.565
143.392
148.739
154.929
161.516
167.836
173.181
177.15
179.502
180.231
179.625
177.916
175.286
171.963
168.158
164.051
159.831
155.672
151.715
148.071
144.826
142.036
139.73
137.933
136.648
135.839
135.457
135.451
135.769
136.369
137.219
138.266
139.45
140.707
141.968
143.185
144.331
145.386
146.338
147.184
147.924
148.579
149.174
149.73
150.259
150.773
151.276
151.782
152.305
152.857
153.451
154.096
154.8
155.568
156.405
157.315
158.295
159.344
160.455
161.626
162.852
164.13
165.457
166.827
168.235
169.674
171.136
172.613
174.094
175.567
177.02
178.439
179.811
181.123
182.361
183.51
184.558
185.49
186.295
186.96
187.473
187.823
187.999
187.992
187.793
187.393
186.784
185.961
184.918
183.65
182.156
180.433
178.481
176.301
173.895
171.267
168.422
165.366
162.106
158.65
155.009
151.194
147.216
143.089
138.825
134.439
129.945
125.359
120.695
115.968
111.193
106.383
101.553
96.718
91.889
87.079
82.302
77.569
72.891
68.279
63.744
59.294
54.937
50.681
46.533
42.497
38.578
34.779
31.104
27.555
24.133
20.838
17.671
14.632
11.719
8.93
6.264
3.719
1.291
-1.022
-3.223
-5.315
-7.3
-9.18
-10.958
-12.635
-14.212
-15.691
-17.073
-18.357
-19.546
-20.64
-21.64
-22.545
-23.356
-24.07
-24.688
-25.208
-25.629
-25.948
-26.165
-26.276
-26.281
-26.179
-25.969
-25.649
-25.219
-24.679
-24.031
-23.274
-22.411
-21.444
-20.375
-19.209
-17.951
-16.608
-15.188
-13.699
-12.151
-10.556
-8.927
-7.277
-5.619
-3.965
-2.328
-0.722
0.839
2.344
3.781
5.138
6.399
7.549
8.574
9.46
10.194
10.765
11.157
11.357
11.355
11.149
10.731
10.094
9.223
8.102
6.725
5.097
3.227
1.125
-1.195
-3.71
-6.385
-9.165
-12
-14.846
-17.67
-20.442
-23.117
-25.638
-27.941
-29.975
-31.712
-33.148
-34.273
-35.074
-35.564
-35.788
-35.834
-35.816
-35.825
-35.93
-36.195
-36.707
-37.577
-38.92
-40.834
-43.371
-46.527
-50.272
-54.58
-59.406
-64.654
-70.177
-75.727
-81.032
-85.867
-90.001
-93.168
-95.04
-95.195
-93.146
-88.586
-81.435
-71.74
-59.784
-45.91
-30.373
-13.629
3.585
20.878
38.526
57.07
77.627
101.777
130.249
163.509
202.671
246.202
291.103
336.299
378.32
415.278
446.663
464.751
462.88
436.249
382.516
308.478
220.593
123.967
21.628
-83.055
-179.038
-254.717
-298.362
-307.162
-291.921
-264.528
-237.835
-218.527
-203.963
-192.53
-183.035
-175.691
-173.88
-178.468
-187.599
-199.026
-209.915
-218.626
-224.944
-228.883
-230.429
-229.704
-227.598
-225.187
-223.373
-222.784
-223.475
-225.272
-228.152
-232.128
-236.868
-242.01
-247.251
-252.26
-256.917
-261.19
-264.979
-268.208
-270.871
-272.961
-274.48
-275.476
-275.97
-275.99
-275.586
-274.791
-273.646
-272.206
-270.52
-268.653
-266.677
-264.642
-262.584
-260.53
-258.498
-256.503
-254.56
-252.663
-250.797
-248.948
-247.104
-245.261
-243.417
-241.56
-239.679
-237.757
-235.782
-233.747
-231.645
-229.468
-227.212
-224.871
-222.442
-219.928
-217.333
-214.659
-211.907
-209.078
-206.172
-203.193
-200.145
-197.03
-193.852
-190.615
-187.325
-183.991
-180.62
-177.222
-173.805
-170.38
-166.957
-163.548
-160.164
-156.817
-153.519
-150.282
-147.119
-144.043
-141.068
-138.205
-135.467
-132.867
-130.416
-128.125
-126.005
-124.064
-122.311
-120.753
-119.395
-118.244
-117.302
-116.572
-116.055
-115.753
-115.663
-115.786
-116.117
-116.652
-117.385
-118.31
-119.42
-120.705
-122.157
-123.764
-125.517
-127.404
-129.413
-131.532
-133.748
-136.047
-138.418
-140.845
-143.315
-145.815
-148.33
-150.848
-153.356
-155.84
-158.29
-160.695
-163.044
-165.328
-167.539
-169.668
-171.71
-173.658
-175.507
-177.252
-178.89
-180.42
-181.838
-183.145
-184.34
-185.424
-186.399
-187.267
-188.029
-188.689
-189.249
-189.713
-190.084
-190.364
-190.558
-190.668
-190.698
-190.651
-190.531
-190.342
-190.087
-189.768
-189.389
-188.951
-188.457
-187.908
-187.304
-186.646
-185.933
-185.166
-184.343
-183.464
-182.526
-181.527
-180.465
-179.337
-178.141
-176.874
-175.531
-174.111
-172.61
-171.029
-169.365
-167.619
-165.792
-163.885
-161.903
-159.852
-157.734
-155.557
-153.325
-151.046
-148.727
-146.377
-143.999
-141.6
-139.188
-136.771
-134.362
-131.972
-129.607
-127.28
-125.003
-122.794
-120.669
-118.639
-116.71
-114.888
-113.184
-111.615
-110.202
-108.957
-107.88
-106.969
-106.226
-105.651
-105.238
-104.963
-104.778
-104.632
-104.485
-104.315
-104.111
-103.851
-103.5
-103.012
-102.351
-101.515
-100.517
-99.363
-98.043
-96.561
-94.95
-93.298
-91.734
-90.383
-89.327
-88.622
-88.312
-88.423
-89.005
-90.133
-91.842
-94.139
-97.008
-100.372
-104.192
-108.493
-113.117
-117.705
-121.753
-124.493
-125.264
-123.83
-120.001
-113.582
-104.725
-93.717
-81.252
-68.923
-58.259
-49.831
-43.682
-39.341
-35.724
-31.779
-25.884
-15.015
4.112
33.66
74.496
126.1
186.683
253.894
324.452
393.56
455.096
502.878
531.98
538.855
523.047
487.265
434.828
368.429
287.088
188.097
72.643
-50.826
-161.024
-234.575
-257.95
-229.206
-169.004
-106.193
-60.092
-43.609
-50.662
-64.439
-75.44
-76.28
-68.455
-60.705
-56.328
-56.452
-59.835
-62.338
-62.551
-60.808
-57.479
-53.586
-49.725
-46.054
-42.991
-40.785
-39.403
-38.663
-38.303
-38.12
-37.941
-37.607
-36.922
-35.673
-33.726
-31.013
-27.508
-23.2
-18.079
-12.14
-5.394
2.117
10.339
19.206
28.651
38.615
49.027
59.81
70.883
82.154
93.546
104.997
116.453
127.867
139.198
150.405
161.452
172.319
182.98
193.412
203.589
213.483
223.068
232.325
241.234
249.78
257.947
265.714
273.064
279.98
286.448
292.453
297.984
303.025
307.569
311.611
315.15
318.188
320.728
322.775
324.337
325.423
326.046
326.218
325.952
325.264
324.172
322.693
320.848
318.66
316.148
313.338
310.251
306.912
303.345
299.574
295.625
291.521
287.286
282.945
278.522
274.04
269.522
264.989
260.464
255.965
251.514
247.127
242.822
238.616
234.521
230.554
226.726
223.049
219.532
216.185
213.016
210.031
207.235
204.632
202.225
200.014
198.001
196.183
194.561
193.13
191.886
190.824
189.939
189.222
188.666
188.262
187.999
187.866
187.853
187.947
188.137
188.409
188.751
189.15
189.592
190.063
190.551
191.042
191.523
191.982
192.406
192.785
193.107
193.361
193.541
193.636
193.641
193.549
193.353
193.05
192.636
192.11
191.471
190.719
189.856
188.887
187.816
186.651
185.401
184.074
182.681
181.233
179.743
178.226
176.695
175.165
173.651
172.171
170.741
169.378
168.1
166.922
165.861
164.933
164.153
163.537
163.096
162.843
162.789
162.944
163.316
163.914
164.743
165.804
167.102
168.634
170.399
172.392
174.602
177.018
179.627
182.413
185.361
188.452
191.665
194.98
198.379
201.842
205.348
208.874
212.392
215.878
219.305
222.65
225.885
228.985
231.926
234.687
237.255
239.618
241.759
243.655
245.281
246.619
247.661
248.4
248.831
248.958
248.794
248.368
247.726
246.911
245.954
244.882
243.713
242.482
241.237
240.036
238.928
237.944
237.11
236.452
236.005
235.773
235.708
235.735
235.759
235.722
235.616
235.423
235.084
234.529
233.657
232.379
230.685
228.533
225.834
222.628
219.045
215.389
212.219
210.005
209.074
209.844
212.624
217.393
223.951
231.655
239.515
246.975
253.608
258.777
262.27
264.492
266.419
269.946
277.15
289.341
308.24
336.155
374.492
423.99
482.817
546.129
611.607
678.237
745.934
817.225
886.307
941.561
972.528
966.396
922.336
852.134
766.845
680.058
598.892
520.782
446.097
377.224
318.082
274.621
249.459
241.702
249.31
270.085
301.359
339.03
378.565
416.137
448.627
474.581
493.381
503.744
505.322
499.606
488.713
475.046
461.051
447.925
436.405
427.795
422.753
421.016
421.932
424.248
426.51
428.075
428.618
427.644
425.024
420.815
415.164
408.602
401.758
394.916
388.187
381.639
375.189
368.81
362.515
356.199
349.736
343.053
336.106
328.885
321.408
313.654
305.57
297.115
288.256
278.977
269.287
259.194
248.708
237.842
226.616
215.049
203.163
190.978
178.509
165.773
152.79
139.588
126.203
112.671
99.026
85.3
71.523
57.723
43.927
30.159
16.444
2.805
-10.732
-24.141
-37.396
-50.47
-63.34
-75.984
-88.382
-100.515
-112.369
-123.929
-135.184
-146.125
-156.742
-167.029
-176.979
-186.591
-195.861
-204.791
-213.38
-221.633
-229.554
-237.149
-244.426
-251.396
-258.068
-264.453
-270.564
-276.414
-282.017
-287.388
-292.541
-297.491
-302.254
-306.845
-311.279
-315.571
-319.736
-323.789
-327.741
-331.607
-335.398
-339.125
-342.796
-346.421
-350.006
-353.559
-357.084
-360.585
-364.066
-367.529
-370.974
-374.404
-377.816
-381.21
-384.583
-387.933
-391.256
-394.549
-397.805
-401.021
-404.19
-407.307
-410.365
-413.358
-416.28
-419.124
-421.883
-424.552
-427.124
-429.593
-431.954
-434.2
-436.328
-438.332
-440.209
-441.957
-443.572
-445.053
-446.399
-447.609
-448.682
-449.618
-450.419
-451.084
-451.614
-452.009
-452.27
-452.399
-452.395
-452.258
-451.99
-451.59
-451.058
-450.395
-449.601
-448.676
-447.619
-446.429
-445.107
-443.651
-442.061
-440.336
-438.475
-436.475
-434.338
-432.06
-429.641
-427.076
-424.366
-421.506
-418.495
-415.332
-412.015
-408.541
-404.912
-401.128
-397.191
-393.104
-388.872
-384.502
-380.001
-375.379
-370.646
-365.814
-360.894
-355.901
-350.849
-345.752
-340.624
-335.481
-330.338
-325.212
-320.123
-315.091
-310.133
-305.267
-300.51
-295.885
-291.416
-287.124
-283.022
-279.126
-275.451
-272.019
-268.856
-265.979
-263.393
-261.096
-259.085
-257.355
-255.902
-254.705
-253.725
-252.919
-252.244
-251.669
-251.183
-250.764
-250.384
-250.001
-249.563
-249.049
-248.473
-247.844
-247.168
-246.452
-245.703
-244.983
-244.401
-244.048
-244.012
-244.335
-245.024
-246.102
-247.575
-249.451
-251.745
-254.434
-257.454
-260.755
-264.269
-267.932
-271.732
-275.479
-278.785
-281.17
-281.986
-280.639
-276.759
-270.092
-260.43
-247.901
-233.049
-216.809
-200.701
-186.377
-174.982
-166.904
-161.964
-159.453
-157.997
-155.558
-149.163
-134.979
-109.331
-71.676
-24.311
30.685
90.149
155.216
231.438
316.258
401.927
474.387
511.796
503.409
450.362
359.554
245.494
121.803
-2
-112.948
-195.487
-241.287
-249.139
-227.697
-195.662
-166.03
-144.171
-130.032
-117.81
-105.218
-93.863
-85.889
-84.073
-88.468
-97.034
-107.673
-117.997
-126.724
-133.562
-138.351
-141.432
-143.37
-144.653
-145.931
-147.861
-150.724
-154.58
-159.374
-164.868
-170.847
-177.134
-183.485
-189.673
-195.547
-201.025
-206.079
-210.713
-214.897
-218.595
-221.791
-224.485
-226.701
-228.456
-229.764
-230.644
-231.122
-231.242
-231.05
-230.592
-229.916
-229.056
-228.034
-226.876
-225.598
-224.217
-222.742
-221.179
-219.522
-217.771
-215.927
-213.992
-211.967
-209.85
-207.639
-205.328
-202.916
-200.4
-197.779
-195.054
-192.228
-189.303
-186.285
-183.181
-179.999
-176.748
-173.433
-170.064
-166.644
-163.182
-159.686
-156.162
-152.618
-149.063
-145.505
-141.953
-138.418
-134.909
-131.436
-128.008
-124.636
-121.328
-118.094
-114.944
-111.885
-108.926
-106.076
-103.342
-100.73
-98.248
-95.902
-93.697
-91.636
-89.724
-87.962
-86.352
-84.893
-83.584
-82.423
-81.407
-80.53
-79.788
-79.175
-78.683
-78.306
-78.034
-77.858
-77.769
-77.755
-77.807
-77.912
-78.059
-78.235
-78.429
-78.629
-78.822
-78.998
-79.145
-79.252
-79.309
-79.305
-79.232
-79.081
-78.844
-78.513
-78.084
-77.55
-76.909
-76.158
-75.295
-74.321
-73.235
-72.04
-70.738
-69.334
-67.83
-66.233
-64.547
-62.778
-60.933
-59.019
-57.043
-55.013
-52.935
-50.818
-48.67
-46.497
-44.308
-42.108
-39.906
-37.706
-35.515
-33.338
-31.179
-29.042
-26.929
-24.844
-22.786
-20.756
-18.752
-16.771
-14.809
-12.863
-10.927
-8.994
-7.057
-5.108
-3.139
-1.143
0.891
2.97
5.105
7.305
9.578
11.932
14.378
16.922
19.574
22.338
25.221
28.228
31.364
34.632
38.034
41.572
45.245
49.052
52.991
57.058
61.246
65.544
69.942
74.428
78.986
83.602
88.258
92.937
97.619
102.291
106.937
111.537
116.075
120.53
124.882
129.114
133.204
137.129
140.87
144.406
147.723
150.814
153.666
156.265
158.594
160.633
162.369
163.793
164.896
165.67
166.119
166.255
166.116
165.754
165.216
164.544
163.772
162.929
162.062
161.224
160.462
159.819
159.323
158.992
158.866
158.97
159.286
159.762
160.288
160.726
160.975
160.946
160.567
159.772
158.449
156.485
153.795
150.316
146.072
141.071
135.228
128.601
121.415
114.041
107.163
101.461
97.243
94.811
94.482
96.209
99.931
105.31
111.189
116.446
120.618
123.527
125.577
127.851
131.127
136.51
146.464
163.686
190.372
228.28
276.077
329.741
386.514
443.281
500.767
564.357
632.913
700.538
752.925
766.833
730.973
647.311
530.248
406.42
294.151
200.475
125.991
65.345
16.572
-18.666
-38.542
-41.94
-31.241
-10.42
15.484
40.649
61.701
76.9
84.959
86.289
81.753
71.898
59.022
45.966
34.077
24.28
17.03
11.799
8.476
7.164
6.769
6.165
4.876
2.472
-0.992
-5.099
-9.866
-15.331
-21.064
-26.726
-32.061
-36.798
-40.967
-44.636
-47.732
-50.213
-52.094
-53.379
-54.122
-54.388
-54.177
-53.516
-52.437
-50.981
-49.215
-47.203
-45.005
-42.673
-40.239
-37.733
-35.179
-32.593
-29.991
-27.387
-24.777
-22.164
-19.554
-16.948
-14.353
-11.775
-9.209
-6.65
-4.094
-1.535
1.026
3.588
6.15
8.711
11.268
13.818
16.354
18.871
21.366
23.838
26.287
28.712
31.11
33.482
35.826
38.141
40.426
42.68
44.899
47.082
49.226
51.329
53.39
55.407
57.379
59.303
61.178
63.002
64.775
66.494
68.157
69.762
71.307
72.791
74.213
75.571
76.864
78.093
79.256
80.355
81.389
82.36
83.268
84.115
84.901
85.63
86.301
86.918
87.483
88
88.472
88.901
89.292
89.648
89.973
90.27
90.543
90.794
91.028
91.247
91.454
91.654
91.849
92.043
92.238
92.437
92.642
92.857
93.081
93.318
93.567
93.831
94.108
94.4
94.707
95.028
95.363
95.711
96.071
96.441
96.819
97.205
97.595
97.988
98.382
98.776
99.169
99.558
99.942
100.322
100.696
101.062
101.421
101.771
102.111
102.442
102.763
103.075
103.378
103.674
103.964
104.251
104.536
104.822
105.111
105.406
105.709
106.024
106.353
106.699
107.066
107.458
107.877
108.327
108.811
109.331
109.888
110.484
111.118
111.791
112.501
113.246
114.023
114.83
115.662
116.517
117.387
118.266
119.145
120.017
120.871
121.694
122.473
123.191
123.834
124.386
124.829
125.146
125.32
125.333
125.172
124.82
124.263
123.485
122.467
121.193
119.651
117.822
115.691
113.244
110.466
107.352
103.901
100.109
95.975
91.49
86.643
81.431
75.861
69.933
63.655
57.039
50.107
42.907
35.503
27.948
20.296
12.584
4.844
-2.877
-10.53
-18.065
-25.433
-32.61
-39.577
-46.293
-52.73
-58.887
-64.798
-70.559
-76.293
-82.088
-88.007
-94.087
-100.364
-106.913
-113.802
-121.096
-128.831
-136.964
-145.502
-154.534
-164.003
-173.708
-183.23
-191.835
-198.866
-203.886
-206.397
-206.049
-202.864
-197.05
-189.495
-181.727
-175.026
-170.564
-169.298
-171.242
-175.75
-181.693
-186.533
-187.007
-180.091
-162.295
-130.867
-84.943
-24.713
48.012
128.996
213.192
294.857
366.484
421.077
452.793
458.145
438.192
395.812
334.354
253.527
149.958
26.508
-108.062
-234.813
-327.767
-373.765
-371.695
-333.076
-282.241
-235.186
-198.921
-175.129
-156.58
-139.59
-125.793
-117.201
-117.032
-125.673
-139.698
-154.934
-168.718
-179.915
-188.191
-193.506
-195.409
-193.82
-189.866
-185.315
-181.315
-178.357
-176.519
-175.643
-175.942
-177.606
-180.317
-183.476
-186.557
-189.234
-191.44
-193.242
-194.585
-195.37
-195.577
-195.242
-194.449
-193.271
-191.724
-189.791
-187.467
-184.762
-181.719
-178.39
-174.831
-171.099
-167.237
-163.274
-159.24
-155.157
-151.044
-146.92
-142.789
-138.643
-134.48
-130.301
-126.11
-121.916
-117.717
-113.504
-109.266
-104.996
-100.688
-96.344
-91.96
-87.536
-83.071
-78.564
-74.023
-69.453
-64.861
-60.249
-55.62
-50.976
-46.322
-41.663
-37.004
-32.35
-27.705
-23.075
-18.469
-13.894
-9.358
-4.869
-0.436
3.932
8.227
12.438
16.555
20.568
24.468
28.242
31.88
35.372
38.705
41.869
44.856
47.654
50.255
52.651
54.834
56.798
58.537
60.046
61.322
62.36
63.16
63.721
64.041
64.123
63.968
63.58
62.963
62.122
61.064
59.797
58.327
56.665
54.82
52.802
50.623
48.294
45.828
43.237
40.535
37.737
34.855
31.903
28.896
25.847
22.768
19.673
16.573
13.48
10.405
7.358
4.349
1.386
-1.523
-4.371
-7.151
-9.858
-12.487
-15.035
-17.499
-19.877
-22.167
-24.367
-26.478
-28.499
-30.43
-32.273
-34.027
-35.696
-37.28
-38.783
-40.207
-41.553
-42.825
-44.024
-45.152
-46.212
-47.202
-48.124
-48.976
-49.758
-50.468
-51.105
-51.665
-52.145
-52.541
-52.849
-53.064
-53.181
-53.193
-53.093
-52.874
-52.531
-52.055
-51.441
-50.682
-49.771
-48.704
-47.475
-46.081
-44.519
-42.784
-40.875
-38.789
-36.526
-34.09
-31.48
-28.7
-25.755
-22.653
-19.406
-16.025
-12.524
-8.916
-5.217
-1.445
2.382
6.246
10.134
14.029
17.912
21.764
25.561
29.282
32.904
36.407
39.766
42.96
45.969
48.778
51.38
53.763
55.914
57.814
59.441
60.774
61.804
62.518
62.909
62.983
62.749
62.233
61.48
60.523
59.389
58.105
56.683
55.154
53.561
51.93
50.298
48.703
47.165
45.725
44.409
43.186
42.015
40.837
39.571
38.19
36.664
34.922
32.918
30.564
27.769
24.524
20.763
16.372
11.361
5.797
-0.067
-5.67
-10.493
-14.125
-16.048
-15.953
-13.872
-10.009
-5.215
-0.837
2.011
2.241
-1.107
-8.117
-18.124
-29.818
-40.609
-47.304
-46.979
-36.462
-12.995
24.519
75.89
139.622
212.185
288.901
364.707
433.557
489.401
527.844
545.664
540.784
513.38
465.471
400.41
323.362
240.388
156.841
77.826
8.49
-47.392
-87.839
-112.437
-122.617
-120.98
-110.138
-93.065
-73.564
-55.187
-40.309
-30.188
-24.88
-23.652
-25.755
-30.266
-35.658
-40.278
-43.097
-43.696
-42.254
-39.365
-35.527
-31.157
-26.835
-23.179
-20.569
-19.165
-18.918
-19.587
-20.975
-22.938
-25.312
-27.945
-30.717
-33.502
-36.181
-38.676
-40.921
-42.864
-44.484
-45.753
-46.646
-47.166
-47.339
-47.209
-46.823
-46.22
-45.421
-44.452
-43.349
-42.161
-40.943
-39.738
-38.566
-37.442
-36.375
-35.375
-34.445
-33.576
-32.748
-31.936
-31.125
-30.301
-29.459
-28.585
-27.663
-26.674
-25.604
-24.441
-23.176
-21.801
-20.306
-18.685
-16.935
-15.054
-13.046
-10.912
-8.65
-6.261
-3.747
-1.108
1.651
4.528
7.519
10.62
13.822
17.119
20.502
23.96
27.485
31.065
34.689
38.345
42.02
45.7
49.373
53.023
56.636
60.197
63.69
67.101
70.415
73.617
76.694
79.63
82.412
85.028
87.467
89.715
91.763
93.601
95.219
96.608
97.763
98.675
99.338
99.747
99.9
99.791
99.42
98.785
97.885
96.723
95.301
93.619
91.68
89.485
87.038
84.346
81.421
78.262
74.87
71.267
67.473
63.504
59.385
55.113
50.675
46.101
41.423
36.604
31.623
26.462
21.091
15.557
9.947
4.232
-1.646
-7.486
-13.051
-18.461
-23.692
-28.686
-33.911
-38.061
-39.865
-41.107
-42.321
-46.796
-58.474
-72.968
-87.349
-97.264
-96.736
-91.032
-84.615
-80.54
-83.866
-90.962
-98.152
-104.613
-108.102
-109.915
-111.716
-113.185
-114.533
-115.648
-116.191
-116.385
-116.411
-116.213
-115.783
-115.146
-114.306
-113.256
-111.999
-110.512
-108.766
-106.789
-104.609
-102.235
-99.682
-96.966
-94.103
-91.115
-88.028
-84.861
-81.635
-78.369
-75.086
-71.809
-68.562
-65.366
-62.239
-59.203
-56.275
-53.479
-50.835
-48.362
-46.077
-43.996
-42.138
-40.524
-39.17
-38.085
-37.276
-36.746
-36.504
-36.562
-36.935
-37.627
-38.629
-39.934
-41.532
-43.413
-45.557
-47.925
-50.456
-53.091
-55.784
-58.5
-61.213
-63.886
-66.468
-68.905
-71.149
-73.179
-74.987
-76.556
-77.868
-78.923
-79.753
-80.433
-81.081
-81.808
-82.691
-83.795
-85.16
-86.813
-88.817
-91.236
-94.118
-97.497
-101.345
-105.587
-110.183
-115.109
-120.205
-125.188
-129.547
-132.565
-133.776
-133.002
-130.121
-125.048
-117.707
-108.099
-96.838
-85.229
-74.194
-64.011
-54.434
-44.82
-34.855
-24.341
-12.076
4.226
26.726
56.807
94.454
138.496
188.158
242.53
299.147
354.044
402.321
439.075
461.117
466.682
453.709
420.818
368.627
299.63
218.521
131.34
43.266
-41.105
-116.624
-178.889
-225.067
-253.793
-265.914
-263.905
-250.297
-228.031
-200.695
-171.365
-142.603
-116.505
-94.196
-76.252
-62.96
-53.922
-48.542
-46.624
-47.788
-51.509
-57.13
-63.507
-69.82
-75.813
-81.088
-85.039
-87.323
-87.733
-86.507
-84.525
-82.319
-80.032
-77.88
-76.015
-74.512
-73.471
-72.712
-71.752
-70.315
-68.309
-65.687
-62.538
-58.929
-54.873
-50.464
-45.848
-41.132
-36.399
-31.697
-27.03
-22.414
-17.876
-13.438
-9.126
-4.955
-0.93
2.949
6.688
10.295
13.769
17.114
20.329
23.413
26.375
29.217
31.939
34.544
37.032
39.408
41.684
43.867
45.958
47.961
49.873
51.697
53.437
55.1
56.688
58.205
59.656
61.043
62.374
63.65
64.873
66.043
67.159
68.221
69.228
70.179
71.073
71.909
72.684
73.398
74.049
74.634
75.151
75.595
75.964
76.253
76.46
76.58
76.61
76.547
76.387
76.127
75.765
75.3
74.73
74.052
73.268
72.377
71.381
70.279
69.075
67.772
66.373
64.882
63.306
61.649
59.917
58.118
56.258
54.344
52.384
50.385
48.353
46.298
44.226
42.145
40.064
37.988
35.926
33.885
31.87
29.888
27.944
26.044
24.191
22.389
20.641
18.949
17.316
15.742
14.229
12.775
11.382
10.046
8.767
7.542
6.369
5.245
4.165
3.127
2.128
1.163
0.229
-0.677
-1.559
-2.42
-3.263
-4.091
-4.907
-5.713
-6.511
-7.302
-8.087
-8.864
-9.634
-10.394
-11.143
-11.877
-12.594
-13.289
-13.959
-14.599
-15.205
-15.771
-16.292
-16.762
-17.175
-17.526
-17.807
-18.014
-18.14
-18.18
-18.132
-17.99
-17.754
-17.42
-16.986
-16.452
-15.817
-15.083
-14.25
-13.322
-12.3
-11.19
-10.001
-8.742
-7.427
-6.064
-4.667
-3.25
-1.826
-0.41
0.987
2.357
3.687
4.965
6.177
7.306
8.339
9.263
10.062
10.723
11.235
11.588
11.778
11.806
11.664
11.349
10.852
10.152
9.242
8.116
6.775
5.226
3.486
1.574
-0.477
-2.621
-4.825
-7.047
-9.253
-11.42
-13.503
-15.469
-17.288
-18.908
-20.287
-21.398
-22.218
-22.768
-23.089
-23.212
-23.183
-23.052
-22.87
-22.732
-22.73
-22.95
-23.496
-24.401
-25.73
-27.625
-30.086
-33.004
-36.145
-39.011
-41.161
-42.353
-42.22
-40.454
-37.137
-32.501
-27.164
-22.23
-18.43
-16.277
-16.428
-18.962
-23.187
-27.956
-31.362
-31.05
-25.129
-11.706
11.346
45.258
90.003
144.444
206.324
272.655
340.082
404.61
461.364
505.567
533.737
543.551
533.547
503.676
455.43
391.597
316.781
236.82
156.912
82.067
17.435
-33.511
-69.076
-88.801
-94.232
-88.42
-74.275
-55.331
-35.873
-18.824
-5.932
1.782
4.673
3.787
0.027
-5.146
-9.798
-12.839
-13.754
-12.416
-9.368
-5.197
-0.323
4.628
8.943
12.243
14.35
15.256
15.201
14.377
12.91
10.984
8.784
6.451
4.129
1.949
-0.013
-1.692
-3.028
-3.995
-4.572
-4.748
-4.537
-3.976
-3.109
-1.983
-0.64
0.89
2.569
4.351
6.178
7.987
9.728
11.369
12.886
14.262
15.483
16.543
17.446
18.211
18.853
19.385
19.815
20.148
20.391
20.559
20.665
20.723
20.744
20.735
20.705
20.662
20.613
20.562
20.51
20.456
20.399
20.342
20.288
20.237
20.191
20.149
20.111
20.077
20.046
20.016
19.98
19.936
19.877
19.798
19.695
19.559
19.384
19.164
18.892
18.56
18.162
17.691
17.14
16.5
15.768
14.936
14
12.954
11.795
10.519
9.125
7.61
5.974
4.217
2.339
0.343
-1.769
-3.995
-6.328
-8.766
-11.303
-13.931
-16.644
-19.433
-22.289
-25.205
-28.17
-31.174
-34.207
-37.26
-40.323
-43.385
-46.437
-49.469
-52.472
-55.436
-58.354
-61.218
-64.019
-66.753
-69.414
-71.995
-74.494
-76.907
-79.229
-81.46
-83.597
-85.639
-87.584
-89.432
-91.184
-92.838
-94.397
-95.862
-97.233
-98.512
-99.701
-100.802
-101.816
-102.745
-103.591
-104.356
-105.041
-105.647
-106.177
-106.63
-107.008
-107.31
-107.537
-107.686
-107.755
-107.743
-107.645
-107.457
-107.176
-106.797
-106.316
-105.728
-105.03
-104.217
-103.285
-102.23
-101.049
-99.738
-98.295
-96.717
-95.002
-93.149
-91.159
-89.033
-86.773
-84.382
-81.863
-79.223
-76.467
-73.601
-70.626
-67.551
-64.382
-61.129
-57.809
-54.429
-50.998
-47.547
-44.105
-40.7
-37.365
-34.107
-30.923
-27.846
-24.914
-22.091
-19.357
-16.7
-14.091
-11.581
-9.255
-7.086
-5.008
-3.225
-1.968
-1.104
-0.645
-0.633
-0.58
-1.812
-5.625
-10.199
-14.986
-16.611
-11.034
-2.721
5.361
8.793
1.511
-11.049
-24.277
-35.004
-38.006
-36.945
-35.526
-34.524
-36.172
-39.073
-41.46
-43.646
-45.403
-46.831
-48.275
-49.476
-50.269
-50.816
-51.238
-51.632
-52.146
-52.848
-53.867
-55.487
-57.811
-60.779
-64.188
-67.488
-70.221
-72.233
-73.196
-72.726
-70.954
-68.17
-65.157
-63.619
-64.747
-69.055
-77.291
-89.795
-105.789
-123.995
-142.024
-155.916
-162.529
-159.765
-144.771
-115.175
-70.717
-11.917
57.814
131.084
203.469
272.457
336.442
397.71
452.721
492.663
506.777
481.3
413.636
311.04
188.602
70.676
-27.234
-96.839
-137.369
-160.523
-174.894
-186.256
-196.933
-202.095
-199.385
-189.34
-175.018
-161.87
-152.724
-148.264
-148.028
-150.386
-154.381
-159.211
-163.354
-165.898
-166.523
-165.11
-162.139
-158.207
-153.671
-149.057
-145.041
-141.98
-140.035
-139.225
-139.329
-140.148
-141.56
-143.343
-145.261
-147.139
-148.798
-150.14
-151.14
-151.732
-151.859
-151.495
-150.613
-149.22
-147.344
-145.005
-142.227
-139.056
-135.534
-131.721
-127.683
-123.482
-119.189
-114.861
-110.535
-106.246
-102.018
-97.864
-93.799
-89.824
-85.93
-82.115
-78.376
-74.709
-71.114
-67.587
-64.119
-60.701
-57.322
-53.974
-50.651
-47.351
-44.07
-40.809
-37.568
-34.35
-31.162
-28.007
-24.889
-21.81
-18.769
-15.769
-12.812
-9.901
-7.037
-4.222
-1.461
1.242
3.883
6.456
8.958
11.385
13.732
15.996
18.174
20.261
22.254
24.151
25.947
27.64
29.226
30.701
32.064
33.313
34.448
35.468
36.375
37.169
37.852
38.429
38.902
39.275
39.553
39.739
39.841
39.863
39.812
39.695
39.519
39.292
39.022
38.716
38.383
38.029
37.663
37.29
36.916
36.55
36.201
35.877
35.586
35.333
35.119
34.957
34.859
34.815
34.821
34.872
34.955
35.086
35.289
35.546
35.837
36.21
36.697
37.326
38.137
39.092
40.118
41.251
42.559
43.853
44.908
45.854
46.674
47.325
48.279
48.254
46.002
43.3
40.686
41.429
49.438
60.381
71.37
78.104
74.677
66.313
57.44
51.093
52.289
57.444
62.928
67.936
70.258
71.181
72.363
73.492
74.785
76.135
77.213
78.243
79.405
80.646
81.959
83.368
84.873
86.461
88.129
89.846
91.573
93.326
95.12
96.948
98.811
100.706
102.63
104.584
106.571
108.583
110.613
112.653
114.693
116.723
118.736
120.721
122.668
124.568
126.415
128.202
129.925
131.578
133.153
134.644
136.042
137.339
138.527
139.601
140.555
141.389
142.098
142.683
143.144
143.485
143.703
143.793
143.739
143.527
143.157
142.632
141.965
141.172
140.271
139.289
138.269
137.257
136.303
135.457
134.754
134.218
133.871
133.748
133.9
134.371
135.167
136.255
137.6
139.164
140.924
142.85
144.841
146.75
148.417
149.681
150.407
150.539
150.006
148.674
146.524
143.642
140.25
136.802
133.705
131.166
129.364
128.489
128.464
129.095
130.084
130.722
130.433
128.935
126.04
121.862
117.272
113.513
111.763
113.719
120.975
134.719
156.421
187.307
227.178
275.08
328.618
383.076
434.582
480.768
522.895
565.026
606.632
642.036
657.504
636.076
573.175
474.071
354.221
238.024
138.833
62.667
12
-21.733
-43.324
-54.259
-58.491
-54.472
-42.032
-24.585
-4.907
12.796
25.547
32.82
34.884
33.014
28.508
22.671
17.322
13.55
11.765
12.032
13.819
16.556
19.869
23.177
25.796
27.362
27.733
26.952
25.311
23.028
20.241
17.157
13.967
10.832
7.921
5.336
3.1
1.249
-0.195
-1.227
-1.826
-2.001
-1.79
-1.237
-0.39
0.707
2.02
3.507
5.122
6.812
8.513
10.182
11.792
13.326
14.773
16.127
17.382
18.544
19.634
20.668
21.665
22.634
23.584
24.526
25.475
26.447
27.46
28.524
29.648
30.84
32.108
33.457
34.892
36.411
38.012
39.693
41.452
43.288
45.2
47.184
49.233
51.343
53.506
55.715
57.961
60.231
62.513
64.793
67.06
69.299
71.496
73.635
75.703
77.684
79.564
81.33
82.967
84.462
85.802
86.974
87.968
88.773
89.379
89.779
89.965
89.932
89.676
89.195
88.488
87.555
86.399
85.023
83.434
81.638
79.644
77.461
75.101
72.575
69.898
67.084
64.147
61.103
57.969
54.759
51.491
48.179
44.839
41.485
38.132
34.793
31.481
28.208
24.985
21.823
18.73
15.715
12.784
9.944
7.197
4.547
1.995
-0.46
-2.82
-5.087
-7.266
-9.362
-11.382
-13.334
-15.227
-17.069
-18.871
-20.642
-22.395
-24.138
-25.883
-27.64
-29.419
-31.228
-33.074
-34.966
-36.908
-38.905
-40.961
-43.078
-45.258
-47.501
-49.808
-52.177
-54.604
-57.087
-59.618
-62.193
-64.803
-67.44
-70.093
-72.752
-75.405
-78.04
-80.643
-83.202
-85.702
-88.128
-90.466
-92.703
-94.825
-96.818
-98.671
-100.372
-101.912
-103.283
-104.481
-105.501
-106.342
-107.007
-107.497
-107.817
-107.975
-107.978
-107.835
-107.557
-107.154
-106.639
-106.023
-105.321
-104.551
-103.731
-102.882
-102.023
-101.177
-100.365
-99.614
-98.949
-98.396
-97.969
-97.688
-97.572
-97.648
-97.951
-98.506
-99.325
-100.416
-101.782
-103.426
-105.344
-107.514
-109.891
-112.421
-115.059
-117.774
-120.553
-123.379
-126.218
-129.019
-131.719
-134.28
-136.698
-138.98
-141.121
-143.115
-144.982
-146.791
-148.686
-150.82
-153.305
-156.205
-159.541
-163.328
-167.618
-172.505
-178.072
-184.374
-191.408
-199.071
-207.313
-216.148
-225.419
-234.811
-243.793
-251.542
-257.37
-260.994
-262.184
-260.755
-256.842
-250.464
-241.988
-232.654
-223.62
-215.488
-208.523
-202.186
-195.291
-187.246
-177.065
-162.472
-141.127
-110.903
-70.334
-19.972
38.365
103.334
172.665
242.353
307.765
363.427
404.198
427.223
430.887
413.398
374.515
316.24
242.025
157.235
67.772
-21.636
-106.294
-180.713
-240.524
-283.548
-309.299
-319.175
-315.348
-299.726
-275.241
-246.548
-218.329
-193.629
-174.136
-160.413
-152.694
-151.538
-156.559
-165.568
-175.684
-185.034
-192.731
-198.538
-202.313
-203.398
-201.522
-197.54
-192.953
-188.859
-185.735
-183.583
-182.25
-181.926
-182.764
-184.505
-186.57
-188.395
-189.661
-190.306
-190.415
-189.989
-188.968
-187.341
-185.164
-182.546
-179.584
-176.325
-172.772
-168.927
-164.832
-160.548
-156.158
-151.748
-147.373
-143.067
-138.856
-134.759
-130.791
-126.971
-123.306
-119.787
-116.406
-113.161
-110.053
-107.091
-104.276
-101.597
-99.036
-96.577
-94.208
-91.924
-89.717
-87.58
-85.505
-83.487
-81.523
-79.614
-77.756
-75.945
-74.174
-72.436
-70.725
-69.038
-67.37
-65.715
-64.071
-62.435
-60.806
-59.184
-57.568
-55.959
-54.356
-52.761
-51.176
-49.6
-48.038
-46.49
-44.959
-43.45
-41.965
-40.509
-39.085
-37.698
-36.35
-35.046
-33.788
-32.578
-31.418
-30.31
-29.253
-28.249
-27.297
-26.396
-25.546
-24.744
-23.988
-23.276
-22.604
-21.968
-21.364
-20.786
-20.228
-19.686
-19.153
-18.624
-18.094
-17.555
-17.002
-16.429
-15.83
-15.199
-14.529
-13.816
-13.053
-12.235
-11.359
-10.421
-9.419
-8.35
-7.214
-6.01
-4.74
-3.404
-2.004
-0.544
0.974
2.543
4.161
5.819
7.512
9.233
10.975
12.73
14.491
16.25
17.998
19.73
21.436
23.11
24.743
26.327
27.855
29.319
30.712
32.027
33.257
34.398
35.443
36.391
37.237
37.981
38.622
39.158
39.59
39.921
40.152
40.289
40.334
40.295
40.177
39.987
39.734
39.427
39.073
38.68
38.257
37.814
37.359
36.9
36.447
36.007
35.587
35.196
34.843
34.533
34.272
34.065
33.916
33.828
33.802
33.838
33.931
34.076
34.27
34.505
34.774
35.072
35.389
35.715
36.044
36.366
36.669
36.942
37.167
37.327
37.408
37.389
37.26
37.005
36.612
36.071
35.37
34.494
33.423
32.133
30.601
28.819
26.777
24.469
21.91
19.113
16.114
12.974
9.722
6.392
3.005
-0.435
-3.873
-7.233
-10.464
-13.489
-16.273
-18.843
-21.13
-23.05
-24.748
-26.349
-28.041
-30.128
-32.566
-35.22
-38.262
-41.82
-45.732
-49.986
-54.349
-58.461
-62.755
-67.659
-73.114
-79.177
-86.005
-93.523
-101.999
-111.691
-121.767
-131.376
-140.021
-147.026
-151.775
-153.703
-151.905
-145.587
-134.997
-120.75
-103.401
-83.52
-61.562
-38.175
-14.179
9.972
34.855
62.003
93.277
128.538
165.566
203.201
240.415
280.722
332.276
396.343
468.176
533.444
567.749
556.934
500.06
409.502
310.828
222.177
150.514
95.074
47.858
5.898
-28.784
-53.918
-67.207
-70.09
-66.387
-59.477
-52.219
-46.73
-44.208
-45.212
-49.411
-55.592
-62.291
-68.076
-72.093
-73.911
-73.299
-70.412
-65.688
-59.784
-53.536
-47.776
-42.974
-39.35
-37.014
-35.915
-36
-37.197
-39.309
-42.11
-45.428
-49.107
-53.021
-57.058
-61.035
-64.779
-68.167
-71.102
-73.539
-75.466
-76.858
-77.711
-78.049
-77.903
-77.315
-76.328
-74.973
-73.293
-71.342
-69.184
-66.899
-64.549
-62.174
-59.806
-57.462
-55.149
-52.87
-50.62
-48.377
-46.127
-43.861
-41.57
-39.254
-36.909
-34.525
-32.092
-29.599
-27.04
-24.412
-21.712
-18.937
-16.089
-13.17
-10.188
-7.151
-4.066
-0.938
2.228
5.428
8.655
11.903
15.166
18.438
21.709
24.971
28.211
31.418
34.578
37.679
40.709
43.652
46.496
49.226
51.829
54.293
56.606
58.754
60.728
62.516
64.11
65.502
66.683
67.648
68.392
68.91
69.201
69.263
69.095
68.7
68.079
67.237
66.179
64.912
63.444
61.782
59.939
57.926
55.757
53.445
51.006
48.458
45.817
43.102
40.332
37.525
34.7
31.877
29.074
26.309
23.601
20.966
18.421
15.98
13.659
11.469
9.423
7.531
5.8
4.24
2.853
1.646
0.62
-0.225
-0.888
-1.373
-1.684
-1.824
-1.8
-1.621
-1.295
-0.832
-0.242
0.462
1.268
2.162
3.13
4.158
5.232
6.337
7.459
8.582
9.694
10.781
11.83
12.83
13.77
14.64
15.434
16.146
16.77
17.305
17.75
18.104
18.37
18.553
18.659
18.693
18.665
18.583
18.459
18.305
18.133
17.956
17.789
17.645
17.539
17.486
17.501
17.597
17.789
18.09
18.513
19.072
19.779
20.644
21.677
22.888
24.282
25.867
27.642
29.606
31.754
34.081
36.579
39.238
42.045
44.987
48.051
51.224
54.494
57.843
61.253
64.7
68.161
71.618
75.046
78.426
81.737
84.956
88.069
91.067
93.932
96.648
99.188
101.519
103.612
105.448
107.008
108.285
109.276
109.984
110.429
110.643
110.657
110.498
110.19
109.748
109.21
108.619
108.019
107.475
107.03
106.722
106.592
106.64
106.842
107.161
107.535
107.904
108.208
108.358
108.262
107.81
106.866
105.346
103.134
100.047
96.077
91.324
86.014
80.691
75.855
71.855
69.191
68.252
68.925
70.861
73.283
74.846
74.614
71.949
66.064
56.92
45.473
33.305
22.951
17.55
19.644
31.581
55.865
93.831
145.254
208.657
281.12
358.69
437.213
512.192
578.142
629.655
662.78
674.572
664.47
635.107
589.332
529.094
453.697
360.943
253.12
140.123
40.493
-27.179
-55.009
-47.633
-21.242
6.707
27.373
39.753
48.065
56.223
64.398
70.312
71.263
66.835
58.26
47.538
37.209
28.413
21.432
16.49
13.199
11.038
9.623
8.273
6.261
3.303
-0.695
-5.689
-11.418
-17.688
-24.333
-31.092
-37.718
-44.015
-49.864
-55.227
-60.098
-64.46
-68.287
-71.559
-74.283
-76.493
-78.217
-79.486
-80.335
-80.793
-80.912
-80.754
-80.376
-79.842
-79.198
-78.476
-77.704
-76.904
-76.089
-75.274
-74.461
-73.643
-72.816
-71.979
-71.128
-70.262
-69.375
-68.458
-67.502
-66.494
-65.424
-64.283
-63.065
-61.76
-60.364
-58.871
-57.276
-55.581
-53.782
-51.875
-49.86
-47.73
-45.483
-43.118
-40.633
-38.029
-35.307
-32.468
-29.519
-26.464
-23.312
-20.071
-16.749
-13.357
-9.906
-6.408
-2.876
0.676
4.234
7.782
11.305
14.786
18.206
21.55
24.798
27.935
30.943
33.806
36.507
39.032
41.365
43.494
45.406
47.09
48.535
49.733
50.676
51.358
51.777
51.929
51.815
51.437
50.799
49.904
48.761
47.378
45.765
43.932
41.891
39.657
37.245
34.669
31.946
29.093
26.127
23.066
19.928
16.73
13.489
10.222
6.945
3.675
0.428
-2.781
-5.936
-9.025
-12.033
-14.948
-17.761
-20.462
-23.044
-25.501
-27.829
-30.023
-32.082
-34.005
-35.793
-37.447
-38.97
-40.365
-41.637
-42.792
-43.837
-44.78
-45.626
-46.384
-47.06
-47.66
-48.19
-48.652
-49.05
-49.386
-49.663
-49.884
-50.052
-50.171
-50.244
-50.277
-50.275
-50.24
-50.172
-50.068
-49.923
-49.73
-49.48
-49.163
-48.767
-48.283
-47.701
-47.015
-46.222
-45.312
-44.278
-43.106
-41.773
-40.268
-38.584
-36.716
-34.667
-32.45
-30.084
-27.608
-25.065
-22.483
-19.884
-17.275
-14.639
-11.972
-9.261
-6.49
-3.662
-0.773
2.188
5.216
8.315
11.51
14.84
18.376
22.207
26.371
30.878
35.721
40.839
46.172
51.646
57.137
62.556
67.823
72.852
77.598
82.021
86.033
89.545
92.438
94.574
95.89
96.37
95.996
94.824
92.926
90.396
87.414
84.126
80.632
77.037
73.394
69.739
66.169
62.766
59.588
56.729
54.205
51.983
50.074
48.432
46.989
45.666
44.29
42.709
40.842
38.602
35.984
33.001
29.569
25.74
21.71
17.754
14.364
12.057
11.136
11.891
14.575
19.098
25.245
32.43
39.5
45.356
49.036
49.994
48.424
45.096
41.111
38.333
39.275
46.561
63.084
90.554
128.993
177.566
234.306
295.877
358.139
415.999
463.258
495.061
508.261
500.419
470.889
420.951
353.125
271.888
183.608
94.138
8.757
-67.058
-129.128
-175.082
-203.924
-216.633
-215.965
-204.837
-186.432
-164.837
-143.847
-126.029
-112.942
-104.981
-101.559
-102.007
-105.49
-110.444
-115.188
-118.751
-120.722
-121.195
-120.66
-119.487
-117.972
-116.668
-116.199
-116.897
-118.852
-121.927
-125.809
-130.266
-135.124
-140.171
-145.185
-149.952
-154.313
-158.196
-161.595
-164.51
-166.937
-168.865
-170.288
-171.236
-171.761
-171.917
-171.754
-171.314
-170.642
-169.79
-168.821
-167.8
-166.777
-165.779
-164.825
-163.926
-163.088
-162.32
-161.623
-160.984
-160.39
-159.831
-159.3
-158.795
-158.31
-157.834
-157.354
-156.86
-156.343
-155.801
-155.229
-154.623
-153.983
-153.306
-152.597
-151.859
-151.096
-150.308
-149.496
-148.661
-147.804
-146.929
-146.037
-145.13
-144.21
-143.283
-142.353
-141.426
-140.506
-139.597
-138.705
-137.834
-136.988
-136.173
-135.394
-134.653
-133.958
-133.312
-132.721
-132.191
-131.726
-131.332
-131.01
-130.767
-130.604
-130.523
-130.527
-130.616
-130.79
-131.048
-131.39
-131.814
-132.317
-132.895
-133.545
-134.262
-135.04
-135.874
-136.757
-137.681
-138.639
-139.624
-140.629
-141.646
-142.667
-143.684
-144.691
-145.679
-146.641
-147.568
-148.454
-149.29
-150.069
-150.785
-151.431
-152.002
-152.491
-152.896
-153.213
-153.438
-153.57
-153.608
-153.55
-153.398
-153.151
-152.813
-152.385
-151.871
-151.274
-150.6
-149.853
-149.04
-148.165
-147.234
-146.254
-145.23
-144.167
-143.071
-141.948
-140.803
-139.641
-138.469
-137.291
-136.112
-134.937
-133.77
-132.615
-131.473
-130.349
-129.242
-128.153
-127.082
-126.029
-124.991
-123.968
-122.956
-121.952
-120.953
-119.954
-118.951
-117.938
-116.91
-115.86
-114.782
-113.67
-112.518
-111.321
-110.073
-108.769
-107.407
-105.982
-104.493
-102.938
-101.313
-99.619
-97.856
-96.024
-94.126
-92.164
-90.141
-88.062
-85.936
-83.771
-81.578
-79.37
-77.157
-74.953
-72.771
-70.623
-68.523
-66.48
-64.504
-62.606
-60.796
-59.087
-57.493
-56.026
-54.7
-53.526
-52.512
-51.663
-50.984
-50.478
-50.142
-49.975
-49.977
-50.151
-50.508
-51.059
-51.804
-52.737
-53.841
-55.092
-56.461
-57.915
-59.409
-60.899
-62.342
-63.69
-64.913
-65.983
-66.878
-67.566
-67.991
-68.104
-67.871
-67.292
-66.393
-65.206
-63.759
-62.085
-60.236
-58.295
-56.355
-54.525
-52.896
-51.543
-50.501
-49.819
-49.621
-49.908
-50.557
-51.309
-51.697
-51.275
-49.751
-46.892
-42.456
-36.559
-29.58
-21.993
-14.721
-8.689
-4.554
-2.785
-3.404
-5.444
-7.395
-7.868
-4.971
3.375
19.083
44.081
79.459
124.442
177.165
235.851
297.852
359.665
417.332
465.944
500.814
519.258
519.717
500.636
462.04
405.671
334.436
253.304
168.272
84.277
6.109
-61
-113.647
-150.268
-170.466
-175.994
-169.97
-155.262
-135.472
-115.051
-96.99
-83.019
-74.194
-70.223
-70.196
-73.382
-78.366
-83.141
-86.594
-88.274
-88.071
-86.502
-84.076
-81.071
-78.046
-75.722
-74.461
-74.4
-75.486
-77.394
-79.89
-82.837
-86.028
-89.26
-92.366
-95.165
-97.545
-99.485
-100.958
-101.949
-102.459
-102.471
-101.999
-101.095
-99.818
-98.231
-96.389
-94.335
-92.116
-89.785
-87.404
-85.039
-82.737
-80.53
-78.438
-76.477
-74.658
-72.994
-71.484
-70.112
-68.865
-67.731
-66.7
-65.769
-64.928
-64.163
-63.458
-62.8
-62.178
-61.584
-61.008
-60.441
-59.875
-59.302
-58.719
-58.123
-57.512
-56.879
-56.22
-55.531
-54.809
-54.053
-53.261
-52.429
-51.555
-50.639
-49.685
-48.699
-47.685
-46.648
-45.592
-44.523
-43.447
-42.373
-41.304
-40.243
-39.19
-38.15
-37.133
-36.151
-35.217
-34.337
-33.512
-32.744
-32.036
-31.392
-30.814
-30.296
-29.835
-29.447
-29.13
-28.875
-28.678
-28.528
-28.424
-28.393
-28.42
-28.46
-28.564
-28.87
-29.507
-30.575
-32.066
-33.832
-35.826
-38.168
-40.764
-43.115
-44.965
-46.435
-47.624
-49.305
-50.962
-49.851
-46.209
-42.386
-42.55
-54.669
-78.105
-103.8
-122.683
-122.604
-102.69
-75.115
-49.08
-34.111
-33.243
-38.046
-43.549
-48.825
-52.655
-60.239
-75.972
-94.847
-113.663
-127.006
-127.818
-120.975
-111.259
-102.561
-100.665
-102.553
-104.857
-106.929
-107.003
-106.623
-107.309
-108.382
-109.661
-110.834
-111.559
-112.142
-112.742
-113.236
-113.607
-113.92
-114.235
-114.577
-114.916
-115.154
-115.2
-115.048
-114.709
-114.185
-113.48
-112.585
-111.49
-110.193
-108.695
-106.993
-105.089
-102.981
-100.672
-98.167
-95.473
-92.602
-89.567
-86.38
-83.05
-79.585
-75.993
-72.287
-68.48
-64.59
-60.633
-56.625
-52.583
-48.521
-44.452
-40.394
-36.366
-32.387
-28.477
-24.653
-20.934
-17.342
-13.894
-10.607
-7.492
-4.554
-1.803
0.748
3.085
5.184
7.029
8.615
9.933
10.983
11.776
12.329
12.668
12.84
12.874
12.792
12.618
12.362
12.051
11.731
11.433
11.195
11.056
11.039
11.176
11.488
11.934
12.46
13.007
13.499
13.925
14.272
14.476
14.49
14.229
13.594
12.572
11.101
9.042
6.417
3.351
0.116
-2.694
-4.584
-5.284
-4.395
-1.656
2.748
8.477
14.713
20.153
24.009
25.804
24.965
21.544
16.339
10.608
6.54
6.725
12.957
26.952
50.554
84.681
129.411
183.775
245.355
311.215
378.525
443.599
502.014
549.714
582.896
598.48
594.87
571.337
527.88
468.123
397.141
318.115
236.414
154.267
72.958
1.827
-53.154
-86.48
-92.517
-78.919
-53.716
-23.73
1.554
21.624
37.522
48.584
56.561
60.67
60.285
56.945
52.184
47.952
45.557
45.171
46.559
49.28
52.858
56.84
60.611
63.571
65.441
66.188
65.982
65.093
63.716
62.041
60.28
58.644
57.316
56.413
55.994
56.082
56.69
57.833
59.516
61.733
64.457
67.646
71.25
75.217
79.504
84.059
88.827
93.751
98.762
103.811
108.863
113.891
118.878
123.81
128.675
133.469
138.198
142.868
147.486
152.056
156.581
161.062
165.509
169.929
174.333
178.729
183.12
187.508
191.897
196.29
200.688
205.092
209.498
213.905
218.315
222.729
227.15
231.58
236.019
240.468
244.928
249.4
253.883
258.377
262.878
267.386
271.899
276.415
280.931
285.445
289.954
294.454
298.942
303.414
307.867
312.296
316.697
321.066
325.397
329.688
333.934
338.13
342.274
346.362
350.39
354.357
358.258
362.093
365.859
369.554
373.178
376.731
380.21
383.615
386.948
390.207
393.394
396.507
399.548
402.517
405.413
408.238
410.992
413.674
416.284
418.822
421.287
423.68
425.998
428.241
430.407
432.496
434.503
436.429
438.269
440.022
441.684
443.251
444.72
446.086
447.345
448.492
449.522
450.431
451.214
451.866
452.383
452.762
452.998
453.09
453.036
452.833
452.48
451.979
451.329
450.532
449.592
448.51
447.294
445.947
444.477
442.891
441.198
439.407
437.528
435.571
433.547
431.469
429.349
427.2
425.036
422.872
420.721
418.598
416.518
414.495
412.543
410.675
408.905
407.244
405.703
404.292
403.021
401.895
400.921
400.103
399.441
398.936
398.584
398.38
398.316
398.382
398.562
398.842
399.205
399.632
400.103
400.595
401.084
401.546
401.955
402.285
402.506
402.588
402.497
402.201
401.667
400.863
399.757
398.318
396.512
394.309
391.68
388.599
385.042
380.979
376.379
371.216
365.476
359.155
352.256
344.79
336.77
328.22
319.18
309.692
299.801
289.555
278.983
268.123
257.015
245.712
234.285
222.802
211.304
199.818
188.354
176.911
165.492
154.075
142.583
130.942
119.074
106.906
94.418
81.594
68.409
54.859
40.92
26.549
11.747
-3.47
-19.069
-34.922
-50.925
-66.997
-82.87
-98.183
-112.468
-125
-135.137
-142.576
-147.063
-148.419
-146.749
-142.178
-135.181
-127.115
-119.45
-112.978
-107.93
-103.85
-99.849
-95.353
-89.209
-78.671
-60.319
-31.4
8.243
55.874
108.77
165.932
229.467
301.593
378.889
451.541
504.312
523.92
503.588
445.014
358.84
254.088
141.911
34.306
-62.95
-140.173
-194.206
-231.258
-254.979
-272.768
-287.891
-295.36
-293.461
-281.419
-260.769
-237.943
-216.856
-198.99
-185.937
-177.747
-174.66
-178.018
-187.776
-202.482
-220.972
-241.801
-263.082
-283.872
-303.258
-319.729
-332.704
-342.389
-348.987
-353.386
-356.838
-359.841
-362.787
-366.251
-370.33
-375.015
-380.322
-385.812
-390.908
-395.365
-399.032
-401.842
-403.915
-405.28
-405.923
-405.944
-405.456
-404.542
-403.277
-401.685
-399.755
-397.501
-394.95
-392.143
-389.136
-385.968
-382.663
-379.227
-375.653
-371.937
-368.101
-364.181
-360.244
-356.358
-352.561
-348.855
-345.225
-341.662
-338.183
-334.828
-331.567
-328.284
-324.949
-321.701
-318.873
-316.825
-315.653
-315.083
-314.743
-314.516
-314.254
-313.547
-311.574
-307.325
-300.385
-291.281
-281.042
-270.341
-259.649
-249.574
-241.162
-235.822
-234.286
-236.032
-239.709
-244.264
-249.07
-253.614
-257.19
-258.687
-257.401
-253.612
-248.334
-242.446
-236.426
-230.497
-224.827
-219.858
-215.968
-213.104
-210.863
-208.854
-206.882
-204.936
-203.117
-201.42
-199.777
-198.18
-196.685
-195.363
-194.254
-193.34
-192.557
-191.852
-191.203
-190.608
-190.075
-189.607
-189.192
-188.822
-188.485
-188.173
-187.882
-187.606
-187.34
-187.077
-186.811
-186.54
-186.264
-185.984
-185.698
-185.401
-185.081
-184.728
-184.336
-183.902
-183.426
-182.906
-182.34
-181.73
-181.078
-180.388
-179.665
-178.913
-178.137
-177.343
-176.536
-175.726
-174.919
-174.125
-173.35
-172.601
-171.882
-171.2
-170.557
-169.957
-169.403
-168.897
-168.442
-168.04
-167.693
-167.404
-167.174
-167.003
-166.89
-166.83
-166.817
-166.843
-166.897
-166.967
-167.038
-167.094
-167.118
-167.094
-167.005
-166.83
-166.546
-166.124
-165.539
-164.776
-163.822
-162.67
-161.317
-159.768
-158.034
-156.14
-154.111
-151.966
-149.723
-147.388
-144.962
-142.447
-139.846
-137.169
-134.411
-131.542
-128.525
-125.313
-121.853
-118.096
-113.973
-109.392
-104.275
-98.565
-92.227
-85.257
-77.673
-69.509
-60.815
-51.65
-42.115
-32.344
-22.494
-12.74
-3.256
5.791
14.211
21.784
28.319
33.663
37.696
40.346
41.581
41.4
39.841
36.99
32.968
27.933
22.071
15.591
8.701
1.608
-5.473
-12.314
-18.717
-24.52
-29.583
-33.816
-37.201
-39.749
-41.532
-42.659
-43.215
-43.318
-43.141
-42.865
-42.698
-42.846
-43.436
-44.633
-46.634
-49.461
-53.051
-57.166
-61.228
-64.742
-67.316
-68.387
-67.569
-64.915
-60.648
-55.491
-50.716
-47.147
-45.418
-46.42
-50.343
-56.459
-63.448
-68.941
-69.906
-64.027
-49.267
-22.91
16.947
70.386
136.483
211.529
289.029
365.096
436.896
502.019
561.761
611.472
641.05
641.784
603.808
528.686
430.171
321.813
218.854
129.024
50.843
-14.477
-66.395
-104.49
-125.911
-131.581
-125.374
-110.637
-91.846
-73.903
-59.519
-50.25
-46.991
-49.019
-54.935
-63.657
-73.539
-82.458
-89.298
-93.537
-95.025
-94.452
-92.542
-89.78
-86.88
-84.586
-83.269
-83.128
-84.177
-86.157
-88.868
-92.16
-95.825
-99.695
-103.641
-107.538
-111.278
-114.745
-117.831
-120.457
-122.566
-124.131
-125.132
-125.551
-125.393
-124.695
-123.491
-121.82
-119.711
-117.171
-114.226
-110.914
-107.28
-103.386
-99.271
-94.958
-90.465
-85.803
-80.977
-75.989
-70.829
-65.472
-59.9
-54.103
-48.075
-41.817
-35.325
-28.591
-21.612
-14.383
-6.907
0.81
8.762
16.938
25.326
33.906
42.658
51.553
60.566
69.672
78.841
88.047
97.258
106.443
115.57
124.606
133.519
142.274
150.834
159.165
167.232
175.001
182.436
189.505
196.175
202.414
208.193
213.483
218.258
222.493
226.166
229.258
231.753
233.637
234.9
235.534
235.536
234.905
233.644
231.759
229.259
226.157
222.469
218.216
213.418
208.102
202.296
196.03
189.335
182.247
174.803
167.039
158.995
150.711
142.229
133.59
124.837
116.012
107.158
98.314
89.524
80.825
72.257
63.856
55.658
47.694
39.996
32.593
25.51
18.771
12.398
6.408
0.816
-4.366
-9.128
-13.463
-17.37
-20.848
-23.899
-26.527
-28.742
-30.552
-31.97
-33.011
-33.69
-34.025
-34.037
-33.746
-33.175
-32.349
-31.29
-30.024
-28.576
-26.972
-25.238
-23.397
-21.475
-19.497
-17.485
-15.462
-13.45
-11.471
-9.542
-7.684
-5.912
-4.243
-2.691
-1.268
0.013
1.144
2.116
2.922
3.558
4.019
4.303
4.41
4.34
4.093
3.672
3.08
2.321
1.398
0.315
-0.921
-2.307
-3.836
-5.504
-7.305
-9.235
-11.289
-13.461
-15.748
-18.147
-20.653
-23.265
-25.978
-28.792
-31.702
-34.707
-37.803
-40.99
-44.264
-47.625
-51.069
-54.596
-58.207
-61.904
-65.688
-69.559
-73.519
-77.568
-81.705
-85.928
-90.232
-94.607
-99.045
-103.535
-108.07
-112.638
-117.233
-121.841
-126.452
-131.054
-135.631
-140.166
-144.641
-149.034
-153.324
-157.495
