Name,Criss Capps
Date of Birth,"Feb 5, 1952"
Recorded Date,2025-04-19 18:55:30 -0400
Classification,Inconclusive
Symptoms,
Software Version,1.90
Device,"Watch5,4"
Sample Rate,512.844 hertz


Lead,Lead I
Unit,µV

341.482
419.102
441.574
409.17
338.298
252.55
171.013
100.237
38.222
-20.275
-79.89
-139.628
-194.811
-241.071
-275.641
-298.333
-310.943
-315.671
-314.26
-308.372
-300.032
-291.074
-282.636
-275.185
-268.506
-262.027
-255.35
-248.07
-239.442
-228.718
-215.565
-200.04
-182.576
-163.848
-144.444
-124.838
-105.591
-87.281
-70.338
-55.105
-41.774
-30.364
-20.873
-13.274
-7.495
-3.455
-1.053
-0.142
-0.57
-2.166
-4.732
-8.114
-12.163
-16.703
-21.559
-26.519
-31.368
-35.966
-40.226
-44.088
-47.527
-50.516
-53.048
-55.163
-56.921
-58.392
-59.653
-60.754
-61.736
-62.667
-63.627
-64.712
-66.034
-67.657
-69.615
-71.933
-74.61
-77.645
-81.029
-84.729
-88.706
-92.919
-97.324
-101.881
-106.552
-111.281
-116.006
-120.651
-125.121
-129.341
-133.245
-136.779
-139.907
-142.589
-144.783
-146.448
-147.537
-148.019
-147.883
-147.127
-145.757
-143.793
-141.254
-138.187
-134.668
-130.76
-126.514
-121.975
-117.18
-112.196
-107.099
-101.988
-96.984
-92.127
-87.406
-82.742
-77.914
-72.681
-66.861
-60.234
-52.607
-43.971
-34.301
-23.811
-13.195
-3.087
6.044
14.531
23.733
34.93
48.447
62.385
73.981
82.16
88.877
101.522
128.623
174.786
239.81
313.941
383.695
439.418
474.598
492.159
500.372
504.525
509.374
515.146
518.485
518.946
516.656
512.412
508.512
505.64
503.349
501.327
498.715
494.639
488.829
481.151
471.563
460.337
447.812
434.252
420.02
405.509
390.954
376.513
362.3
348.365
334.774
321.618
308.965
296.836
285.222
274.116
263.493
253.323
243.579
234.22
225.2
216.501
208.09
199.932
191.98
184.145
176.339
168.486
160.494
152.305
143.889
135.221
126.307
117.176
107.847
98.352
88.725
78.987
69.169
59.314
49.468
39.706
30.093
20.682
11.53
2.679
-5.846
-14.02
-21.839
-29.312
-36.446
-43.253
-49.749
-55.938
-61.834
-67.457
-72.828
-77.98
-82.94
-87.727
-92.36
-96.851
-101.211
-105.447
-109.561
-113.546
-117.4
-121.12
-124.703
-128.15
-131.463
-134.637
-137.671
-140.561
-143.304
-145.901
-148.352
-150.656
-152.816
-154.832
-156.709
-158.451
-160.063
-161.548
-162.909
-164.148
-165.267
-166.271
-167.162
-167.942
-168.615
-169.186
-169.657
-170.034
-170.322
-170.526
-170.65
-170.699
-170.679
-170.593
-170.448
-170.248
-169.998
-169.703
-169.367
-168.996
-168.592
-168.161
-167.706
-167.23
-166.738
-166.232
-165.715
-165.192
-164.663
-164.132
-163.601
-163.071
-162.546
-162.025
-161.51
-161.001
-160.5
-160.007
-159.52
-159.039
-158.564
-158.091
-157.62
-157.147
-156.671
-156.188
-155.695
-155.188
-154.665
-154.121
-153.551
-152.953
-152.319
-151.647
-150.931
-150.165
-149.345
-148.464
-147.518
-146.5
-145.404
-144.226
-142.958
-141.596
-140.133
-138.564
-136.883
-135.085
-133.164
-131.115
-128.933
-126.615
-124.155
-121.551
-118.798
-115.896
-112.841
-109.631
-106.266
-102.745
-99.068
-95.235
-91.247
-87.107
-82.815
-78.376
-73.792
-69.068
-64.207
-59.216
-54.099
-48.862
-43.512
-38.054
-32.497
-26.846
-21.111
-15.298
-9.417
-3.476
2.516
8.551
14.618
20.711
26.82
32.936
39.05
45.156
51.243
57.304
63.333
69.322
75.265
81.156
86.99
92.764
98.472
104.113
109.684
115.18
120.601
125.947
131.218
136.418
141.551
146.617
151.621
156.568
161.462
166.309
171.111
175.871
180.592
185.281
189.947
194.6
199.251
203.904
208.563
213.229
217.905
222.596
227.306
232.038
236.799
241.596
246.44
251.345
256.321
261.378
266.519
271.736
277.027
282.402
287.9
293.59
299.518
305.699
312.123
318.753
325.581
332.618
339.784
346.922
353.965
360.92
367.951
375.407
383.424
392.014
401.368
411.59
422.494
433.788
444.81
455.239
466.013
478.005
490.645
500.493
502.494
493.081
473.743
454.099
445.833
458.216
493.964
543.575
593.529
631.027
647.581
646.055
635.028
624.722
623.589
632.964
649.568
668.293
685.128
699.248
711.599
723.649
735.934
747.977
759.321
769.685
779.092
787.723
795.491
802.172
807.676
811.846
814.315
814.835
813.364
810.018
805.425
799.706
791.909
781.818
770.638
761.905
761.364
772.328
792.294
812.606
821.253
809.794
779.105
739.931
707.317
692.558
697.97
716.427
736.705
750.857
756.939
758.007
759.607
765.451
775.952
790.653
808.417
827.152
846.294
862.673
870.287
867.219
851.071
824.328
796.583
768.397
735.573
687.482
601.164
462.792
269.277
23.46
-254.143
-538.426
-807.921
-1037.46
-1212.939
-1334.595
-1407.967
-1448.456
-1471.79
-1482.986
-1482.326
-1464.929
-1423.323
-1356.892
-1269.078
-1167.775
-1064.573
-965.398
-871.816
-778.017
-671.871
-547.36
-403.839
-249.204
-100.961
24.562
112.751
151.55
136.059
66.878
-50.778
-203.498
-373.324
-543.766
-697.198
-822.058
-914.552
-970.578
-992.736
-985.846
-952.097
-901.048
-841.957
-781.478
-728.14
-681.879
-638.367
-596.253
-553.278
-512.288
-478.741
-452.773
-434.302
-422.535
-417.412
-423.698
-442.497
-468.305
-488.614
-486.027
-450.907
-386.203
-309.53
-247.157
-218.498
-230.222
-271.071
-317.429
-347.899
-350.447
-328.002
-293.915
-263.017
-244.165
-236.345
-235.337
-236.144
-236.499
-240.012
-247.302
-255.62
-262.508
-262.736
-254.746
-243.22
-231.252
-222.102
-218.053
-216.325
-215.167
-214.037
-211.739
-209.16
-207.076
-205.207
-203.737
-202.634
-201.674
-201
-200.74
-200.728
-200.821
-201.102
-201.531
-202.054
-202.926
-203.42
-202.835
-202.168
-201.725
-203.297
-209.03
-216.539
-224.231
-229.748
-229.847
-227.392
-224.806
-223.751
-226.968
-232.484
-238.297
-243.951
-248.218
-251.785
-255.54
-259.296
-263.153
-267.035
-270.744
-274.387
-278.046
-281.677
-285.263
-288.802
-292.282
-295.685
-298.997
-302.194
-305.246
-308.156
-310.927
-313.551
-316.027
-318.352
-320.525
-322.55
-324.432
-326.172
-327.775
-329.248
-330.598
-331.833
-332.963
-333.998
-334.951
-335.833
-336.659
-337.443
-338.198
-338.941
-339.685
-340.448
-341.242
-342.085
-342.989
-343.971
-345.043
-346.221
-347.516
-348.941
-350.509
-352.229
-354.112
-356.165
-358.396
-360.812
-363.417
-366.214
-369.206
-372.393
-375.774
-379.347
-383.108
-387.053
-391.174
-395.464
-399.913
-404.511
-409.247
-414.106
-419.076
-424.142
-429.287
-434.496
-439.751
-445.035
-450.33
-455.618
-460.881
-466.1
-471.257
-476.333
-481.311
-486.174
-490.904
-495.485
-499.901
-504.138
-508.182
-512.02
-515.639
-519.029
-522.18
-525.083
-527.73
-530.113
-532.228
-534.069
-535.632
-536.915
-537.918
-538.638
-539.078
-539.239
-539.124
-538.736
-538.08
-537.16
-535.983
-534.555
-532.883
-530.974
-528.838
-526.483
-523.918
-521.152
-518.195
-515.056
-511.746
-508.274
-504.649
-500.882
-496.981
-492.957
-488.821
-484.581
-480.25
-475.838
-471.357
-466.819
-462.237
-457.621
-452.984
-448.338
-443.693
-439.061
-434.45
-429.869
-425.327
-420.834
-416.399
-412.032
-407.744
-403.544
-399.441
-395.445
-391.563
-387.802
-384.161
-380.645
-377.256
-373.998
-370.886
-367.926
-365.122
-362.474
-359.981
-357.632
-355.414
-353.298
-351.242
-349.207
-347.153
-345.051
-342.879
-340.613
-338.224
-335.68
-332.942
-329.977
-326.762
-323.277
-319.511
-315.472
-311.192
-306.745
-302.243
-297.795
-293.498
-289.427
-285.643
-282.23
-279.279
-276.879
-275.118
-274.05
-273.742
-274.306
-275.776
-278.056
-280.911
-283.923
-286.645
-288.749
-289.889
-289.608
-287.62
-283.915
-278.798
-272.973
-267.116
-261.501
-256.327
-251.993
-248.653
-245.915
-242.747
-237.395
-228.121
-213.78
-193.262
-165.076
-127.78
-81.529
-28.6
28.039
85.255
143.009
204.036
267.405
329.295
381.381
411.012
411.418
380.857
321.709
243.278
153.93
61.259
-25.613
-102.084
-166.465
-219.681
-267.579
-315.001
-363.456
-411.999
-456.723
-494.295
-523.994
-547.022
-565.586
-581.214
-594.553
-605.505
-613.567
-618.76
-621.21
-620.713
-617.189
-610.4
-599.903
-585.792
-568.416
-548.101
-525.377
-500.79
-474.803
-448.044
-421.202
-394.71
-368.876
-343.908
-319.905
-297.056
-275.546
-255.458
-236.849
-219.73
-204.107
-190.015
-177.452
-166.334
-156.539
-147.896
-140.236
-133.459
-127.479
-122.205
-117.534
-113.31
-109.394
-105.684
-102.074
-98.46
-94.722
-90.718
-86.359
-81.627
-76.529
-71.103
-65.39
-59.396
-53.139
-46.654
-39.986
-33.196
-26.339
-19.448
-12.571
-5.773
0.868
7.257
13.335
19.092
24.53
29.669
34.532
39.136
43.514
47.717
51.79
55.776
59.713
63.631
67.568
71.575
75.708
80.027
84.578
89.39
94.486
99.883
105.594
111.63
117.989
124.664
131.65
138.946
146.552
154.471
162.699
171.228
180.049
189.151
198.524
208.155
218.033
228.142
238.47
249.001
259.722
270.617
281.671
292.862
304.168
315.567
327.034
338.542
350.065
361.575
373.042
384.437
395.733
406.9
417.908
428.728
439.33
449.684
459.762
469.533
478.968
488.038
496.716
504.973
512.783
520.122
526.965
533.289
539.073
544.299
548.949
553.007
556.46
559.296
561.507
563.085
564.026
564.33
563.996
563.028
561.433
559.219
556.398
552.982
548.989
544.436
539.344
533.735
527.634
521.066
514.061
506.649
498.86
490.729
482.289
473.575
464.623
455.469
446.151
436.705
427.168
417.576
407.965
398.37
388.826
379.365
370.021
360.823
351.799
342.978
334.385
326.042
317.971
310.191
302.718
295.568
288.753
282.283
276.166
270.408
265.013
259.981
255.313
251.004
247.051
243.447
240.183
237.248
234.631
232.32
230.298
228.552
227.064
225.817
224.794
223.976
223.344
222.881
222.567
222.384
222.313
222.337
222.438
222.601
222.808
223.044
223.296
223.55
223.793
224.014
224.202
224.349
224.444
224.482
224.455
224.359
224.191
223.946
223.624
223.224
222.746
222.192
221.563
220.861
220.091
219.257
218.362
217.412
216.413
215.368
214.285
213.168
212.024
210.858
209.675
208.48
207.279
206.076
204.875
203.68
202.496
201.324
200.17
199.034
197.919
196.827
195.758
194.713
193.693
192.696
191.722
190.769
189.834
188.917
188.013
187.12
186.233
185.351
184.467
183.58
182.684
181.775
180.849
179.902
178.931
177.932
176.901
175.835
174.732
173.588
172.402
171.171
169.893
168.568
167.193
165.768
164.293
162.768
161.192
159.567
157.893
156.173
154.408
152.602
150.755
148.873
146.958
145.014
143.045
141.055
139.049
137.031
135.005
132.977
130.95
128.929
126.919
124.923
122.946
120.992
119.063
117.165
115.299
113.469
111.679
109.93
108.226
106.568
104.959
103.401
101.895
100.443
99.044
97.701
96.413
95.18
94.001
92.878
91.808
90.791
89.825
88.91
88.044
87.226
86.453
85.725
85.04
84.396
83.792
83.227
82.698
82.206
81.747
81.323
80.93
80.568
80.235
79.931
79.654
79.403
79.175
78.971
78.788
78.626
78.483
78.357
78.248
78.154
78.074
78.007
77.951
77.905
77.867
77.837
77.811
77.79
77.77
77.75
77.728
77.702
77.67
77.628
77.576
77.51
77.428
77.327
77.206
77.063
76.894
76.699
76.476
76.224
75.941
75.628
75.283
74.908
74.501
74.065
73.6
73.107
72.588
72.047
71.485
70.905
70.312
69.709
69.101
68.493
67.889
67.297
66.721
66.169
65.647
65.163
64.722
64.332
64.001
63.735
63.541
63.427
63.398
63.461
63.621
63.883
64.252
64.732
65.326
66.035
66.862
67.807
68.87
70.048
71.34
72.742
74.25
75.857
77.556
79.339
81.197
83.118
85.09
87.101
89.133
91.17
93.195
95.189
97.133
99.008
100.794
102.472
104.025
105.436
106.687
107.761
108.64
109.306
109.743
109.936
109.872
109.541
108.931
108.036
106.855
105.39
103.639
101.602
99.269
96.635
93.703
90.48
86.978
83.218
79.219
75.014
70.649
66.171
61.623
57.045
52.464
47.909
43.422
39.052
34.856
30.894
27.199
23.8
20.723
17.962
15.498
13.287
11.242
9.286
7.351
5.351
3.221
0.886
-1.764
-4.809
-8.357
-12.563
-17.458
-23.007
-29.096
-35.397
-41.557
-47.257
-52.042
-55.447
-57.248
-57.3
-55.78
-53.379
-50.723
-48.433
-47.157
-47.185
-48.686
-51.841
-56.176
-60.444
-62.337
-58.395
-46.035
-24.232
5.362
39.245
76.673
119.508
172.664
241.788
326.247
420.639
516.433
603.443
674.909
725.015
746.655
732.492
675.741
574.333
432.376
260.868
75.648
-106.56
-268.234
-396.114
-484.022
-532.649
-550.54
-548.869
-536.597
-518.027
-493.126
-460.497
-419.497
-372.638
-324.051
-277.725
-237.471
-205.174
-181.151
-164.979
-155.42
-151.064
-150.684
-152.841
-155.773
-157.812
-157.561
-154.398
-148.511
-140.407
-130.714
-120.156
-109.591
-100.003
-92.38
-87.213
-84.463
-83.873
-85.043
-87.589
-91.171
-95.329
-99.519
-103.364
-106.672
-109.34
-111.357
-112.706
-113.34
-113.273
-112.582
-111.338
-109.619
-107.498
-105.026
-102.263
-99.28
-96.147
-92.941
-89.74
-86.615
-83.64
-80.896
-78.444
-76.327
-74.571
-73.173
-72.12
-71.392
-70.959
-70.785
-70.835
-71.077
-71.482
-72.024
-72.674
-73.401
-74.167
-74.932
-75.659
-76.322
-76.901
-77.382
-77.755
-78.012
-78.149
-78.17
-78.079
-77.873
-77.552
-77.109
-76.543
-75.853
-75.041
-74.111
-73.067
-71.91
-70.644
-69.273
-67.801
-66.232
-64.568
-62.812
-60.966
-59.036
-57.027
-54.948
-52.804
-50.603
-48.353
-46.063
-43.741
-41.394
-39.032
-36.661
-34.288
-31.922
-29.57
-27.24
-24.939
-22.675
-20.455
-18.285
-16.174
-14.128
-12.153
-10.256
-8.443
-6.72
-5.092
-3.567
-2.149
-0.843
0.345
1.409
2.345
3.147
3.812
4.334
4.709
4.933
5.003
4.915
4.666
4.254
3.676
2.93
2.014
0.928
-0.33
-1.759
-3.359
-5.129
-7.068
-9.173
-11.442
-13.872
-16.459
-19.2
-22.089
-25.121
-28.289
-31.587
-35.009
-38.545
-42.187
-45.927
-49.755
-53.66
-57.632
-61.661
-65.734
-69.839
-73.965
-78.099
-82.228
-86.34
-90.42
-94.457
-98.437
-102.349
-106.179
-109.915
-113.546
-117.059
-120.444
-123.689
-126.783
-129.717
-132.481
-135.065
-137.462
-139.663
-141.662
-143.453
-145.031
-146.392
-147.531
-148.447
-149.138
-149.602
-149.841
-149.856
-149.649
-149.223
-148.585
-147.738
-146.691
-145.449
-144.023
-142.42
-140.65
-138.725
-136.654
-134.449
-132.125
-129.693
-127.169
-124.567
-121.903
-119.193
-116.455
-113.706
-110.964
-108.246
-105.571
-102.957
-100.421
-97.981
-95.651
-93.449
-91.389
-89.489
-87.762
-86.224
-84.887
-83.764
-82.866
-82.205
-81.79
-81.624
-81.712
-82.054
-82.653
-83.51
-84.632
-86.019
-87.664
-89.561
-91.696
-94.053
-96.613
-99.342
-102.195
-105.13
-108.105
-111.084
-114.042
-116.942
-119.748
-122.421
-124.913
-127.18
-129.198
-130.934
-132.369
-133.504
-134.345
-134.929
-135.344
-135.668
-135.982
-136.362
-136.837
-137.453
-138.28
-139.388
-140.872
-142.814
-145.231
-148.173
-151.716
-155.855
-160.535
-165.547
-170.455
-174.863
-178.491
-181.024
-182.134
-181.58
-179.227
-175.312
-170.511
-165.446
-160.435
-155.805
-152.092
-149.722
-148.817
-148.013
-144.498
-136.114
-121.916
-103.422
-83.294
-61.289
-35.065
-0.111
48.923
112.104
186.636
268.01
346.883
416.129
468.443
493.055
485.931
444.538
368.973
271.146
162.185
54.299
-37.762
-111.434
-168.561
-214.247
-260.228
-311.627
-368.594
-428.827
-485.515
-534.565
-575.214
-607.983
-634.752
-656.086
-671.289
-679.896
-681.746
-677.639
-668.97
-656.575
-641.036
-622.927
-602.712
-580.91
-557.916
-533.684
-507.937
-480.686
-452.2
-422.855
-393.08
-363.203
-333.493
-304.358
-276.354
-249.909
-225.269
-202.563
-181.787
-162.932
-146.032
-131.078
-117.957
-106.527
-96.611
-88.02
-80.654
-74.424
-69.214
-64.892
-61.271
-58.158
-55.409
-52.905
-50.518
-48.121
-45.569
-42.717
-39.503
-35.915
-31.968
-27.703
-23.137
-18.277
-13.16
-7.844
-2.406
3.071
8.529
13.919
19.176
24.218
28.958
33.303
37.214
40.685
43.724
46.354
48.599
50.484
52.055
53.375
54.498
55.481
56.372
57.212
58.058
58.974
60.023
61.272
62.768
64.542
66.621
69.026
71.771
74.868
78.317
82.116
86.267
90.776
95.651
100.899
106.522
112.515
118.873
125.59
132.658
140.064
147.799
155.852
164.214
172.885
181.856
191.112
200.629
210.376
220.311
230.396
240.588
250.837
261.099
271.339
281.529
291.661
301.727
311.706
321.57
331.274
340.777
350.055
359.09
367.864
376.378
384.631
392.623
400.385
407.924
415.217
422.224
428.867
435.049
440.707
445.789
450.259
454.092
457.246
459.678
461.361
462.247
462.294
461.448
459.627
456.772
452.88
447.971
442.122
435.441
428.005
419.883
411.145
401.844
392.046
381.818
371.206
360.268
349.075
337.709
326.287
314.909
303.636
292.508
281.53
270.68
259.956
249.365
238.905
228.59
218.434
208.453
198.679
189.149
179.88
170.879
162.139
153.646
145.407
137.438
129.762
122.413
115.416
108.787
102.551
96.72
91.299
86.288
81.674
77.439
73.568
70.05
66.876
64.037
61.519
59.305
57.377
55.713
54.293
53.094
52.093
51.265
50.59
50.049
49.626
49.305
49.073
48.914
48.815
48.761
48.739
48.737
48.741
48.741
48.726
48.686
48.615
48.505
48.352
48.151
47.897
47.589
47.223
46.799
46.315
45.771
45.168
44.507
43.789
43.018
42.195
41.323
40.408
39.451
38.458
37.431
36.375
35.294
34.191
33.069
31.932
30.783
29.624
28.458
27.288
26.116
24.943
23.773
22.606
21.444
20.287
19.137
17.995
16.862
15.739
14.628
13.529
12.444
11.373
10.318
9.28
8.26
7.258
6.274
5.31
4.366
3.442
2.54
1.659
0.8
-0.036
-0.848
-1.635
-2.397
-3.133
-3.84
-4.519
-5.166
-5.781
-6.362
-6.908
-7.416
-7.885
-8.316
-8.706
-9.055
-9.365
-9.635
-9.866
-10.059
-10.216
-10.338
-10.428
-10.488
-10.52
-10.527
-10.512
-10.477
-10.425
-10.361
-10.285
-10.203
-10.117
-10.029
-9.945
-9.866
-9.796
-9.739
-9.699
-9.679
-9.684
-9.717
-9.782
-9.882
-10.022
-10.204
-10.43
-10.702
-11.023
-11.393
-11.812
-12.281
-12.8
-13.366
-13.98
-14.638
-15.338
-16.078
-16.854
-17.664
-18.504
-19.369
-20.257
-21.164
-22.086
-23.018
-23.958
-24.901
-25.843
-26.781
-27.709
-28.625
-29.523
-30.399
-31.249
-32.07
-32.858
-33.608
-34.319
-34.988
-35.612
-36.189
-36.719
-37.201
-37.636
-38.023
-38.364
-38.662
-38.917
-39.134
-39.315
-39.464
-39.585
-39.681
-39.758
-39.82
-39.871
-39.914
-39.955
-39.998
-40.047
-40.106
-40.18
-40.273
-40.388
-40.529
-40.701
-40.906
-41.148
-41.43
-41.754
-42.122
-42.535
-42.994
-43.499
-44.051
-44.646
-45.284
-45.962
-46.676
-47.421
-48.192
-48.984
-49.79
-50.603
-51.415
-52.218
-53.003
-53.762
-54.487
-55.168
-55.798
-56.366
-56.865
-57.286
-57.619
-57.859
-57.995
-58.021
-57.929
-57.712
-57.364
-56.88
-56.255
-55.484
-54.564
-53.494
-52.273
-50.9
-49.378
-47.708
-45.895
-43.946
-41.866
-39.665
-37.354
-34.943
-32.447
-29.881
-27.262
-24.608
-21.936
-19.265
-16.615
-14.004
-11.45
-8.972
-6.586
-4.309
-2.162
-0.162
1.672
3.323
4.774
6.012
7.021
7.79
8.314
8.591
8.615
8.383
7.885
7.111
6.062
4.741
3.15
1.3
-0.791
-3.098
-5.577
-8.188
-10.892
-13.651
-16.442
-19.239
-22.004
-24.698
-27.276
-29.693
-31.92
-33.934
-35.701
-37.211
-38.487
-39.576
-40.569
-41.551
-42.567
-43.676
-44.947
-46.451
-48.296
-50.578
-53.351
-56.715
-60.794
-65.63
-71.212
-77.347
-83.595
-89.49
-94.59
-98.386
-100.4
-100.309
-97.995
-93.851
-88.77
-83.735
-79.657
-77.297
-77.296
-80.004
-85.192
-91.693
-97.484
-100.09
-96.94
-85.786
-64.532
-31.344
14.796
73.648
143.932
222.481
304.151
383.987
456.536
518.153
569.394
609.915
637.782
648.206
629.387
571.091
469.378
325.492
153.074
-29.376
-206.15
-360.371
-484.117
-576.323
-634.576
-661.767
-658.685
-624.168
-564.881
-489.699
-411.191
-343.039
-290.007
-250.306
-217.522
-184.992
-151.607
-120.39
-96.438
-82.682
-78.458
-81.272
-87.158
-93.265
-98.181
-100.754
-100.822
-98.745
-94.831
-89.689
-84.179
-79.009
-74.946
-72.799
-72.788
-74.718
-78.227
-82.745
-87.733
-92.748
-97.306
-100.929
-103.367
-104.538
-104.474
-103.314
-101.177
-98.172
-94.443
-90.151
-85.459
-80.517
-75.473
-70.461
-65.602
-61.008
-56.771
-52.952
-49.595
-46.718
-44.317
-42.376
-40.872
-39.769
-39.029
-38.614
-38.473
-38.551
-38.787
-39.115
-39.482
-39.849
-40.179
-40.448
-40.637
-40.732
-40.727
-40.626
-40.425
-40.121
-39.711
-39.188
-38.548
-37.79
-36.914
-35.921
-34.812
-33.583
-32.234
-30.763
-29.169
-27.449
-25.603
-23.627
-21.521
-19.287
-16.929
-14.453
-11.865
-9.172
-6.38
-3.5
-0.538
2.496
5.594
8.747
11.948
15.187
18.455
21.742
25.04
28.339
31.63
34.904
38.15
41.36
44.524
47.634
50.68
53.655
56.548
59.353
62.059
64.661
67.149
69.517
71.757
73.863
75.827
77.644
79.309
80.815
82.159
83.336
84.342
85.173
85.827
86.3
86.59
86.695
86.614
86.346
85.892
85.251
84.424
83.415
82.224
80.856
79.313
77.601
75.725
73.689
71.502
69.17
66.701
64.103
61.386
58.559
55.634
52.62
49.53
46.375
43.166
39.916
36.638
33.344
30.045
26.755
23.487
20.251
17.06
13.926
10.86
7.872
4.973
2.173
-0.519
-3.095
-5.545
-7.863
-10.041
-12.074
-13.955
-15.681
-17.245
-18.647
-19.882
-20.951
-21.852
-22.586
-23.154
-23.559
-23.803
-23.889
-23.824
-23.61
-23.254
-22.762
-22.14
-21.395
-20.535
-19.568
-18.5
-17.34
-16.097
-14.778
-13.393
-11.95
-10.457
-8.923
-7.357
-5.77
-4.169
-2.564
-0.966
0.614
2.166
3.68
5.145
6.553
7.892
9.155
10.335
11.426
12.422
13.319
14.111
14.792
15.357
15.802
16.123
16.314
16.374
16.297
16.086
15.744
15.274
14.681
13.965
13.121
12.15
11.056
9.849
8.539
7.142
5.676
4.177
2.691
1.263
-0.065
-1.258
-2.294
-3.145
-3.78
-4.168
-4.265
-4.044
-3.491
-2.592
-1.342
0.25
2.156
4.303
6.577
8.867
11.075
13.128
14.967
16.516
17.684
18.373
18.495
18.015
16.882
15.01
12.362
8.979
5.041
0.941
-2.887
-6.114
-8.355
-9.17
-8.262
-5.49
-1.071
4.309
9.978
15.538
20.387
23.722
25.188
24.79
23.882
25.359
30.838
41.046
55.947
74.197
97.411
128.492
169.652
224.111
291.224
368.169
451.286
531.915
601.157
649.369
666.739
650.097
599.769
520.946
425.104
323.219
226.731
144.096
75.724
17.964
-36.476
-94.058
-155.882
-219.432
-279.238
-331.2
-374.3
-409.126
-437.816
-461.744
-481.065
-496.08
-507.188
-514.727
-519.311
-521.501
-521.325
-518.68
-513.423
-505.092
-493.152
-477.434
-457.714
-433.654
-405.52
-373.945
-339.816
-304.47
-269.139
-234.651
-202.019
-172.475
-146.71
-124.986
-107.094
-92.212
-79.7
-69.252
-60.359
-52.337
-44.737
-37.275
-30.017
-23.486
-17.996
-13.62
-10.465
-8.584
-7.962
-8.564
-10.168
-12.358
-14.816
-17.306
-19.602
-21.575
-23.113
-24.13
-24.639
-24.706
-24.373
-23.66
-22.583
-21.156
-19.397
-17.333
-14.972
-12.307
-9.363
-6.223
-3.001
0.186
3.233
6.082
8.71
11.101
13.259
15.197
16.94
18.529
19.995
21.356
22.608
23.732
24.726
25.637
26.531
27.493
28.618
29.972
31.605
33.57
35.901
38.616
41.728
45.231
49.119
53.404
58.109
63.267
68.913
75.052
81.669
88.74
96.223
104.079
112.268
120.734
129.423
138.295
147.315
156.459
165.717
175.056
184.444
193.847
203.223
212.544
221.803
230.987
240.096
249.151
258.172
267.194
276.267
285.41
294.631
303.929
313.28
322.664
332.054
341.392
350.622
359.686
368.499
376.977
385.03
392.522
399.329
405.332
410.384
414.377
417.216
418.798
419.053
417.93
415.4
411.486
406.224
399.64
391.794
382.758
372.612
361.493
349.518
336.78
323.402
309.506
295.215
280.693
266.092
251.526
237.093
222.855
208.854
195.161
181.822
168.863
156.313
144.166
132.44
121.203
110.493
100.32
90.679
81.512
72.745
64.352
56.312
48.609
41.247
34.209
27.485
21.089
15.032
9.319
3.937
-1.171
-6.054
-10.727
-15.191
-19.414
-23.346
-26.972
-30.282
-33.256
-35.897
-38.202
-40.177
-41.852
-43.257
-44.412
-45.329
-46
-46.42
-46.601
-46.568
-46.354
-46.003
-45.549
-45.024
-44.466
-43.905
-43.365
-42.865
-42.413
-42.011
-41.667
-41.391
-41.194
-41.089
-41.083
-41.178
-41.375
-41.673
-42.069
-42.558
-43.134
-43.788
-44.516
-45.312
-46.172
-47.095
-48.077
-49.112
-50.195
-51.322
-52.484
-53.675
-54.887
-56.113
-57.344
-58.574
-59.797
-61.007
-62.199
-63.368
-64.509
-65.619
-66.694
-67.731
-68.728
-69.683
-70.594
-71.461
-72.284
-73.063
-73.799
-74.493
-75.148
-75.764
-76.343
-76.889
-77.403
-77.887
-78.344
-78.775
-79.184
-79.573
-79.942
-80.296
-80.635
-80.962
-81.279
-81.588
-81.889
-82.184
-82.474
-82.758
-83.038
-83.313
-83.583
-83.848
-84.106
-84.358
-84.601
-84.836
-85.059
-85.271
-85.469
-85.651
-85.817
-85.964
-86.091
-86.197
-86.281
-86.342
-86.379
-86.392
-86.381
-86.347
-86.289
-86.208
-86.107
-85.985
-85.847
-85.693
-85.526
-85.349
-85.165
-84.977
-84.788
-84.602
-84.421
-84.25
-84.093
-83.952
-83.832
-83.736
-83.668
-83.632
-83.63
-83.666
-83.742
-83.862
-84.028
-84.242
-84.505
-84.819
-85.184
-85.602
-86.071
-86.593
-87.164
-87.781
-88.443
-89.15
-89.901
-90.693
-91.523
-92.383
-93.27
-94.188
-95.128
-96.072
-97.003
-97.904
-98.769
-99.618
-100.448
-101.233
-101.985
-102.753
-103.573
-104.489
-105.502
-106.542
-107.587
-108.707
-109.828
-110.687
-111.227
-111.527
-111.551
-111.578
-111.097
-108.49
-104.099
-99.417
-96.888
-101.12
-111.863
-124.491
-134.406
-135.073
-126.048
-113.526
-102.298
-97.526
-100.145
-105.53
-110.838
-114.138
-114.835
-114.819
-114.954
-115.176
-115.555
-115.808
-115.862
-115.974
-116.22
-116.556
-116.988
-117.527
-118.161
-118.877
-119.649
-120.427
-121.193
-121.963
-122.734
-123.496
-124.241
-124.958
-125.639
-126.28
-126.874
-127.412
-127.882
-128.28
-128.597
-128.828
-128.966
-129.003
-128.929
-128.735
-128.41
-127.945
-127.331
-126.56
-125.626
-124.523
-123.248
-121.8
-120.176
-118.373
-116.384
-114.201
-111.818
-109.236
-106.461
-103.503
-100.381
-97.119
-93.744
-90.288
-86.773
-83.215
-79.621
-75.983
-72.296
-68.55
-64.747
-60.903
-57.033
-53.148
-49.255
-45.354
-41.434
-37.47
-33.432
-29.278
-24.982
-20.542
-15.98
-11.348
-6.714
-2.163
2.243
6.454
10.43
14.134
17.527
20.57
23.22
25.421
27.101
28.169
28.55
28.195
27.101
25.307
22.878
19.917
16.51
12.742
8.703
4.474
0.127
-4.267
-8.645
-12.943
-17.062
-20.882
-24.284
-27.165
-29.478
-31.211
-32.376
-33.038
-33.271
-33.167
-32.861
-32.468
-32.083
-31.814
-31.748
-31.976
-32.641
-33.873
-35.816
-38.655
-42.452
-47.185
-52.729
-58.736
-64.787
-70.467
-75.244
-78.571
-80.1
-79.608
-77.253
-73.731
-69.773
-66.17
-63.677
-62.716
-63.731
-67.021
-71.894
-76.869
-79.433
-75.828
-63.965
-42.888
-12.332
25.662
72.403
130.819
201.763
287.107
382.471
479.188
571.737
653.012
718.646
765.992
787.263
774.226
719.808
620.445
478.839
305.088
116.007
-70.123
-232.693
-355.939
-437.202
-480.602
-497.175
-500.711
-494.809
-478.396
-451.6
-412.299
-364.609
-316.548
-270.039
-227.662
-190.748
-157.558
-130.464
-110.876
-98.031
-91.807
-90.084
-90.458
-91.411
-91.269
-88.89
-83.999
-76.779
-67.738
-57.582
-47.047
-36.968
-28.262
-21.815
-18.048
-16.854
-17.916
-20.768
-24.935
-29.991
-35.416
-40.592
-45.074
-48.639
-51.187
-52.751
-53.373
-53.041
-51.796
-49.733
-46.948
-43.554
-39.658
-35.336
-30.676
-25.792
-20.806
-15.867
-11.126
-6.678
-2.591
1.093
4.359
7.187
9.567
11.524
13.095
14.32
15.242
15.891
16.294
16.491
16.529
16.46
16.34
16.207
16.086
15.999
15.96
15.984
16.082
16.254
16.496
16.807
17.191
17.653
18.202
18.845
19.582
20.416
21.349
22.384
23.525
24.774
26.132
27.602
29.186
30.887
32.709
34.652
36.717
38.9
41.199
43.612
46.133
48.759
51.485
54.304
57.213
60.206
63.277
66.422
69.634
72.906
76.232
79.602
83.01
86.445
89.898
93.359
96.819
100.267
103.692
107.084
110.434
113.731
116.965
120.127
123.208
126.197
129.086
131.866
134.528
137.065
139.467
141.729
143.842
145.8
147.597
149.226
150.682
151.959
153.053
153.959
154.675
155.197
155.524
155.655
155.59
155.332
154.883
154.246
153.425
152.425
151.252
149.912
148.411
146.758
144.958
143.021
140.954
138.766
136.467
134.066
131.571
128.993
126.342
123.627
120.857
118.044
115.196
112.324
109.438
106.547
103.66
100.787
97.937
95.118
92.338
89.602
86.919
84.292
81.726
79.227
76.797
74.439
72.156
69.951
67.826
65.782
63.822
61.946
60.155
58.449
56.83
55.297
53.849
52.486
51.207
50.011
48.896
47.863
46.907
46.027
45.22
44.482
43.812
43.204
42.656
42.162
41.721
41.327
40.977
40.667
40.394
40.154
39.943
39.755
39.585
39.426
39.27
39.109
38.935
38.738
38.509
38.24
37.921
37.547
37.111
36.605
36.022
35.353
34.59
33.723
32.747
31.656
30.444
29.108
27.644
26.053
24.34
22.506
20.548
18.457
16.225
13.852
11.342
8.704
5.953
3.105
0.187
-2.759
-5.69
-8.562
-11.336
-13.981
-16.467
-18.752
-20.787
-22.512
-23.875
-24.839
-25.386
-25.51
-25.219
-24.539
-23.528
-22.281
-20.893
-19.469
-18.109
-16.905
-15.968
-15.425
-15.391
-16.003
-17.41
-19.668
-22.754
-26.551
-30.797
-35.234
-39.61
-43.586
-46.805
-49.027
-50.106
-50.156
-49.628
-48.846
-48.054
-47.434
-46.873
-46.378
-46.091
-45.441
-43.344
-38.091
-26.97
-8.958
15.539
45.543
78.349
113.949
154.516
202.141
260.211
329.258
406.827
487.762
563.196
622.575
654.633
653.146
618.385
556.65
480.117
398.142
315.516
233.367
148.922
61.558
-26.517
-111.645
-189.305
-257.174
-314.671
-362.114
-400.731
-431.172
-454.063
-470.918
-483.123
-492.034
-499.078
-504.757
-509.047
-512.099
-513.752
-513.509
-510.974
-505.498
-496.364
-483.517
-467.228
-447.842
-425.916
-401.994
-376.568
-350.317
-323.954
-297.915
-272.472
-247.772
-223.87
-200.903
-179.026
-158.341
-138.906
-120.75
-103.916
-88.468
-74.472
-61.973
-50.962
-41.371
-33.121
-26.151
-20.403
-15.823
-12.331
-9.802
-8.127
-7.187
-6.862
-7.059
-7.663
-8.552
-9.615
-10.713
-11.72
-12.564
-13.188
-13.553
-13.65
-13.462
-12.993
-12.272
-11.322
-10.173
-8.869
-7.43
-5.881
-4.257
-2.579
-0.919
0.633
2.026
3.228
4.234
5.071
5.757
6.311
6.777
7.199
7.623
8.108
8.679
9.353
10.155
11.096
12.228
13.629
15.353
17.439
19.916
22.79
26.08
29.807
33.968
38.553
43.552
48.948
54.739
60.934
67.529
74.527
81.912
89.653
97.732
106.127
114.81
123.758
132.937
142.3
151.807
161.415
171.07
180.733
190.366
199.932
209.41
218.779
228.017
237.113
246.04
254.775
263.303
271.598
279.644
287.443
295.002
302.353
309.54
316.574
323.45
330.149
336.618
342.801
348.63
354.012
358.879
363.17
366.826
369.812
372.093
373.612
374.304
374.087
372.856
370.552
367.146
362.618
357.005
350.356
342.747
334.301
325.127
315.312
304.942
294.075
282.768
271.102
259.161
247.039
234.855
222.7
210.652
198.783
187.134
175.722
164.55
153.578
142.775
132.134
121.654
111.351
101.249
91.358
81.692
72.265
63.077
54.13
45.429
36.972
28.771
20.845
13.223
5.945
-0.95
-7.44
-13.509
-19.148
-24.36
-29.144
-33.512
-37.482
-41.066
-44.275
-47.118
-49.605
-51.754
-53.582
-55.092
-56.298
-57.212
-57.855
-58.269
-58.48
-58.485
-58.318
-58.045
-57.717
-57.39
-57.086
-56.759
-56.407
-56.11
-55.82
-55.315
-54.552
-53.617
-52.491
-51.428
-49.992
-46.716
-41.88
-36.858
-33.844
-37.024
-46.267
-57.347
-66.093
-66.576
-58.255
-46.773
-36.501
-32.11
-34.547
-39.599
-44.638
-47.918
-48.848
-49.138
-49.591
-50.138
-50.838
-51.43
-51.838
-52.288
-52.849
-53.474
-54.164
-54.924
-55.742
-56.603
-57.482
-58.334
-59.144
-59.926
-60.683
-61.41
-62.103
-62.758
-63.374
-63.953
-64.494
-64.994
-65.448
-65.856
-66.215
-66.526
-66.789
-67.003
-67.168
-67.286
-67.357
-67.384
-67.369
-67.314
-67.222
-67.098
-66.944
-66.764
-66.562
-66.343
-66.11
-65.866
-65.617
-65.365
-65.115
-64.869
-64.632
-64.407
-64.196
-64.004
-63.832
-63.684
-63.561
-63.467
-63.402
-63.37
-63.372
-63.409
-63.482
-63.592
-63.739
-63.923
-64.144
-64.4
-64.689
-65.011
-65.361
-65.739
-66.14
-66.561
-66.999
-67.45
-67.911
-68.377
-68.845
-69.31
-69.769
-70.219
-70.655
-71.073
-71.472
-71.847
-72.197
-72.518
-72.807
-73.064
-73.286
-73.471
-73.618
-73.725
-73.792
-73.816
-73.799
-73.74
-73.638
-73.496
-73.313
-73.09
-72.83
-72.534
-72.204
-71.844
-71.454
-71.038
-70.6
-70.141
-69.665
-69.176
-68.676
-68.169
-67.657
-67.143
-66.629
-66.118
-65.612
-65.112
-64.62
-64.138
-63.666
-63.205
-62.757
-62.322
-61.901
-61.493
-61.1
-60.721
-60.357
-60.007
-59.671
-59.348
-59.039
-58.742
-58.458
-58.184
-57.92
-57.666
-57.42
-57.181
-56.948
-56.721
-56.497
-56.277
-56.06
-55.845
-55.632
-55.421
-55.211
-55.004
-54.8
-54.599
-54.402
-54.21
-54.025
-53.847
-53.676
-53.514
-53.362
-53.219
-53.086
-52.962
-52.848
-52.742
-52.643
-52.551
-52.464
-52.379
-52.295
-52.209
-52.117
-52.017
-51.906
-51.778
-51.63
-51.457
-51.254
-51.017
-50.74
-50.418
-50.045
-49.615
-49.121
-48.558
-47.919
-47.198
-46.388
-45.483
-44.478
-43.367
-42.146
-40.812
-39.36
-37.789
-36.097
-34.283
-32.35
-30.298
-28.129
-25.849
-23.463
-20.978
-18.402
-15.744
-13.014
-10.227
-7.396
-4.535
-1.66
1.213
4.066
6.881
9.641
12.329
14.927
17.418
19.782
22.001
24.056
25.927
27.596
29.047
30.266
31.237
31.95
32.4
32.581
32.49
32.122
31.467
30.52
29.279
27.749
25.935
23.852
21.518
18.96
16.216
13.324
10.32
7.238
4.103
0.945
-2.205
-5.305
-8.307
-11.165
-13.837
-16.292
-18.5
-20.449
-22.15
-23.639
-24.982
-26.245
-27.479
-28.735
-30.074
-31.563
-33.285
-35.345
-37.808
-40.76
-44.329
-48.543
-53.38
-58.706
-64.163
-69.355
-73.958
-77.583
-79.825
-80.471
-79.371
-76.695
-73.175
-69.531
-66.324
-64.036
-63.016
-63.58
-65.969
-69.788
-72.993
-72.589
-65.979
-51.782
-31.359
-7.195
20.272
53.847
99.514
162.401
242.963
335.076
428.02
512.868
583.814
638.948
677.428
693.952
680.482
628.414
532.968
396.14
227.243
42.241
-140.74
-302.795
-429.216
-514.429
-561.322
-578.529
-576.081
-560.426
-531.53
-490.37
-440.392
-385.937
-336.13
-295.369
-262.182
-235.894
-213.125
-192.719
-177.543
-168.075
-164.042
-164.25
-165.286
-164.718
-161.348
-154.675
-145.236
-133.848
-121.269
-108.322
-95.936
-85.081
-76.621
-71
-68.184
-67.85
-69.506
-72.657
-76.834
-81.523
-86.169
-90.321
-93.718
-96.229
-97.844
-98.588
-98.45
-97.446
-95.635
-93.091
-89.912
-86.207
-82.067
-77.588
-72.884
-68.068
-63.279
-58.672
-54.359
-50.412
-46.88
-43.779
-41.125
-38.933
-37.191
-35.863
-34.903
-34.263
-33.899
-33.778
-33.854
-34.074
-34.378
-34.702
-34.997
-35.233
-35.385
-35.432
-35.36
-35.151
-34.801
-34.315
-33.692
-32.931
-32.029
-30.975
-29.767
-28.408
-26.899
-25.242
-23.438
-21.488
-19.391
-17.151
-14.77
-12.249
-9.59
-6.793
-3.863
-0.804
2.376
5.669
9.066
12.559
16.137
19.79
23.507
27.281
31.102
34.961
38.849
42.759
46.68
50.605
54.524
58.429
62.311
66.16
69.969
73.728
77.429
81.064
84.624
88.1
91.485
94.771
97.949
101.011
103.951
106.761
109.433
111.963
114.344
116.57
118.636
120.538
122.271
123.83
125.213
126.414
127.431
128.26
128.899
129.344
129.594
129.647
129.502
129.159
128.618
127.881
126.948
125.821
124.505
123.001
121.314
119.45
117.413
115.211
112.85
110.338
107.683
104.893
101.978
98.945
95.806
92.57
89.247
85.847
82.382
78.861
75.296
71.698
68.078
64.446
60.814
57.192
53.591
50.02
46.491
43.012
39.593
36.244
32.973
29.79
26.702
23.717
20.842
18.083
15.446
12.937
10.56
8.32
6.22
4.263
2.452
0.789
-0.725
-2.09
-3.305
-4.373
-5.293
-6.067
-6.699
-7.191
-7.547
-7.77
-7.865
-7.837
-7.691
-7.434
-7.071
-6.61
-6.059
-5.428
-4.726
-3.962
-3.149
-2.296
-1.416
-0.519
0.385
1.284
2.17
3.032
3.86
4.646
5.377
6.045
6.639
7.151
7.571
7.894
8.112
8.224
8.228
8.124
7.907
7.569
7.106
6.516
5.801
4.964
4.017
2.97
1.852
0.699
-0.452
-1.564
-2.605
-3.551
-4.371
-5.036
-5.51
-5.749
-5.715
-5.384
-4.736
-3.763
-2.464
-0.861
0.983
2.967
4.992
6.961
8.808
10.475
11.873
12.902
13.454
13.426
12.772
11.426
9.28
6.306
2.564
-1.75
-6.203
-10.368
-13.977
-16.68
-18.06
-17.899
-16.124
-12.987
-9.313
-5.747
-2.468
0.1
1.39
1.368
0.266
-0.42
2.503
10.691
24.58
43.852
66.566
93.679
127.683
170.496
224.947
289.966
362.069
437.167
507.201
564.446
601.135
608.94
584.836
528.847
445.806
346.818
243.07
146.685
65.971
1.566
-49.385
-94.19
-139.446
-186.78
-235.13
-280.409
-318.998
-350.464
-376.256
-398.989
-420.564
-441.197
-460.214
-476.733
-490.371
-501.023
-508.452
-512.263
-511.868
-507.003
-497.88
-484.888
-468.517
-449.258
-427.534
-403.853
-378.851
-353.057
-326.898
-300.727
-274.729
-249.068
-223.923
-199.46
-175.875
-153.369
-132.096
-112.174
-93.71
-76.797
-61.543
-48.041
-36.311
-26.31
-17.942
-11.097
-5.711
-1.738
0.873
2.217
2.46
1.77
0.283
-1.88
-4.597
-7.701
-10.958
-14.144
-17.114
-19.785
-22.131
-24.141
-25.774
-26.993
-27.774
-28.134
-28.135
-27.819
-27.202
-26.29
-25.096
-23.699
-22.247
-20.877
-19.671
-18.665
-17.85
-17.217
-16.772
-16.507
-16.387
-16.358
-16.353
-16.334
-16.289
-16.212
-16.095
-15.884
-15.475
-14.78
-13.735
-12.3
-10.453
-8.171
-5.421
-2.193
1.502
5.641
10.202
15.18
20.588
26.433
32.723
39.441
46.553
54.027
61.839
69.961
78.371
87.038
95.925
105.006
114.266
123.687
133.249
142.925
152.678
162.475
172.282
182.066
191.797
201.441
210.964
220.335
229.522
238.495
247.226
255.685
263.836
271.649
279.091
286.133
292.746
298.903
304.577
309.743
314.379
318.467
321.988
324.926
327.267
328.999
330.114
330.606
330.469
329.704
328.311
326.295
323.663
320.425
316.594
312.184
307.214
301.703
295.674
289.15
282.158
274.724
266.879
258.654
250.081
241.194
232.029
222.62
213.006
203.223
193.309
183.301
173.236
163.151
153.082
143.064
133.131
123.315
113.648
104.16
94.879
85.83
77.039
68.526
60.311
52.412
44.844
37.619
30.749
24.241
18.103
12.338
6.948
1.934
-2.706
-6.976
-10.882
-14.431
-17.631
-20.493
-23.027
-25.248
-27.169
-28.803
-30.167
-31.277
-32.149
-32.799
-33.246
-33.505
-33.595
-33.532
-33.332
-33.011
-32.586
-32.069
-31.477
-30.821
-30.115
-29.37
-28.596
-27.805
-27.004
-26.204
-25.41
-24.63
-23.87
-23.135
-22.429
-21.757
-21.122
-20.527
-19.974
-19.464
-19
-18.581
-18.209
-17.884
-17.605
-17.372
-17.184
-17.039
-16.938
-16.878
-16.858
-16.877
-16.934
-17.026
-17.153
-17.313
-17.506
-17.73
-17.985
-18.269
-18.583
-18.924
-19.293
-19.689
-20.111
-20.559
-21.033
-21.53
-22.052
-22.596
-23.161
-23.746
-24.35
-24.971
-25.607
-26.256
-26.917
-27.588
-28.267
-28.951
-29.64
-30.33
-31.02
-31.708
-32.392
-33.07
-33.739
-34.397
-35.043
-35.675
-36.29
-36.887
-37.463
-38.017
-38.547
-39.052
-39.528
-39.976
-40.392
-40.778
-41.13
-41.45
-41.735
-41.987
-42.205
-42.389
-42.539
-42.658
-42.744
-42.8
-42.826
-42.823
-42.793
-42.737
-42.656
-42.552
-42.426
-42.279
-42.113
-41.93
-41.73
-41.515
-41.286
-41.045
-40.793
-40.531
-40.26
-39.983
-39.7
-39.412
-39.122
-38.83
-38.537
-38.245
-37.956
-37.668
-37.385
-37.107
-36.834
-36.567
-36.308
-36.057
-35.815
-35.582
-35.361
-35.15
-34.952
-34.767
-34.596
-34.44
-34.299
-34.176
-34.071
-33.985
-33.92
-33.876
-33.856
-33.858
-33.886
-33.939
-34.019
-34.125
-34.258
-34.418
-34.605
-34.819
-35.059
-35.325
-35.617
-35.932
-36.271
-36.631
-37.012
-37.411
-37.827
-38.257
-38.7
-39.153
-39.614
-40.08
-40.549
-41.019
-41.486
-41.949
-42.404
-42.848
-43.28
-43.695
-44.092
-44.468
-44.821
-45.149
-45.451
-45.724
-45.968
-46.183
-46.368
-46.523
-46.649
-46.746
-46.816
-46.861
-46.882
-46.882
-46.863
-46.828
-46.782
-46.726
-46.664
-46.601
-46.539
-46.482
-46.434
-46.397
-46.375
-46.371
-46.388
-46.429
-46.495
-46.589
-46.713
-46.868
-47.055
-47.273
-47.522
-47.801
-48.109
-48.442
-48.797
-49.171
-49.558
-49.954
-50.352
-50.746
-51.128
-51.49
-51.823
-52.12
-52.369
-52.563
-52.691
-52.744
-52.713
-52.588
-52.361
-52.022
-51.565
-50.982
-50.265
-49.409
-48.409
-47.26
-45.958
-44.501
-42.888
-41.12
-39.197
-37.122
-34.899
-32.535
-30.036
-27.411
-24.67
-21.826
-18.893
-15.888
-12.828
-9.732
-6.622
-3.516
-0.439
2.588
5.546
8.412
11.167
13.791
16.26
18.554
20.653
22.537
24.191
25.598
26.744
27.617
28.212
28.526
28.555
28.293
27.727
26.846
25.648
24.135
22.312
20.195
17.798
15.147
12.284
9.252
6.09
2.839
-0.474
-3.82
-7.154
-10.428
-13.577
-16.537
-19.269
-21.737
-23.91
-25.786
-27.379
-28.729
-29.919
-31.022
-32.1
-33.236
-34.498
-35.967
-37.764
-39.974
-42.724
-46.198
-50.465
-55.519
-61.238
-67.26
-73.193
-78.682
-83.227
-86.285
-87.535
-86.791
-84.304
-80.924
-77.426
-74.532
-73.004
-73.378
-76.001
-80.933
-87.29
-93.186
-96.594
-95.175
-86.593
-69
-40.322
1.163
55.83
122.989
200.478
284.064
369.184
451.113
525.699
591.058
645.535
686.752
709.736
706.898
670.396
594.129
478.124
327.29
151.061
-36.181
-219.341
-382.444
-510.118
-592.711
-626.918
-615.397
-569.208
-503.114
-431.739
-369.901
-324.02
-292.951
-271.444
-249.462
-222.531
-192.022
-161.465
-137.499
-122.562
-114.928
-112.651
-112.538
-112.531
-112.345
-111.419
-109.478
-107.173
-104.994
-103.068
-101.531
-100.201
-98.846
-97.734
-96.947
-95.744
-93.505
-89.927
-84.997
-79.345
-73.503
-67.512
-61.552
-56.167
-51.731
-48.495
-46.432
-44.965
-43.672
-42.434
-41.074
-39.415
-37.393
-34.981
-32.304
-29.715
-27.435
-25.55
-24.134
-23.163
-22.598
-22.405
-22.473
-22.669
-22.926
-23.209
-23.522
-23.915
-24.39
-24.921
-25.5
-26.101
-26.701
-27.288
-27.829
-28.297
-28.685
-29.003
-29.27
-29.502
-29.695
-29.833
-29.89
-29.833
-29.635
-29.277
-28.737
-28.003
-27.068
-25.928
-24.587
-23.055
-21.335
-19.427
-17.329
-15.037
-12.557
-9.895
-7.06
-4.064
-0.921
2.358
5.756
9.259
12.856
16.535
20.288
24.107
27.983
31.906
35.867
39.855
43.86
47.871
51.876
55.865
59.826
63.749
67.624
71.443
75.197
78.877
82.476
85.984
89.395
92.702
95.897
98.972
101.922
104.739
107.418
109.952
112.336
114.563
116.63
118.53
120.259
121.814
123.188
124.38
125.384
126.2
126.823
127.252
127.485
127.523
127.365
127.012
126.465
125.727
124.8
123.688
122.393
120.921
119.277
117.466
115.493
113.367
111.094
108.681
106.139
103.474
100.698
97.818
94.847
91.793
88.669
85.485
82.251
78.979
75.68
72.364
69.042
65.723
62.418
59.137
55.887
52.68
49.522
46.422
43.388
40.426
37.545
34.749
32.046
29.438
26.932
24.531
22.239
20.058
17.992
16.041
14.209
12.495
10.9
9.424
8.066
6.824
5.697
4.683
3.779
2.983
2.292
1.703
1.213
0.819
0.518
0.306
0.179
0.133
0.163
0.264
0.43
0.653
0.926
1.243
1.596
1.978
2.38
2.795
3.215
3.633
4.043
4.437
4.806
5.142
5.436
5.681
5.868
5.991
6.041
6.009
5.89
5.683
5.385
4.991
4.497
3.892
3.171
2.336
1.392
0.344
-0.797
-2.019
-3.299
-4.596
-5.873
-7.091
-8.218
-9.233
-10.11
-10.816
-11.317
-11.572
-11.55
-11.243
-10.637
-9.721
-8.505
-7.005
-5.265
-3.382
-1.458
0.413
2.135
3.641
4.88
5.777
6.245
6.197
5.552
4.275
2.365
-0.208
-3.511
-7.531
-12.121
-16.953
-21.531
-25.425
-28.343
-29.938
-29.761
-27.537
-23.245
-17.238
-10.369
-3.323
3.502
9.456
13.871
16.516
18.318
21.546
28.716
41.29
58.014
76.622
97.378
122.348
156.155
204.284
266.449
339.674
419.949
498.438
568.268
622.392
648.51
640.443
596.694
519.551
424.322
326.535
236.001
160.357
95.241
31.756
-34.187
-106.098
-181.407
-253.514
-319.296
-376.334
-424.199
-464.835
-498.821
-526.42
-548.185
-564.191
-575.11
-582.142
-585.967
-587.068
-585.847
-582.318
-576.397
-567.964
-556.644
-541.96
-523.797
-502.317
-477.797
-450.713
-421.572
-390.875
-359.263
-327.418
-295.815
-264.759
-234.492
-205.2
-177.109
-150.472
-125.473
-102.244
-80.926
-61.659
-44.57
-29.733
-17.136
-6.69
1.715
8.187
12.807
15.642
16.793
16.412
14.687
11.819
8.026
3.553
-1.331
-6.326
-11.161
-15.657
-19.698
-23.22
-26.187
-28.564
-30.303
-31.372
-31.75
-31.426
-30.422
-28.778
-26.566
-23.912
-20.98
-17.971
-15.068
-12.384
-9.983
-7.896
-6.129
-4.679
-3.544
-2.704
-2.143
-1.864
-1.859
-2.11
-2.573
-3.165
-3.774
-4.266
-4.516
-4.432
-3.948
-3.02
-1.621
0.267
2.654
5.535
8.912
12.805
17.234
22.216
27.756
33.832
40.412
47.453
54.915
62.762
70.961
79.478
88.28
97.341
106.631
116.129
125.799
135.588
145.444
155.315
165.152
174.926
184.612
194.177
203.593
212.829
221.865
230.702
239.348
247.802
256.071
264.163
272.093
279.909
287.644
295.308
302.91
310.428
317.826
325.083
332.17
339.05
345.68
351.983
357.854
363.211
367.961
372
375.222
377.48
378.642
378.627
377.372
374.847
371.057
365.996
359.661
352.081
343.284
333.322
322.308
310.336
297.512
283.979
269.886
255.428
240.813
226.195
211.699
197.434
183.47
169.887
156.777
144.203
132.233
120.941
110.337
100.44
91.266
82.78
74.936
67.655
60.815
54.335
48.169
42.271
36.626
31.216
26
20.956
16.056
11.252
6.527
1.863
-2.764
-7.344
-11.851
-16.248
-20.458
-24.425
-28.126
-31.539
-34.661
-37.497
-40.038
-42.289
-44.26
-45.944
-47.343
-48.461
-49.295
-49.858
-50.176
-50.281
-50.219
-50.036
-49.761
-49.42
-49.034
-48.616
-48.181
-47.739
-47.292
-46.848
-46.415
-46.002
-45.622
-45.281
-44.983
-44.728
-44.513
-44.334
-44.19
-44.077
-43.994
-43.94
-43.916
-43.92
-43.958
-44.03
-44.137
-44.278
-44.451
-44.653
-44.882
-45.136
-45.41
-45.703
-46.011
-46.332
-46.665
-47.007
-47.356
-47.712
-48.072
-48.436
-48.801
-49.166
-49.53
-49.893
-50.253
-50.61
-50.963
-51.313
-51.659
-52.003
-52.343
-52.68
-53.014
-53.346
-53.675
-54
-54.322
-54.641
-54.956
-55.267
-55.575
-55.879
-56.18
-56.479
-56.774
-57.066
-57.355
-57.639
-57.919
-58.192
-58.459
-58.718
-58.969
-59.209
-59.439
-59.658
-59.864
-60.057
-60.235
-60.397
-60.543
-60.671
-60.78
-60.868
-60.936
-60.983
-61.007
-61.01
-60.99
-60.948
-60.883
-60.796
-60.687
-60.556
-60.404
-60.231
-60.038
-59.826
-59.595
-59.348
-59.085
-58.809
-58.521
-58.223
-57.917
-57.604
-57.286
-56.966
-56.645
-56.325
-56.009
-55.699
-55.397
-55.105
-54.825
-54.559
-54.309
-54.077
-53.863
-53.669
-53.496
-53.344
-53.216
-53.11
-53.028
-52.97
-52.936
-52.926
-52.94
-52.977
-53.036
-53.117
-53.218
-53.338
-53.475
-53.628
-53.796
-53.975
-54.166
-54.364
-54.569
-54.777
-54.986
-55.193
-55.395
-55.59
-55.774
-55.945
-56.101
-56.24
-56.358
-56.455
-56.527
-56.575
-56.594
-56.585
-56.545
-56.474
-56.369
-56.231
-56.059
-55.852
-55.611
-55.335
-55.025
-54.681
-54.304
-53.893
-53.45
-52.975
-52.471
-51.939
-51.38
-50.799
-50.196
-49.577
-48.944
-48.301
-47.651
-46.998
-46.345
-45.696
-45.053
-44.42
-43.8
-43.198
-42.616
-42.059
-41.529
-41.031
-40.568
-40.141
-39.754
-39.409
-39.107
-38.853
-38.646
-38.49
-38.386
-38.336
-38.342
-38.404
-38.523
-38.698
-38.928
-39.209
-39.54
-39.915
-40.33
-40.779
-41.257
-41.76
-42.283
-42.82
-43.367
-43.921
-44.476
-45.026
-45.564
-46.08
-46.564
-47.006
-47.394
-47.716
-47.963
-48.127
-48.197
-48.169
-48.035
-47.79
-47.422
-46.922
-46.273
-45.465
-44.49
-43.347
-42.039
-40.579
-38.987
-37.285
-35.496
-33.637
-31.717
-29.735
-27.683
-25.551
-23.325
-21.004
-18.601
-16.127
-13.596
-11.014
-8.379
-5.675
-2.874
0.06
3.168
6.477
9.989
13.677
17.499
21.39
25.273
29.093
32.79
36.309
39.618
42.672
45.435
47.881
49.91
51.402
52.332
52.656
52.374
51.564
50.159
48.089
45.502
42.51
39.042
35.111
30.599
25.327
19.613
13.797
7.946
2.232
-3.046
-7.694
-11.296
-13.437
-14.417
-14.586
-14.077
-13.136
-11.957
-10.667
-9.673
-9.407
-9.766
-10.646
-12.09
-14.047
-16.683
-20.275
-24.793
-30.088
-36.116
-42.596
-49.201
-55.728
-61.707
-66.555
-70.019
-71.975
-72.619
-72.752
-73.014
-73.86
-75.908
-79.48
-84.462
-90.642
-97.19
-102.349
-104.467
-101.17
-89.292
-66.726
-32.517
11.65
61.955
115.27
170.849
232.201
303.411
386.047
477.736
569.022
649.418
709.251
738.842
734.648
693.686
614.033
499.678
352.73
180.497
-2.318
-181.299
-336.307
-451.511
-524.9
-560.247
-569.075
-562.989
-543.072
-509.114
-462.315
-406.592
-352.498
-307.679
-272.719
-244.017
-215.846
-185.962
-156.962
-133.236
-117.491
-109.511
-107.253
-107.612
-108.428
-108.582
-106.999
-103.354
-97.837
-90.667
-82.294
-73.416
-64.63
-56.678
-50.529
-46.604
-44.874
-45.158
-47.028
-50.065
-53.942
-58.161
-62.121
-65.424
-67.855
-69.339
-69.961
-69.772
-68.786
-67.079
-64.754
-61.922
-58.693
-55.15
-51.351
-47.359
-43.26
-39.162
-35.19
-31.462
-28.057
-25.018
-22.368
-20.119
-18.275
-16.824
-15.74
-14.977
-14.49
-14.243
-14.203
-14.342
-14.624
-15.003
-15.43
-15.851
-16.23
-16.539
-16.759
-16.872
-16.864
-16.726
-16.457
-16.061
-15.54
-14.894
-14.117
-13.204
-12.154
-10.967
-9.645
-8.19
-6.603
-4.886
-3.041
-1.072
1.02
3.232
5.559
8.003
10.557
13.218
15.979
18.832
21.77
24.785
27.87
31.014
34.211
37.451
40.726
44.029
47.352
50.686
54.025
57.36
60.683
63.988
67.265
70.507
73.707
76.856
79.946
82.968
85.916
88.781
91.556
94.233
96.804
99.263
101.602
103.815
105.894
107.834
109.629
111.272
112.758
114.081
115.236
116.219
117.026
117.652
118.093
118.347
118.41
118.28
117.956
117.436
116.72
115.807
114.699
113.396
111.903
110.221
108.357
106.313
104.096
101.713
99.171
96.476
93.638
90.664
87.565
84.35
81.029
77.613
74.112
70.537
66.901
63.214
59.488
55.735
51.965
48.191
44.424
40.675
36.955
33.275
29.646
26.078
22.581
19.165
15.839
12.612
9.492
6.485
3.598
0.837
-1.792
-4.285
-6.638
-8.848
-10.911
-12.825
-14.589
-16.2
-17.66
-18.967
-20.122
-21.127
-21.982
-22.69
-23.252
-23.672
-23.952
-24.095
-24.104
-23.986
-23.744
-23.383
-22.911
-22.334
-21.659
-20.894
-20.048
-19.131
-18.153
-17.123
-16.051
-14.948
-13.826
-12.694
-11.56
-10.436
-9.33
-8.252
-7.214
-6.224
-5.292
-4.431
-3.649
-2.955
-2.361
-1.871
-1.49
-1.223
-1.075
-1.049
-1.159
-1.409
-1.801
-2.339
-3.016
-3.824
-4.753
-5.776
-6.859
-7.968
-9.068
-10.128
-11.131
-12.048
-12.851
-13.512
-13.987
-14.242
-14.256
-14.001
-13.468
-12.665
-11.606
-10.345
-8.975
-7.585
-6.26
-5.071
-4.066
-3.308
-2.88
-2.867
-3.367
-4.447
-6.175
-8.661
-11.949
-15.996
-20.641
-25.534
-30.253
-34.443
-37.713
-39.642
-39.959
-38.551
-35.65
-31.903
-28.006
-24.554
-22.051
-20.929
-21.452
-23.505
-26.181
-27.799
-26.422
-20.239
-7.607
13.158
43.595
84.763
135.599
192.662
252.422
311.481
369.281
428.125
486.74
541.514
584.607
602.821
588.884
540.326
460.499
363.509
262.55
169.011
91.41
28.021
-26.401
-78.456
-134.38
-194.714
-256.435
-314.761
-365.645
-407.791
-441.868
-469.655
-492.118
-509.353
-521.46
-528.732
-532.053
-532.415
-530.312
-525.89
-519.252
-510.383
-499.263
-485.797
-469.643
-450.68
-429.101
-405.242
-379.558
-352.559
-324.731
-296.567
-268.628
-241.326
-214.924
-189.663
-165.821
-143.68
-123.289
-104.671
-87.894
-72.789
-59.992
-50.042
-41.984
-35.382
-28.242
-18.558
-7.872
3.043
10.946
12.461
8.783
0.28
-8.847
-14.119
-14.968
-9.936
-2.25
4.469
9.244
10.143
8.931
7.692
6.74
7.067
8.009
8.67
9.159
9.336
9.283
9.203
8.952
8.394
7.508
6.271
4.709
2.901
0.942
-1.046
-2.907
-4.504
-5.739
-6.533
-6.847
-6.671
-6.02
-4.94
-3.459
-1.576
0.716
3.435
6.589
10.158
14.112
18.407
22.971
27.748
32.69
37.759
42.958
48.311
53.856
59.658
65.769
72.21
78.99
86.096
93.501
101.177
109.097
117.232
125.572
134.111
142.837
151.743
160.804
169.976
179.225
188.509
197.797
207.079
216.353
225.624
234.919
244.276
253.728
263.296
272.988
282.785
292.659
302.567
312.463
322.299
332.002
341.481
350.628
359.318
367.426
374.838
381.425
387.044
391.574
394.913
396.987
397.756
397.197
395.308
392.106
387.623
381.923
375.102
367.278
358.595
349.191
339.189
328.724
317.939
306.962
295.905
284.858
273.883
263.036
252.366
241.908
231.689
221.713
211.968
202.424
193.037
183.774
174.612
165.529
156.503
147.522
138.579
129.684
120.862
112.133
103.519
95.042
86.724
78.596
70.691
63.047
55.706
48.699
42.05
35.776
29.892
24.406
19.32
14.631
10.326
6.39
2.812
-0.422
-3.322
-5.904
-8.182
-10.178
-11.914
-13.4
-14.649
-15.672
-16.478
-17.09
-17.536
-17.819
-17.941
-17.943
-17.858
-17.718
-17.562
-17.386
-17.163
-16.93
-16.742
-16.506
-16.11
-15.64
-15.097
-14.469
-14.029
-13.065
-10.883
-8.491
-6.196
-5.842
-9.634
-15.14
-20.737
-24.011
-21.643
-16.572
-11.289
-7.503
-8.033
-10.864
-13.952
-16.841
-18.284
-19.002
-19.922
-20.864
-21.942
-23.092
-24.119
-25.143
-26.257
-27.425
-28.633
-29.889
-31.184
-32.507
-33.849
-35.186
-36.493
-37.774
-39.033
-40.262
-41.457
-42.613
-43.725
-44.792
-45.811
-46.778
-47.688
-48.538
-49.325
-50.047
-50.701
-51.287
-51.804
-52.251
-52.628
-52.936
-53.176
-53.35
-53.459
-53.508
-53.497
-53.431
-53.314
-53.148
-52.94
-52.692
-52.41
-52.097
-51.758
-51.399
-51.022
-50.633
-50.237
-49.836
-49.437
-49.043
-48.658
-48.287
-47.933
-47.6
-47.292
-47.012
-46.763
-46.546
-46.365
-46.219
-46.112
-46.043
-46.014
-46.023
-46.071
-46.158
-46.282
-46.441
-46.635
-46.861
-47.116
-47.4
-47.709
-48.04
-48.392
-48.761
-49.145
-49.54
-49.946
-50.357
-50.773
-51.189
-51.604
-52.016
-52.42
-52.817
-53.202
-53.576
-53.935
-54.28
-54.608
-54.919
-55.213
-55.488
-55.744
-55.981
-56.2
-56.4
-56.581
-56.744
-56.89
-57.019
-57.132
-57.23
-57.314
-57.384
-57.441
-57.486
-57.52
-57.544
-57.558
-57.563
-57.559
-57.547
-57.528
-57.5
-57.466
-57.423
-57.372
-57.311
-57.241
-57.16
-57.066
-56.96
-56.838
-56.701
-56.547
-56.374
-56.182
-55.97
-55.735
-55.479
-55.199
-54.895
-54.568
-54.216
-53.84
-53.439
-53.015
-52.568
-52.098
-51.606
-51.093
-50.561
-50.011
-49.445
-48.865
-48.274
-47.673
-47.067
-46.459
-45.851
-45.249
-44.655
-44.073
-43.507
-42.962
-42.442
-41.949
-41.488
-41.063
-40.675
-40.329
-40.027
-39.771
-39.562
-39.402
-39.291
-39.23
-39.219
-39.258
-39.344
-39.478
-39.657
-39.879
-40.142
-40.442
-40.774
-41.135
-41.519
-41.921
-42.334
-42.75
-43.162
-43.563
-43.948
-44.306
-44.632
-44.916
-45.152
-45.334
-45.453
-45.499
-45.463
-45.336
-45.111
-44.781
-44.342
-43.786
-43.108
-42.306
-41.377
-40.323
-39.142
-37.829
-36.378
-34.784
-33.05
-31.19
-29.216
-27.134
-24.957
-22.696
-20.37
-18.004
-15.611
-13.191
-10.747
-8.275
-5.788
-3.315
-0.878
1.496
3.796
6.029
8.19
10.263
12.243
14.132
15.935
17.679
19.349
20.891
22.262
23.416
24.328
25.005
25.444
25.633
25.556
25.177
24.477
23.467
22.132
20.448
18.39
15.924
13.073
9.937
6.596
3.127
-0.409
-3.993
-7.584
-11.117
-14.531
-17.767
-20.774
-23.539
-26.029
-28.181
-29.957
-31.337
-32.368
-33.186
-33.913
-34.63
-35.419
-36.355
-37.52
-39.048
-41.051
-43.583
-46.71
-50.493
-54.93
-60.018
-65.642
-71.472
-77.102
-82.119
-86.058
-88.506
-89.217
-87.991
-84.862
-80.339
-75.068
-69.646
-64.682
-60.71
-58.014
-56.817
-57.106
-57.152
-53.938
-44.892
-27.459
-2.326
25.892
55.369
86.035
122.035
173.951
246.273
337.979
443.002
545.833
634.983
702.144
738.683
742.714
709.686
635.062
520.818
368.957
189.564
-0.689
-184.968
-343.906
-465.17
-544.821
-585.468
-595.026
-579.325
-544.323
-494.555
-435.94
-379.129
-330.327
-292.866
-265.777
-241.783
-217.809
-193.969
-171.788
-156.07
-148.334
-146.984
-149.933
-153.554
-155.227
-153.927
-149.262
-141.64
-131.752
-120.255
-107.906
-95.647
-84.481
-75.336
-68.725
-64.665
-62.922
-63.098
-64.771
-67.548
-70.985
-74.587
-77.984
-80.963
-83.388
-85.201
-86.378
-86.876
-86.692
-85.883
-84.492
-82.576
-80.201
-77.421
-74.305
-70.928
-67.355
-63.649
-59.9
-56.188
-52.6
-49.235
-46.15
-43.388
-40.982
-38.936
-37.24
-35.879
-34.821
-34.021
-33.446
-33.063
-32.843
-32.763
-32.792
-32.895
-33.035
-33.168
-33.26
-33.287
-33.226
-33.062
-32.787
-32.391
-31.875
-31.244
-30.5
-29.641
-28.667
-27.572
-26.353
-25.011
-23.547
-21.963
-20.263
-18.448
-16.522
-14.489
-12.351
-10.113
-7.776
-5.342
-2.813
-0.193
2.512
5.297
8.157
11.085
14.077
17.125
20.223
23.364
26.544
29.756
32.996
36.257
39.533
42.817
46.103
49.385
52.656
55.909
59.136
62.331
65.486
68.595
71.651
74.646
77.574
80.429
83.202
85.889
88.483
90.976
93.364
95.638
97.794
99.825
101.723
103.485
105.103
106.571
107.885
109.039
110.028
110.847
111.493
111.962
112.25
112.356
112.278
112.014
111.565
110.931
110.112
109.112
107.932
106.575
105.046
103.349
101.488
99.47
97.301
94.987
92.534
89.952
87.246
84.426
81.502
78.481
75.374
72.19
68.941
65.636
62.286
58.902
55.493
52.072
48.647
45.23
41.831
38.459
35.125
31.839
28.609
25.445
22.355
19.348
16.43
13.609
10.892
8.284
5.792
3.419
1.173
-0.944
-2.928
-4.774
-6.481
-8.046
-9.468
-10.746
-11.88
-12.871
-13.719
-14.425
-14.992
-15.421
-15.716
-15.88
-15.917
-15.831
-15.629
-15.316
-14.901
-14.391
-13.797
-13.128
-12.394
-11.608
-10.779
-9.919
-9.039
-8.148
-7.256
-6.376
-5.516
-4.691
-3.911
-3.188
-2.537
-1.967
-1.49
-1.117
-0.855
-0.71
-0.688
-0.795
-1.037
-1.429
-1.98
-2.694
-3.576
-4.619
-5.813
-7.144
-8.581
-10.085
-11.617
-13.135
-14.599
-15.986
-17.26
-18.386
-19.329
-20.033
-20.456
-20.572
-20.351
-19.787
-18.897
-17.706
-16.281
-14.733
-13.168
-11.696
-10.417
-9.403
-8.753
-8.571
-8.964
-10.053
-11.911
-14.601
-18.213
-22.742
-28.104
-34.128
-40.46
-46.708
-52.588
-57.766
-61.876
-64.659
-65.877
-65.575
-64.141
-61.867
-58.88
-55.102
-50.528
-45.511
-40.364
-34.792
-27.155
-15.01
3.176
27.361
54.805
82.05
108.406
135.499
169.179
216.232
278.774
355.665
439.104
517.118
580.221
619.449
629.643
610.394
561.225
485.41
390.784
286.3
183.864
92.777
15.064
-51.593
-114.087
-178.458
-245.817
-313.963
-377.509
-432.279
-477.02
-512.296
-540.419
-562.818
-579.865
-591.885
-599.118
-602.356
-602.526
-600.065
-595.15
-587.89
-578.291
-566.394
-552.106
-535.08
-515.235
-492.786
-468.053
-441.507
-413.603
-384.723
-355.347
-325.999
-297.026
-268.646
-241.009
-214.19
-188.278
-163.378
-139.55
-116.837
-95.299
-75.007
-56.047
-38.491
-22.393
-7.797
5.271
16.771
26.663
34.921
41.528
46.487
49.801
51.488
51.604
50.247
47.543
43.63
38.658
32.766
26.124
18.931
11.368
3.603
-4.201
-11.887
-19.284
-26.196
-32.437
-37.868
-42.392
-45.966
-48.571
-50.194
-50.848
-50.569
-49.432
-47.55
-45.017
-41.909
-38.307
-34.304
-30.023
-25.63
-21.274
-17.05
-13.025
-9.237
-5.705
-2.452
0.528
3.273
5.846
8.326
10.776
13.246
15.791
18.487
21.427
24.728
28.487
32.76
37.593
43.013
49.041
55.691
62.956
70.806
79.2
88.096
97.457
107.251
117.436
127.957
138.75
149.745
160.88
172.105
183.373
194.637
205.853
216.978
227.978
238.826
249.491
259.939
270.134
280.037
289.614
298.833
307.663
316.074
324.034
331.513
338.479
344.907
350.768
356.037
360.689
364.7
368.052
370.728
372.718
374.011
374.602
374.487
373.667
372.144
369.924
367.015
363.428
359.177
354.278
348.75
342.616
335.9
328.63
320.833
312.541
303.789
294.609
285.039
275.117
264.881
254.372
243.631
232.697
221.614
210.421
199.159
187.869
176.59
165.36
154.216
143.194
132.329
121.653
111.197
100.99
91.06
81.431
72.125
63.164
54.565
46.343
38.513
31.085
24.067
17.466
11.284
5.524
0.184
-4.739
-9.249
-13.354
-17.062
-20.384
-23.332
-25.919
-28.159
-30.068
-31.662
-32.958
-33.974
-34.728
-35.239
-35.525
-35.606
-35.5
-35.226
-34.803
-34.249
-33.582
-32.819
-31.976
-31.069
-30.113
-29.121
-28.107
-27.082
-26.057
-25.042
-24.046
-23.076
-22.139
-21.242
-20.389
-19.584
-18.831
-18.132
-17.489
-16.904
-16.378
-15.91
-15.5
-15.148
-14.852
-14.611
-14.423
-14.286
-14.197
-14.152
-14.15
-14.186
-14.257
-14.36
-14.492
-14.648
-14.826
-15.024
-15.238
-15.466
-15.707
-15.958
-16.218
-16.486
-16.761
-17.042
-17.329
-17.621
-17.918
-18.22
-18.526
-18.837
-19.152
-19.471
-19.794
-20.121
-20.452
-20.785
-21.122
-21.462
-21.804
-22.15
-22.498
-22.849
-23.204
-23.562
-23.924
-24.291
-24.661
-25.036
-25.415
-25.797
-26.181
-26.568
-26.955
-27.342
-27.727
-28.108
-28.485
-28.855
-29.217
-29.569
-29.909
-30.237
-30.551
-30.849
-31.132
-31.398
-31.646
-31.878
-32.093
-32.29
-32.47
-32.634
-32.78
-32.909
-33.022
-33.118
-33.197
-33.259
-33.304
-33.332
-33.344
-33.341
-33.322
-33.289
-33.242
-33.183
-33.112
-33.032
-32.943
-32.848
-32.747
-32.642
-32.536
-32.428
-32.321
-32.215
-32.111
-32.01
-31.911
-31.816
-31.722
-31.631
-31.541
-31.452
-31.363
-31.273
-31.183
-31.092
-30.998
-30.903
-30.805
-30.704
-30.6
-30.493
-30.381
-30.264
-30.143
-30.016
-29.883
-29.743
-29.595
-29.439
-29.273
-29.097
-28.91
-28.711
-28.499
-28.275
-28.038
-27.788
-27.527
-27.254
-26.97
-26.678
-26.377
-26.071
-25.759
-25.443
-25.125
-24.807
-24.489
-24.173
-23.861
-23.552
-23.249
-22.953
-22.664
-22.384
-22.114
-21.854
-21.605
-21.37
-21.149
-20.944
-20.755
-20.585
-20.436
-20.308
-20.203
-20.122
-20.067
-20.039
-20.038
-20.065
-20.122
-20.207
-20.322
-20.468
-20.643
-20.849
-21.085
-21.352
-21.65
-21.979
-22.338
-22.73
-23.152
-23.607
-24.093
-24.611
-25.161
-25.742
-26.354
-26.995
-27.666
-28.363
-29.085
-29.83
-30.594
-31.374
-32.168
-32.971
-33.779
-34.587
-35.392
-36.187
-36.968
-37.729
-38.464
-39.167
-39.831
-40.451
-41.018
-41.527
-41.971
-42.342
-42.634
-42.839
-42.951
-42.962
-42.866
-42.656
-42.325
-41.868
-41.28
-40.557
-39.695
-38.691
-37.544
-36.252
-34.816
-33.237
-31.518
-29.662
-27.674
-25.56
-23.327
-20.985
-18.542
-16.011
-13.404
-10.737
-8.024
-5.283
-2.531
0.212
2.929
5.6
8.205
10.725
13.144
15.441
17.599
19.598
21.418
23.041
24.452
25.634
26.575
27.261
27.683
27.837
27.722
27.333
26.669
25.718
24.475
22.94
21.118
19.018
16.657
14.051
11.226
8.225
5.088
1.855
-1.435
-4.757
-8.083
-11.372
-14.581
-17.654
-20.535
-23.19
-25.59
-27.706
-29.54
-31.105
-32.436
-33.611
-34.706
-35.785
-36.932
-38.215
-39.706
-41.511
-43.71
-46.406
-49.742
-53.758
-58.439
-63.702
-69.273
-74.839
-80.096
-84.607
-87.92
-89.785
-89.983
-88.579
-86.128
-83.16
-80.277
-78.157
-77.108
-77.371
-79.299
-82.639
-86.36
-88.375
-85.3
-74.343
-54.43
-27.321
3.682
37.224
74.771
122.729
187.596
270.999
369.945
473.18
568.096
644.571
692.813
709.131
689.937
631.105
534.072
399.885
235.48
56.151
-122.986
-282.675
-406.508
-490.39
-536.428
-555.004
-560.357
-558.872
-551.88
-536.925
-509.515
-470.155
-422.752
-372.001
-322.461
-276.208
-234.159
-197.048
-165.12
-138.902
-118.495
-103.12
-92.228
-85.397
-81.713
-80.424
-80.762
-81.328
-81.103
-79.864
-77.471
-73.878
-69.32
-63.852
-57.545
-51.278
-46.02
-42.119
-39.701
-38.717
-38.935
-40.332
-43.004
-46.437
-49.82
-52.697
-54.78
-55.987
-56.44
-56.08
-54.724
-52.467
-49.602
-46.354
-42.931
-39.415
-35.772
-32.076
-28.471
-25.06
-21.927
-19.107
-16.59
-14.393
-12.546
-11.049
-9.893
-9.041
-8.433
-8.025
-7.782
-7.671
-7.67
-7.742
-7.846
-7.938
-7.968
-7.904
-7.723
-7.403
-6.93
-6.293
-5.484
-4.506
-3.371
-2.083
-0.646
0.937
2.668
4.548
6.572
8.736
11.033
13.458
16.008
18.677
21.458
24.346
27.334
30.419
33.595
36.859
40.203
43.621
47.102
50.638
54.222
57.844
61.496
65.169
68.855
72.547
76.238
79.922
83.592
87.242
90.867
94.46
98.015
101.527
104.989
108.396
111.741
115.018
118.221
121.343
124.378
127.32
130.162
132.899
135.524
138.031
140.414
142.668
144.787
146.765
148.598
150.281
151.809
153.179
154.386
155.426
156.297
156.995
157.516
157.858
158.018
157.994
157.784
157.387
156.802
156.031
155.072
153.929
152.603
151.098
149.416
147.563
145.544
143.363
141.028
138.545
135.922
133.166
130.288
127.295
124.196
121.001
117.72
114.361
110.934
107.448
103.913
100.337
96.731
93.103
89.463
85.82
82.183
78.561
74.964
71.399
67.875
64.399
60.979
57.621
54.332
51.117
47.982
44.933
41.974
39.108
36.34
33.671
31.105
28.641
26.282
24.028
21.878
19.832
17.89
16.05
14.311
12.672
11.132
9.688
8.337
7.076
5.901
4.808
3.791
2.844
1.96
1.132
0.353
-0.384
-1.088
-1.765
-2.422
-3.064
-3.7
-4.335
-4.977
-5.634
-6.312
-7.021
-7.767
-8.556
-9.396
-10.289
-11.236
-12.239
-13.298
-14.416
-15.601
-16.86
-18.194
-19.603
-21.086
-22.635
-24.24
-25.878
-27.511
-29.105
-30.626
-32.041
-33.329
-34.463
-35.413
-36.15
-36.635
-36.836
-36.734
-36.311
-35.554
-34.467
-33.074
-31.437
-29.661
-27.848
-26.096
-24.487
-23.092
-22.005
-21.335
-21.188
-21.661
-22.803
-24.673
-27.382
-30.972
-35.387
-40.437
-45.703
-50.747
-55.284
-58.952
-61.288
-62.035
-61.093
-58.684
-55.65
-52.697
-50.069
-48.289
-47.98
-49.175
-51.676
-53.946
-52.638
-46.002
-33.434
-15.109
6.992
33.94
68.372
112.307
168.461
235.326
309.523
387.276
461.41
525.261
569.45
582.883
559.802
497.675
402.75
290.041
173.377
67.333
-17.59
-80.68
-123.443
-151.329
-175.504
-203.205
-238.258
-283.027
-331.773
-377.415
-417.323
-448.589
-472.52
-493.65
-513.306
-532.217
-550.267
-565.224
-575.721
-581.511
-582.459
-578.891
-571.312
-559.974
-545.163
-527.44
-507.438
-485.629
-462.441
-438.243
-413.284
-387.883
-362.36
-336.895
-311.64
-286.753
-262.383
-238.745
-216.075
-194.527
-174.223
-155.265
-137.729
-121.71
-107.304
-94.529
-83.36
-73.734
-65.567
-58.815
-53.436
-49.366
-46.51
-44.718
-43.822
-43.681
-44.159
-45.106
-46.367
-47.76
-49.103
-50.284
-51.239
-51.928
-52.339
-52.445
-52.22
-51.668
-50.82
-49.728
-48.452
-47.039
-45.532
-43.994
-42.5
-41.134
-39.988
-39.098
-38.473
-38.106
-37.972
-38.048
-38.306
-38.697
-39.161
-39.642
-40.087
-40.447
-40.681
-40.732
-40.538
-40.038
-39.165
-37.875
-36.138
-33.927
-31.225
-28.026
-24.325
-20.128
-15.445
-10.275
-4.622
1.503
8.091
15.123
22.571
30.407
38.593
47.078
55.815
64.759
73.865
83.111
92.473
101.927
111.447
121.005
130.582
140.178
149.799
159.444
169.117
178.821
188.569
198.409
208.374
218.483
228.744
239.129
249.596
260.107
270.614
281.05
291.33
301.335
310.93
320.007
328.459
336.182
343.067
348.966
353.75
357.326
359.622
360.607
360.275
358.617
355.649
351.427
346.032
339.585
332.233
324.09
315.26
305.855
295.984
285.791
275.406
264.928
254.435
243.99
233.64
223.437
213.423
203.598
193.95
184.445
175.03
165.683
156.394
147.152
137.951
128.774
119.611
110.472
101.38
92.356
83.425
74.603
65.909
57.382
49.065
41.003
33.247
25.833
18.786
12.127
5.873
0.036
-5.375
-10.364
-14.94
-19.113
-22.889
-26.276
-29.281
-31.918
-34.206
-36.16
-37.802
-39.149
-40.218
-41.028
-41.597
-41.941
-42.075
-42.015
-41.774
-41.367
-40.81
-40.12
-39.314
-38.409
-37.42
-36.363
-35.254
-34.107
-32.933
-31.746
-30.555
-29.369
-28.199
-27.051
-25.933
-24.851
-23.811
-22.818
-21.875
-20.986
-20.153
-19.379
-18.664
-18.01
-17.416
-16.884
-16.412
-15.999
-15.646
-15.351
-15.112
-14.927
-14.794
-14.711
-14.674
-14.682
-14.731
-14.818
-14.941
-15.097
-15.284
-15.499
-15.741
-16.008
-16.298
-16.61
-16.942
-17.294
-17.665
-18.053
-18.457
-18.878
-19.315
-19.768
-20.235
-20.718
-21.215
-21.726
-22.252
-22.792
-23.346
-23.913
-24.494
-25.089
-25.697
-26.319
-26.953
-27.6
-28.258
-28.928
-29.608
-30.298
-30.995
-31.7
-32.41
-33.125
-33.842
-34.559
-35.276
-35.99
-36.7
-37.402
-38.096
-38.779
-39.448
-40.103
-40.741
-41.359
-41.957
-42.533
-43.084
-43.608
-44.105
-44.572
-45.009
-45.413
-45.784
-46.12
-46.422
-46.689
-46.92
-47.115
-47.276
-47.401
-47.491
-47.548
-47.573
-47.566
-47.529
-47.463
-47.371
-47.254
-47.113
-46.953
-46.773
-46.577
-46.367
-46.145
-45.914
-45.675
-45.432
-45.186
-44.94
-44.696
-44.456
-44.224
-44
-43.787
-43.586
-43.399
-43.227
-43.072
-42.934
-42.813
-42.711
-42.627
-42.562
-42.516
-42.487
-42.476
-42.482
-42.503
-42.538
-42.586
-42.645
-42.714
-42.791
-42.874
-42.96
-43.049
-43.137
-43.223
-43.303
-43.376
-43.438
-43.488
-43.522
-43.538
-43.533
-43.504
-43.451
-43.369
-43.258
-43.116
-42.941
-42.731
-42.485
-42.203
-41.883
-41.525
-41.129
-40.696
-40.225
-39.717
-39.174
-38.596
-37.985
-37.344
-36.673
-35.975
-35.252
-34.508
-33.745
-32.966
-32.175
-31.377
-30.574
-29.772
-28.974
-28.185
-27.409
-26.651
-25.916
-25.207
-24.53
-23.889
-23.288
-22.731
-22.222
-21.765
-21.362
-21.017
-20.732
-20.508
-20.348
-20.251
-20.22
-20.254
-20.351
-20.512
-20.734
-21.015
-21.353
-21.742
-22.18
-22.66
-23.179
-23.729
-24.304
-24.897
-25.5
-26.106
-26.704
-27.288
-27.847
-28.37
-28.85
-29.274
-29.634
-29.919
-30.12
-30.225
-30.226
-30.114
-29.881
-29.517
-29.016
-28.369
-27.573
-26.62
-25.508
-24.232
-22.792
-21.186
-19.415
-17.481
-15.387
-13.138
-10.739
-8.198
-5.522
-2.723
0.188
3.2
6.299
9.469
12.692
15.949
19.221
22.486
25.724
28.912
32.026
35.045
37.949
40.717
43.329
45.766
48.006
50.03
51.82
53.359
54.632
55.628
56.333
56.741
56.85
56.661
56.174
55.387
54.293
52.887
51.171
49.15
46.83
44.228
41.359
38.252
34.947
31.485
27.909
24.259
20.564
16.857
13.186
9.596
6.151
2.91
-0.086
-2.793
-5.174
-7.223
-8.95
-10.39
-11.623
-12.711
-13.712
-14.714
-15.794
-17.049
-18.593
-20.497
-22.862
-25.858
-29.577
-34.033
-39.116
-44.486
-49.771
-54.672
-58.774
-61.557
-62.645
-61.825
-59.337
-55.956
-52.42
-49.437
-47.788
-48.243
-51.629
-57.557
-63.979
-68.678
-69.184
-65.525
-60.251
-52.276
-38.656
-12.476
36.427
109.625
203.554
309.79
415.439
515.108
606.138
685.579
749.57
787.688
788.493
743.666
651.323
516.495
348.63
162.091
-27.348
-201.982
-343.899
-443.142
-498.692
-517.42
-513.287
-497.535
-474.409
-446.795
-413.5
-374.093
-333.563
-293.444
-255.514
-221.956
-191.417
-165.31
-145.11
-130.679
-122.254
-118.23
-116.925
-117.371
-118.722
-120.933
-123.585
-125.738
-126.871
-126.549
-124.49
-120.916
-115.725
-108.421
-99.223
-88.782
-77.798
-67.253
-57.739
-49.389
-42.618
-38.035
-35.794
-35.702
-37.266
-39.62
-42.248
-44.978
-47.53
-49.584
-50.907
-51.376
-51.109
-50.468
-49.673
-48.755
-47.72
-46.533
-45.203
-43.801
-42.339
-40.763
-39.036
-37.169
-35.212
-33.27
-31.44
-29.758
-28.234
-26.867
-25.649
-24.587
-23.684
-22.93
-22.298
-21.765
-21.311
-20.927
-20.608
-20.334
-20.072
-19.782
-19.419
-18.952
-18.365
-17.646
-16.786
-15.779
-14.618
-13.306
-11.855
-10.269
-8.552
-6.705
-4.727
-2.621
-0.396
1.94
4.376
6.904
9.516
12.204
14.959
17.776
20.649
23.572
26.544
29.561
32.617
35.707
38.825
41.964
45.119
48.282
51.449
54.611
57.764
60.902
64.021
67.115
70.18
73.211
76.202
79.149
82.045
84.885
87.665
90.378
93.018
95.582
98.062
100.454
102.751
104.947
107.038
109.015
110.873
112.605
114.204
115.665
116.979
118.141
119.145
119.985
120.656
121.152
121.468
121.601
121.546
121.301
120.861
120.225
119.393
118.363
117.136
115.712
114.094
112.285
110.287
108.105
105.744
103.209
100.507
97.644
94.63
91.472
88.179
84.762
81.231
77.597
73.871
70.065
66.19
62.26
58.287
54.283
50.261
46.235
42.218
38.222
34.26
30.347
26.493
22.711
19.011
15.406
11.904
8.516
5.251
2.118
-0.877
-3.725
-6.42
-8.956
-11.328
-13.532
-15.564
-17.422
-19.104
-20.609
-21.936
-23.085
-24.058
-24.856
-25.481
-25.935
-26.223
-26.35
-26.321
-26.142
-25.822
-25.369
-24.793
-24.106
-23.316
-22.437
-21.479
-20.454
-19.376
-18.256
-17.104
-15.932
-14.752
-13.577
-12.418
-11.29
-10.202
-9.168
-8.2
-7.309
-6.507
-5.802
-5.197
-4.699
-4.314
-4.048
-3.913
-3.915
-4.054
-4.331
-4.741
-5.274
-5.918
-6.648
-7.421
-8.201
-8.952
-9.641
-10.248
-10.746
-11.099
-11.277
-11.238
-10.946
-10.385
-9.534
-8.374
-6.911
-5.162
-3.177
-1.057
1.101
3.209
5.179
6.959
8.484
9.656
10.391
10.589
10.155
9.062
7.254
4.629
1.192
-2.97
-7.638
-12.366
-16.715
-20.395
-23.085
-24.403
-24.099
-22.046
-18.445
-13.935
-9.199
-4.605
-0.287
3.366
5.967
7.639
8.994
12.016
19.793
33.559
53.409
78.757
107.188
139.11
176.611
221.487
277.026
343.66
419.014
497.533
569.512
624.102
650.529
643.39
603.108
534.106
445.468
345.285
240.858
140.547
49.365
-29.972
-98.094
-160.803
-222.837
-285.955
-348.667
-405.762
-453.543
-491.285
-520.025
-542.164
-559.283
-571.785
-580.152
-585.079
-587.164
-586.915
-584.514
-579.873
-572.911
-563.55
-551.549
-536.502
-518.297
-497.104
-473.226
-447.15
-419.349
-390.27
-360.478
-330.557
-300.905
-271.763
-243.299
-215.618
-188.856
-163.17
-138.649
-115.338
-93.3
-72.625
-53.431
-35.835
-19.91
-5.65
6.99
18.023
27.446
35.248
41.446
46.111
49.329
51.18
51.723
51.034
49.214
46.409
42.807
38.594
33.953
29.015
23.889
18.697
13.574
8.665
4.072
-0.136
-3.911
-7.193
-9.894
-11.944
-13.314
-14.016
-14.108
-13.668
-12.771
-11.474
-9.835
-7.923
-5.82
-3.624
-1.392
0.845
3.069
5.253
7.336
9.268
11.029
12.632
14.113
15.526
16.919
18.337
19.847
21.521
23.445
25.711
28.377
31.478
35.038
39.082
43.648
48.773
54.476
60.749
67.577
74.938
82.809
91.159
99.93
109.046
118.42
127.973
137.644
147.393
157.19
167.006
176.812
186.585
196.298
205.935
215.483
224.914
234.205
243.351
252.361
261.271
270.128
278.942
287.707
296.397
304.956
313.324
321.429
329.169
336.465
343.25
349.454
355.035
359.946
364.109
367.448
369.87
371.271
371.593
370.815
368.924
365.959
361.984
357.078
351.357
344.917
337.812
330.092
321.797
312.968
303.691
294.051
284.123
274.004
263.764
253.437
243.062
232.638
222.119
211.465
200.628
189.589
178.396
167.12
155.824
144.565
133.374
122.278
111.325
100.553
89.99
79.69
69.702
60.097
50.997
42.5
34.676
27.561
21.124
15.299
10.042
5.313
1.074
-2.702
-6.06
-9.04
-11.662
-13.955
-15.954
-17.715
-19.328
-20.874
-22.393
-23.906
-25.397
-26.821
-28.157
-29.391
-30.5
-31.478
-32.317
-33.014
-33.587
-34.06
-34.439
-34.726
-34.903
-34.954
-34.883
-34.704
-34.443
-34.134
-33.805
-33.478
-33.183
-32.937
-32.754
-32.644
-32.603
-32.622
-32.702
-32.842
-33.048
-33.325
-33.674
-34.095
-34.583
-35.135
-35.745
-36.407
-37.114
-37.858
-38.634
-39.438
-40.269
-41.128
-42.011
-42.917
-43.843
-44.785
-45.739
-46.701
-47.666
-48.629
-49.586
-50.534
-51.469
-52.389
-53.292
-54.176
-55.039
-55.879
-56.694
-57.483
-58.244
-58.975
-59.676
-60.344
-60.98
-61.582
-62.149
-62.68
-63.174
-63.632
-64.052
-64.434
-64.778
-65.084
-65.352
-65.581
-65.773
-65.927
-66.045
-66.128
-66.176
-66.19
-66.174
-66.127
-66.05
-65.946
-65.816
-65.66
-65.481
-65.279
-65.055
-64.813
-64.552
-64.275
-63.984
-63.68
-63.365
-63.041
-62.71
-62.373
-62.033
-61.691
-61.349
-61.008
-60.67
-60.336
-60.007
-59.684
-59.368
-59.059
-58.757
-58.463
-58.176
-57.898
-57.627
-57.364
-57.109
-56.861
-56.62
-56.386
-56.159
-55.939
-55.724
-55.515
-55.312
-55.113
-54.918
-54.727
-54.539
-54.354
-54.17
-53.987
-53.804
-53.62
-53.435
-53.249
-53.061
-52.872
-52.681
-52.489
-52.296
-52.103
-51.91
-51.72
-51.532
-51.349
-51.17
-50.998
-50.834
-50.678
-50.532
-50.397
-50.273
-50.162
-50.064
-49.98
-49.909
-49.853
-49.811
-49.784
-49.772
-49.776
-49.796
-49.832
-49.884
-49.954
-50.04
-50.142
-50.261
-50.395
-50.544
-50.707
-50.882
-51.068
-51.264
-51.467
-51.676
-51.888
-52.102
-52.314
-52.523
-52.726
-52.922
-53.108
-53.283
-53.446
-53.597
-53.735
-53.86
-53.972
-54.072
-54.161
-54.237
-54.302
-54.356
-54.399
-54.431
-54.453
-54.465
-54.469
-54.465
-54.454
-54.439
-54.421
-54.401
-54.381
-54.364
-54.352
-54.347
-54.353
-54.372
-54.406
-54.461
-54.537
-54.639
-54.767
-54.922
-55.105
-55.314
-55.549
-55.804
-56.077
-56.364
-56.663
-56.969
-57.28
-57.591
-57.902
-58.21
-58.515
-58.813
-59.097
-59.362
-59.6
-59.805
-59.969
-60.083
-60.136
-60.119
-60.025
-59.85
-59.589
-59.234
-58.773
-58.192
-57.479
-56.633
-55.654
-54.541
-53.3
-51.939
-50.479
-48.956
-47.4
-45.832
-44.26
-42.68
-41.092
-39.495
-37.892
-36.284
-34.659
-32.998
-31.292
-29.537
-27.729
-25.848
-23.852
-21.673
-19.257
-16.575
-13.631
-10.451
-7.061
-3.5
0.18
3.912
7.595
11.14
14.479
17.562
20.344
22.766
24.735
26.133
26.863
26.856
26.084
24.547
22.248
19.221
15.53
11.28
6.617
1.684
-3.411
-8.579
-13.742
-18.817
-23.685
-28.212
-32.283
-35.789
-38.657
-40.836
-42.282
-42.99
-43.002
-42.399
-41.317
-39.899
-38.265
-36.544
-34.852
-33.302
-32.037
-31.177
-30.853
-31.247
-32.43
-34.39
-37.032
-40.066
-43.166
-46.059
-48.344
-49.556
-49.455
-47.891
-45.023
-41.535
-38.046
-35.124
-33.382
-33.123
-34.511
-37.708
-42.235
-46.818
-49.284
-46.441
-35.77
-16.172
11.074
43.124
79.32
121.186
172.829
238.504
317.046
403.259
489.711
568.778
635.522
685.06
710.301
700.91
646.596
542.825
391.202
204.546
4.288
-188.675
-351.61
-469.241
-539.969
-566.413
-559.62
-534.624
-499.847
-464.019
-432.776
-404.859
-378.675
-349.831
-313.785
-271.151
-225.921
-184.291
-150.964
-127.369
-112.318
-102.833
-97.335
-95.235
-95.403
-96.986
-98.771
-99.251
-98.05
-95.399
-91.325
-86.14
-80.406
-74.601
-69.494
-65.906
-64.013
-63.657
-64.592
-66.388
-68.663
-71.093
-73.228
-74.632
-75.089
-74.53
-73.003
-70.644
-67.551
-63.821
-59.578
-54.961
-50.114
-45.165
-40.238
-35.447
-30.887
-26.652
-22.816
-19.428
-16.517
-14.094
-12.144
-10.641
-9.56
-8.863
-8.513
-8.475
-8.7
-9.137
-9.731
-10.419
-11.149
-11.883
-12.582
-13.218
-13.77
-14.218
-14.553
-14.772
-14.87
-14.839
-14.671
-14.355
-13.885
-13.257
-12.467
-11.516
-10.4
-9.119
-7.671
-6.055
-4.271
-2.321
-0.203
2.082
4.533
7.144
9.909
12.821
15.87
19.049
22.347
25.753
29.258
32.849
36.517
40.251
44.04
47.873
51.739
55.625
59.521
63.414
67.294
71.147
74.964
78.732
82.441
86.08
89.639
93.108
96.478
99.739
102.884
105.904
108.793
111.544
114.15
116.606
118.907
121.049
123.028
124.84
126.481
127.951
129.245
130.361
131.299
132.056
132.631
133.024
133.235
133.264
133.113
132.782
132.275
131.593
130.741
129.722
128.541
127.202
125.711
124.074
122.297
120.386
118.347
116.187
113.915
111.536
109.057
106.487
103.832
101.101
98.299
95.436
92.519
89.556
86.555
83.523
80.469
77.402
74.329
71.259
68.198
65.156
62.139
59.156
56.212
53.316
50.472
47.687
44.967
42.318
39.743
37.248
34.836
32.513
30.282
28.147
26.111
24.176
22.347
20.625
19.013
17.514
16.129
14.86
13.708
12.674
11.76
10.963
10.284
9.722
9.275
8.941
8.718
8.603
8.592
8.68
8.863
9.137
9.495
9.931
10.438
11.01
11.64
12.323
13.048
13.806
14.583
15.37
16.153
16.922
17.664
18.366
19.021
19.617
20.15
20.613
20.997
21.291
21.484
21.565
21.527
21.37
21.092
20.697
20.19
19.578
18.868
18.063
17.161
16.155
15.043
13.819
12.486
11.056
9.552
8.007
6.462
4.94
3.45
1.998
0.589
-0.744
-1.95
-2.98
-3.788
-4.348
-4.619
-4.513
-3.992
-3.138
-2.149
-1.271
-0.641
-0.183
0.234
0.586
0.869
1.202
1.922
3.492
6.012
9.015
11.85
14.154
15.795
16.741
16.709
15.132
11.953
7.937
4.133
1.157
-1.036
-2.934
-4.729
-6.197
-7.52
-9.622
-13.617
-19.022
-23.377
-24.132
-19.798
-12.158
-4.599
3.405
15.972
40.324
84.115
148.727
230.229
322.366
416.599
504.368
578.186
628.732
647.126
630.404
578.957
497.978
399.757
294.8
193.008
105.024
33.474
-22.804
-66.929
-107.689
-151.922
-201.199
-255.536
-311.425
-362.686
-407.201
-444.247
-472.913
-495.644
-513.57
-526.717
-536.476
-542.584
-544.551
-542.693
-537.021
-527.805
-515.536
-500.341
-482.055
-460.764
-436.775
-410.485
-382.444
-353.224
-323.306
-293.186
-263.454
-234.543
-206.769
-180.467
-155.848
-133.072
-112.317
-93.663
-77.127
-62.749
-50.538
-40.427
-32.32
-26.055
-21.419
-18.264
-16.454
-15.841
-16.274
-17.54
-19.421
-21.746
-24.357
-27.096
-29.805
-32.314
-34.462
-36.174
-37.425
-38.219
-38.594
-38.562
-38.132
-37.34
-36.237
-34.896
-33.399
-31.804
-30.161
-28.539
-27.013
-25.669
-24.594
-23.818
-23.338
-23.136
-23.175
-23.424
-23.854
-24.417
-25.058
-25.719
-26.334
-26.854
-27.235
-27.422
-27.349
-26.949
-26.147
-24.902
-23.202
-21.036
-18.408
-15.316
-11.751
-7.714
-3.213
1.741
7.125
12.926
19.133
25.718
32.641
39.852
47.283
54.895
62.677
70.615
78.698
86.91
95.228
103.638
112.13
120.698
129.342
138.064
146.869
155.774
164.81
174.012
183.435
193.107
203.029
213.199
223.603
234.214
244.994
255.89
266.837
277.759
288.574
299.179
309.452
319.271
328.519
337.071
344.8
351.586
357.317
361.9
365.27
367.384
368.229
367.81
366.144
363.275
359.265
354.206
348.225
341.43
333.917
325.786
317.133
308.067
298.708
289.156
279.482
269.748
259.996
250.265
240.59
230.982
221.434
211.92
202.392
192.827
183.224
173.579
163.9
154.185
144.422
134.619
124.803
114.997
105.23
95.527
85.912
76.418
67.097
58
49.182
40.687
32.542
24.773
17.398
10.433
3.895
-2.212
-7.893
-13.153
-17.993
-22.416
-26.425
-30.029
-33.245
-36.088
-38.578
-40.731
-42.564
-44.095
-45.342
-46.322
-47.054
-47.551
-47.83
-47.907
-47.801
-47.532
-47.12
-46.583
-45.939
-45.208
-44.409
-43.557
-42.667
-41.755
-40.833
-39.913
-39.005
-38.121
-37.27
-36.458
-35.694
-34.984
-34.332
-33.743
-33.219
-32.763
-32.376
-32.059
-31.812
-31.634
-31.524
-31.48
-31.5
-31.583
-31.723
-31.919
-32.167
-32.46
-32.796
-33.17
-33.576
-34.011
-34.468
-34.946
-35.438
-35.943
-36.456
-36.975
-37.496
-38.019
-38.539
-39.057
-39.569
-40.076
-40.576
-41.069
-41.554
-42.032
-42.502
-42.965
-43.421
-43.872
-44.317
-44.758
-45.195
-45.63
-46.063
-46.497
-46.932
-47.369
-47.811
-48.259
-48.712
-49.174
-49.644
-50.123
-50.611
-51.108
-51.615
-52.13
-52.655
-53.187
-53.727
-54.274
-54.825
-55.381
-55.939
-56.498
-57.055
-57.611
-58.161
-58.705
-59.241
-59.766
-60.279
-60.778
-61.262
-61.728
-62.174
-62.598
-63
-63.376
-63.726
-64.048
-64.341
-64.603
-64.834
-65.034
-65.202
-65.337
-65.441
-65.512
-65.552
-65.562
-65.541
-65.491
-65.414
-65.31
-65.182
-65.031
-64.859
-64.668
-64.46
-64.236
-64
-63.754
-63.498
-63.235
-62.968
-62.698
-62.427
-62.158
-61.891
-61.63
-61.375
-61.129
-60.892
-60.667
-60.453
-60.253
-60.066
-59.893
-59.735
-59.592
-59.463
-59.349
-59.25
-59.164
-59.09
-59.029
-58.978
-58.935
-58.9
-58.87
-58.844
-58.82
-58.795
-58.769
-58.738
-58.702
-58.657
-58.603
-58.537
-58.457
-58.361
-58.249
-58.117
-57.965
-57.792
-57.596
-57.376
-57.131
-56.862
-56.567
-56.245
-55.897
-55.522
-55.122
-54.695
-54.243
-53.767
-53.268
-52.749
-52.21
-51.654
-51.084
-50.501
-49.907
-49.307
-48.701
-48.094
-47.487
-46.884
-46.288
-45.7
-45.125
-44.563
-44.018
-43.491
-42.985
-42.5
-42.037
-41.599
-41.186
-40.798
-40.437
-40.101
-39.793
-39.509
-39.251
-39.015
-38.8
-38.603
-38.421
-38.25
-38.085
-37.922
-37.756
-37.582
-37.394
-37.185
-36.951
-36.684
-36.378
-36.025
-35.62
-35.154
-34.622
-34.018
-33.335
-32.57
-31.715
-30.767
-29.721
-28.574
-27.322
-25.961
-24.488
-22.9
-21.2
-19.391
-17.474
-15.454
-13.329
-11.107
-8.805
-6.428
-3.971
-1.436
1.18
3.863
6.577
9.303
12.05
14.787
17.446
19.972
22.304
24.417
26.358
28.126
29.636
30.941
32.271
33.655
35.009
36.354
37.415
38.673
41.639
45.955
50.222
52.13
47.349
36.185
22.988
12.108
9.721
16.207
25.789
34.015
36.054
31.116
23.574
16.119
10.613
7.633
5.443
3.259
1.157
-0.91
-2.673
-4.071
-5.368
-6.698
-8.08
-9.59
-11.303
-13.258
-15.482
-17.992
-20.783
-23.894
-27.4
-31.348
-35.768
-40.651
-45.985
-51.812
-58.079
-64.598
-71.026
-76.794
-81.345
-84.301
-85.266
-83.776
-79.584
-72.647
-63.394
-53.01
-42.65
-33.104
-25.228
-19.806
-17.271
-17.772
-19.721
-19.545
-14.14
-1.429
18.346
43.09
73.008
110.885
161.614
229.716
314.386
410.077
507.933
598.762
676.298
734.476
767.099
766.243
722.464
631.895
495.923
323.759
133.715
-55.608
-224.514
-357.522
-451.05
-507.627
-537.527
-552.508
-555.773
-546.237
-518.476
-469.657
-406.061
-337.323
-274.919
-225.173
-186.7
-157.001
-132.348
-111.694
-97.71
-90.945
-91.088
-96.699
-103.87
-110.013
-113.93
-114.825
-113.316
-110.278
-105.924
-100.54
-94.883
-89.57
-85.117
-81.786
-79.016
-76.26
-73.562
-71.201
-69.305
-67.881
-66.753
-65.845
-65.512
-65.968
-67.013
-68.186
-69.05
-69.383
-69.153
-68.353
-66.836
-64.502
-61.45
-57.935
-54.215
-50.439
-46.684
-42.982
-39.414
-36.104
-33.112
-30.445
-28.101
-26.055
-24.302
-22.848
-21.676
-20.758
-20.071
-19.571
-19.229
-19.024
-18.908
-18.882
-18.954
-19.01
-18.969
-18.752
-18.248
-17.534
-16.729
-15.775
-14.637
-13.472
-12.357
-11.487
-11.108
-10.974
-10.803
-10.598
-10.288
-9.702
-8.78
-7.219
-4.668
-1.437
2.149
6.026
10.022
14.037
18.068
21.829
25.016
27.846
30.521
33.106
35.756
38.457
41.148
43.963
47.024
50.233
53.511
56.804
60.018
63.181
66.33
69.428
72.452
75.408
78.291
81.109
83.878
86.577
89.186
91.698
94.099
96.387
98.564
100.624
102.564
104.379
106.065
107.619
109.039
110.322
111.469
112.476
113.341
114.066
114.648
115.089
115.389
115.544
115.553
115.414
115.126
114.686
114.096
113.355
112.464
111.422
110.233
108.897
107.417
105.796
104.037
102.144
100.12
97.971
95.702
93.319
90.827
88.233
85.542
82.762
79.899
76.96
73.951
70.879
67.753
64.578
61.362
58.114
54.84
51.55
48.25
44.95
41.657
38.379
35.125
31.901
28.717
25.579
22.495
19.471
16.516
13.636
10.838
8.127
5.509
2.989
0.573
-1.737
-3.935
-6.018
-7.983
-9.826
-11.545
-13.138
-14.6
-15.931
-17.129
-18.193
-19.122
-19.915
-20.573
-21.096
-21.486
-21.744
-21.872
-21.872
-21.747
-21.501
-21.138
-20.664
-20.083
-19.404
-18.632
-17.779
-16.854
-15.866
-14.826
-13.746
-12.635
-11.505
-10.367
-9.23
-8.104
-6.999
-5.926
-4.896
-3.922
-3.016
-2.189
-1.452
-0.814
-0.285
0.129
0.424
0.599
0.652
0.576
0.361
-0.002
-0.515
-1.178
-1.984
-2.925
-3.982
-5.13
-6.329
-7.543
-8.735
-9.875
-10.943
-11.913
-12.759
-13.449
-13.936
-14.181
-14.156
-13.833
-13.198
-12.258
-11.036
-9.59
-8.012
-6.385
-4.779
-3.264
-1.904
-0.775
0.03
0.419
0.319
-0.374
-1.793
-4.009
-7.026
-10.699
-14.694
-18.675
-22.332
-25.316
-27.261
-27.872
-26.978
-24.84
-22.167
-19.587
-17.615
-16.6
-16.702
-18.163
-21.052
-24.496
-26.807
-26.197
-20.891
-9.518
9.003
36.258
73.81
120.892
174.496
231.501
288.566
346.108
407.983
473.161
536.835
588.809
613.513
603.374
559.199
488.436
405.853
321.789
240.059
160.727
80.158
-2.967
-86.667
-167.446
-241.518
-307.216
-364.23
-412.98
-454.4
-488.714
-516.189
-537.87
-554.605
-567.247
-576.856
-583.745
-587.874
-589.403
-588.203
-583.92
-576.363
-565.158
-549.865
-530.581
-507.659
-481.523
-452.83
-422.25
-390.4
-358.014
-325.813
-294.278
-263.773
-234.6
-206.968
-181.095
-157.179
-135.339
-115.64
-98.139
-82.888
-69.881
-59.054
-50.276
-43.355
-38.095
-34.334
-31.923
-30.696
-30.454
-30.981
-32.071
-33.546
-35.234
-36.957
-38.528
-39.762
-40.542
-40.82
-40.592
-39.886
-38.737
-37.167
-35.215
-32.941
-30.423
-27.743
-24.977
-22.186
-19.445
-16.845
-14.488
-12.479
-10.878
-9.699
-8.935
-8.559
-8.537
-8.834
-9.394
-10.147
-11.027
-11.971
-12.92
-13.827
-14.633
-15.272
-15.675
-15.768
-15.501
-14.838
-13.749
-12.217
-10.224
-7.76
-4.826
-1.426
2.434
6.752
11.529
16.768
22.469
28.631
35.246
42.3
49.777
57.657
65.917
74.527
83.451
92.641
102.057
111.663
121.419
131.297
141.256
151.259
161.271
171.257
181.188
191.055
200.85
210.573
220.245
229.886
239.53
249.228
259.008
268.888
278.877
288.96
299.126
309.352
319.591
329.792
339.889
349.783
359.374
368.546
377.143
385.025
392.045
398.036
402.877
406.464
408.707
409.554
408.966
406.92
403.436
398.552
392.319
384.828
376.185
366.518
356.004
344.805
333.075
320.989
308.684
296.282
283.902
271.633
259.545
247.706
236.152
224.91
214.005
203.437
193.192
183.243
173.532
164.014
154.661
145.436
136.324
127.317
118.408
109.605
100.93
92.401
84.041
75.876
67.924
60.209
52.765
45.621
38.818
32.387
26.345
20.706
15.476
10.655
6.24
2.221
-1.424
-4.713
-7.661
-10.289
-12.61
-14.643
-16.408
-17.927
-19.22
-20.309
-21.211
-21.944
-22.526
-22.972
-23.298
-23.516
-23.639
-23.677
-23.644
-23.551
-23.411
-23.236
-23.036
-22.82
-22.598
-22.378
-22.167
-21.97
-21.79
-21.632
-21.496
-21.386
-21.302
-21.244
-21.212
-21.206
-21.224
-21.267
-21.333
-21.421
-21.53
-21.658
-21.805
-21.968
-22.148
-22.342
-22.549
-22.769
-23
-23.241
-23.491
-23.749
-24.014
-24.285
-24.561
-24.842
-25.126
-25.413
-25.702
-25.994
-26.289
-26.587
-26.889
-27.196
-27.509
-27.83
-28.16
-28.5
-28.851
-29.215
-29.591
-29.981
-30.386
-30.805
-31.24
-31.69
-32.155
-32.635
-33.131
-33.64
-34.164
-34.7
-35.248
-35.807
-36.376
-36.953
-37.538
-38.13
-38.728
-39.331
-39.939
-40.551
-41.165
-41.78
-42.395
-43.009
-43.619
-44.225
-44.825
-45.416
-45.998
-46.569
-47.128
-47.672
-48.201
-48.712
-49.205
-49.678
-50.13
-50.56
-50.966
-51.349
-51.708
-52.042
-52.351
-52.635
-52.895
-53.129
-53.337
-53.52
-53.676
-53.806
-53.908
-53.983
-54.031
-54.05
-54.042
-54.006
-53.943
-53.853
-53.736
-53.594
-53.428
-53.237
-53.025
-52.792
-52.54
-52.27
-51.986
-51.688
-51.38
-51.063
-50.74
-50.412
-50.082
-49.752
-49.423
-49.097
-48.776
-48.461
-48.156
-47.862
-47.58
-47.313
-47.064
-46.833
-46.625
-46.439
-46.279
-46.147
-46.044
-45.971
-45.931
-45.923
-45.95
-46.011
-46.108
-46.239
-46.404
-46.603
-46.834
-47.096
-47.388
-47.708
-48.053
-48.422
-48.813
-49.223
-49.652
-50.096
-50.555
-51.026
-51.509
-52.003
-52.505
-53.013
-53.527
-54.045
-54.563
-55.081
-55.597
-56.107
-56.611
-57.106
-57.59
-58.064
-58.525
-58.974
-59.408
-59.827
-60.232
-60.622
-60.999
-61.363
-61.714
-62.055
-62.387
-62.713
-63.034
-63.351
-63.665
-63.976
-64.286
-64.592
-64.893
-65.186
-65.468
-65.737
-65.992
-66.229
-66.447
-66.644
-66.821
-66.977
-67.112
-67.223
-67.306
-67.355
-67.366
-67.332
-67.245
-67.098
-66.885
-66.6
-66.237
-65.796
-65.272
-64.658
-63.944
-63.115
-62.163
-61.085
-59.876
-58.538
-57.081
-55.517
-53.873
-52.182
-50.461
-48.724
-46.975
-45.204
-43.409
-41.583
-39.715
-37.809
-35.867
-33.884
-31.866
-29.813
-27.706
-25.52
-23.204
-20.697
-17.971
-15.017
-11.842
-8.491
-5.011
-1.463
2.065
5.506
8.808
11.915
14.796
17.417
19.711
21.612
23.032
23.863
24.045
23.542
22.336
20.471
18.014
15.052
11.719
8.121
4.335
0.438
-3.519
-7.482
-11.365
-15.095
-18.592
-21.754
-24.511
-26.81
-28.621
-29.993
-31.02
-31.805
-32.482
-33.141
-33.848
-34.698
-35.766
-37.135
-38.899
-41.096
-43.794
-47.113
-51.085
-55.667
-60.679
-65.7
-70.285
-74.087
-76.704
-77.785
-77.153
-74.733
-70.87
-66.353
-61.964
-58.412
-56.216
-55.586
-56.609
-59.243
-62.739
-65.683
-65.684
-59.509
-44.816
-20.596
11.391
47.705
86.078
126.415
173.094
231.122
302.871
386.701
473.511
552.433
611.773
640.42
633.685
588.136
505.415
391.878
251.815
94.825
-67.774
-223.87
-355.276
-449.727
-504.349
-522.27
-515.931
-497.239
-469.181
-434.488
-394.92
-351.305
-311.209
-278.546
-251.386
-229.514
-209.659
-190.206
-174.318
-162.877
-155.832
-152.663
-150.583
-147.283
-141.657
-133.212
-122.319
-109.744
-96.246
-82.477
-69.109
-57.038
-47.075
-39.672
-34.971
-32.75
-32.589
-34.107
-36.918
-40.575
-44.638
-48.741
-52.591
-55.997
-58.842
-61.035
-62.526
-63.293
-63.347
-62.71
-61.418
-59.53
-57.116
-54.261
-51.058
-47.589
-43.924
-40.155
-36.388
-32.733
-29.304
-26.177
-23.394
-20.987
-18.974
-17.359
-16.131
-15.258
-14.694
-14.398
-14.335
-14.474
-14.789
-15.242
-15.794
-16.399
-17.011
-17.592
-18.118
-18.566
-18.918
-19.161
-19.285
-19.29
-19.181
-18.958
-18.618
-18.156
-17.568
-16.848
-15.996
-15.01
-13.891
-12.637
-11.249
-9.727
-8.07
-6.279
-4.353
-2.293
-0.096
2.237
4.703
7.299
10.021
12.863
15.819
18.884
22.049
25.307
28.65
32.071
35.562
39.114
42.719
46.366
50.047
53.751
57.468
61.187
64.897
68.586
72.244
75.86
79.421
82.917
86.336
89.667
92.9
96.022
99.024
101.895
104.626
107.207
109.628
111.882
113.962
115.858
117.567
119.081
120.396
121.509
122.415
123.114
123.602
123.88
123.948
123.807
123.46
122.91
122.161
121.218
120.087
118.775
117.289
115.638
113.829
111.873
109.779
107.557
105.219
102.776
100.237
97.616
94.924
92.171
89.371
86.534
83.671
80.794
77.913
75.038
72.18
69.348
66.55
63.795
61.09
58.442
55.859
53.345
50.905
48.546
46.269
44.08
41.98
39.972
38.058
36.238
34.514
32.885
31.353
29.916
28.575
27.328
26.174
25.113
24.142
23.26
22.465
21.754
21.126
20.577
20.106
19.709
19.384
19.127
18.936
18.807
18.736
18.72
18.755
18.836
18.958
19.115
19.3
19.508
19.732
19.965
20.199
20.427
20.641
20.835
21.002
21.135
21.226
21.267
21.248
21.162
20.998
20.749
20.406
19.962
19.41
18.751
17.98
17.097
16.098
14.975
13.723
12.343
10.834
9.199
7.447
5.588
3.647
1.657
-0.35
-2.342
-4.293
-6.186
-7.997
-9.696
-11.252
-12.625
-13.782
-14.698
-15.344
-15.697
-15.749
-15.51
-15.025
-14.375
-13.635
-12.867
-12.119
-11.433
-10.876
-10.537
-10.515
-10.903
-11.767
-13.194
-15.326
-18.239
-21.896
-26.107
-30.486
-34.615
-38.184
-40.852
-42.202
-41.984
-40.185
-37.181
-33.799
-30.854
-28.915
-28.47
-30.02
-33.751
-39.278
-45.324
-49.832
-50.68
-45.861
-33.402
-11.225
22.589
67.872
121.901
181.622
243.667
307.815
377.045
449.376
519.99
579.483
612.634
612.327
576.746
508.366
420.701
324.798
230.427
148.927
81.305
25.811
-21.324
-69.423
-122.334
-180.486
-242.492
-302.562
-357.127
-405.032
-445.982
-481.617
-512.458
-537.708
-556.892
-569.618
-576.349
-578.425
-576.726
-571.641
-563.577
-552.836
-539.688
-524.503
-507.294
-487.751
-465.85
-441.79
-415.86
-388.525
-360.214
-331.266
-302.11
-273.226
-244.959
-217.581
-191.285
-166.167
-142.347
-119.936
-98.999
-79.598
-61.788
-45.62
-31.152
-18.416
-7.397
1.929
9.583
15.578
19.923
22.654
23.828
23.527
21.863
18.957
14.958
10.058
4.46
-1.627
-7.972
-14.377
-20.671
-26.682
-32.266
-37.29
-41.617
-45.128
-47.733
-49.369
-50.008
-49.655
-48.342
-46.149
-43.179
-39.558
-35.443
-30.98
-26.306
-21.559
-16.845
-12.245
-7.845
-3.723
0.07
3.492
6.528
9.189
11.492
13.481
15.22
16.786
18.289
19.833
21.525
23.476
25.772
28.475
31.649
35.342
39.58
44.391
49.784
55.757
62.314
69.443
77.121
85.313
93.971
103.035
112.443
122.117
131.974
141.945
151.961
161.974
171.959
181.883
191.721
201.451
211.044
220.486
229.781
238.926
247.913
256.742
265.412
273.95
282.411
290.832
299.237
307.626
315.956
324.193
332.298
340.214
347.876
355.192
362.037
368.316
373.957
378.883
383.027
386.291
388.539
389.67
389.612
388.319
385.792
382.036
377.058
370.905
363.659
355.433
346.38
336.622
326.246
315.351
304.027
292.389
280.584
268.73
256.912
245.209
233.672
222.356
211.316
200.572
190.11
179.899
169.885
160.04
150.362
140.85
131.501
122.311
113.258
104.341
95.579
86.983
78.571
70.353
62.336
54.543
47.012
39.785
32.906
26.407
20.303
14.607
9.328
4.472
0.04
-3.973
-7.586
-10.81
-13.658
-16.14
-18.267
-20.055
-21.525
-22.7
-23.601
-24.25
-24.666
-24.87
-24.883
-24.723
-24.408
-23.955
-23.378
-22.696
-21.925
-21.084
-20.192
-19.265
-18.32
-17.374
-16.442
-15.538
-14.676
-13.865
-13.115
-12.436
-11.834
-11.316
-10.887
-10.551
-10.311
-10.17
-10.13
-10.191
-10.353
-10.616
-10.977
-11.436
-11.99
-12.635
-13.368
-14.184
-15.078
-16.044
-17.077
-18.17
-19.316
-20.506
-21.734
-22.99
-24.267
-25.557
-26.851
-28.142
-29.422
-30.684
-31.922
-33.13
-34.302
-35.433
-36.519
-37.557
-38.541
-39.47
-40.34
-41.149
-41.896
-42.578
-43.193
-43.742
-44.222
-44.635
-44.979
-45.255
-45.464
-45.608
-45.689
-45.709
-45.671
-45.578
-45.433
-45.241
-45.005
-44.73
-44.419
-44.078
-43.711
-43.321
-42.914
-42.493
-42.062
-41.625
-41.184
-40.743
-40.305
-39.873
-39.448
-39.034
-38.634
-38.248
-37.881
-37.534
-37.21
-36.91
-36.637
-36.392
-36.178
-35.995
-35.844
-35.727
-35.645
-35.596
-35.583
-35.604
-35.66
-35.751
-35.876
-36.034
-36.224
-36.446
-36.7
-36.983
-37.297
-37.64
-38.011
-38.411
-38.839
-39.294
-39.776
-40.284
-40.817
-41.375
-41.955
-42.555
-43.176
-43.813
-44.466
-45.131
-45.808
-46.492
-47.182
-47.875
-48.567
-49.257
-49.942
-50.619
-51.285
-51.938
-52.575
-53.194
-53.792
-54.366
-54.915
-55.435
-55.925
-56.38
-56.798
-57.177
-57.513
-57.805
-58.051
-58.247
-58.392
-58.486
-58.526
-58.513
-58.446
-58.325
-58.15
-57.923
-57.645
-57.317
-56.942
-56.522
-56.06
-55.559
-55.021
-54.45
-53.849
-53.221
-52.57
-51.9
-51.215
-50.518
-49.813
-49.106
-48.402
-47.704
-47.019
-46.351
-45.705
-45.086
-44.5
-43.951
-43.444
-42.984
-42.575
-42.221
-41.926
-41.693
-41.525
-41.423
-41.39
-41.427
-41.534
-41.712
-41.962
-42.281
-42.672
-43.131
-43.659
-44.254
-44.915
-45.639
-46.423
-47.265
-48.161
-49.106
-50.097
-51.127
-52.192
-53.285
-54.4
-55.53
-56.668
-57.805
-58.933
-60.044
-61.128
-62.177
-63.181
-64.13
-65.017
-65.833
-66.569
-67.218
-67.771
-68.221
-68.562
-68.785
-68.883
-68.85
-68.679
-68.365
-67.9
-67.282
-66.506
-65.568
-64.466
-63.199
-61.765
-60.165
-58.399
-56.472
-54.384
-52.143
-49.755
-47.227
-44.57
-41.794
-38.912
-35.94
-32.892
-29.786
-26.637
-23.465
-20.287
-17.122
-13.988
-10.901
-7.881
-4.945
-2.112
0.598
3.166
5.572
7.798
9.824
11.633
13.21
14.54
15.615
16.428
16.969
17.229
17.195
16.857
16.213
15.263
14.011
12.47
10.657
8.604
6.357
3.958
1.453
-1.122
-3.74
-6.368
-8.972
-11.51
-13.933
-16.2
-18.281
-20.15
-21.786
-23.184
-24.362
-25.381
-26.341
-27.343
-28.479
-29.815
-31.408
-33.334
-35.672
-38.522
-41.961
-46.022
-50.75
-56.208
-62.405
-69.268
-76.555
-83.798
-90.506
-96.276
-100.689
-103.324
-103.842
-102.038
-98.167
-92.966
-87.173
-81.313
-75.875
-71.368
-68.278
-67.048
-66.392
-63.33
-55.376
-40.16
-18.401
5.863
31.894
60.548
96.024
147.851
219.34
309.309
413.246
518.786
616.161
696.456
749.234
766.654
740.097
665.736
545.845
389.696
215.267
40.187
-117.626
-244.303
-337.583
-399.771
-438.506
-464.121
-479.844
-485.19
-477.795
-454.594
-417.485
-371.474
-322.081
-274.54
-231.958
-196.389
-169.295
-150.692
-139.828
-135.362
-135.375
-138.322
-142.756
-146.656
-148.21
-146.536
-141.511
-133.684
-124.007
-113.22
-102.013
-91.477
-82.715
-76.356
-72.626
-71.306
-71.896
-73.989
-77.225
-81.109
-85.113
-88.827
-91.926
-94.273
-95.877
-96.742
-96.885
-96.341
-95.153
-93.377
-91.091
-88.367
-85.277
-81.893
-78.282
-74.518
-70.686
-66.886
-63.241
-59.837
-56.726
-53.938
-51.484
-49.372
-47.612
-46.189
-45.061
-44.187
-43.526
-43.046
-42.724
-42.53
-42.423
-42.359
-42.286
-42.167
-41.978
-41.697
-41.306
-40.79
-40.136
-39.338
-38.404
-37.335
-36.13
-34.787
-33.298
-31.662
-29.882
-27.957
-25.893
-23.69
-21.349
-18.876
-16.273
-13.546
-10.7
-7.737
-4.661
-1.476
1.809
5.188
8.652
12.192
15.801
19.467
23.181
26.934
30.716
34.52
38.336
42.157
45.975
49.781
53.567
57.327
61.051
64.732
68.362
71.933
75.439
78.871
82.222
85.484
88.652
91.718
94.675
97.518
100.241
102.836
105.3
107.628
109.813
111.853
113.743
115.48
117.059
118.477
119.732
120.82
121.739
122.486
123.057
123.452
123.669
123.705
123.561
123.235
122.73
122.044
121.181
120.142
118.93
117.549
116.001
114.292
112.428
110.413
108.255
105.961
103.539
100.998
98.346
95.592
92.744
89.812
86.803
83.728
80.595
77.413
74.191
70.94
67.668
64.387
61.104
57.83
54.574
51.344
48.151
45
41.901
38.86
35.885
32.983
30.161
27.426
24.784
22.241
19.802
17.472
15.253
13.146
11.152
9.269
7.494
5.827
4.265
2.808
1.455
0.208
-0.93
-1.958
-2.873
-3.678
-4.372
-4.959
-5.443
-5.832
-6.13
-6.344
-6.475
-6.52
-6.48
-6.36
-6.169
-5.922
-5.64
-5.349
-5.077
-4.853
-4.702
-4.639
-4.67
-4.786
-4.976
-5.226
-5.533
-5.904
-6.346
-6.857
-7.43
-8.054
-8.705
-9.349
-9.942
-10.423
-10.746
-10.885
-10.831
-10.601
-10.22
-9.719
-9.119
-8.427
-7.652
-6.804
-5.895
-4.936
-3.953
-2.981
-2.075
-1.319
-0.773
-0.463
-0.409
-0.619
-1.088
-1.826
-2.822
-4.034
-5.439
-7.037
-8.83
-10.853
-13.084
-15.398
-17.761
-20.226
-22.848
-25.764
-28.955
-32.152
-35.263
-38.389
-41.379
-43.935
-45.592
-45.55
-43.455
-39.584
-33.948
-26.33
-16.853
-5.848
5.844
16.701
25.778
32.995
38.101
40.643
40.527
38.123
34.796
32.907
34.474
40.943
53.858
75.018
106.152
147.124
195.449
248.232
302.193
356.948
414.995
474.423
531.516
578.901
603.399
597.895
558.754
486.549
393.164
291.268
193.803
111.904
45.873
-9.549
-62.631
-120.583
-184.217
-249.998
-311.831
-365.303
-409.29
-444.369
-472.574
-495.543
-513.808
-527.942
-538.58
-546.088
-550.94
-553.596
-554.132
-552.392
-548.167
-540.986
-530.294
-516.017
-498.32
-477.459
-453.889
-428.072
-400.476
-371.756
-342.619
-313.531
-284.794
-256.605
-229.078
-202.41
-176.813
-152.438
-129.377
-107.713
-87.549
-69.006
-52.208
-37.226
-24.044
-12.6
-2.828
5.316
11.864
16.847
20.335
22.428
23.211
22.781
21.235
18.693
15.34
11.375
6.997
2.402
-2.265
-6.879
-11.304
-15.429
-19.171
-22.447
-25.214
-27.426
-29.001
-29.885
-30.049
-29.492
-28.284
-26.508
-24.252
-21.637
-18.771
-15.763
-12.745
-9.802
-6.973
-4.293
-1.773
0.566
2.665
4.491
6.04
7.314
8.354
9.206
9.912
10.552
11.221
12.019
13.064
14.44
16.188
18.352
20.956
24.029
27.616
31.741
36.403
41.608
47.352
53.631
60.449
67.783
75.585
83.8
92.363
101.215
110.312
119.601
129.02
138.513
148.023
157.503
166.934
176.289
185.539
194.652
203.592
212.338
220.898
229.285
237.504
245.567
253.484
261.277
269.002
276.7
284.394
292.098
299.786
307.421
314.972
322.396
329.634
336.613
343.223
349.343
354.882
359.747
363.849
367.092
369.34
370.478
370.426
369.124
366.556
362.726
357.645
351.342
343.89
335.386
325.963
315.776
304.946
293.587
281.816
269.748
257.532
245.305
233.169
221.21
209.491
198.065
186.982
176.282
165.962
156.004
146.37
137.004
127.879
118.981
110.292
101.799
93.479
85.313
77.301
69.456
61.788
54.309
47.027
39.948
33.102
26.52
20.237
14.294
8.713
3.507
-1.309
-5.732
-9.758
-13.39
-16.637
-19.519
-22.052
-24.248
-26.122
-27.688
-28.964
-29.972
-30.735
-31.275
-31.612
-31.766
-31.756
-31.602
-31.319
-30.923
-30.427
-29.845
-29.188
-28.473
-27.711
-26.918
-26.106
-25.288
-24.475
-23.679
-22.909
-22.175
-21.482
-20.838
-20.247
-19.715
-19.243
-18.836
-18.496
-18.223
-18.018
-17.882
-17.814
-17.813
-17.878
-18.006
-18.196
-18.445
-18.75
-19.109
-19.52
-19.978
-20.48
-21.024
-21.606
-22.221
-22.866
-23.537
-24.23
-24.941
-25.665
-26.399
-27.14
-27.883
-28.626
-29.365
-30.099
-30.825
-31.539
-32.241
-32.929
-33.6
-34.253
-34.886
-35.498
-36.087
-36.652
-37.192
-37.704
-38.188
-38.642
-39.065
-39.454
-39.808
-40.126
-40.407
-40.649
-40.852
-41.016
-41.139
-41.221
-41.262
-41.263
-41.223
-41.143
-41.022
-40.863
-40.664
-40.428
-40.155
-39.846
-39.503
-39.126
-38.717
-38.278
-37.81
-37.314
-36.795
-36.252
-35.691
-35.113
-34.523
-33.924
-33.32
-32.716
-32.115
-31.522
-30.94
-30.375
-29.83
-29.309
-28.816
-28.354
-27.926
-27.536
-27.185
-26.877
-26.613
-26.394
-26.223
-26.099
-26.024
-25.998
-26.022
-26.095
-26.218
-26.39
-26.611
-26.879
-27.192
-27.548
-27.944
-28.38
-28.851
-29.355
-29.887
-30.439
-31.012
-31.602
-32.199
-32.791
-33.37
-33.924
-34.453
-34.967
-35.451
-35.89
-36.306
-36.714
-37.125
-37.562
-38.001
-38.406
-38.794
-39.202
-39.532
-39.665
-39.67
-39.542
-39.258
-39.072
-38.304
-36.295
-33.993
-31.687
-31.118
-34.37
-39.145
-43.913
-46.395
-43.458
-37.883
-32.029
-27.515
-27.01
-28.618
-30.411
-31.967
-32.113
-31.54
-31.13
-30.72
-30.426
-30.195
-29.851
-29.515
-29.282
-29.126
-29.041
-29.043
-29.129
-29.296
-29.541
-29.848
-30.198
-30.598
-31.056
-31.567
-32.132
-32.747
-33.408
-34.116
-34.868
-35.661
-36.49
-37.349
-38.235
-39.142
-40.066
-41.003
-41.946
-42.892
-43.834
-44.77
-45.693
-46.6
-47.485
-48.344
-49.173
-49.965
-50.717
-51.423
-52.078
-52.677
-53.214
-53.685
-54.083
-54.404
-54.643
-54.795
-54.856
-54.822
-54.689
-54.453
-54.111
-53.659
-53.096
-52.418
-51.625
-50.715
-49.687
-48.54
-47.275
-45.892
-44.393
-42.777
-41.047
-39.205
-37.254
-35.198
-33.042
-30.791
-28.451
-26.031
-23.539
-20.986
-18.381
-15.739
-13.072
-10.394
-7.721
-5.067
-2.45
0.116
2.615
5.03
7.348
9.551
11.626
13.554
15.322
16.913
18.311
19.502
20.474
21.212
21.708
21.955
21.946
21.676
21.14
20.327
19.232
17.854
16.194
14.261
12.065
9.626
6.97
4.139
1.172
-1.892
-5.017
-8.177
-11.34
-14.474
-17.54
-20.488
-23.28
-25.884
-28.275
-30.439
-32.367
-34.066
-35.59
-37.021
-38.441
-39.931
-41.541
-43.316
-45.331
-47.662
-50.4
-53.635
-57.41
-61.789
-66.86
-72.613
-78.979
-85.773
-92.592
-99.029
-104.737
-109.254
-112.154
-113.219
-112.257
-109.39
-105.188
-100.109
-94.613
-89.374
-84.823
-81.071
-78.352
-76.424
-74.128
-70.491
-63.504
-49.797
-28.028
2.142
39.928
81.602
126.673
177.501
235.836
304.787
382.853
463.883
542.041
609.498
658.563
682.223
670.734
615.804
514.246
367.768
188.291
-4.768
-190.721
-348.29
-464.8
-537.601
-570.335
-572
-550.545
-512.576
-464.686
-414.653
-370.287
-335.445
-309.544
-286.644
-261.051
-231.678
-200.859
-174.081
-155.107
-143.814
-138.41
-136.108
-134.684
-133.219
-130.984
-127.206
-121.582
-114.226
-105.425
-95.63
-85.447
-75.385
-66.124
-58.574
-53.125
-49.765
-48.37
-48.601
-50.166
-52.87
-56.331
-60.031
-63.646
-66.971
-69.885
-72.388
-74.398
-75.814
-76.624
-76.861
-76.581
-75.844
-74.682
-73.108
-71.158
-68.877
-66.328
-63.586
-60.706
-57.746
-54.771
-51.85
-49.078
-46.527
-44.232
-42.21
-40.452
-38.949
-37.689
-36.657
-35.82
-35.15
-34.619
-34.199
-33.877
-33.629
-33.423
-33.224
-32.985
-32.673
-32.264
-31.744
-31.102
-30.333
-29.429
-28.393
-27.234
-25.959
-24.57
-23.068
-21.448
-19.711
-17.861
-15.904
-13.844
-11.688
-9.439
-7.103
-4.683
-2.186
0.385
3.029
5.743
8.525
11.369
14.27
17.222
20.218
23.251
26.314
29.399
32.498
35.605
38.713
41.817
44.911
47.988
51.043
54.071
57.065
60.022
62.933
65.795
68.6
71.345
74.022
76.627
79.153
81.596
83.95
86.209
88.367
90.42
92.361
94.185
95.887
97.462
98.904
100.211
101.378
102.401
103.277
104.005
104.58
105.002
105.268
105.377
105.327
105.117
104.748
104.218
103.528
102.679
101.673
100.512
99.198
97.735
96.127
94.377
92.49
90.472
88.328
86.066
83.693
81.215
78.641
75.98
73.24
70.43
67.56
64.639
61.675
58.679
55.659
52.624
49.583
46.545
43.518
40.512
37.535
34.595
31.7
28.86
26.08
23.37
20.736
18.185
15.723
13.356
11.091
8.931
6.882
4.948
3.133
1.439
-0.13
-1.573
-2.889
-4.077
-5.137
-6.07
-6.876
-7.557
-8.115
-8.551
-8.868
-9.068
-9.154
-9.13
-8.999
-8.767
-8.437
-8.016
-7.51
-6.928
-6.279
-5.57
-4.813
-4.017
-3.193
-2.353
-1.505
-0.66
0.175
0.99
1.774
2.518
3.21
3.84
4.4
4.88
5.275
5.575
5.776
5.876
5.876
5.773
5.563
5.233
4.772
4.176
3.443
2.575
1.583
0.477
-0.72
-1.977
-3.257
-4.523
-5.742
-6.889
-7.937
-8.855
-9.604
-10.128
-10.379
-10.318
-9.915
-9.159
-8.06
-6.637
-4.942
-3.058
-1.066
0.937
2.843
4.562
5.989
7.004
7.51
7.364
6.38
4.463
1.59
-2.155
-6.499
-11.16
-15.925
-20.438
-24.288
-27.221
-29.045
-29.85
-30.239
-30.734
-31.618
-33.244
-35.754
-38.999
-42.943
-47.053
-49.812
-49.648
-45.052
-34.414
-16.831
8.378
42.495
86.176
138.766
198.294
261.277
324.244
385.139
443.905
500.689
553.157
596.704
623.602
625.12
597.065
539.885
458.357
362.902
264.064
168.341
80.766
1.124
-75.065
-149.102
-222.098
-293.443
-358.322
-414.039
-459.576
-494.521
-520.896
-540.661
-554.813
-564.318
-569.985
-572.628
-572.934
-571.385
-568.132
-562.959
-555.647
-545.967
-533.553
-518.083
-499.561
-478.212
-454.409
-428.686
-401.545
-373.46
-344.989
-316.645
-288.749
-261.49
-234.977
-209.271
-184.458
-160.62
-137.779
-115.941
-95.138
-75.42
-56.873
-39.57
-23.557
-8.86
4.515
16.539
27.168
36.375
44.15
50.503
55.448
58.979
61.084
61.798
61.192
59.361
56.438
52.545
47.812
42.405
36.471
30.153
23.597
16.933
10.28
3.786
-2.393
-8.105
-13.185
-17.526
-21.066
-23.753
-25.58
-26.553
-26.697
-26.087
-24.799
-22.891
-20.423
-17.454
-14.046
-10.304
-6.36
-2.323
1.691
5.599
9.356
12.914
16.255
19.385
22.328
25.136
27.873
30.586
33.314
36.108
39.023
42.139
45.557
49.35
53.584
58.314
63.567
69.371
75.741
82.668
90.127
98.087
106.506
115.348
124.583
134.167
144.052
154.181
164.485
174.908
185.4
195.911
206.399
216.821
227.136
237.311
247.322
257.138
266.73
276.067
285.114
293.839
302.215
310.213
317.808
324.972
331.678
337.898
343.609
348.787
353.409
357.454
360.902
363.734
365.938
367.504
368.426
368.699
368.32
367.293
365.62
363.307
360.364
356.801
352.631
347.869
342.533
336.645
330.226
323.302
315.899
308.046
299.774
291.115
282.101
272.768
263.151
253.286
243.211
232.962
222.578
212.094
201.548
190.976
180.412
169.89
159.444
149.105
138.902
128.865
119.019
109.39
100
90.873
82.026
73.477
65.243
57.338
49.772
42.555
35.696
29.198
23.067
17.303
11.906
6.872
2.199
-2.121
-6.095
-9.731
-13.039
-16.033
-18.722
-21.122
-23.245
-25.106
-26.72
-28.102
-29.267
-30.23
-31.007
-31.613
-32.062
-32.371
-32.553
-32.623
-32.593
-32.479
-32.292
-32.046
-31.751
-31.42
-31.063
-30.69
-30.31
-29.931
-29.562
-29.209
-28.878
-28.574
-28.301
-28.065
-27.867
-27.71
-27.597
-27.528
-27.505
-27.528
-27.597
-27.713
-27.873
-28.078
-28.327
-28.618
-28.949
-29.319
-29.726
-30.168
-30.643
-31.148
-31.681
-32.238
-32.818
-33.418
-34.033
-34.661
-35.299
-35.943
-36.592
-37.241
-37.889
-38.533
-39.171
-39.799
-40.417
-41.023
-41.613
-42.189
-42.746
-43.286
-43.806
-44.306
-44.785
-45.244
-45.68
-46.095
-46.488
-46.859
-47.207
-47.533
-47.837
-48.119
-48.379
-48.617
-48.835
-49.033
-49.212
-49.372
-49.515
-49.641
-49.752
-49.847
-49.929
-49.997
-50.052
-50.096
-50.128
-50.149
-50.16
-50.161
-50.153
-50.134
-50.105
-50.066
-50.016
-49.954
-49.88
-49.794
-49.694
-49.58
-49.453
-49.31
-49.153
-48.981
-48.793
-48.59
-48.371
-48.136
-47.885
-47.619
-47.337
-47.041
-46.73
-46.405
-46.067
-45.716
-45.353
-44.98
-44.596
-44.202
-43.801
-43.391
-42.976
-42.557
-42.134
-41.71
-41.286
-40.865
-40.448
-40.036
-39.633
-39.239
-38.856
-38.486
-38.129
-37.786
-37.46
-37.15
-36.856
-36.58
-36.322
-36.08
-35.855
-35.646
-35.453
-35.274
-35.108
-34.954
-34.812
-34.679
-34.555
-34.439
-34.328
-34.223
-34.12
-34.019
-33.918
-33.814
-33.707
-33.594
-33.473
-33.343
-33.202
-33.048
-32.879
-32.694
-32.493
-32.274
-32.036
-31.779
-31.503
-31.208
-30.893
-30.561
-30.211
-29.846
-29.466
-29.073
-28.67
-28.258
-27.84
-27.417
-26.993
-26.569
-26.15
-25.736
-25.332
-24.94
-24.563
-24.206
-23.871
-23.562
-23.283
-23.037
-22.827
-22.658
-22.532
-22.452
-22.422
-22.444
-22.52
-22.653
-22.844
-23.095
-23.407
-23.781
-24.216
-24.714
-25.272
-25.891
-26.568
-27.301
-28.088
-28.927
-29.813
-30.744
-31.714
-32.72
-33.756
-34.815
-35.892
-36.979
-38.069
-39.153
-40.223
-41.27
-42.284
-43.257
-44.178
-45.038
-45.827
-46.536
-47.156
-47.677
-48.09
-48.386
-48.558
-48.597
-48.496
-48.249
-47.848
-47.288
-46.565
-45.675
-44.615
-43.383
-41.977
-40.398
-38.647
-36.726
-34.638
-32.387
-29.982
-27.429
-24.739
-21.924
-18.996
-15.969
-12.863
-9.694
-6.481
-3.244
-0.002
3.225
6.415
9.545
12.595
15.54
18.359
21.03
23.528
25.833
27.923
29.78
31.388
32.736
33.809
34.596
35.086
35.271
35.15
34.719
33.978
32.929
31.577
29.932
28.011
25.832
23.42
20.801
18.006
15.067
12.014
8.883
5.71
2.527
-0.64
-3.769
-6.847
-9.86
-12.773
-15.558
-18.178
-20.601
-22.854
-24.961
-26.919
-28.791
-30.678
-32.721
-35.212
-38.389
-42.271
-46.883
-52.195
-57.969
-64.03
-70.02
-75.178
-78.857
-80.695
-80.422
-78.092
-74.104
-68.658
-62.25
-55.902
-50.585
-47.263
-46.67
-48.988
-53.956
-61.25
-70.376
-80.514
-90.527
-98.732
-102.539
-98.698
-84.995
-60.626
-27.426
10.818
52.891
100.456
158.468
232.501
322.068
421.244
520.165
608.495
680.43
731.721
757.705
751.549
704.028
610.271
471.284
296.123
102.037
-92.033
-266.152
-404.135
-499.017
-552.271
-572.815
-572.229
-557.703
-529.869
-487.99
-433.304
-372.012
-315.134
-270.263
-239.071
-218.148
-201.596
-186.215
-172.538
-163.172
-159.666
-161.197
-165.115
-167.848
-167.025
-162.025
-153.156
-141.3
-127.478
-112.576
-97.595
-83.736
-72.073
-63.177
-57.176
-53.875
-52.845
-53.655
-55.871
-58.958
-62.395
-65.829
-69.009
-71.792
-74.117
-75.89
-77.042
-77.563
-77.466
-76.782
-75.553
-73.817
-71.624
-69.05
-66.174
-63.074
-59.819
-56.465
-53.092
-49.779
-46.608
-43.673
-41.03
-38.714
-36.751
-35.141
-33.866
-32.906
-32.223
-31.77
-31.508
-31.398
-31.409
-31.517
-31.691
-31.895
-32.094
-32.241
-32.304
-32.257
-32.079
-31.757
-31.283
-30.652
-29.864
-28.928
-27.85
-26.633
-25.279
-23.786
-22.157
-20.395
-18.506
-16.498
-14.379
-12.154
-9.833
-7.422
-4.932
-2.368
0.261
2.952
5.697
8.49
11.321
14.182
17.065
19.963
22.868
25.77
28.664
31.542
34.4
37.231
40.032
42.799
45.526
48.212
50.852
53.443
55.984
58.47
60.9
63.27
65.579
67.824
70.003
72.115
74.157
76.127
78.023
79.844
81.586
83.249
84.828
86.322
87.727
89.04
90.259
91.379
92.397
93.309
94.112
94.801
95.373
95.822
96.146
96.339
96.397
96.318
96.097
95.731
95.217
94.554
93.74
92.774
91.657
90.387
88.966
87.396
85.679
83.817
81.814
79.675
77.404
75.007
72.489
69.859
67.123
64.289
61.366
58.364
55.29
52.156
48.971
45.746
42.491
39.218
35.939
32.663
29.404
26.172
22.98
19.838
16.757
13.748
10.82
7.983
5.246
2.618
0.105
-2.284
-4.544
-6.668
-8.652
-10.492
-12.182
-13.723
-15.11
-16.345
-17.425
-18.353
-19.129
-19.755
-20.234
-20.57
-20.766
-20.827
-20.759
-20.569
-20.264
-19.853
-19.345
-18.75
-18.082
-17.351
-16.569
-15.75
-14.905
-14.049
-13.192
-12.346
-11.52
-10.727
-9.977
-9.282
-8.653
-8.101
-7.635
-7.267
-7.005
-6.858
-6.831
-6.924
-7.141
-7.481
-7.949
-8.552
-9.296
-10.18
-11.2
-12.35
-13.619
-14.991
-16.434
-17.906
-19.363
-20.765
-22.076
-23.272
-24.319
-25.186
-25.837
-26.224
-26.314
-26.084
-25.51
-24.581
-23.299
-21.686
-19.812
-17.783
-15.701
-13.663
-11.746
-10.013
-8.554
-7.466
-6.853
-6.819
-7.422
-8.739
-10.885
-13.902
-17.727
-22.16
-26.801
-31.199
-34.996
-37.788
-39.114
-38.688
-36.424
-32.617
-27.955
-23.138
-18.707
-15.136
-12.931
-12.353
-13.122
-14.148
-13.718
-10.004
-1.206
14.329
38.417
72.816
117.34
169.642
227.144
286.812
348.024
412.827
479.067
541.596
591.776
617.396
612.028
575.153
511.123
429.203
338.754
247.617
160.669
80.735
7.33
-63.01
-131.92
-201.068
-270.015
-334.72
-392.708
-442.279
-482.646
-515.388
-541.698
-561.911
-576.496
-585.729
-590.169
-590.949
-588.934
-584.463
-577.671
-568.601
-557.173
-543.352
-527.003
-507.793
-485.672
-460.887
-433.811
-404.984
-374.971
-344.275
-313.432
-283.005
-253.399
-224.927
-197.842
-172.299
-148.452
-126.433
-106.317
-88.16
-72.016
-57.927
-45.883
-35.829
-27.65
-21.203
-16.37
-13.032
-11.055
-10.269
-10.485
-11.507
-13.155
-15.273
-17.688
-20.219
-22.685
-24.919
-26.818
-28.336
-29.455
-30.181
-30.518
-30.474
-30.081
-29.403
-28.506
-27.46
-26.324
-25.15
-24.009
-22.987
-22.166
-21.627
-21.408
-21.512
-21.927
-22.623
-23.564
-24.71
-26.004
-27.374
-28.754
-30.084
-31.308
-32.375
-33.226
-33.794
-34.016
-33.829
-33.187
-32.06
-30.426
-28.268
-25.579
-22.356
-18.605
-14.34
-9.571
-4.305
1.449
7.682
14.383
21.533
29.113
37.104
45.483
54.231
63.322
72.735
82.444
92.424
102.65
113.095
123.732
134.529
145.453
156.468
167.541
178.634
189.711
200.733
211.663
222.464
233.098
243.529
253.72
263.636
273.241
282.5
291.379
299.846
307.868
315.416
322.459
328.97
334.924
340.298
345.069
349.219
352.73
355.589
357.784
359.306
360.148
360.306
359.782
358.576
356.694
354.144
350.938
347.089
342.616
337.536
331.874
325.652
318.899
311.642
303.914
295.746
287.172
278.23
268.955
259.385
249.56
239.519
229.302
218.95
208.501
197.997
187.476
176.976
166.536
156.191
145.977
135.926
126.071
116.441
107.064
97.966
89.169
80.696
72.563
64.789
57.385
50.364
43.733
37.498
31.664
26.231
21.198
16.563
12.319
8.46
4.976
1.858
-0.907
-3.332
-5.433
-7.226
-8.728
-9.956
-10.928
-11.665
-12.184
-12.505
-12.647
-12.63
-12.472
-12.191
-11.806
-11.334
-10.791
-10.193
-9.556
-8.893
-8.218
-7.541
-6.874
-6.226
-5.606
-5.021
-4.478
-3.981
-3.535
-3.143
-2.808
-2.531
-2.313
-2.153
-2.051
-2.004
-2.011
-2.07
-2.176
-2.327
-2.519
-2.748
-3.011
-3.303
-3.62
-3.96
-4.316
-4.687
-5.068
-5.456
-5.848
-6.24
-6.631
-7.018
-7.399
-7.773
-8.139
-8.496
-8.843
-9.182
-9.51
-9.831
-10.143
-10.448
-10.748
-11.044
-11.339
-11.634
-11.931
-12.233
-12.543
-12.861
-13.19
-13.533
-13.891
-14.265
-14.656
-15.067
-15.497
-15.948
-16.42
-16.913
-17.427
-17.962
-18.516
-19.089
-19.68
-20.287
-20.909
-21.543
-22.187
-22.839
-23.497
-24.157
-24.818
-25.475
-26.126
-26.766
-27.393
-28.003
-28.591
-29.154
-29.689
-30.192
-30.659
-31.088
-31.475
-31.818
-32.115
-32.364
-32.563
-32.711
-32.807
-32.852
-32.843
-32.784
-32.673
-32.512
-32.302
-32.046
-31.746
-31.402
-31.019
-30.598
-30.143
-29.656
-29.141
-28.602
-28.043
-27.467
-26.879
-26.283
-25.685
-25.089
-24.499
-23.92
-23.357
-22.814
-22.295
-21.806
-21.348
-20.927
-20.545
-20.206
-19.911
-19.662
-19.462
-19.311
-19.21
-19.159
-19.158
-19.207
-19.305
-19.451
-19.644
-19.883
-20.165
-20.489
-20.852
-21.252
-21.686
-22.15
-22.641
-23.155
-23.689
-24.238
-24.798
-25.365
-25.935
-26.503
-27.066
-27.618
-28.156
-28.675
-29.173
-29.647
-30.093
-30.509
-30.893
-31.244
-31.561
-31.843
-32.091
-32.303
-32.481
-32.624
-32.734
-32.813
-32.861
-32.881
-32.875
-32.847
-32.798
-32.733
-32.655
-32.567
-32.474
-32.379
-32.286
-32.2
-32.125
-32.064
-32.022
-32.002
-32.009
-32.045
-32.114
-32.216
-32.353
-32.525
-32.734
-32.977
-33.253
-33.558
-33.891
-34.248
-34.627
-35.023
-35.432
-35.849
-36.267
-36.684
-37.091
-37.478
-37.837
-38.156
-38.427
-38.641
-38.789
-38.861
-38.847
-38.739
-38.529
-38.212
-37.781
-37.224
-36.528
-35.68
-34.677
-33.528
-32.235
-30.802
-29.233
-27.535
-25.719
-23.808
-21.807
-19.713
-17.522
-15.23
-12.844
-10.391
-7.893
-5.374
-2.849
-0.31
2.236
4.766
7.274
9.756
12.214
14.667
17.095
19.436
21.636
23.642
25.418
26.959
28.253
29.277
30.01
30.415
30.467
30.164
29.487
28.4
26.869
24.844
22.333
19.415
16.163
12.646
8.919
5.006
0.942
-3.215
-7.416
-11.611
-15.746
-19.795
-23.711
-27.422
-30.862
-33.966
-36.719
-39.192
-41.475
-43.646
-45.775
-47.902
-50.069
-52.364
-54.872
-57.674
-60.854
-64.44
-68.485
-73.103
-78.357
-84.245
-90.62
-97.073
-103.146
-108.479
-112.673
-115.306
-116.068
-114.705
-111.334
-106.678
-101.521
-96.505
-92.387
-89.834
-89.335
-91.437
-95.106
-97.444
-95.995
-88.155
-73.856
-56.444
-36.245
-12.178
20.292
71.22
144.535
239.841
352.564
468.091
574.714
662.815
720.615
744.625
732.253
680.343
594.32
477.982
334.251
172.398
-0.352
-172.739
-327.027
-451.18
-537.297
-583.702
-597.912
-588.058
-560.031
-519.806
-472.605
-422.616
-375.846
-335.333
-299.254
-266.888
-236.679
-208.641
-186.394
-171.332
-163.209
-160.821
-161.216
-162.045
-162.038
-160.193
-155.929
-149.275
-140.616
-130.53
-119.738
-109.028
-99.018
-90.352
-83.748
-79.422
-77.231
-76.927
-78.083
-80.318
-83.36
-86.834
-90.285
-93.424
-96.081
-98.147
-99.614
-100.453
-100.622
-100.145
-99.093
-97.539
-95.559
-93.219
-90.566
-87.653
-84.541
-81.288
-77.961
-74.624
-71.338
-68.172
-65.202
-62.486
-60.059
-57.937
-56.11
-54.56
-53.265
-52.194
-51.309
-50.579
-49.971
-49.461
-49.028
-48.648
-48.292
-47.928
-47.515
-47.02
-46.421
-45.7
-44.847
-43.856
-42.721
-41.443
-40.031
-38.491
-36.825
-35.035
-33.118
-31.075
-28.909
-26.624
-24.227
-21.724
-19.12
-16.421
-13.633
-10.764
-7.819
-4.803
-1.718
1.429
4.633
7.888
11.185
14.517
17.877
21.258
24.65
28.048
31.442
34.827
38.197
41.544
44.863
48.147
51.39
54.587
57.731
60.818
63.84
66.792
69.669
72.463
75.171
77.786
80.304
82.718
85.025
87.22
89.298
91.254
93.086
94.789
96.358
97.792
99.085
100.235
101.238
102.093
102.797
103.347
103.742
103.981
104.063
103.987
103.752
103.36
102.81
102.105
101.246
100.236
99.078
97.775
96.332
94.752
93.042
91.206
89.251
87.183
85.008
82.732
80.363
77.907
75.372
72.764
70.093
67.364
64.587
61.768
58.917
56.04
53.148
50.246
47.343
44.446
41.563
38.701
35.865
33.064
30.302
27.587
24.922
22.313
19.766
17.284
14.872
12.534
10.274
8.094
5.999
3.99
2.071
0.244
-1.488
-3.123
-4.659
-6.094
-7.427
-8.655
-9.779
-10.797
-11.709
-12.516
-13.218
-13.816
-14.309
-14.7
-14.989
-15.178
-15.267
-15.258
-15.155
-14.958
-14.672
-14.298
-13.842
-13.307
-12.699
-12.026
-11.292
-10.506
-9.675
-8.808
-7.912
-6.998
-6.071
-5.14
-4.214
-3.301
-2.411
-1.553
-0.736
0.029
0.734
1.371
1.93
2.407
2.8
3.104
3.316
3.431
3.438
3.33
3.105
2.761
2.3
1.728
1.059
0.316
-0.465
-1.25
-2.004
-2.698
-3.309
-3.807
-4.163
-4.343
-4.302
-4.008
-3.434
-2.553
-1.353
0.163
1.973
4.015
6.195
8.416
10.583
12.62
14.462
16.019
17.198
17.892
18.002
17.479
16.266
14.263
11.444
7.864
3.695
-0.687
-4.888
-8.655
-11.679
-13.57
-14.078
-13.055
-10.659
-7.492
-4.04
-0.424
3.158
6.247
8.505
9.87
11.66
16.707
27.359
44.313
65.427
87.424
108.522
130.042
158.776
201.906
264.471
347.488
440.768
530.461
601.611
639.757
643.782
617.722
568.365
506.98
436.312
359.093
280.6
201.934
128.622
63.152
1.641
-57.166
-116.514
-177.904
-237.332
-292.503
-341.343
-382.021
-415.684
-443.178
-464.325
-479.178
-487.619
-489.785
-486.787
-480.097
-470.627
-458.946
-445.564
-430.792
-414.906
-398.166
-380.431
-361.335
-340.861
-319.243
-296.813
-273.995
-251.134
-228.497
-206.496
-185.649
-166.311
-148.674
-132.821
-118.717
-106.339
-95.706
-86.756
-79.347
-73.318
-68.479
-64.66
-61.768
-59.71
-58.378
-57.647
-57.344
-57.318
-57.458
-57.659
-57.814
-57.805
-57.492
-56.789
-55.677
-54.168
-52.307
-50.136
-47.669
-44.933
-41.969
-38.831
-35.592
-32.312
-29.028
-25.792
-22.664
-19.722
-17.059
-14.731
-12.746
-11.099
-9.769
-8.729
-7.959
-7.424
-7.068
-6.841
-6.695
-6.587
-6.486
-6.348
-6.122
-5.752
-5.178
-4.355
-3.258
-1.862
-0.149
1.895
4.281
7.011
10.08
13.486
17.233
21.326
25.77
30.565
35.707
41.195
47.026
53.204
59.725
66.578
73.751
81.227
88.987
97.008
105.26
113.7
122.291
130.996
139.782
148.623
157.485
166.334
175.142
183.875
192.513
201.053
209.493
217.841
226.121
234.359
242.593
250.879
259.247
267.714
276.29
284.962
293.721
302.55
311.405
320.24
328.995
337.577
345.89
353.822
361.22
367.946
373.854
378.781
382.609
385.24
386.589
386.606
385.253
382.508
378.388
372.927
366.17
358.202
349.123
339.057
328.176
316.641
304.603
292.235
279.668
267.019
254.404
241.905
229.591
217.525
205.745
194.276
183.146
172.358
161.899
151.746
141.84
132.137
122.607
113.214
103.942
94.787
85.74
76.811
68.025
59.4
50.958
42.727
34.723
26.971
19.5
12.342
5.538
-0.882
-6.901
-12.503
-17.681
-22.435
-26.766
-30.687
-34.216
-37.373
-40.174
-42.638
-44.781
-46.62
-48.177
-49.474
-50.533
-51.378
-52.028
-52.502
-52.82
-53.001
-53.062
-53.019
-52.886
-52.676
-52.406
-52.089
-51.741
-51.376
-51.005
-50.641
-50.295
-49.976
-49.693
-49.453
-49.26
-49.119
-49.033
-49.006
-49.038
-49.131
-49.284
-49.497
-49.77
-50.099
-50.483
-50.92
-51.405
-51.935
-52.506
-53.115
-53.756
-54.425
-55.118
-55.828
-56.552
-57.283
-58.017
-58.748
-59.47
-60.178
-60.868
-61.534
-62.171
-62.777
-63.346
-63.877
-64.365
-64.81
-65.209
-65.56
-65.863
-66.116
-66.319
-66.471
-66.573
-66.625
-66.627
-66.581
-66.487
-66.348
-66.163
-65.935
-65.667
-65.359
-65.014
-64.634
-64.222
-63.782
-63.315
-62.826
-62.317
-61.794
-61.258
-60.713
-60.164
-59.614
-59.067
-58.525
-57.992
-57.472
-56.967
-56.482
-56.018
-55.578
-55.167
-54.785
-54.436
-54.121
-53.844
-53.605
-53.407
-53.252
-53.141
-53.077
-53.061
-53.094
-53.178
-53.314
-53.504
-53.747
-54.044
-54.395
-54.801
-55.261
-55.774
-56.34
-56.958
-57.627
-58.345
-59.112
-59.926
-60.784
-61.684
-62.626
-63.605
-64.62
-65.669
-66.749
-67.858
-68.992
-70.149
-71.326
-72.521
-73.73
-74.949
-76.175
-77.404
-78.633
-79.858
-81.075
-82.28
-83.47
-84.641
-85.789
-86.911
-88.003
-89.062
-90.085
-91.069
-92.01
-92.906
-93.755
-94.554
-95.302
-95.997
-96.637
-97.221
-97.749
-98.219
-98.631
-98.985
-99.281
-99.519
-99.7
-99.824
-99.894
-99.91
-99.874
-99.79
-99.658
-99.482
-99.265
-99.009
-98.719
-98.396
-98.044
-97.667
-97.269
-96.852
-96.42
-95.977
-95.526
-95.069
-94.61
-94.15
-93.693
-93.239
-92.789
-92.346
-91.909
-91.479
-91.054
-90.633
-90.216
-89.801
-89.383
-88.96
-88.529
-88.084
-87.62
-87.132
-86.614
-86.058
-85.459
-84.809
-84.1
-83.326
-82.479
-81.55
-80.533
-79.42
-78.202
-76.873
-75.426
-73.854
-72.149
-70.308
-68.324
-66.195
-63.915
-61.484
-58.898
-56.159
-53.266
-50.222
-47.029
-43.692
-40.216
-36.611
-32.883
-29.044
-25.104
-21.079
-16.984
-12.835
-8.65
-4.449
-0.251
3.925
8.057
12.125
16.11
19.992
23.751
27.369
30.823
34.093
37.159
40.003
42.607
44.956
47.035
48.834
50.347
51.569
52.496
53.124
53.442
53.443
53.128
52.501
51.568
50.344
48.85
47.118
45.189
43.106
40.91
38.637
36.316
33.979
31.66
29.405
27.264
25.285
23.508
21.965
20.686
19.681
18.932
18.396
17.997
17.666
17.349
16.993
16.531
15.889
14.981
13.71
12.012
9.796
6.92
3.344
-0.895
-5.628
-10.471
-15.036
-19.001
-21.952
-23.432
-23.193
-21.11
-17.433
-12.925
-8.202
-3.759
-0.14
2.27
3.258
2.838
1.787
1.67
4.023
10.568
23.036
42.773
71.416
110.339
159.822
219.565
287.789
360.367
433.311
502.752
565.888
623.838
676.607
720.285
748.058
748.135
709.39
628.953
509.74
360.053
193.832
23.571
-138.364
-277.011
-381.84
-447.528
-472.935
-465.731
-437.982
-399.803
-361.844
-330.826
-306.266
-285.258
-261.542
-229.135
-187.691
-141.111
-95.963
-57.409
-27.076
-4.085
13.82
27.268
35.557
38.755
37.187
31.598
22.921
12.509
3.11
-2.018
0.042
7.531
12.522
