Name,Criss Capps
Date of Birth,"Feb 5, 1952"
Recorded Date,2022-08-01 15:51:19 -0400
Classification,Poor Recording
Symptoms,
Software Version,1.90
Device,"Watch5,4"
Sample Rate,512.844 hertz


Lead,Lead I
Unit,µV

-34.615
-38.39
-41.68
-44.331
-46.209
-47.234
-47.389
-46.639
-44.973
-42.427
-39.077
-35.073
-30.623
-25.887
-20.984
-16.041
-11.195
-6.683
-2.823
0.111
1.864
2.238
1.099
-1.714
-6.298
-12.638
-20.639
-30.096
-40.732
-52.322
-64.654
-77.493
-90.6
-103.649
-116.243
-128.029
-138.641
-147.76
-155.124
-160.456
-163.557
-164.345
-162.811
-159.026
-153.143
-145.291
-135.612
-124.296
-111.498
-97.404
-82.246
-66.242
-49.627
-32.604
-15.3
2.189
19.789
37.459
55.164
72.867
90.592
108.356
126.168
144.044
161.918
179.681
197.242
214.52
231.409
247.749
263.28
277.647
290.565
301.822
311.238
318.693
324.026
327.066
327.71
325.91
321.704
315.215
306.55
295.786
283.066
268.608
252.707
235.761
218.047
199.7
180.844
161.582
142.05
122.44
102.878
83.402
64.024
44.714
25.459
6.326
-12.652
-31.491
-50.202
-68.821
-87.245
-105.191
-122.365
-138.512
-153.41
-166.915
-178.899
-189.126
-197.362
-203.388
-206.948
-207.898
-206.203
-201.782
-194.535
-184.509
-171.932
-157.288
-141.365
-124.858
-108.11
-91.38
-74.965
-58.962
-43.336
-27.849
-11.725
5.942
24.758
44.056
63.953
83.351
102.586
122.021
137.668
146.461
145.447
131.537
107.528
77.206
43.663
11.287
-18.086
-43.033
-61.483
-72.604
-75.155
-69.657
-58.353
-42.5
-24.128
-4.023
19.678
45.157
67.807
83.951
88.158
80.737
69.332
58.86
53.299
52.511
50.116
43.737
34.286
24.968
22.087
27.761
40.677
56.839
69.253
74.129
69.985
58.724
46.297
36.598
32.118
32.755
35.081
36.935
37.065
35.17
32.409
29.282
25.743
21.78
17.204
12.015
6.438
0.604
-5.446
-11.655
-17.971
-24.378
-30.854
-37.379
-43.959
-50.574
-57.205
-63.883
-70.648
-77.527
-84.572
-91.822
-99.327
-107.193
-115.49
-124.265
-133.565
-143.362
-153.606
-164.266
-175.296
-186.639
-198.228
-209.904
-221.454
-232.695
-243.421
-253.432
-262.524
-270.411
-276.836
-281.606
-284.544
-285.568
-284.655
-281.742
-276.784
-269.767
-260.664
-249.582
-236.744
-222.335
-206.576
-189.713
-171.987
-153.758
-135.416
-117.259
-99.549
-82.467
-66.111
-50.647
-36.279
-23.143
-11.385
-1.047
7.955
15.647
22.028
27.183
31.272
34.455
36.837
38.568
39.832
40.704
41.409
41.691
40.571
38.369
36.219
35.841
40.367
49.665
60.598
70
73.374
70.266
64.705
59.837
59.107
63.126
68.739
73.975
77.471
78.785
79.174
79.214
78.86
78.147
76.87
74.992
72.722
70.169
67.396
64.471
61.437
58.321
55.13
51.865
48.517
45.086
41.581
38.009
34.377
30.696
26.98
23.239
19.474
15.68
11.845
7.961
4.023
0.028
-4.023
-8.131
-12.293
-16.502
-20.749
-25.024
-29.324
-33.647
-37.99
-42.353
-46.734
-51.132
-55.548
-59.981
-64.43
-68.894
-73.369
-77.855
-82.35
-86.853
-91.362
-95.877
-100.398
-104.923
-109.451
-113.982
-118.513
-123.044
-127.573
-132.096
-136.614
-141.123
-145.621
-150.107
-154.578
-159.034
-163.473
-167.893
-172.292
-176.667
-181.017
-185.339
-189.628
-193.883
-198.099
-202.271
-206.396
-210.47
-214.488
-218.447
-222.34
-226.164
-229.912
-233.58
-237.162
-240.65
-244.04
-247.324
-250.496
-253.549
-256.477
-259.274
-261.933
-264.447
-266.81
-269.018
-271.063
-272.94
-274.646
-276.174
-277.522
-278.686
-279.664
-280.454
-281.055
-281.466
-281.688
-281.724
-281.575
-281.246
-280.741
-280.066
-279.229
-278.237
-277.1
-275.829
-274.437
-272.936
-271.342
-269.67
-267.937
-266.162
-264.362
-262.559
-260.772
-259.024
-257.334
-255.727
-254.223
-252.846
-251.618
-250.561
-249.696
-249.046
-248.631
-248.471
-248.586
-248.995
-249.714
-250.76
-252.147
-253.89
-255.999
-258.486
-261.357
-264.62
-268.279
-272.335
-276.789
-281.638
-286.876
-292.497
-298.491
-304.846
-311.547
-318.578
-325.92
-333.553
-341.453
-349.596
-357.956
-366.505
-375.215
-384.056
-392.995
-402.001
-411.04
-420.08
-429.086
-438.023
-446.856
-455.55
-464.071
-472.384
-480.455
-488.25
-495.736
-502.883
-509.659
-516.036
-521.987
-527.487
-532.511
-537.039
-541.052
-544.532
-547.467
-549.844
-551.653
-552.888
-553.545
-553.622
-553.119
-552.039
-550.389
-548.175
-545.409
-542.102
-538.27
-533.929
-529.1
-523.804
-518.064
-511.908
-505.362
-498.458
-491.226
-483.701
-475.916
-467.909
-459.717
-451.377
-442.928
-434.41
-425.861
-417.321
-408.829
-400.424
-392.144
-384.025
-376.105
-368.42
-361.003
-353.889
-347.11
-340.695
-334.675
-329.077
-323.927
-319.248
-315.062
-311.388
-308.243
-305.642
-303.595
-302.114
-301.202
-300.863
-301.098
-301.903
-303.274
-305.2
-307.672
-310.675
-314.193
-318.207
-322.696
-327.638
-333.008
-338.779
-344.923
-351.412
-358.212
-365.292
-372.617
-380.156
-387.875
-395.739
-403.711
-411.754
-419.83
-427.908
-435.947
-443.903
-451.732
-459.393
-466.851
-474.09
-481.088
-487.808
-494.242
-500.411
-506.32
-511.972
-517.366
-522.451
-527.184
-531.593
-535.605
-539.014
-541.801
-544.056
-545.742
-547.037
-547.65
-546.548
-543.967
-540.971
-539.366
-542.23
-549.884
-559.675
-567.506
-568.488
-560.953
-547.475
-533.493
-524.079
-521.817
-526.223
-532.89
-538.371
-540.892
-539.463
-536.37
-533.298
-530.684
-529.375
-528.734
-528.173
-527.895
-527.774
-527.865
-528.332
-529.055
-529.936
-530.97
-532.116
-533.334
-534.617
-535.946
-537.291
-538.629
-539.935
-541.163
-542.261
-543.186
-543.883
-544.3
-544.387
-544.092
-543.359
-542.138
-540.373
-538.009
-534.991
-531.264
-526.774
-521.464
-515.285
-508.181
-500.106
-491.022
-480.886
-469.655
-457.296
-443.763
-429.021
-413.057
-395.861
-377.425
-357.77
-336.919
-314.887
-291.733
-267.537
-242.369
-216.313
-189.46
-161.893
-133.718
-105.161
-76.453
-47.604
-18.644
10.354
39.603
68.717
97.313
126.281
155.951
187.688
223.66
263.036
304.952
346.889
383.637
413.719
437.546
458.22
483.332
517.455
561.444
612.629
663.589
708.534
745.321
774.541
799.779
823.754
846.992
868.929
888.057
903.381
914.721
922.004
925.264
924.437
919.385
910.183
897.102
880.546
861.095
839.37
815.928
791.271
765.825
739.999
714.25
689.047
664.856
642.118
621.221
602.541
586.454
573.23
562.982
555.685
551.137
549.097
549.404
551.928
556.558
563.185
571.65
581.799
593.523
606.665
621.019
636.317
652.205
668.402
684.756
701.192
717.738
734.446
751.269
768.131
784.948
801.564
817.791
833.388
848.006
861.349
873.229
883.518
892.18
899.171
904.344
907.536
908.542
907.126
903.124
896.437
886.995
874.861
860.207
843.284
824.471
804.144
782.597
760.124
736.99
713.454
689.852
666.557
643.96
622.532
602.737
584.973
569.585
556.801
546.734
539.421
534.842
532.989
533.873
537.506
543.862
552.825
564.241
577.941
593.585
610.675
628.59
646.535
663.832
680.149
695.189
708.693
720.701
731.225
740.472
749.12
757.523
765.437
772.463
777.943
780.836
780.239
774.965
763.208
743.691
716.013
680.298
637.227
587.901
533.583
476.072
417.969
361.745
309.106
261.15
218.614
182.13
152.048
128.202
109.597
94.769
82.678
72.742
64.427
57.049
50.04
43.052
36.239
30.316
25.77
22.732
21.278
21.469
23.268
26.553
31.016
36.054
41.176
46.051
50.446
54.386
58.105
61.954
66.325
71.563
77.924
85.629
94.616
104.335
113.81
122.431
130.271
137.328
143.677
147.247
144.433
134.839
120.171
106.461
103.467
115.554
143.455
184.616
232.096
282.699
334.966
385.919
432.235
468.48
490.221
497.388
494.871
489.223
484.706
482.386
479.735
474.159
465.538
455.359
445.462
436.495
427.827
418.327
407.442
395.442
382.589
368.92
354.494
339.432
324.126
309.251
295.191
282.025
269.787
258.434
247.985
238.52
229.989
222.221
215.042
208.264
201.756
195.486
189.423
183.535
177.805
172.213
166.777
161.559
156.626
152.034
147.825
144.022
140.664
137.813
135.539
133.924
133.022
132.856
133.441
134.784
136.883
139.736
143.316
147.574
152.464
157.944
163.979
170.537
177.579
185.046
192.888
201.062
209.528
218.249
227.177
236.248
245.411
254.638
263.878
273.058
282.105
290.946
299.524
307.836
315.856
323.49
330.74
337.744
344.499
350.892
356.917
362.361
367.488
373.39
379.841
385.699
389.292
387.382
379.931
370.231
361.606
358.78
362.328
367.892
372.102
371.18
364.829
356.876
348.676
341.362
334.091
323.889
311.913
299.418
288.13
280.7
274.937
268.717
260.596
248.408
233.619
217.74
201.145
184.831
168.348
151.123
133.41
115.264
96.929
78.784
60.996
43.747
27.302
11.929
-2.085
-14.477
-25.025
-33.561
-39.973
-44.187
-46.189
-46.007
-43.696
-39.379
-33.232
-25.474
-16.368
-6.164
4.914
16.62
28.687
40.876
52.976
64.816
76.281
87.271
97.708
107.537
116.73
125.303
133.3
140.797
147.892
154.661
161.154
167.423
173.523
179.489
185.347
191.094
196.7
202.138
207.384
212.408
217.178
221.647
225.76
229.458
232.678
235.379
237.536
239.135
240.17
240.65
240.589
240.021
238.993
237.547
235.726
233.572
231.128
228.441
225.565
222.553
219.456
216.325
213.208
210.15
207.197
204.387
201.759
199.346
197.178
195.286
193.698
192.44
191.541
191.021
190.903
191.203
191.937
193.115
194.744
196.826
199.361
202.342
205.762
209.61
213.869
218.526
223.56
228.951
234.678
240.716
247.039
253.622
260.436
267.451
274.636
281.958
289.386
296.886
304.425
311.967
319.479
326.928
334.283
341.515
348.593
355.487
362.167
368.605
374.773
380.64
386.175
391.345
396.121
400.479
404.396
407.852
410.828
413.304
415.266
416.705
417.611
417.97
417.762
416.953
415.531
413.5
410.874
407.682
403.945
399.679
394.912
389.691
384.042
377.984
371.506
364.566
357.153
349.278
340.972
332.3
323.29
313.937
304.233
294.162
283.708
272.866
261.587
249.78
237.413
224.502
211.127
197.452
183.593
169.625
155.616
141.6
127.658
113.905
100.441
87.352
74.733
62.69
51.404
41.132
32.059
24.28
17.795
12.483
8.235
4.967
2.579
0.929
-0.201
-0.949
-1.34
-1.264
-0.454
1.245
3.785
7.134
11.222
15.657
19.875
23.014
23.787
21.244
14.741
3.614
-12.102
-31.536
-53.375
-75.434
-94.914
-109.482
-116.639
-114.384
-102.789
-82.665
-55.481
-21.961
18.954
66.241
116.093
160.27
187.557
192.109
173.449
136.94
93.31
49.385
8.517
-27.806
-62.034
-95.188
-126.383
-155.205
-180.582
-202.159
-221.045
-238.614
-255.715
-272.685
-289.394
-305.343
-320.156
-333.57
-345.147
-354.432
-361.274
-365.722
-368.007
-368.539
-367.654
-365.676
-363.042
-360.133
-357.249
-354.662
-352.564
-351.096
-350.437
-350.741
-351.981
-354.074
-357.066
-360.908
-365.499
-370.924
-376.476
-381.467
-386.572
-391.941
-398.985
-409.368
-421.017
-432.589
-442.002
-446.33
-447.917
-448.846
-450.491
-455.35
-461.468
-466.079
-469.044
-470.469
-472.666
-479.653
-491.267
-504.332
-515.581
-520.282
-518.01
-513.185
-509.132
-509.408
-514.805
-522.044
-529.045
-534.444
-537.709
-540.112
-542.271
-544.109
-545.653
-546.7
-547.177
-547.26
-547.004
-546.376
-545.376
-544.021
-542.306
-540.195
-537.653
-534.644
-531.166
-527.264
-522.971
-518.3
-513.277
-508.038
-502.738
-497.357
-491.881
-486.342
-480.609
-475.231
-470.611
-465.951
-461.096
-454.604
-444.958
-433.765
-421.217
-409.485
-402.256
-398.923
-400.734
-406.206
-409.929
-410.331
-404.524
-392.552
-379.706
-368.749
-362.53
-361.857
-363.439
-365.347
-366.393
-366.05
-365.536
-365.461
-365.767
-366.475
-367.37
-368.383
-369.67
-371.275
-373.158
-375.294
-377.656
-380.209
-382.907
-385.696
-388.507
-391.288
-394.007
-396.625
-399.094
-401.368
-403.405
-405.172
-406.634
-407.75
-408.474
-408.752
-408.545
-407.831
-406.594
-404.823
-402.515
-399.678
-396.344
-392.566
-388.398
-383.872
-378.997
-373.76
-368.154
-362.181
-355.847
-349.163
-342.112
-334.667
-326.819
-318.575
-309.939
-300.895
-291.387
-281.305
-270.563
-259.14
-247.071
-234.44
-221.34
-207.866
-194.126
-180.261
-166.465
-152.913
-139.738
-127.014
-114.796
-103.179
-92.316
-82.436
-73.748
-66.373
-60.372
-55.759
-52.536
-50.699
-50.224
-50.996
-52.824
-55.562
-59.114
-63.47
-68.678
-74.716
-81.484
-88.804
-96.476
-104.351
-112.31
-120.213
-127.898
-135.188
-141.892
-147.936
-153.328
-158.024
-161.942
-164.914
-166.691
-167.101
-166.051
-163.496
-159.437
-153.872
-146.801
-138.302
-128.522
-117.649
-105.911
-93.448
-80.328
-66.659
-52.565
-38.221
-23.863
-9.665
4.251
17.77
30.793
43.237
55.027
66.169
76.732
86.818
96.563
106.064
115.392
124.623
133.829
143.082
152.449
161.952
171.587
181.357
191.262
201.281
211.362
221.404
231.298
240.916
250.11
258.734
266.6
273.514
279.314
283.874
287.129
289.063
289.703
289.049
287.128
284.157
280.442
276.167
271.539
266.772
261.874
257.681
255.103
253.678
253.434
253.16
251.299
249.922
250.436
254.79
265.533
280.221
296.652
313.196
327.407
340.585
354.013
367.663
382.031
396.154
408.977
420.346
429.9
437.367
442.609
445.34
445.418
442.917
437.977
430.763
421.428
410.185
397.29
383.068
367.921
352.151
336.005
319.718
303.509
287.645
272.382
257.907
244.306
231.578
219.664
208.506
198.097
188.407
179.361
170.817
162.682
155.076
148.137
141.874
136.179
130.771
125.963
122.65
121.041
120.429
118.31
111.245
98.075
80.178
61.735
48.22
42.705
45.887
55.808
68.866
81.223
88.939
89.834
82.868
70.184
56.301
44.345
38.269
38.57
43.067
51.15
59.361
65.765
70.358
71.693
71.224
70.429
69.5
69.441
69.859
70.029
69.965
69.483
68.601
67.474
65.989
64.009
61.578
58.911
56.234
53.636
51.057
48.287
45.724
44.324
44.278
44.836
43.279
35.914
21.653
1.875
-19.224
-35.818
-45.266
-46.964
-41.741
-33.209
-23.99
-16.975
-16.443
-23.393
-37.472
-57.439
-79.22
-100.115
-118.031
-129.604
-133.459
-130.349
-122.945
-116.086
-114.01
-116.932
-122.242
-127.956
-132.183
-135.798
-141.553
-148.44
-155.307
-160.773
-162.581
-162.19
-161.255
-160.335
-160.463
-161.077
-161.468
-161.78
-161.928
-161.945
-161.948
-161.826
-161.506
-161.037
-160.437
-159.705
-158.847
-157.873
-156.793
-155.626
-154.388
-153.073
-151.669
-150.176
-148.59
-146.905
-145.116
-143.212
-141.182
-139.018
-136.711
-134.25
-131.628
-128.833
-125.857
-122.69
-119.328
-115.765
-111.996
-108.018
-103.828
-99.425
-94.812
-89.996
-84.973
-79.742
-74.307
-68.671
-62.853
-56.877
-50.744
-44.463
-38.08
-31.644
-25.203
-18.801
-12.432
-6.083
0.195
6.352
12.472
18.675
24.93
31.231
37.537
43.588
49.93
57.029
63.933
70.264
74.583
75.246
74.291
72.512
70.635
70.836
71.549
73.625
79.714
89.008
101.043
111.755
114.972
109.283
96.511
82.146
72.436
69.469
71.821
75.748
78.018
77.711
75.402
72.4
69.404
66.356
63.156
59.72
56.137
52.604
49.171
45.824
42.577
39.442
36.418
33.49
30.626
27.808
25.047
22.36
19.751
17.211
14.72
12.265
9.843
7.457
5.116
2.837
0.648
-1.419
-3.328
-5.059
-6.605
-7.983
-9.233
-10.399
-11.531
-12.657
-13.782
-14.915
-16.071
-17.274
-18.561
-19.989
-21.639
-23.605
-25.999
-28.901
-32.349
-36.321
-40.748
-45.535
-50.557
-55.716
-60.942
-66.155
-71.297
-76.32
-81.148
-85.65
-89.687
-93.085
-95.667
-97.347
-98.053
-97.724
-96.47
-94.584
-92.27
-89.617
-86.759
-83.603
-80.57
-78.833
-78.221
-77.793
-75.967
-69.716
-59.373
-48.218
-39.491
-37.694
-43.114
-51.47
-59.398
-63.291
-62.446
-59.962
-57.749
-57.109
-58.439
-60.453
-62.568
-64.807
-67.081
-69.541
-72.2
-74.87
-77.511
-80.182
-82.927
-85.784
-88.798
-92.006
-95.437
-99.125
-103.072
-107.248
-111.621
-116.177
-120.905
-125.799
-130.855
-136.062
-141.403
-146.865
-152.429
-158.075
-163.783
-169.534
-175.309
-181.097
-186.889
-192.678
-198.464
-204.241
-210.008
-215.76
-221.49
-227.191
-232.858
-238.484
-244.062
-249.586
-255.052
-260.455
-265.793
-271.065
-276.268
-281.402
-286.465
-291.458
-296.379
-301.227
-306.002
-310.702
-315.327
-319.874
-324.342
-328.728
-333.031
-337.247
-341.373
-345.406
-349.342
-353.176
-356.904
-360.521
-364.021
-367.4
-370.653
-373.775
-376.762
-379.611
-382.319
-384.883
-387.301
-389.57
-391.688
-393.653
-395.465
-397.122
-398.623
-399.969
-401.159
-402.194
-403.078
-403.81
-404.396
-404.838
-405.142
-405.311
-405.351
-405.269
-405.072
-404.768
-404.364
-403.87
-403.294
-402.646
-401.937
-401.176
-400.373
-399.538
-398.681
-397.811
-396.937
-396.067
-395.208
-394.368
-393.553
-392.768
-392.017
-391.304
-390.632
-390.003
-389.416
-388.872
-388.368
-387.903
-387.472
-387.071
-386.694
-386.333
-385.981
-385.629
-385.265
-384.88
-384.46
-383.993
-383.464
-382.859
-382.162
-381.357
-380.428
-379.358
-378.131
-376.731
-375.141
-373.346
-371.331
-369.082
-366.585
-363.828
-360.8
-357.492
-353.893
-349.997
-345.797
-341.289
-336.469
-331.336
-325.889
-320.129
-314.058
-307.681
-301.003
-294.03
-286.772
-279.237
-271.438
-263.386
-255.096
-246.582
-237.861
-228.949
-219.864
-210.625
-201.25
-191.758
-182.168
-172.5
-162.771
-153.002
-143.208
-133.408
-123.618
-113.852
-104.126
-94.452
-84.842
-75.308
-65.859
-56.504
-47.251
-38.106
-29.074
-20.159
-11.364
-2.69
5.862
14.293
22.605
30.801
38.885
46.862
54.738
62.519
70.21
77.819
85.355
92.83
100.255
107.637
114.983
122.302
129.604
136.898
144.181
151.441
158.67
165.865
173.044
180.218
187.378
194.53
201.709
208.968
216.357
223.891
231.53
239.233
247.024
254.856
262.537
269.923
276.975
283.714
290.345
296.442
300.854
303.235
304.287
306.764
314.714
329.486
348.913
367.264
377.84
378.176
370.825
362.082
358.146
361.258
369.762
379.652
387.732
393.08
396.276
398.628
400.795
402.69
404.169
405.109
405.569
405.712
405.575
405.135
404.397
403.361
402.017
400.342
398.3
395.868
393.052
389.868
386.329
382.439
378.207
373.642
368.759
363.571
358.091
352.331
346.303
340.022
333.505
326.768
319.83
312.71
305.426
298
290.451
282.8
275.072
267.286
259.467
251.638
243.821
236.041
228.319
220.681
213.148
205.744
198.491
191.411
184.526
177.857
171.423
165.245
159.341
153.728
148.423
143.443
138.8
134.509
130.58
127.025
123.851
121.066
118.675
116.683
115.092
113.902
113.113
112.722
112.726
113.118
113.893
115.041
116.555
118.422
120.631
123.17
126.025
129.179
132.619
136.326
140.283
144.472
148.873
153.467
158.234
163.153
168.204
173.365
178.615
183.935
189.303
194.7
200.105
205.501
210.869
216.192
221.452
226.636
231.728
236.714
241.583
246.322
250.923
255.374
259.668
263.798
267.758
271.542
275.146
278.569
281.807
284.862
287.735
290.426
292.941
295.284
297.461
299.48
301.348
303.076
304.674
306.152
307.523
308.8
309.996
311.123
312.196
313.229
314.236
315.232
316.23
317.244
318.29
319.381
320.53
321.751
323.058
324.463
325.979
327.617
329.387
331.302
333.37
335.601
338.001
340.577
343.335
346.278
349.409
352.729
356.237
359.932
363.81
367.866
372.094
376.488
381.039
385.738
390.575
395.539
400.615
405.792
411.051
416.379
421.757
427.167
432.59
438.007
443.397
448.74
454.015
459.2
464.274
469.214
473.998
478.604
483.009
487.191
491.128
494.8
498.184
501.262
504.015
506.423
508.47
510.138
511.412
512.273
512.705
512.692
512.218
511.27
509.835
507.904
505.468
502.522
499.062
495.089
490.601
485.6
480.086
474.058
467.514
460.455
452.882
444.794
436.196
427.089
417.479
407.38
396.804
385.765
374.275
362.337
349.963
337.181
324.021
310.52
296.726
282.683
268.448
254.104
239.728
225.393
211.169
197.09
183.187
169.499
156.067
142.938
130.138
117.65
105.439
93.493
81.789
70.31
59.026
47.835
36.643
25.389
14.024
2.561
-8.972
-20.571
-32.232
-43.908
-55.503
-66.849
-77.729
-87.991
-97.5
-106.115
-113.677
-119.936
-124.647
-127.621
-128.707
-127.784
-124.737
-119.428
-111.721
-101.598
-89.15
-74.541
-58.015
-39.741
-19.869
1.412
23.864
47.177
71.047
95.201
119.382
143.283
166.524
188.709
209.443
228.471
245.653
260.887
274.107
285.203
294.077
300.688
305.058
307.236
307.216
305.017
300.687
294.384
286.41
277.078
266.677
255.419
243.464
230.997
218.243
205.457
192.831
180.526
168.657
157.359
146.871
137.403
129.101
122.028
116.12
111.305
107.555
104.871
103.194
102.416
102.359
102.795
103.575
104.557
105.595
106.526
107.089
107.015
106.074
104.054
100.782
96.099
89.806
81.694
71.653
59.615
45.559
29.521
11.516
-8.439
-30.283
-53.95
-79.34
-106.295
-134.622
-164.09
-194.423
-225.344
-256.557
-287.738
-318.602
-348.872
-378.257
-406.497
-433.374
-458.672
-482.209
-503.807
-523.255
-540.411
-555.217
-567.673
-577.841
-585.799
-591.628
-595.442
-597.405
-597.698
-596.544
-594.182
-590.785
-586.52
-581.554
-576.049
-570.217
-564.232
-558.192
-552.158
-546.168
-540.248
-534.435
-528.754
-523.165
-517.612
-512.018
-506.284
-500.365
-494.235
-487.863
-481.225
-474.285
-467.018
-459.443
-451.602
-443.535
-435.281
-426.871
-418.339
-409.75
-401.18
-392.706
-384.41
-376.352
-368.572
-361.114
-354.01
-347.285
-340.958
-335.028
-329.483
-324.313
-319.51
-315.065
-310.966
-307.193
-303.717
-300.513
-297.551
-294.805
-292.249
-289.858
-287.607
-285.476
-283.444
-281.495
-279.616
-277.79
-276
-274.23
-272.462
-270.682
-268.876
-267.031
-265.133
-263.172
-261.141
-259.033
-256.846
-254.575
-252.222
-249.787
-247.272
-244.684
-242.028
-239.314
-236.552
-233.755
-230.934
-228.106
-225.285
-222.488
-219.729
-217.027
-214.395
-211.851
-209.407
-207.08
-204.883
-202.829
-200.93
-199.2
-197.648
-196.285
-195.121
-194.163
-193.42
-192.899
-192.605
-192.542
-192.714
-193.123
-193.769
-194.653
-195.773
-197.126
-198.706
-200.51
-202.529
-204.755
-207.179
-209.791
-212.579
-215.532
-218.638
-221.884
-225.258
-228.748
-232.34
-236.024
-239.788
-243.619
-247.507
-251.442
-255.413
-259.41
-263.424
-267.445
-271.464
-275.474
-279.465
-283.429
-287.358
-291.244
-295.082
-298.863
-302.582
-306.234
-309.814
-313.317
-316.741
-320.082
-323.338
-326.509
-329.592
-332.586
-335.491
-338.306
-341.031
-343.664
-346.205
-348.652
-351.004
-353.258
-355.411
-357.462
-359.406
-361.241
-362.961
-364.563
-366.043
-367.397
-368.619
-369.705
-370.652
-371.453
-372.106
-372.605
-372.946
-373.123
-373.132
-372.968
-372.626
-372.101
-371.387
-370.481
-369.376
-368.07
-366.556
-364.833
-362.896
-360.744
-358.374
-355.787
-352.981
-349.96
-346.723
-343.276
-339.622
-335.767
-331.717
-327.478
-323.061
-318.472
-313.723
-308.824
-303.785
-298.619
-293.338
-287.955
-282.483
-276.936
-271.329
-265.675
-259.99
-254.289
-248.586
-242.896
-237.235
-231.618
-226.059
-220.572
-215.171
-209.869
-204.68
-199.614
-194.683
-189.896
-185.263
-180.792
-176.489
-172.36
-168.408
-164.638
-161.052
-157.649
-154.431
-151.395
-148.54
-145.86
-143.352
-141.011
-138.828
-136.798
-134.911
-133.158
-131.531
-130.018
-128.611
-127.299
-126.068
-124.906
-123.8
-122.735
-121.699
-120.678
-119.655
-118.617
-117.548
-116.436
-115.267
-114.029
-112.704
-111.278
-109.734
-108.055
-106.23
-104.25
-102.101
-99.771
-97.25
-94.525
-91.586
-88.427
-85.032
-81.388
-77.481
-73.293
-68.818
-64.047
-58.977
-53.608
-47.917
-41.886
-35.495
-28.717
-21.564
-14.049
-6.161
2.096
10.726
19.759
29.131
38.767
48.769
59.194
70.114
81.65
93.636
105.845
118.333
131.118
143.938
156.648
168.926
180.36
191.303
202.159
212.893
223.584
234.468
245.613
257.465
270.544
284.335
298.307
312.33
326.113
339.474
352.379
364.356
374.909
384.352
392.99
400.913
408.361
415.313
421.656
427.586
433.28
438.565
443.338
447.535
451.008
453.812
456.015
457.538
458.422
458.758
458.45
457.467
455.772
453.229
449.986
446.272
442.03
437.257
432.235
427.117
422.235
418.002
414.072
410.043
405.949
401.707
397.075
391.984
385.988
378.571
370.25
361.549
352.592
343.653
334.891
326.32
318.4
311.613
305.64
300.195
295.211
290.502
286.149
282.277
278.698
275.219
271.964
269.03
266.471
264.388
262.723
261.392
260.418
259.821
259.56
259.575
259.771
259.993
260.12
260.091
259.862
259.423
258.818
258.093
257.333
256.673
256.205
255.999
256.126
256.614
257.493
258.846
260.766
263.39
266.898
271.395
276.941
283.564
291.201
299.752
309.069
318.92
329.1
339.448
349.808
360.079
370.171
379.958
389.31
398.074
406.046
413.06
418.994
423.744
427.282
429.622
430.821
431.022
430.375
429.007
427.031
424.506
421.446
417.869
413.793
409.23
404.231
398.837
393.05
386.876
380.304
373.318
365.88
357.899
349.243
339.756
329.326
317.912
305.546
292.303
278.265
263.547
248.282
232.636
216.83
201.069
185.516
170.312
155.6
141.562
128.443
116.53
106.052
97.161
89.944
84.433
80.655
78.586
78.142
79.167
81.439
84.775
89.044
94.151
99.999
106.459
113.349
120.455
127.618
134.719
141.667
148.393
154.824
160.922
166.71
172.267
177.714
183.126
188.528
193.919
199.288
204.639
209.997
215.381
220.776
226.159
231.505
236.794
242.011
247.121
252.059
256.734
261.047
264.924
268.316
271.192
273.523
275.284
276.454
277.028
277.015
276.424
275.257
273.517
271.202
268.322
264.896
260.951
256.513
251.607
246.257
240.485
234.315
227.771
220.876
213.647
206.1
198.255
190.137
181.771
173.183
164.399
155.446
146.35
137.137
127.834
118.465
109.052
99.616
90.178
80.76
71.382
62.063
52.824
43.682
34.658
25.77
17.036
8.475
0.103
-8.061
-16.002
-23.703
-31.148
-38.322
-45.211
-51.799
-58.074
-64.021
-69.63
-74.889
-79.788
-84.317
-88.47
-92.238
-95.614
-98.595
-101.175
-103.349
-105.116
-106.473
-107.419
-107.954
-108.081
-107.803
-107.124
-106.051
-104.593
-102.76
-100.564
-98.019
-95.14
-91.945
-88.453
-84.685
-80.664
-76.411
-71.953
-67.314
-62.522
-57.602
-52.584
-47.496
-42.367
-37.226
-32.103
-27.029
-22.033
-17.144
-12.391
-7.804
-3.409
0.767
4.699
8.361
11.729
14.783
17.502
19.867
21.86
23.467
24.676
25.478
25.866
25.836
25.386
24.517
23.231
21.534
19.433
16.936
14.053
10.795
7.176
3.214
-1.076
-5.672
-10.556
-15.706
-21.098
-26.708
-32.514
-38.49
-44.613
-50.859
-57.2
-63.611
-70.064
-76.534
-82.993
-89.411
-95.759
-102.01
-108.14
-114.124
-119.943
-125.576
-131.007
-136.221
-141.211
-145.964
-150.467
-154.706
-158.665
-162.33
-165.687
-168.723
-171.422
-173.774
-175.769
-177.405
-178.688
-179.618
-180.192
-180.404
-180.238
-179.689
-178.769
-177.489
-175.861
-173.914
-171.684
-169.228
-166.63
-163.95
-161.222
-158.465
-155.669
-152.827
-149.94
-146.999
-143.994
-140.913
-137.727
-134.427
-131.017
-127.465
-123.717
-119.675
-115.187
-110.161
-104.569
-98.41
-91.736
-84.62
-77.136
-69.411
-61.607
-53.865
-46.315
-39.056
-32.141
-25.673
-19.793
-14.678
-10.566
-7.622
-5.928
-5.537
-6.453
-8.624
-11.978
-16.361
-21.54
-27.332
-33.586
-40.185
-47.067
-54.127
-61.223
-68.201
-74.871
-81.085
-86.752
-91.791
-96.142
-99.801
-102.791
-105.204
-107.199
-108.894
-110.361
-111.651
-112.777
-113.766
-114.668
-115.521
-116.368
-117.243
-118.168
-119.167
-120.27
-121.474
-122.761
-124.082
-125.356
-126.528
-127.567
-128.452
-129.178
-129.742
-130.138
-130.372
-130.46
-130.413
-130.236
-129.93
-129.486
-128.906
-128.197
-127.368
-126.433
-125.403
-124.281
-123.068
-121.764
-120.367
-118.869
-117.26
-115.526
-113.653
-111.633
-109.459
-107.125
-104.629
-101.963
-99.126
-96.117
-92.933
-89.573
-86.036
-82.318
-78.42
-74.343
-70.087
-65.657
-61.056
-56.29
-51.367
-46.295
-41.086
-35.752
-30.306
-24.764
-19.141
-13.456
-7.729
-1.98
3.769
9.495
15.175
20.783
26.296
31.688
36.936
42.016
46.906
51.584
56.028
60.218
64.137
67.764
71.084
74.079
76.735
79.039
80.979
82.545
83.729
84.524
84.926
84.934
84.546
83.766
82.597
81.044
79.115
76.82
74.171
71.18
67.862
64.233
60.312
56.116
51.664
46.979
42.079
36.987
31.724
26.312
20.773
15.129
9.403
3.618
-2.206
-8.046
-13.879
-19.685
-25.443
-31.133
-36.735
-42.231
-47.602
-52.833
-57.907
-62.809
-67.526
-72.045
-76.355
-80.445
-84.306
-87.93
-91.311
-94.442
-97.319
-99.937
-102.295
-104.389
-106.217
-107.78
-109.078
-110.111
-110.88
-111.39
-111.642
-111.642
-111.395
-110.908
-110.188
-109.242
-108.08
-106.711
-105.147
-103.398
-101.477
-99.396
-97.169
-94.809
-92.331
-89.749
-87.078
-84.334
-81.53
-78.682
-75.806
-72.915
-70.026
-67.152
-64.309
-61.511
-58.772
-56.107
-53.529
-51.051
-48.685
-46.443
-44.336
-42.373
-40.563
-38.913
-37.431
-36.12
-34.986
-34.03
-33.254
-32.657
-32.239
-31.995
-31.921
-32.011
-32.26
-32.658
-33.197
-33.867
-34.658
-35.559
-36.557
-37.642
-38.8
-40.018
-41.283
-42.581
-43.898
-45.221
-46.538
-47.834
-49.098
-50.317
-51.481
-52.579
-53.601
-54.539
-55.385
-56.132
-56.774
-57.308
-57.73
-58.039
-58.235
-58.317
-58.29
-58.156
-57.92
-57.588
-57.166
-56.662
-56.084
-55.441
-54.742
-53.998
-53.22
-52.418
-51.603
-50.788
-49.982
-49.197
-48.444
-47.733
-47.072
-46.471
-45.939
-45.481
-45.105
-44.816
-44.619
-44.517
-44.513
-44.608
-44.802
-45.094
-45.482
-45.963
-46.531
-47.182
-47.909
-48.705
-49.563
-50.473
-51.428
-52.416
-53.428
-54.453
-55.48
-56.497
-57.494
-58.458
-59.379
-60.247
-61.051
-61.782
-62.431
-62.992
-63.456
-63.82
-64.077
-64.225
-64.261
-64.184
-63.994
-63.693
-63.284
-62.771
-62.158
-61.453
-60.664
-59.797
-58.863
-57.871
-56.832
-55.757
-54.659
-53.55
-52.442
-51.35
-50.287
-49.267
-48.303
-47.41
-46.601
-45.889
-45.287
-44.806
-44.457
-44.251
-44.195
-44.3
-44.57
-45.013
-45.632
-46.43
-47.409
-48.568
-49.908
-51.424
-53.113
-54.97
-56.989
-59.162
-61.482
-63.939
-66.523
-69.224
-72.032
-74.934
-77.918
-80.972
-84.084
-87.239
-90.425
-93.628
-96.837
-100.038
-103.218
-106.367
-109.473
-112.524
-115.511
-118.424
-121.255
-123.995
-126.638
-129.178
-131.61
-133.929
-136.133
-138.219
-140.187
-142.036
-143.767
-145.381
-146.878
-148.263
-149.536
-150.701
-151.761
-152.719
-153.579
-154.344
-155.018
-155.604
-156.106
-156.526
-156.866
-157.131
-157.32
-157.436
-157.48
-157.454
-157.357
-157.19
-156.953
-156.646
-156.268
-155.818
-155.296
-154.699
-154.025
-153.273
-152.44
-151.524
-150.522
-149.431
-148.251
-146.977
-145.609
-144.145
-142.582
-140.921
-139.161
-137.302
-135.345
-133.291
-131.143
-128.902
-126.574
-124.163
-121.673
-119.11
-116.481
-113.792
-111.051
-108.266
-105.442
-102.589
-99.714
-96.825
-93.93
-91.035
-88.15
-85.28
-82.432
-79.615
-76.832
-74.092
-71.398
-68.755
-66.169
-63.642
-61.178
-58.779
-56.448
-54.184
-51.989
-49.862
-47.801
-45.805
-43.871
-41.994
-40.17
-38.395
-36.662
-34.966
-33.3
-31.659
-30.036
-28.425
-26.821
-25.219
-23.614
-22.002
-20.379
-18.744
-17.094
-15.428
-13.746
-12.05
-10.34
-8.62
-6.892
-5.161
-3.432
-1.709
-0
1.689
3.351
4.978
6.56
8.09
9.557
10.952
12.265
13.484
14.6
15.603
16.482
17.229
17.834
18.291
18.591
18.73
18.704
18.508
18.141
17.604
16.898
16.027
14.994
13.807
12.473
11.003
9.408
7.7
5.892
3.999
2.037
0.022
-2.029
-4.099
-6.168
-8.219
-10.233
-12.191
-14.075
-15.865
-17.545
-19.096
-20.503
-21.749
-22.821
-23.706
-24.392
-24.87
-25.132
-25.172
-24.987
-24.576
-23.938
-23.078
-22.002
-20.717
-19.234
-17.565
-15.727
-13.735
-11.608
-9.368
-7.036
-4.637
-2.195
0.263
2.711
5.121
7.464
9.711
11.834
13.805
15.594
17.175
18.52
19.603
20.399
20.885
21.038
20.838
20.266
19.305
17.942
16.162
13.957
11.319
8.242
4.724
0.766
-3.63
-8.458
-13.71
-19.375
-25.441
-31.891
-38.707
-45.871
-53.358
-61.146
-69.207
-77.516
-86.042
-94.755
-103.624
-112.617
-121.701
-130.842
-140.006
-149.16
-158.269
-167.299
-176.217
-184.989
-193.58
-201.96
-210.096
-217.957
-225.512
-232.733
-239.592
-246.062
-252.117
-257.735
-262.892
-267.569
-271.745
-275.404
-278.53
-281.11
-283.133
-284.587
-285.467
-285.765
-285.477
-284.601
-283.137
-281.085
-278.447
-275.228
-271.434
-267.07
-262.147
-256.673
-250.66
-244.12
-237.069
-229.522
-221.495
-213.007
-204.078
-194.729
-184.984
-174.864
-164.397
-153.608
-142.526
-131.179
-119.596
-107.81
-95.852
-83.753
-71.547
-59.269
-46.95
-34.627
-22.334
-10.106
2.022
14.015
25.836
37.451
48.824
59.919
70.703
81.14
91.197
100.84
110.037
118.756
126.968
134.643
141.754
148.275
154.184
159.458
164.079
168.031
171.3
173.875
175.748
176.914
177.372
177.122
176.168
174.517
172.179
169.168
165.499
161.192
156.268
150.752
144.672
138.057
130.941
123.36
115.35
106.952
98.209
89.164
79.864
70.356
60.69
50.915
41.083
31.244
21.451
11.754
2.203
-7.152
-16.264
-25.085
-33.571
-41.681
-49.373
-56.611
-63.359
-69.585
-75.262
-80.362
-84.862
-88.744
-91.991
-94.59
-96.53
-97.806
-98.414
-98.355
-97.631
-96.249
-94.22
-91.557
-88.276
-84.398
-79.945
-74.944
-69.421
-63.409
-56.94
-50.049
-42.771
-35.145
-27.208
-18.999
-10.557
-1.921
6.869
15.776
24.762
33.79
42.823
51.828
60.77
69.616
78.335
86.898
95.275
103.439
111.363
119.024
126.398
133.465
140.204
146.599
152.635
158.299
163.579
168.468
172.96
177.051
180.738
184.023
186.907
189.396
191.494
193.21
194.551
195.529
196.153
196.437
196.392
196.033
195.372
194.426
193.21
191.74
190.034
188.109
185.985
183.681
181.219
178.621
175.908
173.105
170.235
167.322
164.392
161.467
158.573
155.734
152.973
150.312
147.775
145.383
143.157
141.117
139.283
137.672
136.301
135.187
134.346
133.793
133.541
133.603
133.992
134.721
135.803
137.248
139.062
141.251
143.818
146.765
150.094
153.805
157.894
162.355
167.183
172.37
177.913
183.805
190.035
196.585
203.439
210.579
217.997
225.687
233.641
241.844
250.277
258.924
267.77
276.802
286.002
295.344
304.792
314.311
323.868
333.446
343.033
352.604
362.109
371.475
380.624
389.511
398.135
406.511
414.633
422.472
429.957
437.076
443.915
450.497
456.724
462.344
467.052
470.743
473.63
475.998
477.936
479.604
481.319
483.676
487.521
493.297
500.782
509.389
518.607
527.777
536.074
542.493
545.671
544.665
539.282
529.84
516.932
501.577
485.052
468.54
453.425
440.81
431.318
425.28
422.525
422.199
423.037
424.046
424.335
423.201
420.125
414.548
406.278
395.765
383.87
371.26
358.361
345.433
332.656
320.386
308.888
298.102
287.744
277.572
267.503
257.577
247.904
238.497
229.323
220.415
211.85
203.722
196.095
188.981
182.352
176.192
170.514
165.338
160.694
156.602
153.068
150.1
147.71
145.912
144.718
144.138
144.174
144.825
146.089
147.962
150.441
153.518
157.182
161.412
166.182
171.468
177.242
183.477
190.144
197.213
204.649
212.418
220.486
228.817
237.375
246.122
255.019
264.024
273.099
282.204
291.299
300.344
309.299
318.124
326.782
335.233
343.441
351.371
358.991
366.268
373.174
379.683
385.771
391.418
396.605
401.318
405.544
409.273
412.498
415.215
417.42
419.116
420.303
420.986
421.173
420.871
420.092
418.848
417.154
415.026
412.484
409.547
406.239
402.582
398.602
394.327
389.785
385.004
380.014
374.845
369.529
364.094
358.572
352.99
347.378
341.762
336.17
330.626
325.154
319.776
314.514
309.387
304.414
299.612
294.997
290.582
286.382
282.407
278.669
275.176
271.935
268.952
266.232
263.776
261.585
259.658
257.99
256.578
255.413
254.487
253.788
253.306
253.026
252.933
253.013
253.249
253.624
254.119
254.718
255.402
256.153
256.951
257.777
258.614
259.44
260.239
260.989
261.672
262.269
262.761
263.127
263.349
263.408
263.287
262.966
262.428
261.658
260.641
259.362
257.81
255.972
253.84
251.406
248.663
245.606
242.232
238.537
234.522
230.187
225.532
220.561
215.278
209.687
203.795
197.608
191.135
184.384
177.366
170.093
162.575
154.827
146.864
138.7
130.352
121.837
113.174
104.382
95.479
86.485
77.419
68.301
59.15
49.984
40.82
31.677
22.571
13.517
4.531
-4.374
-13.185
-21.889
-30.475
-38.934
-47.256
-55.433
-63.457
-71.324
-79.028
-86.564
-93.931
-101.126
-108.149
-115
-121.682
-128.197
-134.551
-140.747
-146.794
-152.699
-158.469
-164.114
-169.644
-175.068
-180.396
-185.639
-190.808
-195.913
-200.965
-205.973
-210.948
-215.898
-220.834
-225.762
-230.69
-235.625
-240.572
-245.537
-250.525
-255.539
-260.582
-265.655
-270.76
-275.897
-281.064
-286.258
-291.477
-296.714
-301.966
-307.226
-312.486
-317.739
-322.977
-328.19
-333.37
-338.505
-343.586
-348.6
-353.535
-358.38
-363.121
-367.746
-372.243
-376.601
-380.807
-384.853
-388.729
-392.426
-395.937
-399.253
-402.367
-405.275
-407.971
-410.452
-412.715
-414.762
-416.592
-418.212
-419.624
-420.837
-421.855
-422.689
-423.345
-423.834
-424.164
-424.346
-424.393
-424.317
-424.134
-423.858
-423.508
-423.104
-422.664
-422.212
-421.768
-421.351
-420.982
-420.678
-420.455
-420.329
-420.314
-420.423
-420.671
-421.071
-421.638
-422.39
-423.34
-424.501
-425.883
-427.49
-429.32
-431.376
-433.65
-436.133
-438.818
-441.7
-444.781
-448.072
-451.578
-455.294
-459.202
-463.277
-467.473
-471.731
-475.991
-480.181
-484.245
-488.139
-491.836
-495.341
-498.659
-501.804
-504.766
-507.499
-509.965
-512.141
-514.018
-515.607
-516.967
-518.181
-519.365
-520.672
-522.219
-524.083
-526.292
-528.798
-531.515
-534.317
-537.093
-539.791
-542.354
-544.734
-546.886
-548.718
-550.063
-550.713
-550.381
-548.741
-545.585
-540.728
-534
-525.438
-515.195
-503.638
-491.348
-478.667
-465.66
-452.393
-438.892
-425.07
-410.961
-396.269
-380.183
-362.511
-343.575
-323.781
-304.04
-285.391
-268.481
-254.433
-245.22
-241.997
-245.317
-255.556
-271.814
-292.7
-317.127
-343.205
-368.113
-389.82
-406.626
-416.859
-420.333
-417.527
-408.906
-395.952
-380.819
-364.986
-349.864
-336.977
-326.856
-319.644
-315.366
-313.228
-312.123
-311.431
-310.592
-309.02
-306.563
-303.132
-298.677
-293.54
-288.144
-282.675
-277.242
-271.887
-266.511
-261.068
-255.558
-249.909
-244.05
-237.972
-231.689
-225.266
-218.8
-212.364
-205.999
-199.736
-193.598
-187.611
-181.811
-176.23
-170.891
-165.818
-161.027
-156.534
-152.349
-148.477
-144.914
-141.651
-138.677
-135.98
-133.553
-131.394
-129.5
-127.868
-126.489
-125.356
-124.456
-123.779
-123.312
-123.039
-122.943
-123.005
-123.208
-123.535
-123.971
-124.5
-125.106
-125.774
-126.49
-127.241
-128.017
-128.807
-129.603
-130.398
-131.188
-131.967
-132.736
-133.493
-134.241
-134.981
-135.719
-136.458
-137.204
-137.963
-138.744
-139.553
-140.4
-141.294
-142.244
-143.26
-144.352
-145.531
-146.806
-148.189
-149.687
-151.311
-153.068
-154.966
-157.011
-159.208
-161.56
-164.07
-166.738
-169.563
-172.542
-175.669
-178.94
-182.351
-185.894
-189.558
-193.331
-197.2
-201.153
-205.175
-209.24
-213.315
-217.368
-221.377
-225.331
-229.214
-233.005
-236.69
-240.282
-243.816
-247.315
-250.767
-254.128
-257.357
-260.435
-263.3
-265.758
-267.648
-268.94
-269.683
-270.038
-269.603
-267.442
-263.283
-257.671
-253.109
-253.256
-259.299
-269.965
-280.553
-284.241
-278.352
-263.625
-244.273
-227.869
-217.88
-214.845
-217.526
-220.734
-221.774
-219.776
-213.679
-205.625
-197.162
-188.513
-180.709
-172.955
-163.592
-152.976
-142.092
-132.649
-128.017
-128.136
-129.659
-129.412
-122.865
-109.438
-93.512
-78.495
-67.965
-62.812
-59.835
-56.987
-52.959
-47.264
-41.219
-35.485
-30.015
-24.868
-19.857
-14.924
-10.253
-5.905
-1.852
1.902
5.351
8.501
11.365
13.962
16.329
18.483
20.418
22.138
23.654
24.977
26.119
27.093
27.906
28.572
29.105
29.521
29.833
30.057
30.203
30.287
30.32
30.313
30.278
30.224
30.159
30.092
30.027
29.971
29.925
29.893
29.875
29.87
29.877
29.893
29.912
29.929
29.937
29.928
29.892
29.819
29.698
29.517
29.263
28.924
28.486
27.936
27.259
26.442
25.472
24.337
23.025
21.525
19.827
17.923
15.806
13.471
10.916
8.138
5.138
1.919
-1.513
-5.152
-8.989
-13.012
-17.206
-21.557
-26.047
-30.657
-35.364
-40.145
-44.977
-49.834
-54.688
-59.512
-64.276
-68.952
-73.511
-77.922
-82.157
-86.186
-89.982
-93.517
-96.764
-99.7
-102.301
-104.546
-106.415
-107.892
-108.963
-109.616
-109.842
-109.635
-108.994
-107.918
-106.411
-104.479
-102.133
-99.384
-96.249
-92.746
-88.896
-84.722
-80.25
-75.508
-70.525
-65.332
-59.962
-54.449
-48.826
-43.128
-37.392
-31.653
-25.945
-20.305
-14.765
-9.357
-4.114
0.935
5.762
10.34
14.644
18.654
22.35
25.715
28.736
31.401
33.705
35.645
37.221
38.435
39.288
39.787
39.939
39.756
39.253
38.446
37.354
35.998
34.404
32.601
30.618
28.487
26.234
23.885
21.467
19.016
16.571
14.175
11.87
9.689
7.666
5.833
4.22
2.857
1.764
0.951
0.427
0.2
0.282
0.704
1.476
2.594
4.023
5.695
7.573
9.653
11.951
14.505
17.325
20.359
23.614
27.169
31.01
35.084
39.192
42.921
46.109
48.888
51.415
53.94
56.81
60.333
65.183
72.427
82.546
95.488
110.963
128.211
146.387
164.682
181.693
195.711
205.797
211.544
212.909
210.544
205.218
197.934
190.457
184.514
181.146
181.07
184.705
192.006
202.756
216.168
230.685
245.024
258.382
270.126
279.802
286.99
291.403
293.355
293.718
293.147
292.013
290.54
288.835
287.163
285.779
284.614
283.349
281.724
279.611
277.002
273.979
270.528
266.59
262.173
257.335
252.151
246.669
240.891
234.782
228.32
221.513
214.384
206.965
199.281
191.354
183.212
174.888
166.422
157.857
149.231
140.585
131.956
123.385
114.912
106.583
98.439
90.521
82.861
75.491
68.441
61.741
55.42
49.508
44.03
39.009
34.468
30.427
26.904
23.917
21.476
19.592
18.273
17.523
17.345
17.74
18.707
20.239
22.329
24.966
28.138
31.828
36.021
40.695
45.831
51.405
57.396
63.779
70.529
77.621
85.028
92.724
100.682
108.874
117.272
125.848
134.573
143.421
152.363
161.373
170.424
179.492
188.55
197.576
206.545
215.437
224.228
232.898
241.426
249.795
257.987
265.986
273.778
281.352
288.695
295.799
302.653
309.25
315.581
321.641
327.422
332.919
338.128
343.045
347.666
351.992
356.02
359.751
363.185
366.322
369.163
371.706
373.953
375.901
377.55
378.898
379.944
380.691
381.14
381.294
381.159
380.74
380.045
379.081
377.853
376.365
374.618
372.611
370.343
367.81
365.014
361.955
358.636
355.061
351.24
347.183
342.9
338.397
333.674
328.724
323.548
318.155
312.563
306.801
300.908
294.938
288.945
282.992
277.124
271.376
265.756
260.255
254.856
249.54
244.305
239.175
234.167
229.294
224.555
219.941
215.415
210.918
206.376
201.698
196.823
191.732
186.454
181.073
175.701
170.478
165.513
160.878
156.641
152.855
149.578
146.87
144.816
143.518
143.107
143.741
145.536
148.56
152.807
158.199
164.605
171.842
179.754
188.209
197.094
206.317
215.793
225.438
235.158
244.852
254.385
263.585
272.308
280.437
287.91
294.723
300.917
306.576
311.769
316.555
320.974
325.042
328.763
332.135
335.15
337.796
340.086
342.059
343.751
345.194
346.397
347.347
348.011
348.339
348.287
347.816
346.897
345.52
343.682
341.395
338.678
335.561
332.067
328.211
324.009
319.469
314.61
309.454
304.028
298.36
292.481
286.424
280.218
273.891
267.467
260.966
254.403
247.792
241.144
234.473
227.793
221.119
214.466
207.847
201.279
194.776
188.351
182.016
175.779
169.651
163.637
157.744
151.976
146.339
140.836
135.468
130.237
125.145
120.191
115.375
110.696
106.151
101.737
97.453
93.294
89.257
85.34
81.539
77.851
74.274
70.806
67.445
64.188
61.033
57.978
55.02
52.157
49.385
46.702
44.108
41.6
39.178
36.842
34.593
32.432
30.361
28.381
26.496
24.708
23.021
21.44
19.969
18.613
17.378
16.27
15.295
14.459
13.768
13.229
12.847
12.628
12.578
12.705
13.014
13.51
14.198
15.081
16.165
17.454
18.951
20.657
22.575
24.707
27.053
29.614
32.392
35.382
38.582
41.984
45.579
49.362
53.325
57.462
61.764
66.222
70.818
75.542
80.393
85.37
90.472
95.682
100.966
106.3
111.681
117.093
122.487
127.769
132.85
137.678
142.256
146.621
150.737
154.614
158.431
162.345
166.384
170.556
174.69
178.982
184.372
191.207
198.619
204.155
204.428
197.591
185.379
173.105
165.937
167.36
177.056
190.264
203.899
215.12
221.582
223.746
220.059
210.926
199.829
189.244
182.597
180.58
180.326
180.186
178.766
175.991
173.615
171.893
170.474
169.294
167.917
166.347
164.888
163.407
161.685
159.866
158.07
156.376
154.915
153.622
152.394
151.27
150.287
149.431
148.694
148.049
147.452
146.922
146.472
146.099
145.802
145.561
145.353
145.167
144.986
144.796
144.582
144.328
144.017
143.633
143.158
142.58
141.883
141.053
140.076
138.937
137.622
136.124
134.436
132.552
130.469
128.184
125.695
123.004
120.115
117.031
113.76
110.309
106.687
102.904
98.971
94.903
90.713
86.416
82.029
77.568
73.051
68.496
63.919
59.337
54.766
50.221
45.713
41.257
36.862
32.537
28.29
24.13
20.066
16.105
12.255
8.521
4.907
1.416
-1.951
-5.201
-8.34
-11.384
-14.348
-17.249
-20.1
-22.92
-25.722
-28.524
-31.344
-34.192
-37.084
-40.04
-43.086
-46.258
-49.589
-53.088
-56.761
-60.601
-64.584
-68.696
-72.917
-77.211
-81.558
-85.954
-90.408
-94.966
-99.673
-104.548
-109.594
-114.783
-120.087
-125.514
-131.079
-136.798
-142.718
-148.877
-155.319
-162.134
-169.373
-177.022
-185.029
-193.261
-201.553
-209.796
-217.899
-225.8
-233.454
-240.777
-247.681
-254.1
-259.931
-265.072
-269.402
-272.734
-274.928
-275.94
-275.78
-274.557
-272.438
-269.532
-265.925
-261.706
-256.93
-251.672
-246.013
-239.991
-233.665
-227.117
-220.456
-213.849
-207.444
-201.305
-195.458
-189.862
-184.427
-179.106
-173.866
-168.661
-163.478
-158.305
-153.137
-148.008
-142.952
-137.978
-133.076
-128.206
-123.325
-118.429
-113.534
-108.673
-103.904
-99.266
-94.79
-90.519
-86.477
-82.678
-79.125
-75.8
-72.674
-69.732
-66.962
-64.357
-61.916
-59.626
-57.471
-55.43
-53.482
-51.603
-49.768
-47.951
-46.123
-44.263
-42.354
-40.382
-38.338
-36.211
-33.99
-31.665
-29.228
-26.669
-23.981
-21.157
-18.189
-15.075
-11.813
-8.405
-4.855
-1.17
2.644
6.574
10.611
14.74
18.946
23.212
27.521
31.851
36.183
40.494
44.76
48.957
53.061
57.043
60.879
64.542
68.006
71.243
74.23
76.941
79.352
81.439
83.182
84.56
85.552
86.141
86.311
86.047
85.337
84.171
82.542
80.445
77.877
74.838
71.331
67.361
62.935
58.063
52.758
47.035
40.91
34.405
27.54
20.34
12.831
5.04
-3.004
-11.271
-19.728
-28.343
-37.083
-45.916
-54.807
-63.722
-72.63
-81.496
-90.29
-98.981
-107.539
-115.936
-124.146
-132.144
-139.906
-147.413
-154.645
-161.586
-168.222
-174.542
-180.538
-186.202
-191.532
-196.528
-201.191
-205.527
-209.544
-213.251
-216.662
-219.792
-222.658
-225.28
-227.679
-229.877
-231.898
-233.769
-235.515
-237.161
-238.737
-240.267
-241.78
-243.301
-244.856
-246.471
-248.17
-249.976
-251.91
-253.994
-256.247
-258.685
-261.325
-264.18
-267.262
-270.579
-274.14
-277.947
-282.005
-286.312
-290.865
-295.66
-300.69
-305.944
-311.41
-317.075
-322.924
-328.938
-335.101
-341.391
-347.789
-354.273
-360.823
-367.416
-374.032
-380.648
-387.245
-393.803
-400.302
-406.724
-413.052
-419.27
-425.363
-431.319
-437.124
-442.769
-448.246
-453.548
-458.67
-463.61
-468.367
-472.944
-477.342
-481.569
-485.633
-489.544
-493.312
-496.954
-500.482
-503.913
-507.267
-510.563
-513.82
-517.06
-520.302
-523.564
-526.868
-530.237
-533.683
-537.218
-540.855
-544.603
-548.481
-552.512
-556.699
-561.04
-565.566
-570.298
-575.253
-580.453
-585.881
-591.5
-597.326
-603.385
-609.579
-615.794
-622.079
-628.412
-634.756
-641.316
-647.466
-652.594
-657.518
-662.466
-668.956
-678.808
-689.951
-700.993
-709.876
-713.785
-715.16
-716.066
-717.911
-723.039
-729.735
-736.261
-742.217
-746.538
-749.815
-752.813
-755.37
-757.573
-759.362
-760.569
-761.291
-761.608
-761.49
-760.93
-759.94
-758.522
-756.675
-754.405
-751.705
-748.57
-745.019
-741.076
-736.753
-732.068
-727.04
-721.685
-716.028
-710.09
-703.891
-697.451
-690.792
-683.934
-676.899
-669.707
-662.38
-654.937
-647.397
-639.781
-632.107
-624.393
-616.656
-608.915
-601.185
-593.48
-585.816
-578.206
-570.661
-563.193
-555.812
-548.525
-541.34
-534.261
-527.294
-520.439
-513.699
-507.073
-500.558
-494.153
-487.852
-481.651
-475.542
-469.519
-463.572
-457.693
-451.871
-446.095
-440.353
-434.632
-428.918
-423.198
-417.457
-411.678
-405.847
-399.946
-393.958
-387.868
-381.656
-375.305
-368.799
-362.119
-355.249
-348.173
-340.873
-333.336
-325.548
-317.496
-309.168
-300.555
-291.646
-282.434
-272.913
-263.077
-252.923
-242.449
-231.652
-220.535
-209.1
-197.351
-185.293
-172.933
-160.28
-147.343
-134.134
-120.665
-106.95
-93.003
-78.84
-64.48
-49.939
-35.239
-20.399
-5.441
9.613
24.74
39.919
55.129
70.347
85.554
100.729
115.856
130.914
145.888
160.762
175.519
190.146
204.628
218.955
233.117
247.104
260.91
274.531
287.96
301.196
314.238
327.084
339.735
352.191
364.454
376.527
388.416
400.127
411.667
423.044
434.271
445.358
456.319
467.165
477.906
488.552
499.11
509.587
519.987
530.31
540.555
550.723
560.814
570.832
580.778
590.655
600.462
610.201
619.868
629.457
638.96
648.36
657.637
666.772
675.751
684.559
693.195
701.64
709.869
717.856
725.562
732.938
739.922
746.431
752.375
757.69
762.323
766.241
769.441
771.91
773.644
774.651
774.912
774.412
773.151
771.107
768.276
764.689
760.397
755.496
750.11
744.304
738.111
731.539
724.526
717.006
708.882
700.012
690.292
679.646
667.994
655.306
641.548
626.641
610.494
592.977
573.921
553.233
530.866
506.8
481.112
453.914
425.367
395.724
365.203
333.984
302.241
270.099
237.679
205.146
172.663
140.413
108.624
77.476
47.119
17.697
-10.722
-38.105
-64.453
-89.844
-114.336
-137.945
-160.671
-182.483
-203.335
-223.206
-242.069
-259.899
-276.705
-292.486
-307.231
-320.939
-333.571
-345.079
-355.413
-364.488
-372.242
-378.652
-383.716
-387.472
-389.983
-391.287
-391.423
-390.43
-388.308
-385.068
-380.713
-375.232
-368.649
-360.995
-352.292
-342.591
-331.933
-320.322
-307.747
-294.152
-279.453
-263.631
-246.695
-228.682
-209.697
-189.86
-169.318
-148.275
-126.895
-105.322
-83.703
-62.141
-40.742
-19.66
0.942
20.859
39.848
57.745
74.43
89.815
103.902
116.729
128.383
139.039
148.841
157.893
166.292
174.089
181.326
188.095
194.491
200.626
206.664
212.717
218.874
225.219
231.767
238.498
245.356
252.215
258.964
265.544
271.911
278.055
283.991
289.707
295.207
300.501
305.567
310.396
314.984
319.318
323.411
327.302
331.045
334.727
338.433
342.227
346.162
350.282
354.615
359.191
364.027
369.127
374.5
380.16
386.112
392.378
398.971
405.903
413.19
420.834
428.825
437.149
445.782
454.686
463.815
473.119
482.544
492.054
501.625
511.249
520.936
530.698
540.551
550.487
560.477
570.492
580.51
590.52
600.521
610.541
620.626
630.837
641.254
651.92
662.842
673.972
685.21
696.427
707.466
718.197
728.528
738.372
747.651
756.285
764.191
771.262
777.369
782.361
786.053
788.307
789.032
788.212
785.902
782.209
777.295
771.296
764.323
756.471
747.815
738.422
728.36
717.705
706.545
695
683.229
671.363
659.508
647.716
635.984
624.27
612.486
600.563
588.444
576.093
563.502
550.674
537.622
524.369
510.941
497.34
483.549
469.553
455.342
440.931
426.359
411.684
396.983
382.328
367.787
353.418
339.265
325.36
311.726
298.377
285.317
272.559
260.122
248.027
236.299
224.954
214.004
203.456
193.313
183.573
174.236
165.297
156.756
148.612
140.866
133.522
126.585
120.055
113.934
108.219
102.902
97.976
93.433
89.26
85.446
81.977
78.84
76.023
73.513
71.297
69.36
67.687
66.265
65.077
64.109
63.344
62.768
62.364
62.118
62.014
62.038
62.177
62.417
62.746
63.153
63.625
64.153
64.726
65.336
65.973
66.63
67.3
67.977
68.655
69.329
69.995
70.651
71.292
71.916
72.52
73.102
73.659
74.188
74.688
75.156
75.589
75.986
76.345
76.662
76.935
77.162
77.34
77.465
77.532
77.54
77.482
77.355
77.153
76.872
76.505
76.048
75.494
74.837
74.072
73.193
72.195
71.071
69.818
68.431
66.905
65.238
63.427
61.469
59.364
57.109
54.706
52.153
49.454
46.609
43.622
40.496
37.235
33.843
30.326
26.69
22.94
19.084
15.129
11.082
6.952
2.746
-1.526
-5.857
-10.236
-14.655
-19.105
-23.579
-28.066
-32.561
-37.055
-41.541
-46.014
-50.467
-54.896
-59.296
-63.664
-67.997
-72.294
-76.554
-80.777
-84.964
-89.116
-93.236
-97.326
-101.391
-105.434
-109.459
-113.472
-117.478
-121.482
-125.491
-129.51
-133.545
-137.604
-141.69
-145.812
-149.975
-154.184
-158.445
-162.763
-167.142
-171.588
-176.104
-180.692
-185.357
-190.098
-194.916
-199.811
-204.782
-209.825
-214.937
-220.113
-225.347
-230.633
-235.962
-241.325
-246.712
-252.112
-257.511
-262.896
-268.254
-273.57
-278.829
-284.016
-289.116
-294.115
-298.996
-303.745
-308.345
-312.78
-317.032
-321.088
-324.932
-328.553
-331.938
-335.076
-337.956
-340.57
-342.907
-344.954
-346.703
-348.14
-349.258
-350.052
-350.514
-350.639
-350.436
-349.907
-349.055
-347.88
-346.368
-344.501
-342.289
-339.748
-336.865
-333.624
-330.02
-326.047
-321.743
-317.178
-312.358
-307.244
-301.943
-296.613
-291.269
-286.031
-281.001
-275.969
-271.504
-268.193
-265.197
-262.143
-257.595
-249.85
-240.776
-231.901
-224.835
-221.352
-219.755
-219.088
-219.689
-222.441
-228.085
-234.55
-238.378
-234.914
-222.734
-205.279
-185.992
-168.758
-155.162
-143.112
-131.892
-122.052
-114.522
-111.066
-112.516
-118.574
-128.428
-141.052
-154.943
-168.031
-178.935
-186.89
-191.275
-191.867
-188.658
-181.756
-172.108
-161.418
-150.779
-140.809
-132.06
-124.904
-119.852
-117.315
-116.942
-117.789
-119.196
-120.789
-122.36
-123.871
-125.039
-125.562
-125.537
-125.334
-125.284
-125.629
-126.377
-127.352
-128.513
-129.864
-131.37
-132.995
-134.647
-136.255
-137.843
-139.473
-141.222
-143.132
-145.137
-147.154
-149.122
-150.967
-152.744
-154.501
-156.143
-157.711
-159.34
-161.151
-163.385
-166.088
-168.949
-171.834
-174.806
-177.66
-180.139
-181.859
-182.121
-180.755
-178.174
-174.631
-170.39
-166.052
-162.281
-160.01
-160.529
-164.515
-172.068
-183.093
-197.091
-213.131
-230.048
-246.502
-261.039
-272.533
-280.143
-283.516
-282.908
-279.096
-273.361
-266.931
-260.827
-256.087
-253.714
-254.166
-257.404
-262.844
-269.273
-275.783
-281.9
-287.105
-290.956
-293.551
-295.388
-297.522
-301.547
-308.471
-318.657
-332.122
-348.515
-367.049
-386.419
-404.725
-419.704
-429.645
-433.393
-430.574
-421.389
-406.182
-386.035
-362.616
-337.789
-313.517
-291.791
-273.833
-260.449
-252.531
-250.09
-252.618
-259.504
-269.408
-280.504
-291.467
-301.104
-308.156
-312.149
-312.99
-310.698
-305.958
-299.806
-292.903
-285.835
-279.174
-273.073
-267.527
-262.463
-257.537
-252.358
-246.82
-240.945
-234.761
-228.394
-221.933
-215.441
-209.052
-202.887
-196.971
-191.275
-185.764
-180.405
-175.23
-170.319
-165.719
-161.447
-157.5
-153.84
-150.447
-147.32
-144.441
-141.784
-139.334
-137.09
-135.071
-133.32
-131.864
-130.714
-129.872
-129.327
-129.067
-129.087
-129.375
-129.924
-130.724
-131.764
-133.037
-134.536
-136.248
-138.157
-140.24
-142.467
-144.808
-147.236
-149.722
-152.238
-154.754
-157.242
-159.675
-162.027
-164.271
-166.381
-168.328
-170.087
-171.629
-172.93
-173.966
-174.713
-175.151
-175.26
-175.022
-174.425
-173.454
-172.1
-170.356
-168.219
-165.687
-162.759
-159.439
-155.732
-151.647
-147.194
-142.386
-137.239
-131.771
-126.002
-119.954
-113.652
-107.123
-100.392
-93.488
-86.439
-79.275
-72.026
-64.724
-57.4
-50.086
-42.811
-35.609
-28.509
-21.542
-14.735
-8.117
-1.712
4.455
10.361
15.988
21.316
26.33
31.015
35.359
39.354
42.992
46.27
49.185
51.738
53.931
55.771
57.264
58.419
59.249
59.765
59.984
59.919
59.589
59.012
58.208
57.196
55.998
54.636
53.13
51.503
49.776
47.971
46.109
44.21
42.294
40.381
38.488
36.633
34.831
33.099
31.45
29.896
28.449
27.119
25.913
24.839
23.903
23.109
22.46
21.96
21.609
21.409
21.36
21.46
21.71
22.108
22.651
23.339
24.169
25.139
26.249
27.497
28.882
30.403
32.063
33.86
35.796
37.874
40.095
42.464
44.982
47.655
50.488
53.484
56.651
59.994
63.52
67.234
71.144
75.256
79.577
84.112
88.866
93.845
99.051
104.488
110.156
116.058
122.191
128.553
135.141
141.951
148.977
156.21
163.64
171.255
179.039
186.979
195.056
203.254
211.55
219.923
228.353
236.816
245.29
253.751
262.173
270.527
278.785
286.918
294.903
302.718
310.338
317.74
324.904
331.806
338.43
344.761
350.779
356.465
361.803
366.773
371.372
375.593
379.437
382.912
386.004
388.703
391.002
392.887
394.381
395.512
396.285
396.719
396.825
396.591
396.096
395.432
394.512
393.294
391.715
389.669
387.328
384.925
382.41
379.765
377.253
375.013
373.366
372.712
372.694
372.893
373.323
373.888
374.322
374.537
374.059
372.339
369.856
367.102
364.167
361.305
358.657
356.212
354.393
353.648
353.611
353.939
354.498
355.015
355.478
355.946
356.178
355.95
355.385
354.574
353.573
352.5
351.286
349.848
348.222
346.423
344.424
342.216
339.771
337.052
334.085
330.889
327.475
323.861
320.048
316.038
311.845
307.482
302.964
298.311
293.54
288.67
283.721
278.713
273.671
268.618
263.576
258.568
253.615
248.74
243.967
239.321
234.826
230.502
226.369
222.443
218.742
215.28
212.068
209.117
206.435
204.026
201.894
200.04
198.464
197.162
196.128
195.354
194.831
194.547
194.489
194.643
194.991
195.516
196.2
197.023
197.964
199.003
200.118
201.287
202.49
203.704
204.91
206.086
207.215
208.277
209.256
210.136
210.903
211.544
212.048
212.407
212.612
212.658
212.541
212.261
211.815
211.207
210.439
209.517
208.445
207.233
205.888
204.42
202.84
201.16
199.39
197.542
195.63
193.663
191.655
189.616
187.556
185.485
183.411
181.343
179.286
177.246
175.226
173.229
171.257
169.309
167.383
165.476
163.583
161.698
159.813
157.92
156.008
154.067
152.083
150.044
147.935
145.742
143.45
141.044
138.508
135.826
132.985
129.969
126.767
123.365
119.753
115.922
111.863
107.571
103.041
98.271
93.261
88.013
82.529
76.817
70.883
64.737
58.391
51.86
45.158
38.303
31.315
24.215
17.025
9.769
2.473
-4.836
-12.131
-19.383
-26.562
-33.638
-40.582
-47.362
-53.95
-60.314
-66.427
-72.261
-77.79
-82.988
-87.833
-92.303
-96.38
-100.046
-103.287
-106.091
-108.447
-110.349
-111.791
-112.772
-113.292
-113.355
-112.965
-112.132
-110.867
-109.183
-107.096
-104.625
-101.791
-98.619
-95.133
-91.362
-87.338
-83.091
-78.657
-74.072
-69.372
-64.596
-59.783
-54.974
-50.207
-45.522
-40.961
-36.561
-32.361
-28.4
-24.713
-21.335
-18.301
-15.641
-13.388
-11.567
-10.207
-9.33
-8.959
-9.113
-9.807
-11.058
-12.875
-15.267
-18.24
-21.796
-25.933
-30.648
-35.933
-41.778
-48.167
-55.083
-62.506
-70.413
-78.776
-87.567
-96.753
-106.302
-116.176
-126.338
-136.748
-147.367
-158.151
-169.057
-180.043
-191.064
-202.076
-213.034
-223.894
-234.612
-245.144
-255.448
-265.482
-275.206
-284.578
-293.563
-302.125
-310.229
-317.844
-324.941
-331.495
-337.483
-342.885
-347.683
-351.866
-355.424
-358.349
-360.64
-362.297
-363.324
-363.729
-363.521
-362.715
-361.326
-359.374
-356.88
-353.868
-350.364
-346.396
-341.995
-337.191
-332.019
-326.511
-320.704
-314.634
-308.337
-301.852
-295.214
-288.461
-281.63
-274.758
-267.878
-261.025
-254.232
-247.529
-240.945
-234.507
-228.239
-222.163
-216.299
-210.662
-205.269
-200.13
-195.254
-190.648
-186.315
-182.257
-178.473
-174.96
-171.712
-168.722
-165.982
-163.478
-161.201
-159.134
-157.264
-155.573
-154.045
-152.662
-151.406
-150.257
-149.196
-148.206
-147.268
-146.363
-145.474
-144.585
-143.681
-142.747
-141.771
-140.74
-139.645
-138.477
-137.229
-135.895
-134.471
-132.955
-131.346
-129.643
-127.847
-125.963
-123.993
-121.943
-119.818
-117.626
-115.373
-113.067
-110.717
-108.332
-105.919
-103.489
-101.049
-98.608
-96.174
-93.755
-91.356
-88.985
-86.646
-84.344
-82.081
-79.861
-77.683
-75.549
-73.457
-71.407
-69.395
-67.419
-65.476
-63.56
-61.669
-59.796
-57.938
-56.089
-54.245
-52.399
-50.547
-48.684
-46.804
-44.903
-42.977
-41.022
-39.033
-37.008
-34.945
-32.841
-30.696
-28.508
-26.278
-24.008
-21.699
-19.355
-16.978
-14.575
-12.149
-9.707
-7.256
-4.8
-2.347
0.097
2.528
4.941
7.332
9.698
12.039
14.355
16.647
18.917
21.168
23.405
25.633
27.858
30.088
32.329
34.59
36.881
39.212
41.594
44.038
46.556
49.157
51.855
54.662
57.588
60.645
63.844
67.196
70.711
74.401
78.276
82.343
86.603
91.058
95.703
100.532
105.534
110.695
115.998
121.423
126.949
132.556
138.221
143.919
149.622
155.296
160.906
166.417
171.797
177.016
182.045
186.847
191.382
195.606
199.477
202.945
205.967
208.488
210.447
211.781
212.43
212.345
211.485
209.806
207.246
203.721
199.166
193.567
186.95
179.384
170.933
161.611
151.45
140.556
128.967
116.66
103.539
89.314
73.732
56.839
38.724
19.526
-0.291
-20.252
-39.819
-58.05
-74.209
-88.175
-99.924
-109.828
-119.085
-128.883
-140.508
-155.639
-175.403
-200.184
-230.304
-265.368
-303.743
-343.558
-382.602
-418.521
-449.772
-475.287
-493.92
-505.09
-509.28
-507.591
-501.744
-493.346
-483.312
-472.418
-461.61
-451.802
-443.486
-436.517
-430.191
-424.007
-417.884
-411.874
-406.028
-400.177
-394.149
-388.068
-382.299
-377.114
-372.596
-368.633
-364.949
-361.369
-357.754
-353.955
-349.869
-345.385
-340.439
-335.054
-329.322
-323.381
-317.439
-311.699
-306.295
-301.388
-297.134
-293.721
-291.451
-290.589
-291.339
-293.857
-298.196
-304.388
-312.492
-322.527
-334.418
-348.045
-363.202
-379.662
-397.33
-416.091
-435.797
-456.279
-477.238
-498.382
-519.495
-540.381
-560.854
-580.721
-599.722
-617.59
-634.182
-649.382
-663.119
-675.344
-685.88
-694.568
-701.318
-706.064
-708.829
-709.662
-708.562
-705.536
-700.661
-694.05
-685.891
-676.418
-665.767
-654.053
-641.39
-627.882
-613.716
-599.071
-584.06
-568.774
-553.279
-537.624
-521.888
-506.145
-490.397
-474.621
-458.757
-442.705
-426.43
-409.923
-393.166
-376.152
-358.853
-341.25
-323.365
-305.243
-286.925
-268.451
-249.851
-231.154
-212.422
-193.731
-175.161
-156.805
-138.73
-120.985
-103.622
-86.682
-70.201
-54.208
-38.711
-23.703
-9.186
4.841
18.377
31.418
43.975
56.061
67.691
78.88
89.644
99.996
109.95
119.523
128.726
137.571
146.069
154.229
162.06
169.578
176.796
183.732
190.401
196.82
203.006
208.977
214.749
220.338
225.759
231.024
236.147
241.138
246.008
250.767
255.422
259.981
264.449
268.832
273.134
277.356
281.502
285.571
289.565
293.482
297.321
301.082
304.761
308.358
311.869
315.292
318.622
321.855
324.987
328.014
330.929
333.729
336.406
338.956
341.373
343.652
345.787
347.774
349.61
351.29
352.811
354.17
355.367
356.399
357.268
357.973
358.516
358.901
359.132
359.212
359.148
358.947
358.615
358.161
357.594
356.922
356.156
355.306
354.384
353.399
352.365
351.294
350.198
349.09
347.983
346.891
345.827
344.805
343.839
342.942
342.13
341.416
340.815
340.341
340.006
339.826
339.811
339.975
340.329
340.882
341.646
342.629
343.838
345.282
346.965
348.894
351.074
353.507
356.193
359.134
362.33
365.781
369.486
373.442
377.641
382.087
386.777
391.711
396.886
402.289
407.901
413.718
419.737
425.926
432.255
438.697
445.216
451.812
458.498
465.237
471.978
478.781
485.723
492.723
499.765
506.844
513.732
520.962
529.052
537.209
545.176
551.514
554.503
556.003
557.242
560.064
567.006
575.784
584.455
591.686
595.282
596.782
597.743
598.5
599.999
601.669
602.78
603.458
603.601
603.246
602.531
601.356
599.639
597.403
594.652
591.378
587.585
583.283
578.479
573.191
567.439
561.221
554.539
547.4
539.81
531.777
523.311
514.422
505.124
495.432
485.361
474.927
464.145
453.035
441.612
429.889
417.877
405.588
393.038
380.243
367.225
354.004
340.6
327.034
313.331
299.519
285.62
271.649
257.611
243.502
229.337
215.148
200.978
186.867
172.851
158.971
145.279
131.838
118.693
105.864
93.339
81.099
69.146
57.499
46.209
35.325
24.874
14.861
5.275
-3.881
-12.613
-20.949
-28.969
-36.782
-44.449
-51.966
-59.249
-66.2
-72.745
-78.824
-84.403
-89.426
-93.832
-97.565
-100.58
-102.854
-104.343
-104.964
-104.552
-102.906
-99.886
-95.438
-89.624
-82.538
-74.281
-64.976
-54.769
-43.863
-32.445
-20.656
-8.604
3.634
15.948
28.185
40.117
51.483
62.061
71.671
80.235
87.709
94.087
99.423
103.825
107.479
110.539
113.102
115.219
116.907
118.206
119.176
119.917
120.538
121.148
121.867
122.767
123.904
125.29
126.882
128.588
130.262
131.785
133.074
134.085
134.805
135.218
135.315
135.088
134.539
133.656
132.407
130.765
128.708
126.237
123.386
120.211
116.791
113.197
109.49
105.717
101.911
98.1
94.299
90.516
86.747
82.998
79.284
75.625
72.042
68.552
65.163
61.879
58.699
55.624
52.647
49.766
46.976
44.278
41.673
39.165
36.761
34.466
32.283
30.21
28.248
26.392
24.639
22.984
21.421
19.946
18.555
17.247
16.019
14.872
13.806
12.821
11.919
11.102
10.372
9.731
9.18
8.724
8.366
8.11
7.961
7.924
8.006
8.214
8.554
9.035
9.663
10.448
11.396
12.515
13.812
15.297
16.976
18.857
20.947
23.254
25.784
28.542
31.532
34.756
38.215
41.909
45.835
49.988
54.364
58.954
63.75
68.742
73.917
79.264
84.765
90.406
96.169
102.034
107.981
113.989
120.034
126.094
132.145
138.16
144.115
149.983
155.738
161.353
166.802
172.058
177.095
181.888
186.41
190.64
194.552
198.128
201.345
204.187
206.637
208.681
210.306
211.502
212.26
212.575
212.443
211.861
210.829
209.351
207.43
205.072
202.287
199.083
195.473
191.471
187.091
182.35
177.266
171.857
166.144
160.148
153.89
147.393
140.679
133.773
126.697
119.475
112.131
104.688
97.168
89.594
81.987
74.368
66.756
59.17
51.629
44.148
36.743
29.429
22.219
15.125
8.157
1.326
-5.362
-11.897
-18.274
-24.489
-30.536
-36.413
-42.116
-47.645
-52.997
-58.172
-63.171
-67.993
-72.639
-77.111
-81.411
-85.539
-89.499
-93.292
-96.922
-100.389
-103.697
-106.848
-109.844
-112.689
-115.383
-117.93
-120.331
-122.588
-124.704
-126.68
-128.517
-130.217
-131.78
-133.209
-134.502
-135.661
-136.687
-137.58
-138.341
-138.971
-139.472
-139.844
-140.089
-140.21
-140.209
-140.087
-139.849
-139.496
-139.033
-138.464
-137.792
-137.021
-136.156
-135.203
-134.164
-133.046
-131.854
-130.592
-129.265
-127.88
-126.441
-124.955
-123.428
-121.865
-120.273
-118.659
-117.029
-115.39
-113.75
-112.117
-110.497
-108.9
-107.331
-105.801
-104.318
-102.889
-101.521
-100.222
-98.998
-97.859
-96.814
-95.874
-95.047
-94.341
-93.764
-93.324
-93.032
-92.896
-92.92
-93.11
-93.47
-94.006
-94.726
-95.642
-96.757
-98.07
-99.577
-101.277
-103.168
-105.255
-107.54
-110.022
-112.701
-115.574
-118.63
-121.874
-125.308
-128.938
-132.77
-136.793
-140.997
-145.431
-150.188
-155.346
-160.939
-166.932
-173.237
-179.802
-186.632
-193.655
-200.628
-207.377
-213.938
-220.389
-227.091
-233.992
-240.239
-245.941
-251.818
-259.374
-271.289
-287.422
-305.135
-320.768
-328.839
-326.626
-314.786
-295.573
-275.03
-260.017
-255.071
-262.272
-278.806
-298.344
-316.088
-329.988
-340.806
-351.512
-363.393
-375.424
-386.088
-393.347
-395.826
-393.596
-387.161
-377.44
-365.972
-354.067
-342.55
-332.292
-324.109
-318.328
-315.034
-313.847
-313.758
-314.015
-314.218
-313.967
-312.965
-310.972
-307.767
-303.567
-298.839
-293.844
-288.902
-283.56
-277.265
-270.796
-264.455
-259.647
-257.983
-257.536
-257.009
-254.549
-247.703
-238.812
-229.828
-222.051
-217.717
-215.562
-214.307
-213.743
-212.853
-211.936
-212.06
-214.062
-218.393
-224.307
-228.835
-228.115
-220.569
-207.496
-193.618
-185.263
-186.339
-198.027
-218.285
-242.595
-265.688
-281.551
-286.995
-282.833
-273.075
-264.751
-260.954
-259.501
-257.808
-253.173
-248.068
-250.022
-262.505
-285.2
-313.454
-338.525
-356.069
-365.201
-367.139
-366.801
-367.076
-369.546
-375.458
-382.869
-390.527
-398.082
-404.805
-411.631
-419.165
-426.976
-435.004
-442.987
-450.703
-458.398
-466.211
-474.095
-482.082
-490.217
-498.528
-507.08
-515.896
-524.935
-534.168
-543.592
-553.217
-563.065
-573.153
-583.49
-594.08
-604.925
-616.029
-627.392
-639.013
-650.889
-663.014
-675.377
-687.97
-700.781
-713.795
-727
-740.373
-753.885
-767.508
-781.211
-794.96
-808.723
-822.463
-836.14
-849.714
-863.146
-876.398
-889.43
-902.201
-914.668
-926.793
-938.537
-949.867
-960.747
-971.139
-981.006
-990.316
-999.038
-1007.148
-1014.618
-1021.411
-1027.494
-1032.831
-1037.393
-1041.167
-1044.142
-1046.307
-1047.658
-1048.195
-1047.925
-1046.873
-1045.064
-1042.514
-1039.237
-1035.238
-1030.547
-1025.22
-1019.331
-1012.969
-1006.19
-999.013
-991.427
-983.4
-974.911
-965.97
-956.542
-946.518
-935.875
-924.652
-913.024
-901.376
-889.865
-878.357
-866.717
-854.763
-842.217
-828.912
-814.366
-797.541
-777.975
-755.787
-731.24
-705.209
-678.693
-652.214
-626.993
-605.206
-588.098
-576.528
-570.589
-568.345
-568.835
-572.229
-578.578
-588.594
-600.134
-608.112
-607.42
-592.878
-564.495
-527.154
-485.715
-446.06
-410.208
-376.047
-342.975
-310.127
-277.347
-246.188
-216.6
-187.531
-158.569
-129.228
-99.22
-68.964
-38.775
-8.886
20.029
47.23
72.236
94.747
114.641
131.999
146.888
159.284
169.212
176.757
182.045
185.283
186.739
186.698
185.429
183.256
180.553
177.69
175.062
172.957
171.55
170.987
171.382
172.884
175.711
180.027
185.9
193.322
202.185
212.326
223.618
235.87
248.816
262.163
275.568
288.765
301.604
313.949
325.68
336.642
346.626
355.471
363.097
369.459
374.564
378.446
381.118
382.654
383.195
382.909
382.005
380.639
378.894
376.846
374.572
372.16
369.729
367.365
365.112
363.014
361.114
359.454
358.089
357.039
356.29
355.818
355.59
355.595
355.853
356.387
357.22
358.374
359.871
361.743
364.035
366.783
370.01
373.732
377.957
382.701
387.986
393.831
400.247
407.239
414.803
422.932
431.612
440.822
450.536
460.718
471.327
482.323
493.664
505.308
517.209
529.321
541.594
553.976
566.417
578.864
591.264
603.56
615.698
627.623
639.283
650.627
661.605
672.171
682.28
691.893
700.971
709.48
717.388
724.667
731.293
737.246
742.509
747.07
750.922
754.061
756.489
758.21
759.233
759.57
759.237
758.252
756.636
754.412
751.607
748.25
744.369
739.997
735.167
729.916
724.277
718.287
711.981
705.395
698.563
691.517
684.289
676.909
669.406
661.806
654.135
646.415
638.668
630.915
623.172
615.455
607.776
600.145
592.57
585.057
577.61
570.23
562.918
555.673
548.494
541.378
534.32
527.316
520.359
513.441
506.556
499.699
492.86
486.035
479.216
472.402
465.589
458.779
451.972
445.171
438.381
431.612
424.872
418.171
411.521
404.929
398.406
391.964
385.617
379.376
373.258
367.282
361.47
355.847
350.442
345.278
340.381
335.773
331.469
327.489
323.844
320.545
317.615
315.074
312.947
311.274
310.072
309.341
309.079
309.257
309.844
310.816
312.124
313.719
315.572
317.669
320.032
322.693
325.636
328.821
332.18
335.64
339.199
342.865
346.632
350.509
354.47
358.542
362.898
367.578
372.413
377.211
381.653
385.579
389.248
392.731
395.85
398.797
401.907
405.538
410.352
416.314
422.502
428.401
433.788
438.088
440.829
441.408
438.814
433.144
425.563
416.77
407.221
397.413
387.575
378.265
370.496
364.419
359.382
354.991
350.979
347.268
344.059
341.246
338.368
335.274
332.181
329.276
326.758
324.691
322.932
321.44
320.307
319.591
319.29
319.374
319.758
320.367
321.218
322.342
323.776
325.569
327.739
330.288
333.24
336.619
340.439
344.707
349.404
354.491
359.94
365.733
371.861
378.319
385.092
392.157
399.491
407.07
414.877
422.895
431.102
439.471
447.978
456.601
465.326
474.143
483.039
491.999
501.006
510.045
519.099
528.154
537.191
546.189
555.125
563.978
572.728
581.354
589.835
598.147
606.267
614.172
621.843
629.259
636.395
643.23
649.74
655.902
661.696
667.099
672.082
676.618
680.683
684.251
687.304
689.82
691.778
693.157
693.938
694.107
693.659
692.578
690.842
688.435
685.334
681.538
677.069
671.939
666.158
659.74
652.701
645.069
636.887
628.17
618.912
609.108
598.745
587.84
576.441
564.586
552.319
539.662
526.598
513.139
499.319
485.148
470.626
455.742
440.454
424.793
408.868
392.774
376.608
360.432
344.257
328.114
312.048
296.111
280.378
264.896
249.674
234.768
220.259
206.237
192.824
180.04
167.796
156.029
144.682
133.72
123.16
112.986
103.152
93.631
84.403
75.458
66.819
58.457
50.303
42.292
34.335
26.42
18.62
10.983
3.543
-3.674
-10.67
-17.427
-23.896
-30.062
-35.936
-41.528
-46.861
-51.929
-56.695
-61.13
-65.2
-68.902
-72.27
-75.326
-78.081
-80.55
-82.74
-84.669
-86.37
-87.853
-89.112
-90.144
-90.946
-91.527
-91.907
-92.106
-92.138
-92.018
-91.757
-91.369
-90.873
-90.286
-89.621
-88.896
-88.122
-87.318
-86.51
-85.719
-84.968
-84.276
-83.662
-83.144
-82.741
-82.469
-82.34
-82.367
-82.559
-82.927
-83.481
-84.227
-85.172
-86.319
-87.671
-89.23
-90.995
-92.965
-95.135
-97.501
-100.055
-102.788
-105.693
-108.756
-111.968
-115.314
-118.782
-122.357
-126.026
-129.774
-133.584
-137.443
-141.336
-145.249
-149.169
-153.082
-156.979
-160.849
-164.686
-168.482
-172.233
-175.934
-179.583
-183.178
-186.717
-190.201
-193.632
-197.011
-200.342
-203.628
-206.875
-210.09
-213.279
-216.45
-219.609
-222.765
-225.925
-229.096
-232.285
-235.498
-238.741
-242.019
-245.338
-248.702
-252.114
-255.576
-259.088
-262.648
-266.252
-269.891
-273.555
-277.233
-280.913
-284.581
-288.223
-291.825
-295.374
-298.857
-302.263
-305.579
-308.787
-311.868
-314.805
-317.578
-320.168
-322.556
-324.72
-326.641
-328.296
-329.672
-330.76
-331.549
-332.03
-332.183
-331.988
-331.432
-330.524
-329.278
-327.709
-325.837
-323.683
-321.29
-318.725
-316.06
-313.361
-310.681
-308.06
-305.534
-303.143
-300.94
-298.983
-297.29
-295.844
-294.606
-293.55
-292.671
-291.979
-291.446
-290.971
-290.421
-289.66
-288.593
-287.175
-285.399
-283.236
-280.584
-277.441
-274.004
-270.658
-267.869
-265.923
-264.77
-264.307
-264.701
-266.076
-268.386
-271.301
-274.213
-276.91
-279.865
-283.815
-289.338
-297.085
-307.715
-322.013
-341.085
-365.549
-395.298
-429.706
-467.764
-508.009
-548.762
-588.413
-625.148
-657.416
-684.043
-704.246
-717.899
-725.674
-728.783
-728.216
-724.896
-719.633
-713.114
-706.119
-699.111
-691.918
-683.926
-674.755
-664.303
-652.687
-640.166
-626.717
-612.286
-597.064
-581.42
-565.691
-550.045
-534.477
-518.863
-503.156
-487.376
-471.508
-455.52
-439.352
-422.973
-406.4
-389.732
-373.161
-356.919
-341.277
-326.461
-312.671
-300.139
-289.079
-279.703
-272.203
-266.691
-263.255
-261.997
-262.987
-266.23
-271.667
-279.087
-288.184
-298.646
-310.116
-322.267
-334.781
-347.28
-359.44
-371.003
-381.731
-391.449
-399.973
-407.047
-412.468
-416.127
-417.988
-418.155
-416.794
-414.045
-410.106
-405.199
-399.565
-393.513
-387.281
-381.011
-374.83
-368.843
-363.184
-358.056
-353.619
-349.953
-347.104
-345.053
-343.762
-343.22
-343.359
-344.063
-345.193
-346.573
-348.081
-349.669
-351.297
-352.931
-354.519
-355.982
-357.269
-358.377
-359.299
-360.033
-360.579
-360.92
-361.075
-361.094
-361.038
-360.971
-360.937
-360.946
-361.008
-361.128
-361.311
-361.558
-361.859
-362.185
-362.515
-362.838
-363.141
-363.416
-363.644
-363.796
-363.842
-363.754
-363.509
-363.086
-362.465
-361.624
-360.548
-359.223
-357.635
-355.777
-353.639
-351.208
-348.474
-345.426
-342.056
-338.362
-334.34
-329.989
-325.305
-320.285
-314.922
-309.215
-303.158
-296.748
-289.978
-282.844
-275.344
-267.483
-259.272
-250.723
-241.845
-232.642
-223.112
-213.263
-203.116
-192.695
-182.026
-171.138
-160.069
-148.874
-137.63
-126.413
-115.279
-104.257
-93.356
-82.592
-71.98
-61.546
-51.308
-41.251
-31.349
-21.582
-11.94
-2.413
7.033
16.475
26.028
35.793
45.817
56.091
66.572
77.232
88.035
98.942
109.882
120.705
131.259
141.42
151.069
160.094
168.339
175.581
181.571
186.111
189.07
190.398
190.079
188.069
184.353
178.925
171.834
163.252
153.348
142.264
130.172
117.251
103.741
89.985
76.312
62.977
50.19
38.089
26.79
16.462
7.242
-0.747
-7.404
-12.744
-16.784
-19.518
-21.003
-21.322
-20.619
-19.145
-17.115
-14.665
-11.917
-8.941
-5.8
-2.608
0.542
3.57
6.379
8.927
11.181
13.081
14.631
15.86
16.837
17.7
18.562
19.471
20.47
21.573
22.782
24.125
25.615
27.246
29.039
31.008
33.158
35.516
38.074
40.805
43.671
46.603
49.541
52.455
55.322
58.126
60.869
63.546
66.162
68.739
71.286
73.807
76.309
78.789
81.252
83.714
86.19
88.701
91.269
93.912
96.644
99.48
102.426
105.49
108.674
111.973
115.383
118.905
122.535
126.273
130.117
134.062
138.105
142.24
146.459
150.753
155.111
159.518
163.961
168.424
172.894
177.352
181.782
186.168
190.491
194.735
198.881
202.911
206.806
210.549
214.123
217.511
220.696
223.663
226.398
228.889
231.122
233.089
234.78
236.186
237.3
238.115
238.627
238.831
238.724
238.304
237.57
236.521
235.161
233.492
231.517
229.241
226.67
223.811
220.671
217.256
213.576
209.639
205.453
201.028
196.373
191.497
186.41
181.122
175.641
169.978
164.141
158.14
151.983
145.679
139.237
132.665
125.973
119.167
112.258
105.254
98.163
90.995
83.757
76.46
69.113
61.724
54.305
46.864
39.413
31.962
24.523
17.108
9.729
2.398
-4.87
-12.062
-19.163
-26.16
-33.036
-39.775
-46.363
-52.782
-59.017
-65.05
-70.865
-76.445
-81.775
-86.838
-91.62
-96.104
-100.277
-104.126
-107.639
-110.803
-113.61
-116.05
-118.117
-119.804
-121.109
-122.029
-122.564
-122.717
-122.491
-121.893
-120.931
-119.616
-117.96
-115.978
-113.686
-111.104
-108.253
-105.154
-101.834
-98.317
-94.631
-90.807
-86.873
-82.861
-78.803
-74.732
-70.681
-66.684
-62.773
-58.982
-55.343
-51.888
-48.649
-45.654
-42.933
-40.511
-38.412
-36.661
-35.275
-34.273
-33.669
-33.476
-33.702
-34.353
-35.433
-36.941
-38.874
-41.227
-43.989
-47.149
-50.692
-54.599
-58.851
-63.424
-68.293
-73.431
-78.807
-84.391
-90.151
-96.051
-102.057
-108.133
-114.242
-120.348
-126.414
-132.403
-138.279
-144.007
-149.554
-154.887
-159.975
-164.791
-169.307
-173.5
-177.349
-180.833
-183.939
-186.651
-188.959
-190.857
-192.34
-193.406
-194.057
-194.297
-194.132
-193.573
-192.63
-191.319
-189.655
-187.657
-185.345
-182.74
-179.865
-176.746
-173.407
-169.874
-166.175
-162.336
-158.385
-154.349
-150.254
-146.126
-141.99
-137.87
-133.789
-129.767
-125.824
-121.978
-118.245
-114.638
-111.17
-107.85
-104.687
-101.686
-98.851
-96.184
-93.686
-91.355
-89.189
-87.183
-85.331
-83.628
-82.065
-80.634
-79.326
-78.131
-77.039
-76.039
-75.12
-74.272
-73.484
-72.745
-72.046
-71.377
-70.729
-70.093
-69.463
-68.833
-68.196
-67.549
-66.887
-66.21
-65.515
-64.802
-64.073
-63.328
-62.572
-61.806
-61.036
-60.266
-59.5
-58.742
-57.999
-57.273
-56.57
-55.893
-55.245
-54.629
-54.046
-53.499
-52.986
-52.508
-52.061
-51.644
-51.253
-50.881
-50.523
-50.171
-49.817
-49.451
-49.064
-48.642
-48.174
-47.647
-47.047
-46.358
-45.565
-44.653
-43.605
-42.405
-41.037
-39.484
-37.732
-35.764
-33.567
-31.128
-28.433
-25.474
-22.239
-18.721
-14.913
-10.811
-6.412
-1.714
3.282
8.573
14.154
20.018
26.157
32.56
39.216
46.109
53.225
60.546
68.054
75.727
83.544
91.482
99.516
107.62
115.767
123.93
132.08
140.189
148.227
156.164
163.972
171.621
179.081
186.323
193.32
200.043
206.467
212.565
218.312
223.687
228.667
233.231
237.362
241.043
244.259
246.995
249.242
250.988
252.227
252.952
253.161
252.851
252.023
250.681
248.828
246.472
243.623
240.292
236.493
232.241
227.555
222.453
216.956
211.089
204.877
198.345
191.521
184.435
177.117
169.598
161.91
154.086
146.158
138.16
130.125
122.085
114.073
106.122
98.263
90.528
82.945
75.545
68.354
61.398
54.702
48.287
42.175
36.382
30.925
25.818
21.071
16.694
12.693
9.071
5.829
2.967
0.48
-1.638
-3.395
-4.802
-5.873
-6.621
-7.064
-7.219
-7.107
-6.747
-6.162
-5.375
-4.408
-3.285
-2.031
-0.669
0.778
2.285
3.83
5.393
6.952
8.489
9.987
11.429
12.802
14.095
15.297
16.401
17.402
18.296
19.082
19.763
20.341
20.822
21.214
21.527
21.773
21.964
22.117
22.247
22.372
22.511
22.685
22.913
23.217
23.62
24.142
24.807
25.636
26.65
27.871
29.319
31.011
32.966
35.199
37.725
40.556
43.703
47.174
50.976
55.113
59.587
64.398
69.544
75.021
80.823
86.94
93.364
100.081
107.078
114.339
121.848
129.584
137.529
145.66
153.954
162.388
170.937
179.575
188.274
197.009
205.753
214.476
223.153
231.757
240.262
248.642
256.872
264.931
272.794
280.444
287.86
295.025
301.923
308.541
314.866
320.888
326.6
331.995
337.068
341.816
346.238
350.335
354.109
357.566
360.71
363.55
366.096
368.358
370.353
372.096
373.605
374.896
375.986
376.897
377.648
378.264
378.766
379.176
379.517
379.811
380.084
380.361
380.666
381.02
381.44
381.941
382.542
383.269
384.144
385.183
386.401
387.806
389.409
391.222
393.255
395.511
397.988
400.672
403.552
406.622
409.881
413.331
416.955
420.709
424.546
428.413
432.29
436.196
440.128
444.062
447.968
451.775
455.472
459.171
462.835
466.285
469.377
471.871
473.724
475.272
476.639
477.689
478.643
479.822
481.503
484.411
488.733
493.787
499.351
505.288
510.823
515.423
518.62
519.146
516.535
511.341
503.443
493.197
481.886
470.128
458.487
448.297
440.077
433.753
429.974
428.456
427.921
427.848
427.734
426.723
424.61
421.212
415.783
408.439
400.003
390.839
381.34
371.866
362.35
352.941
344.084
335.803
327.839
320.059
312.281
304.454
296.728
289.126
281.575
274.082
266.681
259.415
252.354
245.519
238.87
232.39
226.067
219.904
213.924
208.137
202.546
197.154
191.964
186.985
182.23
177.707
173.426
169.393
165.61
162.087
158.829
155.846
153.144
150.725
148.587
146.728
145.146
143.84
142.808
142.049
141.557
141.329
141.36
141.646
142.182
142.961
143.976
145.22
146.685
148.361
150.241
152.315
154.574
157.007
159.604
162.353
165.244
168.265
171.403
174.648
177.987
181.408
184.9
188.45
192.049
195.683
199.343
203.018
206.695
210.365
214.017
217.64
221.223
224.755
228.224
231.621
234.934
238.151
241.261
244.254
247.118
249.841
252.412
254.821
257.055
259.105
260.958
262.604
264.033
265.234
266.197
266.913
267.371
267.564
267.482
267.117
266.462
265.51
264.255
262.692
260.816
258.625
256.116
253.289
250.145
246.684
242.912
238.832
234.452
229.777
224.819
219.588
214.096
208.356
202.385
196.198
189.813
183.25
176.529
169.671
162.7
155.637
148.508
141.336
134.148
126.968
119.822
112.736
105.735
98.845
92.089
85.492
79.077
72.864
66.875
61.129
55.642
50.431
45.508
40.886
36.574
32.58
28.909
25.564
22.546
19.854
17.484
15.43
13.682
12.231
11.062
10.161
9.51
9.089
8.877
8.851
8.985
9.253
9.627
10.077
10.574
11.087
11.584
12.034
12.404
12.664
12.782
12.728
12.472
11.985
11.24
10.211
8.873
7.203
5.18
2.785
-0
-3.19
-6.797
-10.832
-15.302
-20.213
-25.568
-31.366
-37.606
-44.283
-51.387
-58.91
-66.838
-75.155
-83.845
-92.887
-102.258
-111.934
-121.889
-132.095
-142.524
-153.143
-163.924
-174.832
-185.836
-196.903
-207.999
-219.092
-230.148
-241.135
-252.022
-262.776
-273.369
-283.771
-293.954
-303.894
-313.564
-322.944
-332.011
-340.747
-349.135
-357.161
-364.812
-372.078
-378.951
-385.425
-391.499
-397.171
-402.442
-407.318
-411.804
-415.909
-419.643
-423.018
-426.047
-428.746
-431.131
-433.22
-435.03
-436.582
-437.896
-438.991
-439.889
-440.611
-441.176
-441.607
-441.922
-442.142
-442.285
-442.37
-442.414
-442.434
-442.446
-442.464
-442.502
-442.573
-442.687
-442.854
-443.083
-443.381
-443.753
-444.204
-444.737
-445.353
-446.055
-446.84
-447.709
-448.659
-449.687
-450.789
-451.961
-453.199
-454.496
-455.849
-457.251
-458.698
-460.182
-461.7
-463.246
-464.816
-466.404
-468.007
-469.62
-471.239
-472.861
-474.481
-476.098
-477.707
-479.307
-480.893
-482.465
-484.018
-485.552
-487.063
-488.55
-490.009
-491.439
-492.835
-494.196
-495.517
-496.796
-498.026
-499.205
-500.326
-501.384
-502.372
-503.284
-504.111
-504.846
-505.479
-506
-506.401
-506.671
-506.799
-506.776
-506.59
-506.232
-505.692
-504.96
-504.027
-502.885
-501.526
-499.944
-498.132
-496.087
-493.806
-491.285
-488.525
-485.526
-482.291
-478.825
-475.132
-471.222
-467.103
-462.787
-458.287
-453.619
-448.8
-443.849
-438.786
-433.635
-428.419
-423.164
-417.899
-412.652
-407.453
-402.33
-397.312
-392.432
-387.724
-383.212
-378.921
-374.877
-371.103
-367.631
-364.497
-361.719
-359.311
-357.314
-355.763
-354.69
-354.127
-354.073
-354.508
-355.459
-356.963
-358.941
-361.298
-364.09
-367.307
-370.923
-375.134
-379.368
-383.063
-386.98
-391.333
-397.531
-407.259
-418.596
-430.249
-440.307
-446.154
-450.044
-453.88
-458.956
-467.429
-477.696
-488.134
-498.353
-507.349
-515.651
-523.946
-532.064
-540.062
-547.859
-555.276
-562.378
-569.211
-575.72
-581.871
-587.648
-593.021
-597.963
-602.448
-606.442
-609.91
-612.84
-615.225
-617.048
-618.298
-618.964
-619.037
-618.512
-617.385
-615.651
-613.306
-610.348
-606.777
-602.593
-597.798
-592.395
-586.388
-579.781
-572.582
-564.798
-556.439
-547.515
-538.038
-528.023
-517.482
-506.434
-494.895
-482.884
-470.421
-457.527
-444.225
-430.538
-416.49
-402.106
-387.412
-372.435
-357.201
-341.738
-326.074
-310.238
-294.259
-278.167
-261.992
-245.764
-229.516
-213.277
-197.081
-180.959
-164.942
-149.063
-133.353
-117.841
-102.559
-87.534
-72.795
-58.369
-44.28
-30.553
-17.209
-4.269
8.249
20.33
31.957
43.121
53.809
64.015
73.732
82.955
91.684
99.917
107.656
114.905
121.669
127.957
133.777
139.142
144.066
148.563
152.65
156.348
159.676
162.657
165.313
167.668
169.749
171.58
173.189
174.601
175.843
176.943
177.925
178.816
179.639
180.418
181.176
181.932
182.707
183.519
184.383
185.316
186.329
187.435
188.643
189.96
191.393
192.945
194.617
196.41
198.32
200.342
202.471
204.696
207.006
209.39
211.831
214.315
216.821
219.331
221.823
224.276
226.666
228.97
231.164
233.224
235.126
236.846
238.361
239.649
240.689
241.46
241.943
242.119
241.973
241.489
240.654
239.455
237.885
235.935
233.599
230.876
227.763
224.263
220.379
216.118
211.486
206.496
201.16
195.494
189.516
183.245
176.704
169.918
162.911
155.712
148.35
140.853
133.253
125.58
117.866
110.143
102.443
94.797
87.238
79.796
72.502
65.386
58.477
51.802
45.387
39.257
33.434
27.94
22.794
18.015
13.618
9.618
6.028
2.858
0.116
-2.193
-4.064
-5.497
-6.495
-7.062
-7.206
-6.936
-6.263
-5.2
-3.761
-1.963
0.177
2.639
5.403
8.446
11.746
15.276
19.011
22.926
26.992
31.184
35.475
39.836
44.242
48.665
53.077
57.45
61.756
65.965
70.049
73.977
77.721
81.253
84.543
87.569
90.308
92.739
94.846
96.611
98.021
99.062
99.724
99.992
99.854
99.294
98.297
96.855
94.959
92.607
89.798
86.533
82.815
78.658
74.07
69.058
63.627
57.771
51.49
44.805
37.747
30.355
22.691
14.804
6.75
-1.401
-9.591
-17.783
-25.952
-34.111
-42.274
-50.434
-58.564
-66.611
-74.523
-82.283
-89.886
-97.331
-104.652
-111.872
-119.029
-126.206
-133.452
-140.756
-148.072
-155.274
-162.204
-168.758
-174.861
-180.461
-185.531
-190.005
-193.816
-196.918
-199.233
-200.684
-201.177
-200.551
-198.69
-195.575
-191.238
-185.812
-179.491
-172.41
-164.685
-156.43
-147.726
-138.675
-129.382
-119.907
-110.329
-100.75
-91.291
-82.13
-73.424
-65.244
-57.623
-50.524
-43.859
-37.579
-31.648
-26.017
-20.669
-15.592
-10.774
-6.235
-1.996
1.955
5.647
9.142
12.506
15.769
18.943
22.018
24.954
27.721
30.303
32.678
34.849
36.851
38.718
40.501
42.259
44.023
45.805
47.602
49.374
51.078
52.695
54.214
55.649
57.05
58.471
59.991
61.675
63.535
65.551
67.691
69.926
72.297
74.896
77.823
81.209
85.176
89.864
95.485
102.13
109.664
117.764
126.004
134.149
142.346
150.792
159.473
168.437
177.887
188.375
200.645
214.76
229.915
245.056
259.365
272.278
283.281
291.278
294.92
293.825
288.633
280.435
270.201
258.387
245.343
232.348
221.04
212.284
206.217
202.557
201.051
202.1
206.261
213.018
221.465
231.137
241.843
253.725
266.995
281.165
295.448
309.84
324.49
339.349
354.425
369.331
383.482
396.751
409.16
420.438
430.401
438.827
445.342
449.873
452.469
453.142
452.03
449.248
444.833
438.928
431.696
423.298
413.961
403.776
392.773
381.074
368.803
356.167
343.467
330.913
318.672
306.924
295.775
285.347
275.775
267.084
259.299
252.452
246.565
241.784
238.256
236.026
235.112
235.473
236.981
239.535
243.004
247.168
251.86
256.941
262.288
267.868
273.636
279.514
285.414
291.195
296.72
301.912
306.7
311.027
314.89
318.298
321.311
324.069
326.672
329.176
331.62
333.99
336.278
338.5
340.661
342.768
344.831
346.845
348.812
350.744
352.627
354.432
356.106
357.56
358.729
359.575
360.07
360.202
359.969
359.363
358.393
357.083
355.454
353.524
351.311
348.826
346.089
343.132
339.99
336.704
333.314
329.856
326.364
322.873
319.417
316.027
312.728
309.541
306.49
303.601
300.898
298.408
296.155
294.16
292.444
291.026
289.926
289.155
288.724
288.639
288.906
289.525
290.496
291.815
293.473
295.459
297.762
300.366
303.251
306.399
309.785
313.384
317.169
321.112
325.184
329.352
333.584
337.848
342.11
346.337
350.496
354.552
358.471
362.22
365.766
369.077
372.12
374.866
377.285
379.351
381.039
382.327
383.196
383.628
383.609
383.127
382.174
380.744
378.834
376.445
373.579
370.244
366.448
362.204
357.526
352.431
346.939
341.072
334.854
328.311
321.47
314.361
307.015
299.464
291.741
283.881
275.919
267.889
259.828
251.772
243.756
235.814
227.981
220.291
212.774
205.461
198.38
191.557
185.017
178.782
172.87
167.298
162.08
157.228
152.749
148.649
144.932
141.596
138.641
136.059
133.845
131.987
130.473
129.289
128.418
127.84
127.535
127.48
127.652
128.023
128.568
129.259
130.067
130.962
131.916
132.898
133.879
134.831
135.724
136.533
137.23
137.791
138.193
138.415
138.438
138.245
137.82
137.15
136.224
135.035
133.574
131.837
129.823
127.531
124.962
122.122
119.016
115.652
112.041
108.194
104.126
99.852
95.389
90.756
85.971
81.055
76.031
70.92
65.745
60.531
55.3
50.075
44.881
39.738
34.67
29.695
24.834
20.105
15.525
11.11
6.876
2.834
-1.001
-4.62
-8.012
-11.17
-14.088
-16.76
-19.185
-21.361
-23.288
-24.968
-26.404
-27.602
-28.566
-29.304
-29.824
-30.133
-30.242
-30.162
-29.905
-29.484
-28.913
-28.206
-27.376
-26.437
-25.402
-24.285
-23.096
-21.847
-20.549
-19.212
-17.847
-16.462
-15.067
-13.668
-12.274
-10.89
-9.52
-8.166
-6.829
-5.509
-4.203
-2.908
-1.617
-0.326
0.971
2.28
3.606
4.953
6.326
7.731
9.174
10.662
12.205
13.815
15.508
17.301
19.205
21.233
23.395
25.697
28.146
30.743
33.485
36.369
39.402
42.589
45.948
49.49
53.203
57.071
61.064
65.136
69.245
73.346
77.374
81.285
85.054
88.671
92.163
95.554
98.836
101.988
104.96
107.706
110.217
112.489
114.52
116.351
118.014
119.558
121.083
122.643
124.221
125.764
127.13
128.168
128.803
128.985
128.7
127.929
126.575
124.562
121.85
118.364
114.06
108.814
102.331
94.537
85.592
75.689
65.188
54.269
42.707
30.482
17.824
4.615
-9.408
-24.567
-41.493
-60.114
-79.498
-99.074
-118.542
-137.345
-155.02
-170.944
-184.09
-194.461
-203.086
-210.589
-217.368
-223.849
-230.188
-236.829
-244.649
-253.724
-263.354
-273.096
-282.614
-291.698
-300.444
-308.696
-315.988
-322.204
-327.567
-332.238
-336.394
-340.102
-343.232
-345.766
-347.808
-349.403
-350.559
-351.268
-351.49
-351.227
-350.546
-349.499
-348.132
-346.484
-344.571
-342.419
-340.064
-337.541
-334.88
-332.109
-329.243
-326.299
-323.291
-320.237
-317.153
-314.057
-310.962
-307.882
-304.83
-301.824
-298.882
-296.022
-293.258
-290.601
-288.06
-285.643
-283.357
-281.206
-279.196
-277.328
-275.605
-274.026
-272.592
-271.303
-270.157
-269.153
-268.285
-267.551
-266.945
-266.463
-266.098
-265.848
-265.704
-265.662
-265.715
-265.857
-266.081
-266.379
-266.742
-267.161
-267.626
-268.125
-268.648
-269.183
-269.719
-270.245
-270.75
-271.223
-271.654
-272.032
-272.349
-272.596
-272.762
-272.841
-272.825
-272.707
-272.48
-272.139
-271.678
-271.094
-270.381
-269.538
-268.561
-267.447
-266.197
-264.809
-263.283
-261.62
-259.823
-257.895
-255.839
-253.662
-251.37
-248.97
-246.47
-243.881
-241.211
-238.473
-235.677
-232.835
-229.96
-227.065
-224.163
-221.267
-218.391
-215.548
-212.75
-210.012
-207.345
-204.763
-202.277
-199.9
-197.642
-195.515
-193.529
-191.693
-190.017
-188.508
-187.176
-186.026
-185.064
-184.294
-183.722
-183.349
-183.178
-183.208
-183.44
-183.873
-184.503
-185.327
-186.342
-187.542
-188.922
-190.474
-192.192
-194.068
-196.094
-198.262
-200.562
-202.986
-205.526
-208.171
-210.913
-213.742
-216.651
-219.629
-222.67
-225.764
-228.903
-232.082
-235.291
-238.526
-241.779
-245.047
-248.323
-251.604
-254.886
-258.167
-261.444
-264.715
-267.979
-271.236
-274.485
-277.728
-280.964
-284.196
-287.425
-290.653
-293.881
-297.113
-300.35
-303.595
-306.85
-310.118
-313.399
-316.697
-320.012
-323.345
-326.698
-330.07
-333.46
-336.869
-340.295
-343.735
-347.188
-350.65
-354.117
-357.586
-361.052
-364.508
-367.951
-371.373
-374.767
-378.127
-381.445
-384.713
-387.923
-391.067
-394.136
-397.123
-400.018
-402.813
-405.499
-408.069
-410.514
-412.827
-414.999
-417.025
-418.898
-420.611
-422.161
-423.541
-424.748
-425.779
-426.632
-427.304
-427.794
-428.103
-428.231
-428.179
-427.949
-427.543
-426.966
-426.221
-425.312
-424.244
-423.023
-421.654
-420.144
-418.5
-416.727
-414.834
-412.827
-410.713
-408.501
-406.197
-403.808
-401.343
-398.806
-396.206
-393.548
-390.839
-388.082
-385.285
-382.45
-379.581
-376.683
-373.756
-370.802
-367.824
-364.821
-361.793
-358.739
-355.657
-352.546
-349.403
-346.225
-343.008
-339.748
-336.441
-333.082
-329.664
-326.183
-322.633
-319.007
-315.299
-311.502
-307.609
-303.613
-299.507
-295.283
-290.935
-286.455
-281.835
-277.07
-272.151
-267.072
-261.827
-256.409
-250.813
-245.033
-239.064
-232.902
-226.541
-219.978
-213.209
-206.23
-199.039
-191.633
-184.01
-176.167
-168.102
-159.815
-151.305
-142.571
-133.612
-124.43
-115.025
-105.398
-95.552
-85.489
-75.212
-64.725
-54.032
-43.14
-32.055
-20.782
-9.331
2.291
14.074
26.007
38.082
50.285
62.604
75.027
87.539
100.126
112.774
125.465
138.183
150.911
163.631
176.324
188.971
201.551
214.046
226.433
238.692
250.801
262.74
274.486
286.018
297.316
308.357
319.123
329.594
339.75
349.574
359.05
368.161
376.893
385.233
393.168
400.689
407.785
414.449
420.675
426.456
431.791
436.676
441.11
445.095
448.631
451.723
454.376
456.594
458.385
459.759
460.724
461.291
461.472
461.281
460.73
459.833
458.606
457.064
455.222
453.096
450.701
448.053
445.166
442.056
438.735
435.219
431.518
427.647
423.614
419.432
415.11
410.657
406.081
401.39
396.59
391.688
386.691
381.602
376.428
371.172
365.838
360.43
354.951
349.404
343.79
338.113
332.375
326.576
320.719
314.806
308.839
302.818
296.747
290.628
284.464
278.257
272.012
265.733
259.424
253.092
246.742
240.381
234.016
227.655
221.305
214.976
208.674
202.41
196.192
190.029
183.928
177.9
171.952
166.092
160.328
154.666
149.115
143.679
138.365
133.179
128.124
123.206
118.428
113.793
109.303
104.96
100.766
96.719
92.82
89.067
85.458
81.989
78.655
75.453
72.375
69.415
66.565
63.816
61.16
58.585
56.082
53.639
51.244
48.886
46.552
44.229
41.905
39.568
37.206
34.806
32.356
29.844
27.26
24.592
21.83
18.963
15.983
12.881
9.649
6.281
2.769
-0.891
-4.703
-8.671
-12.796
-17.081
-21.524
-26.125
-30.881
-35.787
-40.837
-46.024
-51.339
-56.772
-62.311
-67.942
-73.653
-79.427
-85.248
-91.1
-96.964
-102.821
-108.652
-114.436
-120.154
-125.784
-131.307
-136.701
-141.947
-147.025
-151.918
-156.607
-161.074
-165.304
-169.279
-172.986
-176.41
-179.536
-182.352
-184.848
-187.012
-188.839
-190.323
-191.459
-192.245
-192.681
-192.77
-192.512
-191.915
-190.982
-189.721
-188.141
-186.254
-184.069
-181.602
-178.866
-175.876
-172.647
-169.195
-165.534
-161.679
-157.644
-153.439
-149.076
-144.567
-139.92
-135.143
-130.247
-125.24
-120.135
-114.941
-109.667
-104.322
-98.914
-93.449
-87.928
-82.35
-76.709
-70.996
-65.206
-59.332
-53.367
-47.306
-41.142
-34.87
-28.489
-21.994
-15.376
-8.623
-1.708
5.388
12.665
20.115
27.72
35.444
43.262
51.141
59.034
66.909
74.752
82.562
90.374
98.223
106.121
114.062
122.012
129.936
137.836
145.722
153.606
161.533
169.538
177.666
186.006
194.61
203.467
212.527
221.664
230.718
239.581
248.173
256.437
264.336
271.796
278.738
285.107
290.81
295.758
299.839
302.881
304.755
305.43
304.927
303.366
300.93
297.739
293.894
289.495
284.608
279.322
273.727
267.873
261.827
255.681
249.552
243.614
238.021
232.844
228.114
223.793
219.794
216.07
212.587
209.3
206.193
203.251
200.465
197.862
195.474
193.301
191.327
189.503
187.778
186.141
184.596
183.167
181.903
180.833
179.978
179.372
179.028
178.951
179.134
179.551
180.164
180.946
181.88
182.949
184.145
185.449
186.836
188.282
189.758
191.237
192.69
194.086
195.394
196.591
197.657
198.576
199.338
199.932
200.345
200.568
200.59
200.402
199.996
199.362
198.492
197.38
196.024
194.42
192.568
190.47
188.128
185.546
182.731
179.687
176.424
172.947
169.267
165.392
161.333
157.102
152.707
148.163
143.481
138.676
133.764
128.76
123.678
118.531
113.329
108.084
102.81
97.519
92.223
86.934
81.667
76.436
71.262
66.163
61.156
56.254
51.462
46.793
42.263
37.895
33.713
29.738
25.985
22.47
19.21
16.218
13.509
11.086
8.94
7.065
5.449
4.097
3.03
2.247
1.735
1.45
1.312
1.278
1.341
1.504
1.797
2.218
2.701
3.249
3.938
4.754
5.647
6.394
6.554
5.945
4.67
2.899
0.898
-0.993
-2.464
-2.845
-1.083
3.375
10.541
20.009
30.925
42.34
53.303
62.561
68.603
70.402
67.522
60.187
49.222
35.756
21.213
6.991
-5.592
-15.454
-21.961
-24.953
-24.568
-21.517
-17.119
-12.385
-8.047
-4.762
-2.851
-2.565
-4.262
-7.705
-12.059
-16.778
-21.497
-25.931
-30.072
-33.758
-36.604
-38.556
-39.852
-40.625
-40.989
-40.96
-40.382
-39.211
-37.517
-35.296
-32.506
-29.107
-25.031
-20.264
-14.852
-8.826
-2.21
4.977
12.736
21.051
29.892
39.234
49.047
59.307
69.992
81.078
92.533
104.326
116.418
128.774
141.359
154.137
167.072
180.123
193.245
206.394
219.527
232.604
245.585
258.43
271.098
283.552
295.757
307.678
319.285
330.547
341.437
351.928
361.998
371.627
380.796
389.492
397.701
405.411
412.614
419.305
425.478
431.132
436.267
440.883
444.985
448.578
451.67
454.27
456.387
458.033
459.223
459.97
460.289
460.197
459.71
458.847
457.625
456.061
454.175
451.984
449.505
446.756
443.753
440.512
437.048
433.375
429.506
425.455
421.232
416.85
412.316
407.642
402.834
397.901
392.848
387.682
382.407
377.026
371.544
365.962
360.282
354.502
348.624
342.645
336.562
330.371
324.069
317.649
311.106
304.431
297.619
290.66
283.546
276.27
268.821
261.192
253.373
245.357
237.135
228.7
220.042
211.157
202.036
192.675
183.067
173.208
163.094
152.722
142.09
131.196
120.041
108.625
96.951
85.022
72.845
60.425
47.772
34.897
21.812
8.532
-4.928
-18.547
-32.307
-46.185
-60.158
-74.199
-88.283
-102.382
-116.465
-130.502
-144.463
-158.315
-172.024
-185.559
-198.885
-211.969
-224.776
-237.275
-249.43
-261.211
-272.583
-283.518
-293.984
-303.952
-313.396
-322.289
-330.608
-338.332
-345.441
-351.92
-357.755
-362.935
-367.452
-371.301
-374.482
-376.995
-378.845
-380.039
-380.589
-380.508
-379.813
-378.522
-376.659
-374.248
-371.314
-367.889
-364.001
-359.684
-354.973
-349.903
-344.511
-338.837
-332.919
-326.797
-320.513
-314.108
-307.622
-301.097
-294.573
-288.091
-281.688
-275.403
-269.273
-263.333
-257.616
-252.154
-246.978
-242.115
-237.592
-233.432
-229.657
-226.287
-223.339
-220.828
-218.767
-217.167
-216.038
-215.386
-215.218
-215.536
-216.343
-217.639
-219.422
-221.69
-224.438
-227.661
-231.35
-235.497
-240.094
-245.128
-250.59
-256.467
-262.745
-269.41
-276.449
-283.845
-291.583
-299.645
-308.015
-316.676
-325.61
-334.798
-344.224
-353.869
-363.714
-373.74
-383.929
-394.259
-404.711
-415.264
-425.896
-436.585
-447.31
-458.048
-468.777
-479.473
-490.113
-500.673
-511.128
-521.455
-531.628
-541.62
-551.406
-560.962
-570.263
-579.284
-588.004
-596.399
-604.449
-612.133
-619.431
-626.326
-632.797
-638.829
-644.404
-649.508
-654.127
-658.249
-661.864
-664.964
-667.544
-669.598
-671.124
-672.122
-672.591
-672.532
-671.949
-670.848
-669.237
-667.125
-664.526
-661.454
-657.926
-653.962
-649.581
-644.802
-639.645
-634.131
-628.279
-622.108
-615.638
-608.884
-601.866
-594.604
-587.119
-579.427
-571.549
-563.506
-555.321
-547.02
-538.625
-530.155
-521.626
-513.049
-504.435
-495.792
-487.122
-478.426
-469.704
-460.953
-452.18
-443.397
-434.604
-425.793
-416.941
-408.008
-398.958
-389.772
-380.429
-370.918
-361.248
-351.441
-341.546
-331.645
-321.797
-312.04
-302.385
-292.802
-283.271
-273.786
-264.363
-255.051
-245.9
-236.933
-228.161
-219.572
-211.093
-202.637
-194.032
-184.984
-175.343
-165.107
-154.414
-143.607
-133.022
-122.835
-113.168
-104.129
-95.416
-86.383
-76.216
-63.837
-48.385
-29.5
-7.237
17.995
45.006
71.937
96.824
117.517
132.044
139.048
137.732
127.761
109.927
86.099
58.362
29.1
0.981
-23.556
-42.368
-53.5
-56.181
-50.875
-38.441
-20.235
1.784
25.485
48.826
69.77
87.137
100.697
110.536
117.138
121.389
124.33
126.843
129.698
133.29
137.568
142.409
147.602
152.836
157.806
162.392
166.63
170.62
174.543
178.53
182.65
186.986
191.607
196.526
201.706
207.119
212.747
218.594
224.692
231.041
237.616
244.366
251.211
258.083
264.927
271.699
278.369
284.92
291.349
297.669
303.91
310.088
316.202
322.248
328.207
334.068
339.822
345.466
350.999
356.423
361.743
366.966
372.097
377.139
382.09
386.947
391.702
396.35
400.888
405.314
409.629
413.836
417.938
421.941
425.848
429.666
433.397
437.045
440.611
444.099
447.509
450.843
454.102
457.288
460.403
463.449
466.431
469.349
472.209
475.013
477.766
480.469
483.127
485.74
488.312
490.843
493.337
495.793
498.215
500.603
502.96
505.287
507.584
509.854
512.095
514.308
516.491
518.645
520.768
522.859
524.919
526.946
528.94
530.899
532.823
534.711
536.561
538.37
540.137
541.858
543.53
545.15
546.714
548.219
549.66
551.033
552.334
553.558
554.7
555.755
556.718
557.582
558.341
558.989
559.52
559.927
560.204
560.342
560.336
560.179
559.862
559.379
558.723
557.885
556.859
555.638
554.214
552.58
550.731
548.658
546.357
543.821
541.045
538.023
534.75
531.222
527.433
523.38
519.059
514.466
509.6
504.456
499.035
493.334
487.354
481.094
474.555
467.74
460.651
453.292
445.665
437.778
429.636
421.245
412.614
403.752
394.667
385.37
375.873
366.187
356.325
346.302
336.132
325.829
315.41
304.893
294.294
283.632
272.926
262.197
251.465
240.751
230.075
219.461
208.929
198.501
188.201
178.048
168.064
158.271
148.689
139.336
130.233
121.397
112.844
104.591
96.651
89.037
81.762
74.834
68.262
62.054
56.213
50.744
45.648
40.924
36.571
32.582
28.954
25.676
22.738
20.129
17.833
15.836
14.119
12.664
11.45
10.455
9.656
9.03
8.552
8.197
7.938
7.751
7.609
7.486
7.358
7.2
6.987
6.696
6.306
5.794
5.142
4.33
3.341
2.159
0.772
-0.834
-2.668
-4.738
-7.049
-9.605
-12.407
-15.456
-18.749
-22.281
-26.047
-30.039
-34.248
-38.663
-43.272
-48.061
-53.016
-58.12
-63.358
-68.713
-74.168
-79.705
-85.307
-90.957
-96.638
-102.333
-108.027
-113.702
-119.343
-124.935
-130.465
-135.92
-141.289
-146.563
-151.734
-156.796
-161.746
-166.581
-171.301
-175.906
-180.397
-184.779
-189.054
-193.229
-197.31
-201.304
-205.22
-209.069
-212.862
-216.612
-220.331
-224.03
-227.722
-231.418
-235.13
-238.87
-242.65
-246.479
-250.37
-254.337
-258.392
-262.549
-266.817
-271.201
-275.709
-280.344
-285.108
-290.004
-295.028
-300.176
-305.442
-310.824
-316.317
-321.919
-327.622
-333.417
-339.296
-345.251
-351.279
-357.38
-363.548
-369.774
-376.045
-382.345
-388.658
-394.967
-401.255
-407.498
-413.675
-419.764
-425.75
-431.616
-437.343
-442.909
-448.261
-453.33
-458.061
-462.402
-466.346
-469.947
-473.249
-476.292
-479.123
-481.744
-484.203
-486.618
-488.932
-490.949
-492.512
-493.453
-493.86
-494.157
-494.52
-494.822
-495.206
-495.964
-497.399
-500.016
-503.721
-507.692
-511.608
-515.666
-519.781
-523.748
-527.123
-528.913
-528.682
-526.751
-522.897
-516.471
-507.14
-494.794
-479.873
-463.523
-446.864
-430.839
-416.819
-406.428
-401.126
-402.102
-409.89
-424.507
-445.416
-471.464
-501.093
-532.332
-562.838
-590.22
-612.542
-628.164
-636.25
-636.965
-630.898
-619.196
-603.763
-586.899
-570.657
-556.843
-546.566
-540.075
-537.324
-537.952
-541.06
-545.441
-550.063
-554.083
-557.031
-558.905
-559.789
-559.784
-559.119
-558.068
-556.771
-555.315
-553.699
-551.8
-549.519
-546.799
-543.581
-539.843
-535.618
-530.939
-525.831
-520.317
-514.391
-508.058
-501.358
-494.34
-487.057
-479.554
-471.87
-464.046
-456.129
-448.159
-440.15
-432.094
-423.981
-415.806
-407.58
-399.324
-391.059
-382.804
-374.576
-366.392
-358.273
-350.234
-342.286
-334.435
-326.682
-319.031
-311.489
-304.067
-296.773
-289.613
-282.59
-275.704
-268.956
-262.348
-255.872
-249.524
-243.293
-237.173
-231.157
-225.236
-219.402
-213.647
-207.962
-202.337
-196.764
-191.235
-185.74
-180.269
-174.813
-169.362
-163.908
-158.442
-152.955
-147.44
-141.891
-136.304
-130.675
-125.001
-119.283
-113.52
-107.714
-101.867
-95.983
-90.067
-84.123
-78.157
-72.177
-66.193
-60.211
-54.244
-48.298
-42.386
-36.516
-30.699
-24.944
-19.262
-13.66
-8.149
-2.736
2.57
7.761
12.831
17.772
22.581
27.251
31.781
36.167
40.409
44.507
48.463
52.279
55.96
59.51
62.937
66.247
69.449
72.552
75.567
78.505
81.378
84.197
86.976
89.728
92.466
95.203
97.952
100.727
103.54
106.404
109.332
112.334
115.422
118.607
121.899
125.306
128.837
132.499
136.3
140.244
144.337
148.583
152.983
157.541
162.258
167.132
172.165
177.354
182.697
188.192
193.835
199.623
205.551
211.615
217.809
224.13
230.571
237.127
243.793
250.563
257.433
264.398
271.452
278.59
285.81
293.106
300.474
307.91
315.412
322.975
330.596
338.272
346.001
353.778
361.601
369.466
377.371
385.311
393.283
401.281
409.302
417.339
425.386
433.436
441.483
449.518
457.532
465.515
473.458
481.348
489.174
496.924
504.583
512.138
519.574
526.876
534.027
541.013
547.815
554.418
560.804
566.956
572.857
578.491
583.841
588.891
593.626
598.031
602.094
605.8
609.14
612.103
614.68
616.866
618.654
620.041
621.026
621.609
621.792
621.579
620.976
619.99
618.631
616.909
614.837
612.429
609.701
606.669
603.353
599.772
595.946
591.897
587.648
583.222
578.641
573.928
569.109
564.206
559.242
554.241
549.225
544.216
539.235
534.301
529.434
524.649
519.964
515.391
510.942
506.628
502.457
498.436
494.571
490.867
487.325
483.949
480.736
477.686
474.796
472.06
469.473
467.026
464.712
462.519
460.439
458.461
456.574
454.768
453.032
451.353
449.722
448.127
446.557
444.999
443.443
441.878
440.294
438.683
437.04
435.36
433.637
431.869
430.054
428.191
426.278
424.314
422.298
420.229
418.111
415.946
413.737
411.49
409.212
406.913
404.602
402.289
399.985
397.694
395.426
393.189
390.99
388.832
386.715
384.639
382.606
380.619
378.682
376.798
374.971
373.207
371.513
369.896
368.364
366.917
365.551
364.26
363.043
361.913
360.889
359.995
359.247
358.657
358.237
357.988
357.887
357.893
357.931
357.917
357.792
357.512
357.056
356.42
355.6
354.585
353.343
351.823
349.964
347.711
345.021
341.916
338.475
334.808
331.153
327.816
325.018
322.896
321.395
320.2
319.004
317.608
315.684
312.91
309.324
305.293
301.71
300.008
300.707
303.249
307.523
313.363
322.4
338.284
361.495
389.794
416.406
429.572
421.782
390.805
341.069
284.374
229.403
179.852
135.88
93.825
53.136
17.097
-11.259
-29.575
-37.285
-35.41
-25.031
-6.851
17.461
44.644
71.99
97.55
119.477
136.92
149.191
154.925
153.957
147.659
137.189
124.007
109.943
95.848
82.6
71.622
63.484
58.112
55.43
54.735
55.044
55.958
57.025
57.655
57.72
57.094
55.582
53.521
51.408
49.409
47.863
46.416
43.828
40.41
37.179
35.852
39.654
48.074
57.741
65.304
66.04
59.981
51.66
44.588
42.632
46.293
52.243
58.425
63.277
66.394
69.015
71.467
73.583
75.371
76.587
77.421
77.845
76.778
73.686
69.336
66.25
68.808
79.731
96.567
112.479
119.133
110.613
89.766
66.517
50.512
49.137
61.252
78.075
92.676
99.799
98.772
94.327
89.251
84.937
82.109
79.412
76.401
74.008
72.795
73.025
74.815
77.452
79.546
80.193
78.405
72.332
60.42
41.526
14.576
-20.099
-60.801
-106.105
-154.203
-202.271
-247.699
-287.773
-319.743
-342.563
-356.519
-361.79
-359.005
-349.415
-334.138
-314.752
-293.071
-269.642
-245.027
-220.951
-198.776
-179.861
-163.507
-145.914
-125.496
-102.923
-83.307
-77.274
-90.866
-126.939
-184.42
-252.312
-320.963
-380.428
-418.486
-433.239
-426.57
-403.273
-374.859
-347.416
-322.411
-299.945
-277.024
-253.288
-231.571
-215.279
-207.634
-210.109
-223.136
-246.336
-277.833
-315.779
-358.687
-406.343
-460.099
-519.581
-580.471
-634.072
-671.836
-690.25
-691.518
-683.18
-672.632
-663.089
-654.917
-646.512
-636.302
-623.993
-611.129
-600.526
-593.693
-591.607
-593.198
-594.885
-597.437
-604.741
-620.402
-649.276
-690.212
-736.109
-781.83
-821.942
-853.438
-877.645
-894.476
-903.655
-905.754
-900.397
-887.514
-868.62
-845.77
-821.186
-797.795
-777.914
-762.836
-753.995
-752.244
-756.941
-767.526
-783.607
-805.726
-835.725
-873.43
-915.08
-953.184
-979.424
-989.242
-983.929
-969.758
-953.143
-937.802
-923.983
-909.396
-893.464
-877.734
-864.628
-857.468
-858.545
-867.936
-884.628
-907.132
-933.182
-962.659
-998.391
-1041.323
-1090.002
-1138.985
-1176.613
-1194.06
-1188.786
-1162.612
-1124.495
-1083.498
-1045.236
-1015.377
-997.89
-995.446
-1009.619
-1039.898
-1082.038
-1129.003
-1173.846
-1207.169
-1222.408
-1220.909
-1206.854
-1189.709
-1178.32
-1171.605
-1166.692
-1158.814
-1144.604
-1130.221
-1120.719
-1119.914
-1130.347
-1145.66
-1160.64
-1170.104
-1166.91
-1152.082
-1127.326
-1095.838
-1065.514
-1037.902
-1013.865
-994.681
-977.62
-964.046
-954.615
-946.378
-938.104
-926.762
-910.745
-892.78
-874.635
-857.26
-840.178
-820.753
-797.738
-771.56
-743.059
-712.692
-680.234
-645.662
-610.042
-575.28
-542.609
-512.232
-483.837
-457.611
-434.404
-414.71
-398.017
-382.875
-368.126
-353.342
-338.483
-323.313
-307.086
-289.227
-269.853
-249.772
-229.737
-210.132
-191.108
-172.755
-155.407
-139.384
-124.679
-111.017
-98.14
-85.921
-74.361
-63.563
-53.55
-44.341
-36.068
-28.877
-22.893
-18.16
-14.597
-12.083
-10.512
-9.754
-9.675
-10.088
-10.739
-11.419
-11.973
-12.23
-12.035
-11.166
-9.328
-6.288
-1.874
4.025
11.436
20.37
30.835
42.759
56.005
70.379
85.611
101.494
117.889
134.64
151.602
168.58
185.321
201.631
217.379
232.459
246.804
260.356
273.044
284.872
295.931
306.34
316.27
325.843
335.089
344.042
352.753
361.273
369.69
378.08
386.386
394.551
402.687
410.868
419.196
427.782
436.42
444.839
453.037
461.006
468.485
475.337
481.247
485.822
489.432
492.522
495.115
497.338
499.472
501.624
504.271
507.98
512.294
516.732
521.22
525.511
529.462
533.084
535.946
537.59
538.367
538.599
538.398
538.015
537.444
536.604
535.722
535.003
534.307
533.526
532.592
531.371
529.922
528.317
526.509
524.476
522.243
519.817
517.229
514.52
511.675
508.686
505.559
502.297
498.919
495.452
491.911
488.316
484.688
481.046
477.415
473.818
470.282
466.833
463.496
460.295
457.257
454.405
451.766
449.363
447.215
445.339
443.752
442.469
441.506
440.877
440.593
440.665
441.1
441.905
443.084
444.638
446.567
448.867
451.53
454.549
457.912
461.606
465.613
469.915
474.491
479.316
484.364
489.607
495.016
500.558
506.201
511.912
517.656
523.397
529.1
534.729
540.249
545.623
550.816
555.794
560.521
564.965
569.093
572.874
576.278
579.279
581.85
583.968
585.61
586.76
587.399
587.516
587.099
586.143
584.643
582.599
580.013
576.891
573.243
569.081
564.419
559.275
553.67
547.626
541.169
534.325
527.125
519.599
511.779
503.701
495.4
486.913
478.276
469.529
460.711
451.859
443.013
434.212
425.494
416.895
408.452
400.2
392.171
384.397
376.905
369.722
362.871
356.373
350.243
344.497
339.146
334.197
329.656
325.526
321.804
318.489
315.574
313.051
310.907
309.13
307.704
306.61
305.828
305.337
305.112
305.129
305.361
305.778
306.352
307.051
307.844
308.7
309.586
310.47
311.32
312.105
312.797
313.368
313.792
314.046
314.109
313.963
313.593
312.985
312.129
311.016
309.641
308.001
306.093
303.92
301.484
298.79
295.846
292.663
289.25
285.621
281.791
277.776
273.594
269.264
264.808
260.248
255.607
250.91
246.185
241.459
236.758
232.107
227.527
223.04
218.661
214.406
210.285
206.305
202.47
198.785
195.257
191.888
188.682
185.636
182.748
180.014
177.435
175.007
172.727
170.59
168.592
166.725
164.981
163.339
161.774
160.253
158.735
157.175
155.518
153.703
151.678
149.37
146.705
143.606
139.975
135.728
130.806
125.157
118.774
111.693
103.928
95.548
86.691
77.381
67.624
57.379
46.41
34.559
21.785
7.905
-7.156
-23.089
-39.538
-55.919
-71.139
-84.322
-94.76
-101.497
-104.809
-106.414
-107.768
-110.263
-113.917
-116.427
-117.131
-119.242
-129.231
-156.19
-207.215
-280.61
-366.453
-449.43
-512.293
-546.147
-552.258
-538.546
-517.559
-497.556
-480.59
-465.506
-448.959
-430.084
-410.362
-391.703
-376.312
-364.647
-356.01
-349.504
-343.65
-337.459
-330.614
-322.894
-314.416
-305.508
-296.365
-287.299
-278.791
-271.081
-264.214
-258.16
-252.684
-247.558
-242.692
-237.958
-233.226
-228.483
-223.773
-219.113
-214.515
-209.915
-205.116
-200.001
-194.604
-188.866
-182.603
-175.881
-168.946
-162.045
-155.805
-150.241
-144.259
-138.043
-132.588
-129.251
-131.057
-137.583
-144.622
-148.196
-143.487
-129.987
-112.647
-95.948
-84.209
-79.442
-80.722
-88.218
-102.166
-122.856
-150.354
-183.175
-220.447
-260.408
-301.007
-339.96
-371.997
-393.571
-401.698
-393.836
-372.728
-340.827
-301.222
-259.349
-216.937
-175.208
-136.29
-100.644
-69.802
-45.877
-29.064
-18.255
-12.059
-8.683
-6.252
-3.824
-0.549
4.926
13.19
24.055
37.292
52.06
67.271
82.613
97.756
112.038
125.078
136.566
146.384
155.102
163.451
171.646
179.879
188.514
198.113
209.478
222.933
237.896
253.352
268.624
283.251
296.717
308.161
316.397
320.795
321.786
320.533
317.962
314.628
310.984
307.649
305.568
305.359
306.808
309.052
311.348
313.295
314.697
315.412
315.07
313.343
310.279
306.237
301.551
296.392
290.767
284.57
277.801
270.537
262.803
254.586
245.856
236.594
226.847
216.715
206.263
195.522
184.476
173.066
161.265
149.077
136.529
123.676
110.544
97.12
83.393
69.341
54.941
40.189
25.038
9.401
-6.748
-23.385
-40.416
-57.66
-74.987
-92.315
-109.575
-126.739
-143.746
-160.491
-176.893
-192.879
-208.36
-223.25
-237.411
-250.638
-262.816
-273.909
-283.957
-293.104
-301.443
-309.009
-315.842
-321.963
-327.405
-332.229
-336.458
-340.085
-343.138
-345.657
-347.731
-349.516
-351.091
-352.471
-353.622
-354.437
-354.847
-354.826
-354.339
-353.352
-351.841
-349.783
-347.188
-344.108
-340.566
-336.567
-332.096
-327.102
-321.57
-315.524
-309.003
-302.072
-294.789
-287.19
-279.327
-271.255
-263.02
-254.658
-246.189
-237.612
-228.937
-220.187
-211.388
-202.574
-193.773
-185
-176.274
-167.609
-159.018
-150.515
-142.108
-133.8
-125.598
-117.512
-109.554
-101.738
-94.076
-86.576
-79.246
-72.091
-65.117
-58.327
-51.724
-45.306
-39.073
-33.025
-27.161
-21.481
-15.98
-10.658
-5.51
-0.533
4.275
8.921
13.406
17.735
21.91
25.933
29.808
33.536
37.121
40.563
43.862
47.02
50.035
52.908
55.636
58.216
60.642
62.912
65.022
66.967
68.744
70.349
71.781
73.038
74.12
75.024
75.748
76.289
76.641
76.801
76.763
76.521
76.067
75.397
74.512
73.415
72.114
70.616
68.93
67.068
65.044
62.874
60.572
58.139
55.582
52.909
50.14
47.306
44.428
41.514
38.573
35.608
32.618
