Name,Criss Capps
Date of Birth,"Feb 5, 1952"
Recorded Date,2022-08-06 08:13:26 -0400
Classification,Poor Recording
Symptoms,
Software Version,1.90
Device,"Watch5,4"
Sample Rate,512.844 hertz


Lead,Lead I
Unit,µV

57.112
78.687
98.008
113.72
126.864
138.485
147.98
155.288
160.335
162.999
163.687
162.803
160.579
157.291
153.269
148.804
144.166
139.583
135.164
130.969
127.037
123.38
120.017
116.962
114.209
111.713
109.404
107.188
104.956
102.645
100.211
97.603
94.772
91.68
88.315
84.702
80.898
76.951
72.903
68.797
64.684
60.632
56.716
53.011
49.592
46.511
43.804
41.503
39.628
38.187
37.178
36.583
36.369
36.504
36.959
37.7
38.69
39.882
41.223
42.661
44.139
45.602
46.996
48.27
49.373
50.256
50.874
51.184
51.147
50.723
49.874
48.562
46.75
44.407
41.505
38.02
33.931
29.223
23.887
17.918
11.317
4.088
-3.759
-12.211
-21.25
-30.853
-40.993
-51.64
-62.757
-74.307
-86.246
-98.529
-111.108
-123.933
-136.953
-150.114
-163.362
-176.645
-189.907
-203.094
-216.154
-229.033
-241.681
-254.049
-266.089
-277.756
-289.01
-299.811
-310.125
-319.92
-329.17
-337.851
-345.943
-353.433
-360.308
-366.562
-372.192
-377.198
-381.586
-385.363
-388.54
-391.133
-393.158
-394.637
-395.591
-396.045
-396.026
-395.56
-394.677
-393.405
-391.775
-389.815
-387.555
-385.025
-382.251
-379.261
-376.079
-372.73
-369.235
-365.613
-361.882
-358.056
-354.147
-350.164
-346.115
-342.004
-337.832
-333.597
-329.298
-324.927
-320.478
-315.939
-311.3
-306.548
-301.666
-296.641
-291.455
-286.092
-280.534
-274.763
-268.763
-262.517
-256.008
-249.223
-242.147
-234.767
-227.074
-219.058
-210.713
-202.033
-193.017
-183.664
-173.977
-163.96
-153.621
-142.97
-132.018
-120.782
-109.278
-97.526
-85.546
-73.362
-60.999
-48.484
-35.844
-23.109
-10.307
2.53
15.373
28.19
40.953
53.631
66.195
78.618
90.871
102.93
114.77
126.369
137.707
148.765
159.526
169.976
180.104
189.9
199.356
208.469
217.235
225.654
233.727
241.458
248.854
255.922
262.672
269.116
275.266
281.137
286.747
292.11
297.246
302.171
306.903
311.46
315.859
320.118
324.251
328.274
332.202
336.049
339.824
343.54
347.204
350.824
354.405
357.949
361.457
364.927
368.356
371.74
375.071
378.34
381.539
384.654
387.673
390.581
393.362
395.998
398.468
400.749
402.815
404.642
406.204
407.477
408.434
409.052
409.31
409.191
408.681
407.764
406.425
404.651
402.427
399.743
396.59
392.959
388.846
384.251
379.175
373.628
367.625
361.177
354.292
346.976
339.22
331.029
322.417
313.404
304.018
294.297
284.284
274.04
263.648
253.179
242.706
232.294
221.985
211.834
201.898
192.228
182.9
173.98
165.488
157.42
149.763
142.469
135.495
128.785
122.192
115.563
108.738
101.558
93.916
85.733
76.887
67.217
56.653
45.255
33.292
21.254
9.595
-1.358
-11.244
-19.56
-25.981
-30.521
-33.629
-36.338
-39.624
-43.954
-49.755
-57.56
-67.383
-78.557
-89.652
-98.186
-101.635
-98.278
-86.262
-63.511
-28.695
18.879
78.044
144.635
213.941
281.773
345.264
405.579
463.989
517.454
558.968
574.774
549.531
476.978
358.657
203.878
29.643
-149.529
-319.668
-464.388
-572.558
-637.343
-659.517
-649.929
-621.871
-587.659
-554.098
-522.862
-493.703
-464.518
-436.307
-411.707
-392.84
-383.576
-385.134
-396.42
-416.168
-440.901
-467.423
-493.382
-516.375
-535.433
-550.395
-561.324
-569.002
-574.452
-578.737
-583.277
-589.18
-596.889
-606.544
-617.938
-630.601
-644.145
-658.123
-671.945
-685.256
-697.917
-709.869
-721.216
-732.074
-742.475
-752.489
-762.202
-771.635
-780.808
-789.738
-798.408
-806.842
-815.06
-823.051
-830.803
-838.283
-845.437
-852.213
-858.547
-864.359
-869.583
-874.156
-878.024
-881.14
-883.451
-884.897
-885.418
-884.952
-883.438
-880.819
-877.038
-872.038
-865.772
-858.199
-849.291
-839.025
-827.384
-814.346
-799.901
-784.048
-766.787
-748.12
-728.053
-706.581
-683.717
-659.5
-633.982
-607.231
-579.34
-550.392
-520.484
-489.731
-458.236
-426.088
-393.364
-360.11
-326.372
-292.224
-257.761
-223.105
-188.382
-153.677
-119.071
-84.64
-50.428
-16.484
17.152
50.49
83.499
116.09
148.136
179.436
209.759
238.933
266.817
293.295
318.279
341.648
363.28
383.083
400.932
416.707
430.275
441.442
450.068
456.119
459.618
460.693
459.538
456.292
451.078
444.024
435.227
424.81
412.905
399.601
385.017
369.296
352.609
335.191
317.256
298.935
280.322
261.444
242.278
222.845
203.181
183.306
163.277
143.151
122.987
102.887
82.949
63.245
43.823
24.701
5.891
-12.556
-30.575
-48.085
-64.982
-81.186
-96.627
-111.226
-124.928
-137.694
-149.495
-160.329
-170.209
-179.138
-187.118
-194.148
-200.228
-205.368
-209.591
-212.919
-215.386
-217.024
-217.872
-217.975
-217.375
-216.115
-214.234
-211.769
-208.753
-205.223
-201.216
-196.77
-191.922
-186.71
-181.172
-175.344
-169.264
-162.963
-156.473
-149.82
-143.031
-136.127
-129.128
-122.051
-114.912
-107.722
-100.491
-93.227
-85.936
-78.621
-71.284
-63.923
-56.537
-49.12
-41.668
-34.174
-26.628
-19.022
-11.345
-3.589
4.259
12.208
20.27
28.454
36.771
45.231
53.843
62.615
71.557
80.674
89.972
99.456
109.128
118.992
129.047
139.291
149.723
160.34
171.136
182.106
193.244
204.542
215.991
227.584
239.31
251.159
263.122
275.187
287.344
299.582
311.891
324.259
336.676
349.132
361.618
374.125
386.645
399.172
411.697
424.216
436.724
449.217
461.693
474.149
486.583
498.996
511.387
523.758
536.111
548.448
560.773
573.09
585.402
597.714
610.032
622.358
634.695
647.047
659.416
671.805
684.214
696.644
709.093
721.561
734.045
746.542
759.047
771.552
784.05
796.53
808.983
821.397
833.758
846.051
858.26
870.367
882.355
894.206
905.897
917.407
928.711
939.786
950.604
961.139
971.361
981.238
990.741
999.842
1008.512
1016.724
1024.449
1031.665
1038.349
1044.483
1050.047
1055.024
1059.394
1063.138
1066.245
1068.7
1070.492
1071.612
1072.05
1071.805
1070.886
1069.298
1067.048
1064.138
1060.556
1056.308
1051.412
1045.886
1039.758
1033.064
1025.85
1018.185
1010.17
1001.894
993.441
984.88
976.252
967.618
959.047
950.604
942.368
934.386
926.667
919.236
912.112
905.266
898.638
892.087
885.396
878.386
870.914
862.864
854.164
844.694
834.324
822.968
810.562
797.137
782.754
767.364
750.999
733.896
716.47
699.43
683.56
669.381
657.425
648.389
642.677
640.423
641.345
644.453
648.84
653.84
658.576
662.132
663.826
664.428
666.443
672.612
685.57
704.623
725.857
748.907
774.878
808.815
861.546
936.039
1030.578
1139.61
1247.135
1341.44
1412.773
1449.365
1448.101
1403.93
1311.797
1174.095
991.403
773.716
542.627
321.91
140.638
17.273
-48.441
-67.567
-59.398
-37.454
-4.943
38.392
91.143
143.903
185.103
207.324
211.26
206.819
202.575
202.47
205.212
204.714
198.347
187.081
173.811
162.969
156.373
153.805
154.798
158.172
162.955
168.428
173.337
176.678
178.09
177.433
174.882
170.83
165.637
159.807
153.966
148.5
143.556
139.155
135.188
131.559
128.2
124.98
121.748
118.399
114.865
111.109
107.104
102.778
98.032
92.758
86.88
80.36
73.18
65.335
56.832
47.685
37.936
27.645
16.864
5.636
-5.993
-17.982
-30.27
-42.794
-55.497
-68.315
-81.184
-94.043
-106.816
-119.444
-131.888
-144.114
-156.098
-167.828
-179.287
-190.484
-201.451
-212.218
-222.818
-233.259
-243.514
-253.569
-263.416
-273.051
-282.482
-291.686
-300.6
-309.184
-317.412
-325.252
-332.682
-339.627
-345.957
-351.573
-356.408
-360.451
-363.769
-366.425
-368.482
-370.048
-371.252
-372.283
-373.402
-374.819
-376.691
-379.189
-382.466
-386.74
-392.303
-399.385
-408.156
-418.728
-431.125
-445.363
-461.457
-479.333
-498.858
-519.827
-541.954
-565.018
-588.864
-613.323
-638.237
-663.401
-688.542
-713.449
-737.97
-761.974
-785.376
-808.092
-830.028
-851.169
-871.56
-891.284
-910.475
-929.213
-947.515
-965.41
-982.913
-1000.052
-1016.886
-1033.431
-1049.664
-1065.57
-1081.129
-1096.324
-1111.153
-1125.576
-1139.518
-1152.896
-1165.619
-1177.619
-1188.862
-1199.314
-1208.949
-1217.75
-1225.701
-1232.804
-1239.083
-1244.552
-1249.221
-1253.1
-1256.193
-1258.519
-1260.106
-1260.985
-1261.185
-1260.736
-1259.662
-1257.989
-1255.746
-1252.956
-1249.642
-1245.822
-1241.515
-1236.742
-1231.528
-1225.9
-1219.885
-1213.512
-1206.809
-1199.803
-1192.525
-1185.001
-1177.259
-1169.321
-1161.211
-1152.952
-1144.563
-1136.066
-1127.48
-1118.822
-1110.108
-1101.354
-1092.576
-1083.784
-1074.992
-1066.209
-1057.444
-1048.705
-1039.998
-1031.33
-1022.703
-1014.121
-1005.586
-997.098
-988.656
-980.26
-971.903
-963.581
-955.288
-947.017
-938.757
-930.501
-922.237
-913.954
-905.643
-897.293
-888.893
-880.433
-871.904
-863.296
-854.6
-845.808
-836.913
-827.908
-818.787
-809.544
-800.176
-790.679
-781.052
-771.291
-761.398
-751.372
-741.215
-730.928
-720.517
-709.983
-699.333
-688.573
-677.708
-666.747
-655.698
-644.57
-633.374
-622.118
-610.814
-599.471
-588.102
-576.716
-565.323
-553.933
-542.554
-531.195
-519.865
-508.569
-497.314
-486.104
-474.944
-463.837
-452.784
-441.786
-430.843
-419.953
-409.113
-398.32
-387.567
-376.85
-366.161
-355.493
-344.837
-334.186
-323.529
-312.857
-302.159
-291.423
-280.64
-269.797
-258.884
-247.887
-236.797
-225.603
-214.294
-202.862
-191.298
-179.594
-167.743
-155.739
-143.579
-131.261
-118.782
-106.143
-93.347
-80.397
-67.302
-54.069
-40.711
-27.241
-13.676
-0.036
13.658
27.385
41.119
54.838
68.517
82.13
95.653
109.059
122.322
135.415
148.305
160.96
173.349
185.438
197.196
208.591
219.591
230.166
240.295
249.958
259.131
267.786
275.886
283.399
290.311
296.615
302.312
307.41
311.928
315.904
319.405
322.495
325.232
327.662
329.804
331.687
333.357
334.872
336.307
337.717
339.114
340.499
341.878
343.241
344.542
345.662
346.408
346.601
346.121
344.902
342.907
340.065
336.268
331.405
325.406
318.271
310.04
300.72
290.365
279.162
267.518
256.114
245.704
236.856
230.04
225.792
224.483
226.222
230.754
237.246
244.871
253.327
262.279
271.107
279.448
287.274
296.092
309.238
329.284
357.803
393.496
432.179
472.774
515.753
565.314
630.722
714.67
815.626
927.531
1035.186
1128.193
1199.246
1240.3
1249.999
1223.468
1154.794
1045.191
895.689
716.258
525.715
342.144
188.586
80.55
19.275
0.631
9.853
32.583
64.346
99.927
139.134
182.731
224.672
263.803
298.53
325.476
345.949
358.722
362.94
360.521
352.692
341.761
330.497
321.125
315.101
312.831
314.193
318.524
324.865
332.522
340.544
347.6
352.988
356.394
357.709
357.315
355.646
353.052
350.025
347.106
344.575
342.556
341.088
340.052
339.359
338.939
338.671
338.438
338.166
337.806
337.317
336.673
335.81
334.639
333.105
331.173
328.827
326.073
322.917
319.368
315.454
311.222
306.712
301.955
296.98
291.813
286.489
281.056
275.563
270.055
264.58
259.181
253.9
248.778
243.851
239.148
234.698
230.527
226.66
223.128
219.956
217.17
214.791
212.839
211.33
210.277
209.688
209.566
209.91
210.716
211.978
213.685
215.824
218.377
221.324
224.641
228.302
232.278
236.534
241.036
245.743
250.616
255.613
260.69
265.8
270.897
275.933
280.86
285.63
290.194
294.502
298.507
302.159
305.414
308.226
310.55
312.347
313.575
314.199
314.184
313.501
312.121
310.019
307.175
303.569
299.187
294.017
288.052
281.286
273.718
265.351
256.19
246.245
235.527
224.053
211.84
198.909
185.285
170.993
156.064
140.528
124.42
107.775
90.632
73.031
55.012
36.618
17.893
-1.119
-20.374
-39.826
-59.43
-79.14
-98.911
-118.697
-138.454
-158.136
-177.7
-197.103
-216.302
-235.256
-253.926
-272.272
-290.257
-307.845
-325.001
-341.691
-357.883
-373.547
-388.653
-403.175
-417.088
-430.368
-442.994
-454.946
-466.207
-476.762
-486.597
-495.7
-504.06
-511.67
-518.523
-524.615
-529.942
-534.503
-538.301
-541.337
-543.616
-545.145
-545.932
-545.987
-545.322
-543.949
-541.884
-539.143
-535.745
-531.709
-527.057
-521.81
-515.994
-509.633
-502.754
-495.383
-487.548
-479.279
-470.603
-461.552
-452.154
-442.44
-432.442
-422.19
-411.716
-401.05
-390.224
-379.269
-368.214
-357.088
-345.922
-334.743
-323.579
-312.455
-301.397
-290.428
-279.573
-268.852
-258.285
-247.891
-237.687
-227.688
-217.909
-208.362
-199.058
-190.007
-181.216
-172.694
-164.445
-156.474
-148.785
-141.38
-134.259
-127.422
-120.868
-114.593
-108.595
-102.869
-97.41
-92.211
-87.267
-82.57
-78.113
-73.887
-69.885
-66.098
-62.518
-59.135
-55.941
-52.927
-50.087
-47.41
-44.891
-42.521
-40.293
-38.202
-36.239
-34.399
-32.674
-31.06
-29.549
-28.136
-26.817
-25.586
-24.439
-23.374
-22.387
-21.474
-20.636
-19.869
-19.174
-18.549
-17.994
-17.51
-17.098
-16.76
-16.5
-16.319
-16.223
-16.216
-16.304
-16.492
-16.786
-17.193
-17.719
-18.372
-19.161
-20.094
-21.18
-22.431
-23.857
-25.471
-27.285
-29.312
-31.566
-34.059
-36.803
-39.812
-43.1
-46.678
-50.559
-54.754
-59.277
-64.141
-69.361
-74.949
-80.914
-87.266
-94.012
-101.159
-108.709
-116.657
-124.997
-133.721
-142.82
-152.287
-162.109
-172.27
-182.753
-193.538
-204.602
-215.917
-227.452
-239.168
-251.021
-262.969
-274.973
-287
-299.026
-311.022
-322.943
-334.742
-346.367
-357.76
-368.858
-379.58
-389.828
-399.516
-408.558
-416.877
-424.415
-431.104
-436.877
-441.671
-445.403
-447.995
-449.417
-449.663
-448.74
-446.696
-443.567
-439.401
-434.336
-428.533
-422.158
-415.403
-408.414
-401.295
-394.209
-387.366
-380.891
-374.809
-368.902
-362.677
-355.676
-347.549
-337.916
-326.323
-312.451
-296.236
-278.2
-259.521
-241.374
-224.598
-209.888
-197.863
-188.688
-181.926
-176.098
-168.487
-156.179
-136.645
-107.326
-65.623
-9.584
62.119
148.344
244.75
346.721
449.529
550.627
650.551
747.551
836.722
908.368
948.233
944.338
890.191
787.32
643.642
471.447
286.788
105.243
-54.877
-177.48
-257.145
-295.164
-302.451
-294.638
-279.367
-259.217
-232.961
-196.867
-152.552
-104.874
-58.413
-17.406
16.514
43.38
63.844
79.733
93.15
106.327
121.354
139.094
159.947
184.541
212.919
244.547
278.541
313.304
347.117
379.128
408.8
435.569
459.291
479.916
497.54
512.792
526.426
538.927
550.63
561.719
572.222
582.288
592.101
601.757
611.392
621.115
631.053
641.423
652.398
664.085
676.534
689.708
703.528
717.918
732.802
748.113
763.81
779.819
796.057
812.432
828.807
845.087
861.192
877.018
892.5
907.598
922.284
936.575
950.52
964.155
977.524
990.679
1003.645
1016.466
1029.196
1041.888
1054.617
1067.438
1080.392
1093.522
1106.857
1120.417
1134.22
1148.265
1162.534
1177.016
1191.698
1206.563
1221.602
1236.798
1252.126
1267.564
1283.081
1298.648
1314.239
1329.824
1345.374
1360.855
1376.237
1391.486
1406.573
1421.466
1436.126
1450.514
1464.587
1478.304
1491.623
1504.5
1516.892
1528.754
1540.045
1550.724
1560.751
1570.088
1578.696
1586.539
1593.582
1599.792
1605.137
1609.588
1613.12
1615.707
1617.328
1617.964
1617.599
1616.22
1613.816
1610.378
1605.902
1600.386
1593.831
1586.242
1577.627
1567.995
1557.362
1545.744
1533.162
1519.639
1505.201
1489.877
1473.697
1456.697
1438.911
1420.378
1401.136
1381.227
1360.693
1339.578
1317.927
1295.784
1273.197
1250.211
1226.872
1203.228
1179.322
1155.2
1130.907
1106.484
1081.973
1057.414
1032.845
1008.305
983.826
959.443
935.185
911.083
887.161
863.444
839.952
816.706
793.72
771.01
748.585
726.455
704.627
683.104
661.89
640.984
620.386
600.092
580.098
560.398
540.985
521.852
502.991
484.394
466.053
447.96
430.107
412.488
395.097
377.928
360.977
344.241
327.718
311.406
295.307
279.422
263.754
248.309
233.094
218.116
203.387
188.916
174.718
160.807
147.198
133.908
120.955
108.357
96.135
84.307
72.893
61.913
51.387
41.334
31.77
22.713
14.178
6.176
-1.28
-8.183
-14.525
-20.303
-25.516
-30.167
-34.258
-37.798
-40.798
-43.271
-45.233
-46.706
-47.711
-48.275
-48.427
-48.201
-47.63
-46.752
-45.608
-44.239
-42.689
-41.006
-39.236
-37.428
-35.631
-33.895
-32.271
-30.809
-29.557
-28.563
-27.873
-27.531
-27.58
-28.058
-29.003
-30.447
-32.42
-34.948
-38.054
-41.757
-46.071
-51.007
-56.57
-62.764
-69.584
-77.025
-85.074
-93.715
-102.928
-112.689
-122.971
-133.742
-144.968
-156.611
-168.631
-180.986
-193.631
-206.52
-219.604
-232.834
-246.162
-259.537
-272.911
-286.237
-299.468
-312.558
-325.466
-338.152
-350.579
-362.714
-374.525
-385.984
-397.069
-407.76
-418.044
-427.908
-437.347
-446.358
-454.946
-463.121
-470.9
-478.297
-485.335
-492.037
-498.432
-504.552
-510.429
-516.092
-521.574
-526.914
-532.151
-537.329
-542.493
-547.682
-552.941
-558.314
-563.842
-569.568
-575.524
-581.732
-588.219
-595.013
-602.143
-609.649
-617.557
-625.878
-634.624
-643.798
-653.388
-663.38
-673.737
-684.396
-695.312
-706.444
-717.754
-729.225
-740.814
-752.467
-764.141
-775.782
-787.346
-798.81
-810.134
-821.292
-832.322
-843.275
-854.222
-865.269
-876.455
-887.816
-899.434
-911.368
-923.705
-936.538
-949.879
-963.775
-978.356
-993.635
-1009.5
-1025.677
-1041.579
-1056.612
-1070.386
-1082.436
-1092.22
-1099.462
-1104.22
-1107.028
-1109.055
-1111.482
-1114.969
-1120.049
-1127.366
-1137.056
-1148.452
-1160.117
-1169.556
-1173.94
-1171.324
-1160.047
-1137.974
-1103.694
-1056.912
-997.996
-929.726
-857.162
-784.623
-716.602
-656.71
-603.844
-556.857
-518.343
-494.061
-496.479
-539.94
-629.461
-761.478
-925.218
-1102.942
-1280.248
-1445.802
-1586.344
-1693.444
-1763.531
-1797.2
-1803.59
-1793.462
-1772.319
-1743.517
-1707.587
-1663.295
-1613.188
-1561.208
-1510.797
-1466.47
-1431.595
-1406.946
-1391.941
-1385.075
-1384.232
-1387.793
-1394.611
-1402.68
-1409.278
-1412.694
-1412.212
-1407.816
-1400.35
-1390.535
-1378.782
-1366.094
-1353.935
-1343.261
-1334.543
-1327.81
-1322.551
-1318.322
-1314.887
-1311.854
-1308.728
-1305.207
-1301.139
-1296.527
-1291.583
-1286.481
-1281.32
-1276.211
-1271.256
-1266.514
-1262.055
-1257.931
-1254.165
-1250.804
-1247.879
-1245.399
-1243.366
-1241.766
-1240.57
-1239.742
-1239.228
-1238.962
-1238.889
-1238.962
-1239.138
-1239.377
-1239.625
-1239.829
-1239.928
-1239.864
-1239.583
-1239.029
-1238.149
-1236.892
-1235.216
-1233.084
-1230.462
-1227.323
-1223.636
-1219.373
-1214.507
-1209.017
-1202.882
-1196.089
-1188.627
-1180.491
-1171.682
-1162.203
-1152.068
-1141.291
-1129.89
-1117.888
-1105.312
-1092.191
-1078.561
-1064.458
-1049.922
-1034.997
-1019.731
-1004.173
-988.376
-972.393
-956.28
-940.093
-923.892
-907.732
-891.672
-875.77
-860.08
-844.658
-829.558
-814.831
-800.524
-786.686
-773.357
-760.579
-748.386
-736.812
-725.883
-715.623
-706.051
-697.182
-689.024
-681.584
-674.862
-668.855
-663.555
-658.949
-655.021
-651.748
-649.106
-647.065
-645.591
-644.646
-644.19
-644.179
-644.566
-645.302
-646.336
-647.613
-649.08
-650.681
-652.358
-654.055
-655.715
-657.281
-658.698
-659.91
-660.865
-661.511
-661.799
-661.681
-661.113
-660.053
-658.461
-656.302
-653.541
-650.149
-646.099
-641.368
-635.936
-629.787
-622.909
-615.295
-606.938
-597.838
-587.999
-577.425
-566.127
-554.117
-541.412
-528.03
-513.994
-499.329
-484.061
-468.219
-451.834
-434.938
-417.564
-399.747
-381.521
-362.922
-343.984
-324.743
-305.234
-285.492
-265.55
-245.443
-225.203
-204.861
-184.449
-163.995
-143.527
-123.072
-102.653
-82.296
-62.02
-41.845
-21.789
-1.868
17.905
37.517
56.96
76.225
95.306
114.198
132.901
151.412
169.732
187.862
205.805
223.565
241.144
258.547
275.778
292.843
309.745
326.49
343.082
359.524
375.82
391.973
407.986
423.859
439.593
455.188
470.643
485.956
501.125
516.143
531.007
545.71
560.243
574.599
588.765
602.731
616.484
630.008
643.29
656.313
669.059
681.51
693.649
705.456
716.911
727.995
738.689
748.974
758.83
768.241
777.188
785.656
793.63
801.095
808.04
814.453
820.325
825.648
830.417
834.626
838.275
841.363
843.892
845.866
847.292
848.178
848.535
848.375
847.713
846.564
844.948
842.885
840.397
837.507
834.243
830.63
826.7
822.482
818.007
813.308
808.418
803.369
798.195
792.927
787.599
782.241
776.885
771.56
766.296
761.12
756.059
751.137
746.378
741.801
737.425
733.265
729.334
725.644
722.202
719.016
716.092
713.434
711.045
708.925
707.072
705.477
704.129
703.012
702.106
701.391
700.844
700.441
700.159
699.977
699.877
699.843
699.858
699.903
699.953
699.986
699.987
699.945
699.855
699.713
699.516
699.262
698.955
698.593
698.176
697.693
697.119
696.428
695.588
694.577
693.396
692.036
690.477
688.695
686.647
684.312
681.729
678.944
676.018
673.039
670.042
667.103
664.396
661.976
659.821
657.847
655.742
653.263
650.517
647.582
644.523
641.735
639.507
638.214
638.774
641.71
646.736
653.48
661.192
668.596
674.958
679.461
680.578
677.528
670.443
659.539
645.82
630.677
614.385
597.285
580.223
563.367
546.761
530.56
514.229
497.454
481.315
468.137
461.335
464.042
478.731
504.951
539.367
581.499
631.022
690.248
766.268
859.732
968.399
1087.809
1206.265
1314.578
1403.32
1459.47
1471.913
1430.831
1332.802
1184.06
1000.176
801.78
607.14
433.445
290.091
179.293
103.847
59.531
43.377
56.457
92.479
145.763
207.028
260.771
300.044
323.115
333.001
339.305
346.475
354.823
362.829
365.749
362.55
354.968
345.344
337.777
334.288
334.841
339.256
346.576
355.752
366.323
377.441
387.809
396.748
403.967
409.386
413.378
416.369
418.682
420.775
423.182
426.187
429.914
434.39
439.494
445.133
451.233
457.685
464.372
471.212
478.146
485.117
492.077
498.947
505.614
511.998
518.045
523.718
529.002
533.891
538.38
542.481
546.23
549.655
552.774
555.607
558.168
560.482
562.587
564.523
566.332
568.054
569.727
571.388
573.073
574.814
576.638
578.57
580.633
582.852
585.253
587.866
590.717
593.831
597.23
600.936
604.969
609.345
614.076
619.171
624.635
630.474
636.688
643.276
650.234
657.553
665.223
673.231
681.558
690.187
699.093
708.25
717.629
727.2
736.928
746.779
756.713
766.692
776.674
786.618
796.479
806.215
815.78
825.128
834.215
842.995
851.424
859.455
867.046
874.153
880.735
886.752
892.167
896.945
901.051
904.454
907.127
909.044
910.181
910.52
910.043
908.739
906.597
903.611
899.781
895.106
889.592
883.247
876.085
868.12
859.371
849.86
839.613
828.657
817.024
804.745
791.858
778.401
764.413
749.937
735.017
719.698
704.027
688.05
671.817
655.375
638.773
622.06
605.283
588.49
571.728
555.041
538.473
522.066
505.861
489.896
474.205
458.823
443.779
429.1
414.813
400.938
387.495
374.499
361.964
349.9
338.314
327.212
316.595
306.462
296.81
287.633
278.922
270.668
262.857
255.474
248.504
241.928
235.726
229.878
224.361
219.153
214.229
209.567
205.14
200.925
196.897
193.031
189.304
185.692
182.173
178.725
175.329
171.964
168.612
165.256
161.88
158.469
155.011
151.492
147.902
144.231
140.471
136.615
132.657
128.592
124.417
120.129
115.726
111.208
106.574
101.826
96.966
91.995
86.916
81.732
76.448
71.066
65.59
60.024
54.371
48.635
42.819
36.924
30.954
24.91
18.792
12.602
6.338
0.002
-6.409
-12.896
-19.461
-26.107
-32.838
-39.656
-46.566
-53.573
-60.681
-67.896
-75.224
-82.67
-90.24
-97.94
-105.777
-113.755
-121.881
-130.16
-138.596
-147.194
-155.958
-164.891
-173.995
-183.272
-192.721
-202.342
-212.133
-222.091
-232.211
-242.487
-252.911
-263.477
-274.175
-284.993
-295.921
-306.945
-318.052
-329.226
-340.45
-351.709
-362.981
-374.248
-385.488
-396.679
-407.8
-418.826
-429.736
-440.506
-451.112
-461.533
-471.744
-481.723
-491.447
-500.895
-510.046
-518.881
-527.38
-535.526
-543.303
-550.699
-557.701
-564.299
-570.486
-576.255
-581.602
-586.523
-591.017
-595.085
-598.732
-601.96
-604.778
-607.194
-609.222
-610.88
-612.186
-613.162
-613.828
-614.21
-614.331
-614.216
-613.889
-613.371
-612.679
-611.837
-610.866
-609.79
-608.634
-607.419
-606.166
-604.897
-603.633
-602.388
-601.177
-600.007
-598.878
-597.797
-596.772
-595.816
-594.954
-594.204
-593.567
-593.043
-592.627
-592.297
-592.031
-591.784
-591.49
-591.091
-590.53
-589.754
-588.735
-587.438
-585.823
-583.851
-581.46
-578.591
-575.232
-571.395
-567.097
-562.393
-557.331
-551.982
-546.502
-541.067
-535.846
-531.016
-526.702
-522.975
-519.946
-517.758
-516.474
-516.069
-516.318
-516.752
-516.908
-516.432
-514.944
-511.981
-507.182
-500.373
-491.839
-482.463
-473.236
-464.858
-457.835
-452.711
-449.833
-449.081
-449.505
-448.32
-441.583
-426.134
-400.067
-364.47
-322.26
-274.531
-220.358
-154.83
-72.796
26.614
139.904
257.172
367.169
457.826
517.005
535.912
505.228
423.241
295.625
129.803
-58.039
-251.885
-436.619
-591.423
-702.719
-765.476
-782.18
-767.708
-737.789
-700.663
-660.115
-614.485
-560.658
-501.225
-440.892
-384.603
-338.058
-303.745
-281.3
-269.444
-265.807
-267.812
-273.558
-281.161
-288.091
-292.113
-292.064
-287.621
-279.278
-268.023
-254.649
-239.909
-225.048
-211.348
-199.499
-189.757
-181.91
-175.397
-169.843
-164.981
-160.391
-155.652
-150.521
-144.885
-138.812
-132.513
-126.123
-119.728
-113.421
-107.278
-101.384
-95.82
-90.651
-85.935
-81.713
-78.008
-74.84
-72.218
-70.134
-68.577
-67.515
-66.899
-66.688
-66.851
-67.362
-68.199
-69.33
-70.709
-72.289
-74.023
-75.864
-77.769
-79.696
-81.596
-83.429
-85.161
-86.761
-88.205
-89.462
-90.502
-91.294
-91.81
-92.022
-91.911
-91.455
-90.637
-89.442
-87.864
-85.899
-83.547
-80.811
-77.696
-74.21
-70.366
-66.179
-61.667
-56.854
-51.762
-46.42
-40.861
-35.117
-29.227
-23.23
-17.166
-11.08
-5.016
0.978
6.855
12.567
18.065
23.302
28.227
32.793
36.953
40.66
43.87
46.54
48.628
50.097
50.91
51.035
50.442
49.104
46.998
44.103
40.403
35.885
30.539
24.359
17.343
9.493
0.815
-8.683
-18.988
-30.081
-41.944
-54.553
-67.879
-81.894
-96.565
-111.855
-127.727
-144.14
-161.052
-178.419
-196.195
-214.334
-232.787
-251.508
-270.446
-289.554
-308.783
-328.085
-347.412
-366.72
-385.961
-405.093
-424.073
-442.86
-461.415
-479.701
-497.684
-515.331
-532.612
-549.5
-565.968
-581.996
-597.563
-612.652
-627.249
-641.341
-654.921
-667.981
-680.518
-692.529
-704.016
-714.981
-725.429
-735.368
-744.805
-753.751
-762.218
-770.218
-777.765
-784.875
-791.562
-797.844
-803.737
-809.259
-814.426
-819.258
-823.771
-827.982
-831.909
-835.569
-838.979
-842.153
-845.108
-847.857
-850.414
-852.792
-855.002
-857.054
-858.958
-860.721
-862.35
-863.85
-865.225
-866.478
-867.61
-868.621
-869.51
-870.273
-870.908
-871.409
-871.771
-871.985
-872.044
-871.939
-871.66
-871.195
-870.534
-869.665
-868.574
-867.248
-865.674
-863.838
-861.725
-859.32
-856.609
-853.578
-850.212
-846.497
-842.42
-837.967
-833.128
-827.89
-822.243
-816.179
-809.688
-802.766
-795.405
-787.602
-779.356
-770.665
-761.531
-751.957
-741.947
-731.508
-720.65
-709.382
-697.716
-685.667
-673.25
-660.482
-647.383
-633.972
-620.273
-606.309
-592.106
-577.691
-563.091
-548.335
-533.453
-518.476
-503.434
-488.359
-473.282
-458.235
-443.25
-428.357
-413.588
-398.975
-384.548
-370.335
-356.365
-342.665
-329.26
-316.175
-303.431
-291.048
-279.045
-267.438
-256.244
-245.475
-235.143
-225.26
-215.832
-206.868
-198.37
-190.342
-182.785
-175.697
-169.076
-162.918
-157.219
-151.972
-147.171
-142.809
-138.877
-135.366
-132.268
-129.572
-127.266
-125.339
-123.779
-122.577
-121.719
-121.195
-120.994
-121.108
-121.532
-122.261
-123.291
-124.618
-126.238
-128.151
-130.351
-132.837
-135.601
-138.634
-141.93
-145.483
-149.289
-153.349
-157.659
-162.217
-167.019
-172.064
-177.345
-182.854
-188.58
-194.5
-200.602
-206.874
-213.309
-219.92
-226.709
-233.668
-240.789
-248.051
-255.423
-262.872
-270.348
-277.777
-285.096
-292.244
-299.165
-305.836
-312.223
-318.292
-324.009
-329.307
-334.126
-338.444
-342.256
-345.583
-348.478
-351
-353.228
-355.294
-357.339
-359.514
-361.968
-364.812
-368.125
-371.941
-376.324
-381.437
-387.341
-393.925
-400.864
-407.548
-413.41
-418.117
-421.211
-422.031
-420.174
-415.535
-408.586
-400.74
-393.211
-386.557
-381.589
-379.122
-379.205
-381.585
-384.164
-382.329
-373.321
-355.727
-328.93
-294.836
-251.148
-193.354
-119.79
-28.736
74.567
181.059
286.291
384.447
471.465
542.586
584.777
584.999
534.536
431.344
283.935
107.908
-79.746
-262.114
-421.992
-546.518
-628.016
-664.768
-663.235
-631.893
-577.995
-507.632
-426.509
-342.254
-262.296
-192.249
-132.858
-79.502
-28.712
20.96
68.789
110.607
144.082
170.2
190.844
209.659
230.331
254.104
281.029
310.698
342.139
374.43
406.984
438.751
468.202
494.531
517.457
537.023
553.886
568.758
582.139
594.653
607.002
619.606
632.778
646.767
661.56
677.128
693.478
710.526
728.188
746.418
765.124
784.163
803.387
822.589
841.549
860.135
878.242
895.779
912.681
928.864
944.275
958.918
972.811
985.971
998.413
1010.149
1021.206
1031.659
1041.594
1051.104
1060.291
1069.225
1077.963
1086.559
1095.053
1103.477
1111.856
1120.198
1128.5
1136.771
1145.021
1153.262
1161.509
1169.758
1178.006
1186.247
1194.472
1202.673
1210.844
1218.974
1227.056
1235.084
1243.053
1250.956
1258.79
1266.547
1274.213
1281.775
1289.214
1296.513
1303.654
1310.616
1317.379
1323.92
1330.221
1336.261
1342.023
1347.487
1352.635
1357.45
1361.915
1366.013
1369.729
1373.05
1375.961
1378.452
1380.513
1382.133
1383.307
1384.028
1384.294
1384.102
1383.451
1382.342
1380.777
1378.76
1376.296
1373.393
1370.06
1366.307
1362.146
1357.59
1352.656
1347.359
1341.716
1335.746
1329.468
1322.9
1316.063
1308.976
1301.658
1294.13
1286.412
1278.521
1270.478
1262.301
1254.006
1245.611
1237.132
1228.582
1219.976
1211.325
1202.639
1193.928
1185.199
1176.458
1167.709
1158.955
1150.198
1141.436
1132.667
1123.888
1115.092
1106.274
1097.424
1088.533
1079.59
1070.581
1061.495
1052.317
1043.032
1033.625
1024.082
1014.385
1004.521
994.473
984.228
973.771
963.088
952.168
940.999
929.571
917.877
905.908
893.66
881.131
868.317
855.221
841.844
828.192
814.269
800.086
785.651
770.979
756.082
740.977
725.682
710.217
694.603
678.861
663.017
647.095
631.121
615.122
599.123
583.154
567.241
551.413
535.696
520.118
504.705
489.483
474.477
459.708
445.2
430.973
417.045
403.433
390.153
377.216
364.634
352.416
340.569
329.097
318.002
307.286
296.945
286.977
277.374
268.13
259.233
250.672
242.435
234.505
226.868
219.504
212.397
205.525
198.868
192.405
186.113
179.972
173.956
168.045
162.215
156.445
150.713
144.998
139.28
133.539
127.758
121.92
116.007
110.007
103.904
97.688
91.348
84.876
78.265
71.508
64.603
57.547
50.34
42.982
35.475
27.823
20.031
12.105
4.052
-4.119
-12.399
-20.776
-29.239
-37.775
-46.37
-55.01
-63.68
-72.366
-81.052
-89.726
-98.37
-106.971
-115.516
-123.99
-132.382
-140.677
-148.864
-156.933
-164.873
-172.678
-180.338
-187.849
-195.205
-202.402
-209.44
-216.318
-223.037
-229.598
-236.004
-242.259
-248.371
-254.347
-260.196
-265.926
-271.551
-277.084
-282.544
-287.948
-293.312
-298.655
-303.995
-309.352
-314.743
-320.186
-325.691
-331.271
-336.94
-342.712
-348.603
-354.626
-360.793
-367.114
-373.601
-380.262
-387.103
-394.123
-401.315
-408.671
-416.189
-423.869
-431.721
-439.747
-447.937
-456.279
-464.758
-473.342
-481.998
-490.672
-499.292
-507.797
-516.133
-524.253
-532.12
-539.693
-546.925
-553.77
-560.179
-566.105
-571.518
-576.395
-580.736
-584.594
-588.037
-591.165
-594.109
-596.963
-599.824
-602.814
-606.033
-609.598
-613.607
-618.079
-623.063
-628.688
-634.973
-641.81
-648.91
-655.659
-661.501
-666.113
-669.078
-669.885
-668.259
-664.148
-658.007
-651.096
-644.465
-638.497
-633.652
-630.478
-629.106
-629.339
-629.178
-624.354
-611.558
-589.501
-559.922
-526.709
-490.83
-449.617
-397.043
-326.915
-239.225
-139.346
-36.628
57.861
136.225
191.939
218.198
208.422
156.632
61.095
-74.559
-239.336
-416.358
-588.268
-736.222
-847.241
-919.113
-955.03
-965.902
-963.719
-952.381
-932.449
-902.067
-858.633
-804.824
-746.064
-687.311
-633.506
-588.183
-553.072
-528.694
-514.487
-509.062
-510.523
-517.124
-527.009
-537.554
-546.199
-551.386
-552.386
-549.305
-542.869
-533.696
-522.481
-510.498
-499.147
-489.303
-481.367
-475.242
-470.481
-466.77
-463.866
-461.353
-458.762
-455.801
-452.344
-448.456
-444.343
-440.146
-435.947
-431.838
-427.911
-424.25
-420.928
-417.995
-415.481
-413.402
-411.775
-410.608
-409.902
-409.652
-409.838
-410.425
-411.371
-412.642
-414.209
-416.05
-418.147
-420.47
-422.979
-425.639
-428.407
-431.245
-434.117
-436.982
-439.797
-442.527
-445.141
-447.609
-449.908
-452.008
-453.879
-455.49
-456.814
-457.824
-458.496
-458.809
-458.742
-458.28
-457.412
-456.131
-454.431
-452.311
-449.771
-446.814
-443.446
-439.676
-435.516
-430.982
-426.09
-420.861
-415.321
-409.497
-403.418
-397.116
-390.625
-383.983
-377.227
-370.397
-363.536
-356.684
-349.884
-343.18
-336.617
-330.238
-324.086
-318.204
-312.634
-307.416
-302.589
-298.19
-294.253
-290.811
-287.893
-285.526
-283.734
-282.54
-281.96
-282.011
-282.704
-284.048
-286.047
-288.704
-292.017
-295.98
-300.584
-305.817
-311.663
-318.103
-325.116
-332.676
-340.757
-349.329
-358.358
-367.81
-377.65
-387.838
-398.335
-409.1
-420.093
-431.271
-442.592
-454.014
-465.495
-476.994
-488.469
-499.882
-511.194
-522.367
-533.366
-544.157
-554.708
-564.989
-574.973
-584.634
-593.949
-602.899
-611.465
-619.633
-627.391
-634.729
-641.641
-648.122
-654.171
-659.789
-664.98
-669.749
-674.106
-678.061
-681.627
-684.817
-687.648
-690.137
-692.302
-694.164
-695.743
-697.059
-698.135
-698.992
-699.654
-700.141
-700.478
-700.684
-700.782
-700.792
-700.734
-700.625
-700.485
-700.328
-700.169
-700.021
-699.896
-699.804
-699.752
-699.746
-699.791
-699.887
-700.036
-700.233
-700.476
-700.758
-701.071
-701.403
-701.744
-702.08
-702.396
-702.673
-702.896
-703.044
-703.096
-703.03
-702.826
-702.458
-701.903
-701.137
-700.137
-698.878
-697.336
-695.488
-693.312
-690.786
-687.889
-684.602
-680.907
-676.788
-672.23
-667.221
-661.75
-655.809
-649.392
-642.497
-635.121
-627.266
-618.937
-610.14
-600.885
-591.182
-581.046
-570.493
-559.543
-548.216
-536.537
-524.53
-512.223
-499.646
-486.829
-473.804
-460.603
-447.261
-433.81
-420.286
-406.723
-393.154
-379.614
-366.134
-352.747
-339.483
-326.37
-313.436
-300.705
-288.199
-275.938
-263.941
-252.223
-240.797
-229.673
-218.858
-208.359
-198.178
-188.313
-178.763
-169.52
-160.576
-151.92
-143.536
-135.408
-127.518
-119.846
-112.369
-105.064
-97.907
-90.874
-83.938
-77.073
-70.253
-63.451
-56.642
-49.802
-42.906
-35.932
-28.861
-21.674
-14.355
-6.891
0.729
8.515
16.474
24.611
32.93
41.429
50.108
58.961
67.983
77.161
86.483
95.93
105.48
115.111
124.799
134.518
144.24
153.938
163.587
173.164
182.646
192.009
201.228
210.278
219.135
227.778
236.185
244.337
252.215
259.809
267.109
274.111
280.818
287.224
293.324
299.11
304.56
309.664
314.425
318.846
322.936
326.718
330.219
333.486
336.591
339.597
342.566
345.561
348.624
351.81
355.18
358.788
362.716
367.032
371.755
376.9
382.473
388.45
394.824
401.533
408.419
415.315
422.042
428.423
434.368
439.739
444.341
448.09
450.985
453.183
455.127
457.258
459.858
463.285
467.938
474.039
481.682
490.495
499.485
507.64
514.278
518.959
521.252
520.946
518.327
514.653
513.038
517.617
531.716
557.333
593.653
638.195
689.871
749.359
821.174
909.962
1016.399
1136.929
1260.494
1374.981
1470.012
1535.331
1566.157
1557.074
1503.097
1405.84
1267.868
1099.053
916.342
737.109
581.828
465.819
395.593
369.313
378.154
413.482
466.185
529.94
597.882
658.844
707.25
740.986
762.9
782.544
804.103
827.912
852.026
870.643
882.056
887.631
889.263
890.861
894.816
901.43
910.847
922.546
935.644
949.755
964.243
977.938
990.032
1000.115
1007.987
1013.853
1018.133
1021.174
1023.41
1025.405
1027.497
1029.842
1032.516
1035.442
1038.526
1041.696
1044.849
1047.86
1050.661
1053.214
1055.476
1057.424
1059
1060.116
1060.715
1060.762
1060.24
1059.151
1057.506
1055.317
1052.614
1049.448
1045.862
1041.891
1037.567
1032.918
1027.979
1022.793
1017.406
1011.86
1006.196
1000.45
994.651
988.826
982.999
977.192
971.426
965.723
960.106
954.601
949.236
944.041
939.04
934.255
929.702
925.386
921.318
917.51
913.976
910.738
907.81
905.184
902.857
900.818
899.043
897.496
896.116
894.814
893.525
892.208
890.837
889.417
887.946
886.417
884.831
883.193
881.507
879.794
878.057
876.278
874.481
872.714
871.068
869.694
868.682
868.053
867.8
867.863
868.159
868.601
869.048
869.315
869.244
868.688
867.536
865.729
863.153
859.658
855.055
849.094
841.6
832.487
821.7
809.235
795.148
779.522
762.529
744.43
725.435
705.717
685.417
664.614
643.436
622.049
600.636
579.412
558.553
538.175
518.388
499.281
480.883
463.196
446.145
429.579
413.396
397.539
381.972
366.703
351.721
336.99
322.486
308.183
294.058
280.101
266.294
252.612
239.061
225.666
212.477
199.582
187.038
174.875
163.11
151.742
140.765
130.177
119.957
110.073
100.498
91.207
82.181
73.407
64.863
56.518
48.339
40.284
32.319
24.414
16.541
8.675
0.794
-7.12
-15.08
-23.089
-31.155
-39.287
-47.493
-55.782
-64.16
-72.632
-81.201
-89.87
-98.639
-107.506
-116.463
-125.504
-134.619
-143.797
-153.025
-162.29
-171.576
-180.867
-190.147
-199.398
-208.603
-217.743
-226.8
-235.754
-244.587
-253.281
-261.818
-270.182
-278.357
-286.328
-294.081
-301.606
-308.89
-315.926
-322.704
-329.217
-335.46
-341.427
-347.116
-352.524
-357.65
-362.495
-367.064
-371.359
-375.388
-379.157
-382.675
-385.954
-389.005
-391.839
-394.472
-396.918
-399.191
-401.309
-403.288
-405.147
-406.902
-408.573
-410.178
-411.734
-413.26
-414.774
-416.293
-417.834
-419.411
-421.042
-422.738
-424.515
-426.385
-428.358
-430.445
-432.654
-434.995
-437.473
-440.094
-442.862
-445.778
-448.843
-452.057
-455.418
-458.922
-462.564
-466.337
-470.234
-474.245
-478.36
-482.567
-486.855
-491.209
-495.614
-500.055
-504.515
-508.978
-513.426
-517.841
-522.204
-526.498
-530.704
-534.806
-538.786
-542.627
-546.315
-549.833
-553.168
-556.306
-559.235
-561.944
-564.421
-566.66
-568.654
-570.396
-571.884
-573.115
-574.089
-574.809
-575.279
-575.503
-575.488
-575.244
-574.779
-574.108
-573.244
-572.204
-571.004
-569.664
-568.207
-566.661
-565.05
-563.4
-561.739
-560.093
-558.489
-556.956
-555.515
-554.186
-552.987
-551.942
-551.07
-550.396
-549.94
-549.715
-549.74
-550.028
-550.593
-551.443
-552.58
-553.995
-555.683
-557.645
-559.885
-562.417
-565.245
-568.358
-571.744
-575.379
-579.235
-583.277
-587.446
-591.663
-595.861
-599.981
-603.97
-607.795
-611.406
-614.741
-617.744
-620.35
-622.506
-624.175
-625.339
-626
-626.201
-626.009
-625.511
-624.818
-624.039
-623.292
-622.703
-622.392
-622.476
-623.04
-624.194
-626.099
-628.824
-632.323
-636.337
-640.351
-643.821
-646.315
-647.347
-646.332
-642.902
-636.955
-628.951
-620.038
-611.358
-603.75
-597.942
-594.603
-594.004
-595.872
-598.879
-600.442
-597.747
-588.263
-569.426
-538.649
-493.809
-433.284
-357.95
-271.897
-179.635
-86.03
6.298
98.082
187.874
271.109
338.352
374.989
367.833
308.909
197.954
41.496
-147.208
-349.543
-546.413
-715.851
-842.029
-922.838
-962.696
-974.509
-970.696
-952.605
-919.959
-873.497
-817.405
-762.882
-719.523
-689.705
-669.614
-653.223
-636.316
-619.061
-605.671
-598.584
-597.381
-600.149
-602.911
-602.958
-599.875
-593.644
-584.809
-574.292
-562.709
-550.859
-540.004
-530.982
-524.093
-519.472
-516.916
-516.013
-516.376
-517.46
-518.607
-519.429
-519.757
-519.53
-518.821
-517.698
-516.21
-514.473
-512.626
-510.757
-508.921
-507.145
-505.446
-503.884
-502.545
-501.515
-500.853
-500.577
-500.686
-501.167
-501.996
-503.147
-504.568
-506.194
-507.973
-509.861
-511.818
-513.809
-515.788
-517.7
-519.493
-521.116
-522.518
-523.659
-524.498
-524.997
-525.128
-524.864
-524.181
-523.06
-521.479
-519.417
-516.853
-513.767
-510.143
-505.967
-501.228
-495.917
-490.029
-483.563
-476.521
-468.906
-460.724
-451.983
-442.692
-432.863
-422.51
-411.647
-400.291
-388.46
-376.175
-363.457
-350.328
-336.813
-322.937
-308.728
-294.212
-279.419
-264.378
-249.121
-233.678
-218.081
-202.363
-186.556
-170.692
-154.807
-138.931
-123.098
-107.342
-91.694
-76.186
-60.849
-45.712
-30.805
-16.155
-1.791
12.263
25.979
39.334
52.304
64.866
76.999
88.684
99.901
110.634
120.868
130.591
139.792
148.461
156.591
164.179
171.221
177.718
183.671
189.085
193.967
198.326
202.173
205.522
208.389
210.791
212.748
214.281
215.414
216.169
216.574
216.656
216.444
215.966
215.255
214.342
213.26
212.043
210.723
209.337
207.916
206.497
205.112
203.794
202.577
201.49
200.566
199.832
199.316
199.044
199.04
199.328
199.926
200.854
202.127
203.76
205.764
208.149
210.923
214.092
217.658
221.623
225.986
230.745
235.895
241.43
247.34
253.617
260.246
267.215
274.508
282.109
289.998
298.159
306.569
315.208
324.056
333.089
342.287
351.626
361.085
370.641
380.273
389.961
399.683
409.42
419.154
428.867
438.543
448.166
457.723
467.2
476.586
485.87
495.043
504.097
513.027
521.826
530.49
539.019
547.409
555.661
563.778
571.76
579.613
587.34
594.946
602.439
609.824
617.109
624.302
631.411
638.444
645.409
652.315
659.169
665.979
672.752
679.495
686.214
692.914
699.599
706.273
712.939
719.599
726.255
732.907
739.554
746.195
752.829
759.453
766.063
772.656
779.226
785.769
792.28
798.752
805.18
811.557
817.876
824.133
830.32
836.431
842.462
848.407
854.263
860.024
865.688
871.253
876.718
882.083
887.348
892.516
897.589
902.571
907.468
912.287
917.035
921.72
926.352
930.942
935.501
940.04
944.571
949.106
953.656
958.234
962.851
967.517
972.244
977.04
981.915
986.877
991.933
997.088
1002.346
1007.708
1013.175
1018.746
1024.417
1030.183
1036.037
1041.969
1047.965
1054.013
1060.095
1066.192
1072.28
1078.333
1084.325
1090.224
1095.996
1101.606
1107.014
1112.179
1117.062
1121.621
1125.814
1129.599
1132.933
1135.779
1138.097
1139.85
1140.998
1141.501
1141.323
1140.426
1138.776
1136.341
1133.091
1128.998
1124.041
1118.21
1111.494
1103.884
1095.368
1085.928
1075.555
1064.26
1052.055
1038.962
1025.012
1010.244
994.721
978.532
961.76
944.48
926.754
908.624
890.142
871.376
852.401
833.3
814.144
794.967
775.805
756.705
737.683
718.719
699.73
680.574
661.125
641.318
621.125
600.533
579.507
557.98
535.88
513.161
489.835
465.917
441.377
416.257
390.733
365.204
340.366
316.981
295.643
276.873
261.19
248.877
239.966
234.03
229.975
226.589
222.975
218.448
212.348
204.298
194.365
183.45
174.353
170.998
176.468
192.663
218.696
251.744
291.175
338.238
396.667
470.783
559.37
656.997
755.838
846.289
921.35
973.933
992.951
966.594
884.117
741.576
546.513
316.729
78.539
-141.234
-319.589
-443.061
-514.27
-544.121
-547.315
-535.792
-509.939
-467.37
-408.846
-339.916
-272.921
-217.662
-176.486
-145.862
-119.92
-96.181
-76.333
-64.547
-63.442
-72.314
-88.386
-107.515
-126.468
-143.394
-157.47
-168.834
-177.798
-184.741
-190.292
-195.274
-200.666
-207.52
-216.274
-226.78
-238.792
-251.932
-265.829
-280.172
-294.43
-307.901
-320.189
-331.174
-340.861
-349.408
-356.916
-363.429
-369.131
-374.311
-379.263
-384.23
-389.331
-394.582
-400.005
-405.649
-411.571
-417.836
-424.455
-431.399
-438.66
-446.236
-454.128
-462.322
-470.758
-479.333
-487.933
-496.466
-504.87
-513.099
-521.115
-528.877
-536.348
-543.502
-550.335
-556.841
-563.004
-568.8
-574.203
-579.192
-583.762
-587.914
-591.652
-594.973
-597.88
-600.374
-602.46
-604.147
-605.438
-606.337
-606.845
-606.972
-606.731
-606.139
-605.219
-603.993
-602.486
-600.729
-598.754
-596.595
-594.285
-591.86
-589.355
-586.807
-584.256
-581.739
-579.294
-576.962
-574.781
-572.789
-571.024
-569.524
-568.324
-567.455
-566.95
-566.837
-567.142
-567.888
-569.095
-570.78
-572.956
-575.635
-578.825
-582.528
-586.746
-591.475
-596.706
-602.43
-608.631
-615.291
-622.384
-629.887
-637.77
-645.999
-654.542
-663.359
-672.411
-681.656
-691.048
-700.542
-710.091
-719.646
-729.157
-738.576
-747.852
-756.938
-765.784
-774.345
-782.575
-790.431
-797.872
-804.859
-811.357
-817.331
-822.753
-827.594
-831.831
-835.446
-838.421
-840.746
-842.412
-843.416
-843.757
-843.441
-842.476
-840.874
-838.652
-835.829
-832.429
-828.478
-824.007
-819.048
-813.636
-807.809
-801.607
-795.071
-788.244
-781.169
-773.891
-766.454
-758.901
-751.278
-743.627
-735.991
-728.409
-720.922
-713.568
-706.383
-699.4
-692.651
-686.165
-679.969
-674.085
-668.536
-663.338
-658.506
-654.053
-649.987
-646.313
-643.036
-640.154
-637.666
-635.566
-633.847
-632.499
-631.51
-630.865
-630.549
-630.543
-630.83
-631.389
-632.201
-633.242
-634.492
-635.929
-637.53
-639.273
-641.137
-643.099
-645.138
-647.233
-649.365
-651.513
-653.659
-655.786
-657.878
-659.919
-661.896
-663.796
-665.606
-667.317
-668.919
-670.404
-671.765
-672.995
-674.091
-675.048
-675.862
-676.533
-677.058
-677.437
-677.669
-677.756
-677.697
-677.494
-677.148
-676.66
-676.03
-675.261
-674.353
-673.307
-672.125
-670.809
-669.358
-667.774
-666.058
-664.209
-662.229
-660.117
-657.871
-655.491
-652.978
-650.328
-647.543
-644.619
-641.555
-638.349
-634.999
-631.504
-627.861
-624.067
-620.12
-616.017
-611.755
-607.333
-602.747
-597.997
-593.082
-587.999
-582.751
-577.339
-571.764
-566.029
-560.136
-554.091
-547.898
-541.565
-535.097
-528.502
-521.79
-514.971
-508.056
-501.059
-493.991
-486.867
-479.701
-472.51
-465.311
-458.122
-450.964
-443.855
-436.819
-429.879
-423.06
-416.389
-409.892
-403.598
-397.537
-391.739
-386.233
-381.051
-376.22
-371.767
-367.719
-364.1
-360.932
-358.236
-356.029
-354.331
-353.158
-352.526
-352.447
-352.93
-353.981
-355.609
-357.817
-360.603
-363.952
-367.852
-372.287
-377.246
-382.722
-388.692
-395.118
-401.956
-409.158
-416.672
-424.438
-432.374
-440.372
-448.332
-456.16
-463.783
-471.152
-478.197
-484.837
-490.98
-496.524
-501.414
-505.631
-509.15
-511.93
-513.948
-515.201
-515.766
-515.804
-515.417
-514.664
-513.557
-512.051
-510.181
-508.033
-505.688
-503.225
-500.644
-497.864
-494.881
-491.817
-488.648
-485.161
-480.866
-474.923
-466.653
-455.684
-441.623
-423.987
-402.504
-377.268
-348.94
-319.047
-289.111
-260.126
-233.035
-208.639
-187.143
-168.12
-150.157
-130.44
-105.952
-74.043
-31.84
23.14
92.611
176.668
272.754
376.574
483.171
589.409
694.124
795.516
890.532
971.427
1026.403
1043.511
1012.136
928.831
797.542
628.935
440.656
251.668
81.893
-51.938
-142.315
-190.22
-204.563
-197.159
-174.837
-137.974
-85.414
-18.451
55.628
124.865
180.501
220.381
248.628
271.578
293.373
314.207
330.635
340.41
343.578
341.957
339.724
340.032
343.827
351.218
361.488
373.773
387.726
402.888
418.18
432.405
444.868
455.32
463.94
471.224
477.553
483.179
488.515
494.028
499.981
506.505
513.575
520.994
528.609
536.335
544.064
551.695
559.155
566.353
573.216
579.693
585.708
591.205
596.152
600.516
604.285
607.462
610.054
612.09
613.611
614.646
615.216
615.343
615.044
614.35
613.302
611.937
610.298
608.423
606.352
604.128
601.793
599.382
596.931
594.472
592.035
589.657
587.374
585.225
583.247
581.476
579.946
578.69
577.741
577.126
576.87
576.996
577.523
578.47
579.852
581.684
583.976
586.736
589.968
593.675
597.856
602.506
607.616
613.177
619.173
625.588
632.401
639.59
647.127
654.986
663.134
671.539
680.165
688.975
697.931
706.993
716.12
725.271
734.405
743.478
752.449
761.277
769.921
778.342
786.502
794.362
801.888
809.045
815.802
822.128
827.996
833.379
838.255
842.603
846.407
849.649
852.32
854.408
855.907
856.814
857.126
856.847
855.979
854.529
852.506
849.922
846.79
843.124
838.94
834.258
829.096
823.474
817.413
810.935
804.061
796.814
789.216
781.288
773.053
764.531
755.742
746.706
737.442
727.967
718.297
708.447
698.432
688.265
677.958
667.521
656.964
646.295
635.522
624.652
613.691
602.643
591.512
580.303
569.019
557.663
546.239
534.749
523.197
511.586
499.922
488.208
476.449
464.653
452.826
440.976
429.111
417.241
405.378
393.533
381.719
369.949
358.24
346.606
335.063
323.628
312.318
301.151
290.143
279.313
268.677
258.253
248.056
238.102
228.407
218.983
209.843
200.998
192.458
184.229
176.317
168.727
161.46
154.515
147.89
141.58
135.578
129.875
124.46
119.319
114.436
109.793
105.371
101.147
97.1
93.205
89.437
85.768
82.172
78.622
75.088
71.543
67.96
64.31
60.566
56.703
52.697
48.522
44.159
39.588
34.792
29.755
24.466
18.914
13.094
7
0.632
-6.008
-12.915
-20.082
-27.497
-35.145
-43.009
-51.07
-59.304
-67.685
-76.187
-84.779
-93.429
-102.103
-110.766
-119.381
-127.909
-136.312
-144.549
-152.579
-160.361
-167.855
-175.02
-181.816
-188.205
-194.148
-199.612
-204.561
-208.964
-212.79
-216.013
-218.608
-220.552
-221.827
-222.415
-222.303
-221.483
-219.949
-217.699
-214.733
-211.055
-206.673
-201.599
-195.848
-189.437
-182.385
-174.717
-166.46
-157.643
-148.302
-138.471
-128.189
-117.497
-106.441
-95.067
-83.422
-71.557
-59.521
-47.367
-35.148
-22.919
-10.734
1.353
13.287
25.009
36.461
47.585
58.327
68.631
78.447
87.722
96.408
104.461
111.844
118.524
124.466
129.636
133.999
137.528
140.202
142.001
142.91
142.914
142.005
140.188
137.476
133.884
129.422
124.093
117.893
110.832
102.935
94.228
84.748
74.538
63.648
52.155
40.16
27.754
15.024
2.041
-11.137
-24.429
-37.745
-50.987
-64.051
-76.861
-89.356
-101.472
-113.17
-124.453
-135.348
-145.932
-156.305
-166.553
-176.771
-187.075
-197.575
-208.403
-219.669
-231.5
-244.066
-257.416
-271.46
-285.942
-300.371
-314.18
-326.882
-337.919
-346.633
-352.67
-356.049
-357.308
-357.582
-358.036
-359.6
-363.022
-368.885
-377.5
-388.479
-399.987
-409.356
-412.937
-405.997
-385.831
-350.846
-300.697
-239.462
-169.259
-88.818
2.288
107.925
227.932
352.443
470.765
568.862
632.859
656.466
633.437
559.475
436.63
269.706
72.043
-133.758
-324.779
-479.421
-584.291
-641.385
-660.915
-657.295
-644.391
-626.291
-601.489
-568.069
-523.937
-471.621
-416.924
-364.522
-318.694
-282.501
-256.517
-239.928
-231.43
-229.264
-231.443
-236.502
-242.577
-247.026
-248.286
-245.85
-239.637
-230.362
-218.984
-206.101
-192.733
-180.417
-170.007
-161.835
-155.98
-151.958
-149.237
-147.537
-146.407
-145.272
-143.859
-142.031
-139.747
-137.195
-134.527
-131.809
-129.157
-126.672
-124.402
-122.419
-120.78
-119.522
-118.722
-118.441
-118.705
-119.541
-120.95
-122.913
-125.416
-128.421
-131.87
-135.717
-139.924
-144.457
-149.291
-154.385
-159.69
-165.152
-170.717
-176.334
-181.955
-187.527
-193.002
-198.335
-203.487
-208.425
-213.118
-217.531
-221.627
-225.37
-228.726
-231.661
-234.147
-236.157
-237.663
-238.645
-239.085
-238.972
-238.295
-237.046
-235.22
-232.814
-229.831
-226.275
-222.152
-217.475
-212.255
-206.51
-200.259
-193.526
-186.337
-178.719
-170.703
-162.324
-153.616
-144.617
-135.368
-125.908
-116.281
-106.528
-96.696
-86.829
-76.972
-67.171
-57.471
-47.917
-38.553
-29.423
-20.569
-12.032
-3.849
3.941
11.305
18.209
24.623
30.52
35.874
40.663
44.868
48.472
51.463
53.832
55.572
56.681
57.161
57.016
56.255
54.89
52.937
50.415
47.345
43.755
39.671
35.127
30.156
24.796
19.086
13.067
6.784
0.282
-6.393
-13.191
-20.065
-26.964
-33.838
-40.638
-47.312
-53.811
-60.087
-66.09
-71.774
-77.093
-82.004
-86.465
-90.436
-93.88
-96.762
-99.053
-100.722
-101.745
-102.1
-101.768
-100.736
-98.99
-96.524
-93.334
-89.419
-84.783
-79.432
-73.378
-66.633
-59.215
-51.145
-42.445
-33.143
-23.266
-12.848
-1.921
9.479
21.313
33.542
46.124
59.018
72.178
85.562
99.124
112.819
126.603
140.43
154.256
168.038
181.733
195.3
208.699
221.891
234.841
247.512
259.873
271.894
283.546
294.805
305.646
316.05
325.999
335.477
344.471
352.972
360.971
368.463
375.446
381.919
387.885
393.347
398.313
402.79
406.79
410.325
413.408
416.056
418.286
420.115
421.564
422.652
423.4
423.831
423.966
423.827
423.437
422.818
421.991
420.979
419.802
418.482
417.038
415.489
413.854
412.15
410.395
408.605
406.793
404.973
403.159
401.362
399.594
397.863
396.178
394.546
392.975
391.469
390.032
388.668
387.378
386.164
385.026
383.962
382.972
382.053
381.201
380.415
379.69
379.022
378.406
377.838
377.311
376.82
376.36
375.924
375.506
375.1
374.699
374.297
373.888
373.466
373.024
372.553
372.047
371.498
370.897
370.237
369.509
368.704
367.814
366.83
365.745
364.549
363.235
361.794
360.218
358.497
356.625
354.591
352.387
350.002
347.426
344.651
341.668
338.467
335.037
331.368
327.449
323.27
318.822
314.092
309.066
303.73
298.073
292.086
285.76
279.085
272.052
264.66
256.909
248.803
240.342
231.527
222.359
212.84
202.977
192.778
182.247
171.394
160.229
148.772
137.052
125.095
112.922
100.553
87.995
75.268
62.405
49.432
36.387
23.316
10.269
-2.684
-15.451
-27.958
-40.138
-51.932
-63.301
-74.187
-84.522
-94.256
-103.33
-111.698
-119.335
-126.204
-132.282
-137.618
-142.277
-146.347
-149.956
-153.17
-156.052
-158.723
-161.284
-163.86
-166.582
-169.498
-172.675
-176.273
-180.334
-184.768
-189.316
-193.399
-196.412
-197.962
-197.62
-194.853
-189.39
-181.305
-171.144
-160.149
-149.604
-140.281
-132.732
-127.59
-125.217
-125.101
-125.728
-124.605
-118.003
-103.068
-78.663
-42.535
5.313
63.755
134.176
213.513
299.247
390.483
481.393
570.731
656.332
730.151
785.521
808.731
784.971
710.305
585.97
422.64
239.791
51.69
-127.582
-283.45
-408.673
-496.028
-543.49
-556.724
-541.299
-505.624
-457.924
-406.183
-358.444
-317.93
-284.368
-253.309
-220.285
-185.9
-153.811
-129.123
-115.048
-111.307
-115.526
-124.518
-135.729
-146.724
-155.294
-160.406
-161.602
-158.969
-153.201
-144.882
-134.688
-123.932
-113.989
-105.686
-99.376
-94.886
-91.727
-89.576
-88.183
-87.153
-86.052
-84.607
-82.713
-80.46
-78.067
-75.682
-73.39
-71.268
-69.393
-67.842
-66.686
-65.985
-65.778
-66.088
-66.928
-68.304
-70.209
-72.628
-75.531
-78.864
-82.563
-86.569
-90.836
-95.322
-99.991
-104.791
-109.663
-114.547
-119.38
-124.104
-128.665
-133.005
-137.066
-140.8
-144.164
-147.124
-149.649
-151.709
-153.272
-154.31
-154.799
-154.719
-154.055
-152.796
-150.936
-148.474
-145.416
-141.772
-137.561
-132.801
-127.516
-121.733
-115.485
-108.807
-101.736
-94.316
-86.589
-78.605
-70.413
-62.067
-53.619
-45.127
-36.645
-28.231
-19.942
-11.835
-3.965
3.614
10.848
17.687
24.082
29.985
35.355
40.15
44.334
47.874
50.738
52.902
54.344
55.047
54.998
54.188
52.613
50.27
47.164
43.303
38.695
33.357
27.307
20.566
13.16
5.117
-3.531
-12.75
-22.504
-32.753
-43.457
-54.572
-66.057
-77.865
-89.951
-102.269
-114.773
-127.416
-140.154
-152.94
-165.731
-178.484
-191.159
-203.715
-216.114
-228.323
-240.306
-252.035
-263.479
-274.614
-285.416
-295.865
-305.945
-315.64
-324.94
-333.835
-342.321
-350.396
-358.061
-365.318
-372.173
-378.637
-384.72
-390.435
-395.799
-400.83
-405.547
-409.972
-414.128
-418.039
-421.729
-425.225
-428.553
-431.739
-434.809
-437.789
-440.705
-443.582
-446.444
-449.313
-452.212
-455.161
-458.179
-461.284
-464.49
-467.813
-471.263
-474.851
-478.583
-482.465
-486.501
-490.691
-495.036
-499.532
-504.175
-508.957
-513.872
-518.908
-524.054
-529.298
-534.624
-540.018
-545.464
-550.944
-556.44
-561.936
-567.412
-572.851
-578.235
-583.547
-588.768
-593.882
-598.874
-603.728
-608.431
-612.969
-617.331
-621.507
-625.489
-629.268
-632.84
-636.2
-639.346
-642.275
-644.989
-647.488
-649.775
-651.854
-653.73
-655.408
-656.895
-658.198
-659.326
-660.287
-661.09
-661.742
-662.254
-662.634
-662.891
-663.033
-663.068
-663.004
-662.848
-662.606
-662.284
-661.886
-661.416
-660.875
-660.264
-659.583
-658.83
-658.001
-657.092
-656.097
-655.008
-653.817
-652.515
-651.091
-649.534
-647.83
-645.967
-643.932
-641.711
-639.289
-636.655
-633.793
-630.692
-627.34
-623.725
-619.836
-615.662
-611.195
-606.425
-601.345
-595.947
-590.226
-584.177
-577.798
-571.088
-564.048
-556.683
-548.995
-540.993
-532.685
-524.082
-515.196
-506.042
-496.636
-486.994
-477.137
-467.086
-456.864
-446.495
-436.004
-425.415
-414.755
-404.05
-393.324
-382.601
-371.906
-361.261
-350.689
-340.211
-329.85
-319.63
-309.57
-299.695
-290.026
-280.582
-271.38
-262.435
-253.755
-245.348
-237.214
-229.351
-221.751
-214.409
-207.314
-200.457
-193.824
-187.399
-181.159
-175.08
-169.135
-163.293
-157.518
-151.768
-146.004
-140.192
-134.308
-128.343
-122.278
-116.081
-109.72
-103.159
-96.355
-89.263
-81.825
-73.95
-65.55
-56.549
-46.883
-36.526
-25.451
-13.608
-0.934
12.637
27.139
42.547
58.826
75.957
93.917
112.673
132.117
152.022
172.148
192.285
212.264
232.012
251.42
270.23
288.265
305.52
322.207
338.824
355.813
373.311
391.545
410.987
431.963
454.566
478.359
502.112
524.792
545.829
564.466
579.931
591.891
601.415
611.356
625.224
645.432
671.104
700.055
732.709
772.459
826.395
901.348
997.508
1110.067
1230.351
1348.179
1456.405
1547.124
1610.677
1637.94
1621.006
1558.807
1458.501
1329.917
1182.458
1024.516
862.329
705.914
570.875
468.362
403.874
374.085
366.128
371.213
385.876
409.684
445.594
492.411
545.345
599.782
650.946
695.657
731.977
758.994
777.472
788.843
794.776
796.781
795.822
793.441
792.053
793.185
797.329
804.291
813.07
822.84
833.23
843.395
851.99
858.204
861.712
862.638
861.751
859.705
856.865
853.731
850.868
848.668
847.441
847.365
848.406
850.533
853.734
857.952
863.126
869.175
875.969
883.335
891.045
898.895
906.74
914.48
922.055
929.411
936.483
943.219
949.589
955.578
961.176
966.363
971.108
975.406
979.281
982.796
986.043
989.094
991.992
994.768
997.442
1000.028
1002.54
1004.975
1007.316
1009.552
1011.682
1013.709
1015.646
1017.498
1019.264
1020.936
1022.503
1023.958
1025.296
1026.514
1027.608
1028.577
1029.422
1030.148
1030.766
1031.282
1031.696
1032.01
1032.22
1032.32
1032.307
1032.173
1031.908
1031.502
1030.945
1030.225
1029.333
1028.256
1026.981
1025.492
1023.776
1021.816
1019.596
1017.097
1014.3
1011.185
1007.732
1003.92
999.726
995.127
990.099
984.619
978.662
972.203
965.218
957.68
949.563
940.845
931.5
921.506
910.842
899.488
887.427
874.645
861.127
846.864
831.849
816.073
799.536
782.237
764.178
745.364
725.803
705.506
684.488
662.764
640.355
617.284
593.576
569.26
544.368
518.933
492.993
466.589
439.762
412.557
385.022
357.207
329.161
300.939
272.594
244.18
215.754
187.37
159.084
130.95
103.023
75.354
47.994
20.993
-5.603
-31.749
-57.404
-82.527
-107.082
-131.035
-154.356
-177.016
-198.991
-220.26
-240.805
-260.61
-279.664
-297.958
-315.488
-332.252
-348.252
-363.491
-377.979
-391.725
-404.746
-417.057
-428.678
-439.632
-449.943
-459.637
-468.744
-477.293
-485.314
-492.84
-499.902
-506.533
-512.764
-518.627
-524.154
-529.374
-534.318
-539.014
-543.489
-547.769
-551.879
-555.843
-559.684
-563.422
-567.078
-570.669
-574.214
-577.727
-581.225
-584.719
-588.221
-591.743
-595.292
-598.876
-602.502
-606.173
-609.893
-613.664
-617.487
-621.361
-625.285
-629.257
-633.275
-637.336
-641.439
-645.579
-649.755
-653.964
-658.206
-662.479
-666.784
-671.119
-675.486
-679.885
-684.318
-688.786
-693.29
-697.833
-702.416
-707.041
-711.708
-716.419
-721.176
-725.979
-730.827
-735.722
-740.662
-745.647
-750.677
-755.75
-760.866
-766.024
-771.221
-776.457
-781.729
-787.036
-792.373
-797.736
-803.121
-808.521
-813.929
-819.337
-824.734
-830.111
-835.458
-840.762
-846.011
-851.194
-856.297
-861.307
-866.212
-870.999
-875.656
-880.17
-884.532
-888.731
-892.758
-896.608
-900.273
-903.749
-907.031
-910.117
-913.006
-915.697
-918.192
-920.49
-922.595
-924.513
-926.247
-927.807
-929.201
-930.44
-931.539
-932.516
-933.389
-934.177
-934.9
-935.579
-936.237
-936.895
-937.573
-938.287
-939.057
-939.9
-940.838
-941.893
-943.081
-944.415
-945.907
-947.568
-949.407
-951.432
-953.638
-956.013
-958.551
-961.246
-964.104
-967.14
-970.351
-973.718
-977.221
-980.832
-984.52
-988.25
-991.961
-995.565
-998.981
-1002.133
-1004.964
-1007.434
-1009.477
-1011.01
-1011.937
-1012.141
-1011.551
-1010.134
-1007.853
-1004.674
-1000.596
-995.629
-989.838
-983.381
-976.405
-969.041
-961.425
-953.658
-945.842
-938.156
-930.852
-924.067
-917.781
-911.814
-905.773
-899.33
-892.289
-884.282
-874.739
-863.274
-849.684
-834.135
-817.532
-800.62
-783.664
-767.117
-751.282
-735.952
-720.957
-705.699
-688.313
-666.848
-639.796
-604.496
-558.078
-499.889
-429.516
-348.387
-261.532
-170.061
-72.817
30.525
142.798
261.925
380.89
493.936
593.653
672.199
721.92
731.68
691.285
597.11
452.685
272.133
75.911
-115.512
-281.731
-410.187
-496.9
-543.274
-557.766
-547.441
-514.666
-461.944
-392.146
-313.105
-238.205
-177.045
-133.214
-103.109
-77.287
-50.461
-21.794
6.021
26.895
38.635
42.381
40.501
37.515
36.486
38.076
42.382
48.816
56.499
64.992
73.701
81.365
86.691
88.988
88.053
84.185
78.067
70.265
61.234
51.571
41.873
32.537
23.83
15.877
8.681
2.273
-3.31
-8.076
-12.056
-15.285
-17.839
-19.837
-21.443
-22.852
-24.202
-25.575
-27.018
-28.554
-30.21
-32.013
-33.974
-36.079
-38.315
-40.675
-43.157
-45.758
-48.437
-51.125
-53.719
-56.11
-58.215
-59.976
-61.342
-62.278
-62.754
-62.745
-62.245
-61.26
-59.787
-57.817
-55.338
-52.336
-48.807
-44.759
-40.205
-35.16
-29.643
-23.668
-17.252
-10.416
-3.176
4.452
12.452
20.813
29.517
38.541
47.86
57.444
67.264
77.288
87.483
97.811
108.239
118.729
129.247
139.758
150.227
160.619
170.898
181.032
190.985
200.725
210.219
219.436
228.346
236.921
245.135
252.961
260.378
267.365
273.903
279.975
285.566
290.663
295.255
299.334
302.892
305.925
308.433
310.415
311.875
312.819
313.255
313.195
312.652
311.639
310.174
308.274
305.96
303.253
300.176
296.753
293.009
288.971
284.666
280.122
275.366
270.428
265.334
260.115
254.796
249.407
243.972
238.519
233.072
227.655
222.291
217.002
211.808
206.728
201.78
196.979
192.34
187.875
183.595
179.51
175.627
171.952
168.489
165.24
162.207
159.388
156.783
154.388
152.197
150.206
148.408
146.795
145.359
144.091
142.982
142.021
141.2
140.508
139.936
139.475
139.115
138.848
138.667
138.565
138.534
138.569
138.665
138.817
139.021
139.276
139.579
139.927
140.322
140.763
141.251
141.787
142.372
143.011
143.703
144.454
145.266
146.141
147.085
148.1
149.19
150.359
151.61
152.945
154.369
155.882
157.487
159.184
160.973
162.854
164.824
166.881
169.022
171.242
173.536
175.897
178.317
180.79
183.306
185.854
188.425
191.008
193.591
196.163
198.713
201.229
203.699
206.112
208.457
210.723
212.9
214.977
216.945
218.793
220.513
222.096
223.535
224.822
225.952
226.92
227.72
228.35
228.808
229.091
229.2
229.137
228.902
228.501
227.94
227.223
226.361
225.36
224.232
222.987
221.636
220.191
218.662
217.063
215.403
213.695
211.949
210.179
208.393
206.602
204.817
203.047
201.302
199.59
197.918
196.292
194.718
193.2
191.743
190.35
189.021
187.757
186.556
185.416
184.334
183.304
182.317
181.363
180.43
179.505
178.573
177.618
176.621
175.563
174.427
173.193
171.844
170.361
168.724
166.915
164.909
162.686
160.218
157.48
154.448
151.102
147.423
143.399
139.02
134.282
129.185
123.734
117.934
111.784
105.29
98.458
91.31
83.875
76.19
68.293
60.227
52.03
43.751
35.433
27.107
18.79
10.479
2.176
-6.096
-14.293
-22.379
-30.317
-38.09
-45.697
-53.094
-60.218
-66.998
-73.353
-79.228
-84.579
-89.299
-93.204
-96.193
-98.277
-99.604
-100.45
-101.004
-101.308
-101.361
-101.21
-100.678
-99.293
-96.425
-91.242
-83.081
-71.732
-57.265
-39.844
-20.218
0.343
20.581
39.047
54.528
66.441
74.302
77.483
76.089
70.811
62.301
51.425
38.668
24.125
8.674
-4.912
-13.164
-13.023
-2.234
18.168
46.351
82.439
128.201
189.888
273.909
382.414
513.202
654.91
792.302
911.289
997.989
1045.816
1053.099
1017.581
940.415
822.524
663.328
470.983
260.95
52.723
-127.429
-261.241
-346.587
-390.825
-410.869
-422.464
-426.891
-417.213
-386.965
-333.518
-266.873
-206.142
-163.76
-144.587
-144.233
-149.375
-151.378
-147.722
-140.193
-135.052
-135.524
-140.81
-148.217
-153.835
-155.897
-154.686
-150.868
-145.29
-138.344
-130.205
-121.677
-113.837
-107.291
-102.217
-98.451
-95.568
-93.235
-91.244
-89.241
-86.78
-83.62
-79.654
-74.903
-69.549
-63.742
-57.567
-51.138
-44.567
-37.935
-31.341
-24.877
-18.616
-12.657
-7.076
-1.92
2.766
6.962
10.661
13.864
16.596
18.901
20.812
22.352
23.545
24.412
24.988
25.321
25.455
25.439
25.317
25.134
24.938
24.773
24.677
24.687
24.831
25.138
25.639
26.368
27.356
28.634
30.23
32.17
34.477
37.173
40.274
43.791
47.731
52.099
56.895
62.117
67.759
73.81
80.256
87.079
94.259
101.77
109.583
117.666
125.984
134.498
143.169
151.955
160.812
169.694
178.557
187.355
196.042
204.572
212.9
220.981
228.772
236.231
243.317
249.992
256.219
261.964
267.196
271.886
276.011
279.549
282.481
284.794
286.477
287.524
287.932
287.702
286.84
285.354
283.258
280.568
277.305
273.493
269.16
264.334
259.048
253.337
247.238
240.787
234.024
226.99
219.726
212.273
204.673
196.968
189.2
181.411
173.64
165.928
158.312
150.831
143.519
136.409
129.535
122.925
116.607
110.605
104.943
99.64
94.714
90.178
86.044
82.322
79.015
76.13
73.665
71.619
69.989
68.77
67.952
67.529
67.487
67.817
68.504
69.535
70.894
72.567
74.536
76.786
79.301
82.064
85.059
88.269
91.68
95.276
99.042
102.965
107.031
111.227
115.542
119.965
124.485
129.095
133.785
138.548
143.38
148.274
153.225
158.231
163.288
168.394
173.547
178.744
183.985
189.268
194.592
199.957
205.362
210.804
216.284
221.797
227.343
232.918
238.519
244.141
249.779
255.427
261.079
266.729
272.367
277.986
283.577
289.129
294.634
300.079
305.453
310.745
315.943
321.034
326.006
330.846
335.543
340.084
344.457
348.65
352.653
356.453
360.04
363.404
366.537
369.429
372.072
374.46
376.587
378.447
380.039
381.358
382.405
383.179
383.682
383.918
383.889
383.603
383.065
382.282
381.266
380.025
378.57
376.914
375.071
373.053
370.875
368.553
366.1
363.534
360.869
358.12
355.303
352.433
349.526
346.597
343.66
340.73
337.82
334.944
332.116
329.344
326.642
324.016
321.476
319.028
316.676
314.424
312.275
310.228
308.282
306.436
304.685
303.023
301.443
299.934
298.487
297.087
295.721
294.372
293.024
291.659
290.258
288.802
287.271
285.642
283.896
282.011
279.964
277.732
275.29
272.61
269.668
266.44
262.903
259.033
254.808
250.212
245.231
239.858
234.081
227.894
221.287
214.255
206.796
198.911
190.605
181.881
172.755
163.239
153.36
143.15
132.635
121.841
110.789
99.487
87.955
76.224
64.33
52.31
40.216
28.098
16.025
4.085
-7.645
-19.092
-30.19
-40.894
-51.147
-60.889
-70.055
-78.559
-86.319
-93.293
-99.469
-104.839
-109.43
-113.264
-116.376
-118.88
-120.912
-122.605
-124.106
-125.528
-126.936
-128.443
-130.23
-132.398
-134.965
-137.73
-140.186
-141.823
-142.277
-141.171
-138.082
-132.725
-125.032
-115.504
-105.422
-96.209
-88.926
-84.282
-82.877
-85.003
-90.394
-97.82
-103.822
-103.547
-93.307
-70.905
-37.224
4.527
54.015
113.152
185.998
277.028
384.12
500.421
616.484
721.682
809.097
872.218
903.118
892.929
832.314
717.336
550.441
343.361
117.002
-104.064
-293.34
-432.174
-514.069
-543.979
-535.369
-499.995
-447.659
-384.602
-316.772
-254.818
-204.99
-170.084
-147.948
-129.721
-111.471
-92.699
-74.934
-63.556
-59.993
-62.649
-69.485
-76.353
-80.333
-80.814
-77.697
-71.574
-63.347
-53.43
-42.251
-30.811
-20.254
-11.248
-4.068
1.386
5.588
8.944
11.72
14.335
17.251
20.693
24.788
29.559
34.809
40.344
46.041
51.742
57.333
62.811
68.109
73.079
77.743
82.283
86.688
90.843
94.747
98.099
101.43
106.383
112.617
118.663
122.05
118.114
107.178
93.949
83.136
81.43
89.253
100.355
109.912
112.698
107.855
100.116
92.387
86.665
83.56
81.17
78.656
76.108
73.487
71.108
69.069
67.133
65.247
63.48
61.842
60.339
58.995
57.833
56.89
56.221
55.847
55.753
55.938
56.406
57.157
58.19
59.499
61.071
62.895
64.962
67.259
69.77
72.478
75.361
78.396
81.56
84.826
88.167
91.552
94.953
98.335
101.668
104.917
108.048
111.028
113.82
116.391
118.706
120.734
122.44
123.795
124.768
125.33
125.455
125.119
124.298
122.974
121.126
118.741
115.805
112.309
108.245
103.609
98.401
92.621
86.275
79.371
71.919
63.934
55.433
46.434
36.96
27.035
16.686
5.943
-5.164
-16.602
-28.335
-40.327
-52.541
-64.938
-77.478
-90.121
-102.827
-115.556
-128.268
-140.925
-153.488
-165.921
-178.188
-190.256
-202.091
-213.663
-224.945
-235.909
-246.533
-256.795
-266.676
-276.16
-285.233
-293.886
-302.108
-309.894
-317.241
-324.147
-330.614
-336.645
-342.246
-347.426
-352.195
-356.566
-360.552
-364.171
-367.441
-370.38
-373.01
-375.352
-377.428
-379.262
-380.876
-382.295
-383.542
-384.641
-385.615
-386.486
-387.278
-388.011
-388.705
-389.38
-390.055
-390.745
-391.466
-392.233
-393.059
-393.954
-394.93
-395.995
-397.156
-398.419
-399.789
-401.266
-402.854
-404.55
-406.354
-408.261
-410.267
-412.364
-414.546
-416.804
-419.129
-421.508
-423.933
-426.389
-428.866
-431.35
-433.828
-436.288
-438.715
-441.098
-443.425
-445.682
-447.86
-449.946
-451.931
-453.806
-455.563
-457.193
-458.69
-460.049
-461.266
-462.338
-463.262
-464.037
-464.665
-465.147
-465.486
-465.687
-465.754
-465.695
-465.516
-465.227
-464.836
-464.355
-463.793
-463.162
-462.473
-461.738
-460.968
-460.176
-459.372
-458.569
-457.776
-457.004
-456.262
-455.561
-454.908
-454.31
-453.774
-453.304
-452.906
-452.581
-452.33
-452.153
-452.049
-452.013
-452.043
-452.131
-452.271
-452.455
-452.674
-452.916
-453.172
-453.429
-453.673
-453.893
-454.073
-454.2
-454.261
-454.242
-454.13
-453.911
-453.575
-453.109
-452.505
-451.75
-450.838
-449.759
-448.507
-447.078
-445.465
-443.666
-441.68
-439.508
-437.154
-434.628
-431.938
-429.093
-426.106
-422.991
-419.763
-416.436
-413.022
-409.528
-405.966
-402.35
-398.695
-395.015
-391.326
-387.638
-383.966
-380.323
-376.719
-373.164
-369.66
-366.199
-362.786
-359.427
-356.137
-352.939
-349.854
-346.883
-344.028
-341.286
-338.644
-336.082
-333.56
-331.011
-328.377
-325.606
-322.651
-319.483
-316.063
-312.327
-308.217
-303.663
-298.597
-292.997
-286.87
-280.223
-273.106
-265.586
-257.741
-249.74
-241.773
-234.017
-226.658
-219.838
-213.668
-208.329
-204.083
-201.067
-199.272
-198.46
-198.086
-197.635
-196.735
-194.896
-191.442
-185.904
-178.201
-168.839
-159.177
-150.553
-143.74
-139.47
-138.44
-140.76
-145.752
-151.546
-154.732
-151.82
-139.872
-115.811
-76.978
-21.298
51.363
138.067
234.38
335.287
438.176
542.49
645.429
742.14
822.101
871.589
881.041
842.976
758.25
634.19
476.831
298.799
113.651
-64.717
-215.959
-327.302
-395.511
-424.489
-428.623
-421.341
-407.893
-389.02
-362.038
-324.551
-279.092
-230.463
-183.017
-140.557
-105.42
-78.566
-59.751
-47.972
-41.955
-40.254
-41.837
-45.596
-49.629
-52.069
-51.948
-48.998
-43.607
-36.54
-28.368
-19.736
-11.75
-5.585
-1.93
-0.946
-2.331
-5.481
-9.877
-15.132
-20.762
-26.227
-31.186
-35.461
-39
-41.888
-44.129
-45.623
-46.331
-46.255
-45.406
-43.868
-41.75
-39.176
-36.329
-33.369
-30.396
-27.49
-24.684
-21.984
-19.402
-16.928
-14.554
-12.314
-10.237
-8.348
-6.668
-5.18
-3.844
-2.602
-1.37
-0.065
1.368
2.978
4.792
6.821
9.073
11.546
14.227
17.118
20.226
23.558
27.128
30.945
35.006
39.31
43.844
48.593
53.544
58.684
64.003
69.493
75.146
80.957
86.925
93.046
99.313
105.716
112.241
118.87
125.587
132.373
139.206
146.063
152.922
159.758
166.55
173.274
179.903
186.414
192.779
198.971
204.964
210.729
216.238
221.464
226.377
230.951
235.158
238.973
242.37
245.325
247.814
249.815
251.305
252.266
252.676
252.519
251.78
250.443
248.5
245.941
242.762
238.959
234.534
229.489
223.831
217.568
210.711
203.274
195.273
186.727
177.658
168.088
158.045
147.556
136.653
125.366
113.729
101.778
89.549
77.078
64.403
51.564
38.598
25.545
12.443
-0.67
-13.755
-26.775
-39.695
-52.48
-65.098
-77.518
-89.71
-101.649
-113.309
-124.671
-135.713
-146.421
-156.779
-166.777
-176.406
-185.66
-194.535
-203.031
-211.148
-218.891
-226.264
-233.276
-239.935
-246.254
-252.243
-257.919
-263.295
-268.388
-273.215
-277.794
-282.142
-286.277
-290.219
-293.985
-297.594
-301.062
-304.408
-307.646
-310.792
-313.861
-316.866
-319.817
-322.727
-325.603
-328.454
-331.287
-334.106
-336.916
-339.72
-342.52
-345.316
-348.109
-350.897
-353.679
-356.452
-359.213
-361.959
-364.685
-367.387
-370.06
-372.699
-375.301
-377.858
-380.368
-382.825
-385.223
-387.56
-389.831
-392.031
-394.159
-396.21
-398.182
-400.073
-401.881
-403.605
-405.245
-406.8
-408.269
-409.654
-410.953
-412.168
-413.299
-414.347
-415.312
-416.194
-416.993
-417.71
-418.344
-418.894
-419.359
-419.737
-420.028
-420.229
-420.338
-420.352
-420.267
-420.08
-419.787
-419.385
-418.868
-418.232
-417.471
-416.581
-415.557
-414.393
-413.084
-411.625
-410.011
-408.237
-406.298
-404.19
-401.908
-399.449
-396.807
-393.979
-390.962
-387.754
-384.353
-380.756
-376.965
-372.977
-368.796
-364.421
-359.854
-355.098
-350.154
-345.026
-339.718
-334.233
-328.576
-322.752
-316.766
-310.625
-304.335
-297.903
-291.336
-284.641
-277.823
-270.891
-263.851
-256.71
-249.473
-242.149
-234.746
-227.273
-219.744
-212.169
-204.556
-196.918
-189.265
-181.607
-173.949
-166.296
-158.648
-151.009
-143.383
-135.774
-128.186
-120.62
-113.079
-105.565
-98.082
-90.628
-83.2
-75.794
-68.396
-61.007
-53.629
-46.267
-38.94
-31.656
-24.409
-17.201
-10.032
-2.887
4.248
11.406
18.642
25.992
33.492
41.18
49.077
57.221
65.656
74.412
83.538
93.07
102.994
113.295
123.95
134.903
146.119
157.515
168.917
180.167
191.092
201.515
211.339
220.384
228.406
235.307
241.064
245.828
250.05
254.11
258.259
262.902
268.442
275.092
282.996
291.693
300.124
307.465
313.104
316.608
317.81
316.759
313.876
310.529
309.028
311.726
320.73
338.566
367.214
407.185
459.319
521.184
589.307
663.797
741.334
820.685
901.627
977.827
1048.65
1112.802
1164.267
1199.042
1204.062
1164.828
1075.46
935.119
756.889
561.984
370.4
202.476
70.501
-19.969
-68.446
-82.078
-68.772
-39.159
-3.271
33.749
66.609
96.153
127.148
161.05
200.007
241.61
278.575
307.655
327.536
338.608
344.26
346.414
345.674
343.612
342.069
342.151
344.494
349.026
354.877
361.473
368.555
375.321
380.62
383.793
384.634
383.418
380.866
377.479
373.535
369.429
365.638
362.543
360.408
359.344
359.322
360.316
362.331
365.349
369.284
374.009
379.349
385.068
390.966
396.913
402.809
408.598
414.255
419.74
425.029
430.126
435.016
439.684
444.12
448.297
452.211
455.898
459.419
462.866
466.333
469.88
473.553
477.386
481.397
485.603
490.007
494.592
499.349
504.279
509.388
514.687
520.182
525.869
531.74
537.781
543.974
550.306
556.76
563.321
569.973
576.705
583.509
590.378
597.305
604.278
611.284
618.305
625.323
632.319
639.272
646.159
652.958
659.648
666.207
672.614
678.849
684.891
690.719
696.313
701.653
706.718
711.49
715.948
720.073
723.847
727.253
730.273
732.891
735.092
736.861
738.185
739.052
739.45
739.367
738.794
737.719
736.137
734.04
731.422
728.281
724.616
720.425
715.711
710.478
704.73
698.474
691.717
684.467
676.736
668.534
659.874
650.772
641.242
631.301
620.969
610.264
599.207
587.819
576.122
564.14
551.895
539.413
526.719
513.839
500.799
487.625
474.345
460.985
447.571
434.131
420.688
407.269
393.897
380.596
367.388
354.295
341.337
328.534
315.903
303.461
291.223
279.205
267.417
255.873
244.582
233.552
222.792
212.308
202.106
192.189
182.56
173.223
164.177
155.424
146.961
138.788
130.901
123.299
115.977
108.932
102.159
95.655
89.413
83.431
77.702
72.223
66.989
61.994
57.235
52.708
48.408
44.332
40.477
36.839
33.416
30.207
27.207
24.417
21.833
19.456
17.282
15.311
13.542
11.973
10.604
9.434
8.461
7.685
7.103
6.714
6.516
6.505
6.68
7.035
7.567
8.271
9.141
10.173
11.358
12.692
14.165
15.771
17.5
19.344
21.293
23.337
25.466
27.669
29.934
32.25
34.607
36.992
39.393
41.798
44.194
46.57
48.913
51.21
53.449
55.619
57.708
59.705
61.6
63.384
65.049
66.587
67.992
69.257
70.378
71.351
72.174
72.845
73.364
73.731
73.948
74.018
73.946
73.734
73.389
72.916
72.321
71.612
70.795
69.878
68.87
67.781
66.619
65.398
64.126
62.817
61.48
60.126
58.768
57.414
56.073
54.755
53.467
52.216
51.008
49.849
48.742
47.689
46.693
45.752
44.865
44.027
43.233
42.476
41.748
41.04
40.343
39.648
38.943
38.218
37.461
36.659
35.8
34.866
33.84
32.702
31.431
30.01
28.419
26.638
24.65
22.439
19.997
17.315
14.383
11.195
7.746
4.03
0.046
-4.205
-8.723
-13.507
-18.547
-23.835
-29.358
-35.096
-41.04
-47.177
-53.498
-60.006
-66.696
-73.553
-80.567
-87.723
-94.989
-102.333
-109.699
-117.011
-124.204
-131.2
-137.927
-144.322
-150.309
-155.827
-160.824
-165.23
-168.996
-172.1
-174.527
-176.278
-177.381
-177.875
-177.857
-177.498
-176.982
-176.52
-176.297
-176.507
-177.402
-179.1
-181.618
-184.882
-188.607
-192.489
-196.3
-199.685
-202.227
-203.802
-204.392
-204.246
-204.147
-204.707
-206.401
-209.782
-215.06
-222.191
-231.072
-240.816
-249.549
-254.626
-252.48
-240.11
-216.13
-181.9
-140.594
-93.658
-40.376
23.515
103.121
197.914
302.789
409.647
508.622
593.105
657.177
690.992
683.895
625.815
512.582
351.695
160.046
-38.168
-218.418
-361.833
-458.581
-512.255
-533.798
-535.55
-526.305
-505.761
-471.461
-424.589
-372.114
-326.423
-296.739
-284.71
-284.679
-288.279
-290.433
-290.978
-293.406
-299.992
-310.271
-321.677
-330.46
-334.873
-334.903
-331.023
-324.427
-316.138
-306.928
-297.988
-290.239
-283.986
-279.343
-276.139
-274.014
-272.674
-271.682
-270.443
-268.586
-265.957
-262.516
-258.373
-253.61
-248.251
-242.392
-236.169
-229.684
-223.018
-216.225
-209.338
-202.44
-195.652
-189.101
-182.886
-177.064
-171.659
-166.673
-162.091
-157.887
-154.022
-150.449
-147.137
-144.09
-141.326
-138.874
-136.759
-134.969
-133.47
-132.223
-131.196
-130.367
-129.725
-129.288
-129.101
-129.226
-129.744
-130.698
-132.092
-133.874
-135.943
-138.165
-140.366
-142.396
-144.136
-145.49
-146.395
-146.799
-146.639
-145.825
-144.247
-141.782
-138.288
-133.654
-127.798
-120.678
-112.325
-102.848
-92.437
-81.289
-69.57
-57.403
-44.855
-31.985
-18.868
-5.596
7.743
21.064
34.264
47.217
59.746
71.661
82.829
93.21
102.847
111.803
120.109
127.748
134.662
140.793
146.108
150.556
154.055
156.491
157.761
157.838
156.799
154.786
151.914
148.225
143.712
138.362
132.195
125.258
117.609
109.284
100.312
90.758
80.737
70.41
59.94
49.42
38.861
28.216
17.456
6.593
-4.34
-15.313
-26.317
-37.344
-48.361
-59.307
-70.12
-80.77
-91.255
-101.61
-111.866
-122.025
-132.056
-141.906
-151.535
-160.919
-170.039
-178.872
-187.389
-195.575
-203.435
-210.998
-218.292
-225.338
-232.143
-238.712
-245.051
-251.177
-257.107
-262.862
-268.459
-273.914
-279.245
-284.473
-289.616
-294.69
-299.7
-304.646
-309.528
-314.343
-319.089
-323.762
-328.353
-332.852
-337.251
-341.54
-345.709
-349.745
-353.632
-357.354
-360.893
-364.232
-367.353
-370.236
-372.862
-375.213
-377.272
-379.021
-380.447
-381.534
-382.271
-382.646
-382.651
-382.279
-381.526
-380.388
-378.868
-376.967
-374.694
-372.057
-369.069
-365.746
-362.105
-358.168
-353.959
-349.502
-344.825
-339.957
-334.928
-329.769
-324.514
-319.196
-313.849
-308.508
-303.205
-297.976
-292.853
-287.868
-283.052
-278.434
-274.042
-269.9
-266.034
-262.463
-259.208
-256.284
-253.705
-251.483
-249.624
-248.134
-247.015
-246.266
-245.883
-245.858
-246.182
-246.843
-247.825
-249.111
-250.681
-252.515
-254.589
-256.878
-259.358
-262.002
-264.783
-267.673
-270.645
-273.671
-276.726
-279.781
-282.812
-285.793
-288.702
-291.517
-294.217
-296.784
-299.201
-301.453
-303.528
-305.414
-307.102
-308.586
-309.86
-310.921
-311.766
-312.397
-312.817
-313.031
-313.043
-312.862
-312.496
-311.957
-311.255
-310.403
-309.411
-308.293
-307.062
-305.731
-304.315
-302.827
-301.278
-299.684
-298.057
-296.408
-294.751
-293.094
-291.447
-289.818
-288.216
-286.645
-285.113
-283.623
-282.18
-280.789
-279.458
-278.193
-276.998
-275.878
-274.835
-273.873
-272.995
-272.198
-271.476
-270.824
-270.237
-269.713
-269.253
-268.857
-268.521
-268.242
-268.018
-267.849
-267.733
-267.662
-267.62
-267.598
-267.591
-267.604
-267.661
-267.775
-267.947
-268.182
-268.475
-268.817
-269.194
-269.574
-269.895
-270.109
-270.166
-270.032
-269.699
-269.136
-268.301
-267.149
-265.61
-263.645
-261.242
-258.384
-255.08
-251.379
-247.347
-243.1
-238.808
-234.618
-230.688
-227.187
-224.261
-222.078
-220.781
-220.52
-221.508
-223.833
-227.424
-232.056
-237.249
-242.413
-247.086
-250.734
-252.664
-252.486
-250.126
-245.994
-241.22
-237.035
-234.274
-233.507
-235.287
-239.866
-246.881
-254.878
-260.368
-258.656
-245.795
-219.491
-180.679
-132.158
-75.698
-10.988
66.896
162.889
278.223
409.599
544.74
669.975
772.698
840.19
866.468
845.631
773.75
654.424
492.2
299.732
95.672
-101.527
-270.523
-397.121
-475.805
-508.397
-504.043
-471.66
-420.287
-358.127
-293.354
-234.297
-184.94
-145.425
-111.951
-81.18
-53.833
-32.49
-21.149
-21.724
-32.486
-50.503
-71.926
-92.881
-110.625
-123.638
-131.42
-134.223
-132.782
-127.844
-120.258
-111.463
-103.071
-96.074
-90.915
-87.546
-85.508
-84.434
-84.047
-83.861
-83.318
-82.091
-80.043
-77.209
-73.795
-69.943
-65.72
-61.225
-56.561
-51.811
-47.051
-42.335
-37.688
-33.146
-28.746
-24.517
-20.49
-16.683
-13.099
-9.74
-6.594
-3.653
-0.916
1.613
3.929
6.035
7.943
9.669
11.236
12.662
13.967
15.175
16.313
17.405
18.474
19.539
20.615
21.727
22.898
24.157
25.532
27.05
28.735
30.613
32.71
35.049
37.65
40.53
43.705
47.189
50.996
55.138
59.625
64.462
69.655
75.204
81.108
87.364
93.961
100.889
108.133
115.674
123.491
131.56
139.855
148.343
156.994
165.772
174.64
183.559
192.488
201.386
210.208
218.91
227.449
235.779
243.854
251.632
259.067
266.118
272.744
278.904
284.56
289.675
294.216
298.151
301.451
304.09
306.044
307.295
307.827
307.626
306.686
305.002
302.573
299.402
295.497
290.868
285.531
279.503
272.806
265.466
257.511
248.972
239.884
230.282
220.206
209.697
198.796
187.548
175.998
164.191
152.176
139.997
127.703
115.34
102.955
90.592
78.298
66.114
54.082
42.243
30.632
19.287
8.239
-2.479
-12.842
-22.821
-32.396
-41.546
-50.254
-58.505
-66.288
-73.593
-80.415
-86.75
-92.595
-97.952
-102.823
-107.214
-111.13
-114.58
-117.574
-120.123
-122.239
-123.934
-125.224
-126.123
-126.645
-126.806
-126.62
-126.103
-125.269
-124.132
-122.706
-121.003
-119.036
-116.817
-114.355
-111.661
-108.743
-105.609
-102.266
-98.72
-94.976
-91.039
-86.912
-82.597
-78.098
-73.415
-68.55
-63.504
-58.277
-52.87
-47.283
-41.517
-35.571
-29.448
-23.147
-16.67
-10.021
-3.201
3.786
10.934
18.239
25.693
33.289
41.018
48.87
56.834
64.899
73.051
81.276
89.562
97.891
106.249
114.619
122.984
131.326
139.629
147.873
156.042
164.117
172.081
179.916
187.606
195.134
202.484
209.641
216.591
223.322
229.82
236.076
242.079
247.822
253.299
258.504
263.436
268.093
272.475
276.585
280.428
284.008
287.335
290.416
293.26
295.881
298.29
300.501
302.531
304.394
306.108
307.691
309.161
310.539
311.843
313.093
314.306
315.503
316.702
317.921
319.177
320.488
321.867
323.33
324.892
326.564
328.356
330.277
332.333
334.529
336.869
339.353
341.98
344.745
347.642
350.667
353.809
357.058
360.401
363.82
367.301
370.823
374.367
377.909
381.421
384.876
388.248
391.508
394.631
397.586
400.345
402.882
405.176
407.205
408.946
410.376
411.471
412.212
412.582
412.562
412.134
411.281
409.991
408.259
406.092
403.492
400.46
396.999
393.103
388.782
384.058
378.95
373.482
367.691
361.621
355.341
348.95
342.527
336.144
329.876
323.764
317.876
312.298
307.086
302.298
297.979
294.136
290.79
287.981
285.693
283.83
282.26
280.804
279.313
277.723
275.975
273.963
271.524
268.674
265.532
262.019
258.204
254.13
249.41
244.921
241.731
239.118
237.349
234.907
229.618
224.812
223.095
227.551
242.021
262.705
285.612
307.772
325.256
339.342
351.118
361.583
373.927
389.128
409.205
433.94
458.894
483.997
510.831
544.451
596.348
670.541
765.814
877.987
994.283
1104.679
1198.339
1260.881
1282.463
1253.851
1174.246
1052.538
899.067
728.659
553.696
383.723
233.029
113.249
30.894
-12.597
-26.515
-23.841
-12.07
5.479
30.002
64.681
107.9
155.447
203.236
246.925
283.996
312.931
332.634
343.414
346.374
342.896
334.14
321.118
305.273
288.826
274.064
262.311
253.899
248.568
246.035
246.071
248.228
251.519
254.63
256.805
257.92
258.142
257.765
256.975
255.852
254.685
253.95
253.9
254.566
255.854
257.537
259.469
261.608
263.855
266.082
268.176
270.023
271.573
272.841
273.825
274.518
274.92
275.016
274.814
274.348
273.636
272.693
271.528
270.137
268.526
266.709
264.703
262.528
260.202
257.738
255.153
252.466
249.697
246.863
243.979
241.055
238.104
235.144
232.191
229.264
226.38
223.554
220.802
218.138
215.574
213.121
210.784
208.569
206.478
204.517
202.685
200.983
199.411
197.964
196.641
195.434
194.336
193.338
192.428
191.59
190.811
190.071
189.352
188.632
187.887
187.095
186.229
185.263
184.17
182.922
181.49
179.846
177.961
175.808
173.357
170.583
167.459
163.96
160.062
155.744
150.984
145.762
140.062
133.866
127.161
119.936
112.178
103.882
95.04
85.652
75.717
65.237
54.219
42.671
30.604
18.034
4.977
-8.547
-22.514
-36.899
-51.676
-66.813
-82.279
-98.04
-114.062
-130.308
-146.739
-163.318
-180.005
-196.76
-213.542
-230.312
-247.029
-263.654
-280.146
-296.467
-312.58
-328.449
-344.036
-359.31
-374.239
-388.792
-402.941
-416.662
-429.932
-442.729
-455.037
-466.841
-478.129
-488.892
-499.124
-508.821
-517.982
-526.609
-534.707
-542.281
-549.341
-555.897
-561.962
-567.55
-572.677
-577.362
-581.622
-585.477
-588.948
-592.058
-594.827
-597.278
-599.435
-601.319
-602.955
-604.363
-605.567
-606.588
-607.446
-608.161
-608.751
-609.235
-609.628
-609.943
-610.196
-610.397
-610.556
-610.682
-610.783
-610.865
-610.931
-610.986
-611.031
-611.069
-611.097
-611.117
-611.125
-611.12
-611.096
-611.052
-610.982
-610.88
-610.743
-610.563
-610.335
-610.052
-609.71
-609.302
-608.821
-608.264
-607.625
-606.9
-606.085
-605.179
-604.178
-603.083
-601.893
-600.609
-599.232
-597.765
-596.211
-594.573
-592.858
-591.069
-589.214
-587.297
-585.328
-583.312
-581.258
-579.173
-577.067
-574.947
-572.822
-570.701
-568.593
-566.505
-564.448
-562.428
-560.454
-558.534
-556.675
-554.884
-553.165
-551.524
-549.963
-548.486
-547.093
-545.785
-544.559
-543.412
-542.342
-541.343
-540.409
-539.532
-538.703
-537.912
-537.148
-536.398
-535.649
-534.886
-534.094
-533.255
-532.355
-531.375
-530.299
-529.109
-527.785
-526.311
-524.667
-522.836
-520.799
-518.536
-516.03
-513.264
-510.223
-506.891
-503.253
-499.298
-495.016
-490.397
-485.436
-480.129
-474.471
-468.462
-462.103
-455.399
-448.357
-440.985
-433.294
-425.298
-417.015
-408.468
-399.68
-390.676
-381.481
-372.123
-362.632
-353.039
-343.372
-333.658
-323.924
-314.202
-304.525
-294.928
-285.447
-276.115
-266.966
-258.036
-249.361
-240.973
-232.896
-225.144
-217.736
-210.694
-204.042
-197.816
-192.039
-186.72
-181.869
-177.493
-173.581
-170.12
-167.071
-164.371
-161.973
-159.838
-157.932
-156.241
-154.73
-153.356
-152.087
-150.88
-149.706
-148.559
-147.408
-146.243
-145.112
-144.08
-143.244
-142.742
-142.648
-143.026
-143.985
-145.606
-147.987
-151.234
-155.361
-160.394
-166.425
-173.449
-181.341
-189.83
-198.335
-206.217
-213.022
-218.251
-221.289
-221.757
-219.616
-215.284
-209.842
-204.558
-200.181
-197.201
-196.545
-198.869
-203.705
-209.843
-214.256
-212.359
-201.932
-181.992
-151.894
-113.513
-66.382
-8.223
61.945
146.116
243.053
347.748
454.052
552.394
631.911
681.36
688.337
644.584
549.094
407.656
233.849
44.837
-143.197
-313.917
-453.561
-553.308
-610.218
-629.413
-621.002
-595.429
-558.99
-513.854
-460.278
-398.029
-330.605
-263.071
-200.216
-147.371
-106.775
-77.916
-59.536
-49.153
-43.852
-41.58
-39.998
-36.059
-28.006
-15.168
2.571
24.232
48.394
73.972
99.503
123.143
143.889
161.321
175.365
186.619
195.81
203.475
210.285
216.945
223.808
231.059
238.764
246.798
255.093
263.663
272.509
281.624
291.021
300.666
310.484
320.367
330.125
339.566
348.541
356.942
364.711
371.823
378.267
384.048
389.191
393.708
397.582
400.789
403.314
405.164
406.385
407.049
407.255
407.099
406.673
406.057
405.317
404.502
403.653
402.796
401.948
401.132
400.385
399.747
399.262
398.97
398.902
399.085
399.541
400.29
401.345
402.719
404.425
406.476
408.887
411.675
414.855
418.44
422.439
426.857
431.692
436.941
442.597
448.645
455.071
461.855
468.978
476.415
484.141
492.13
500.35
508.769
517.353
526.065
534.866
543.715
552.571
561.39
570.126
578.736
587.172
595.389
603.341
610.981
618.266
625.151
631.591
637.544
642.969
647.824
652.072
655.676
658.603
660.822
662.306
663.031
662.976
662.126
660.466
657.987
654.682
650.548
645.587
639.803
633.204
625.803
617.617
608.665
598.971
588.563
577.47
565.727
553.369
540.437
526.971
513.015
498.616
483.821
468.681
453.245
437.566
421.695
405.687
389.592
373.464
357.352
341.308
325.379
309.612
294.053
278.743
263.724
249.032
234.705
220.773
207.266
194.21
181.629
169.541
157.964
146.91
136.389
126.408
116.971
108.077
99.724
91.906
84.615
77.839
71.564
65.774
60.45
55.571
51.116
47.06
43.377
40.044
37.031
34.313
31.862
29.65
27.649
25.835
24.178
22.656
21.242
19.913
18.647
17.423
16.22
15.021
13.808
12.564
11.278
9.934
8.522
7.033
5.458
3.791
2.026
0.16
-1.809
-3.882
-6.059
-8.338
-10.717
-13.193
-15.76
-18.415
-21.151
-23.962
-26.842
-29.784
-32.783
-35.83
-38.921
-42.049
-45.208
-48.393
-51.598
-54.819
-58.05
-61.289
-64.529
-67.769
-71.004
-74.232
-77.45
-80.655
-83.846
-87.02
-90.178
-93.317
-96.436
-99.534
-102.611
-105.665
-108.696
-111.703
-114.686
-117.643
-120.574
-123.478
-126.354
-129.2
-132.012
-134.789
-137.527
-140.222
-142.869
-145.464
-148.001
-150.473
-152.876
-155.204
-157.449
-159.604
-161.662
-163.615
-165.456
-167.177
-168.769
-170.223
-171.531
-172.685
-173.678
-174.503
-175.153
-175.62
-175.899
-175.985
-175.872
-175.556
-175.033
-174.298
-173.35
-172.187
-170.811
-169.222
-167.421
-165.413
-163.204
-160.798
-158.205
-155.433
-152.489
-149.385
-146.134
-142.748
-139.243
-135.635
-131.941
-128.182
-124.381
-120.561
-116.746
-112.96
-109.226
-105.569
-102.013
-98.58
-95.29
-92.16
-89.211
-86.463
-83.94
-81.663
-79.648
-77.91
-76.464
-75.322
-74.498
-73.995
-73.809
-73.938
-74.38
-75.143
-76.248
-77.7
-79.491
-81.611
-84.041
-86.757
-89.734
-92.927
-96.263
-99.681
-103.119
-106.53
-109.892
-113.16
-116.275
-119.172
-121.76
-123.985
-125.823
-127.241
-128.227
-128.796
-128.978
-128.852
-128.553
-128.193
-127.889
-127.76
-127.893
-128.419
-129.453
-131.128
-133.65
-137.071
-141.322
-146.254
-151.495
-156.642
-161.369
-165.185
-167.487
-167.999
-166.57
-163.381
-159.281
-154.956
-150.981
-148.023
-146.329
-145.976
-147.085
-149.01
-150.16
-147.95
-138.65
-119.392
-89.109
-49.646
-4.68
44.874
101.033
169.438
255.935
359.379
473.24
587.069
690.369
777.686
844.257
883.811
886.468
839.562
736.213
577.058
373.983
149.155
-73.987
-271.045
-424.477
-528.787
-586.125
-606.892
-602.378
-578.828
-539.781
-488.467
-431.282
-376.571
-331.408
-297.162
-268.845
-241.914
-214.501
-188.354
-168.691
-158.263
-156.593
-162.091
-171.448
-181.788
-191.494
-198.865
-203.083
-204.239
-202.459
-197.963
-191.214
-182.824
-173.688
-165.03
-157.563
-151.329
-146.113
-141.575
-137.428
-133.504
-129.508
-124.961
-119.575
-113.301
-106.226
-98.568
-90.485
-82.034
-73.29
-64.382
-55.427
-46.535
-37.805
-29.26
-20.912
-12.789
-4.906
2.719
10.074
17.177
24.062
30.755
37.267
43.605
49.768
55.764
61.616
67.346
72.976
78.522
83.999
89.424
94.817
100.197
105.577
110.966
116.368
121.79
127.245
132.744
138.3
143.922
149.62
155.4
161.27
167.234
173.293
179.446
185.688
192.015
198.421
204.898
211.439
218.031
224.663
231.322
237.99
244.652
251.287
257.873
264.388
270.806
277.101
283.248
289.216
294.976
300.5
305.756
310.714
315.344
319.615
323.496
326.959
329.975
332.516
334.556
336.07
337.033
337.425
337.226
336.419
334.987
332.916
330.195
326.815
322.769
318.054
312.666
306.609
299.885
292.502
284.471
275.804
266.518
256.632
246.167
235.148
223.603
211.561
199.056
186.12
172.79
159.105
145.105
130.829
116.321
101.623
86.78
71.835
56.833
41.821
26.842
11.941
-2.837
-17.447
-31.847
-45.994
-59.848
-73.368
-86.517
-99.259
-111.56
-123.387
-134.712
-145.508
-155.751
-165.419
-174.496
-182.964
-190.813
-198.034
-204.62
-210.57
-215.882
-220.56
-224.611
-228.042
-230.866
-233.094
-234.745
-235.836
-236.389
-236.425
-235.97
-235.051
-233.697
-231.936
-229.802
-227.326
-224.543
-221.487
-218.193
-214.696
-211.032
-207.237
-203.346
-199.394
-195.413
-191.438
-187.5
-183.629
-179.853
-176.199
-172.692
-169.355
-166.208
-163.269
-160.556
-158.082
-155.859
-153.897
-152.203
-150.781
-149.635
-148.764
-148.166
-147.836
-147.767
-147.95
-148.373
-149.023
-149.884
-150.94
-152.17
-153.556
-155.075
-156.704
-158.42
-160.199
-162.017
-163.848
-165.668
-167.454
-169.182
-170.829
-172.374
-173.797
-175.079
-176.202
-177.15
-177.909
-178.465
-178.807
-178.928
-178.819
-178.477
-177.898
-177.082
-176.031
-174.749
-173.243
-171.519
-169.59
-167.466
-165.162
-162.695
-160.08
-157.338
-154.489
-151.554
-148.554
-145.514
-142.454
-139.397
-136.367
-133.383
-130.468
-127.641
-124.922
-122.328
-119.876
-117.581
-115.458
-113.519
-111.773
-110.231
-108.898
-107.779
-106.876
-106.191
-105.719
-105.459
-105.403
-105.547
-105.879
-106.389
-107.065
-107.892
-108.854
-109.937
-111.121
-112.388
-113.718
-115.093
-116.494
-117.902
-119.3
-120.669
-121.995
-123.261
-124.456
-125.567
-126.583
-127.494
-128.293
-128.975
-129.537
-129.976
-130.295
-130.495
-130.584
-130.575
-130.48
-130.313
-130.091
-129.831
-129.554
-129.279
-129.028
-128.816
-128.661
-128.583
-128.605
-128.753
-129.05
-129.518
-130.179
-131.05
-132.155
-133.515
-135.14
-137.033
-139.199
-141.647
-144.392
-147.468
-150.89
-154.662
-158.786
-163.253
-168.048
-173.154
-178.524
-184.088
-189.776
-195.519
-201.266
-206.986
-212.625
-218.116
-223.387
-228.338
-232.906
-237.057
-240.752
-243.973
-246.742
-249.098
-251.143
-253.034
-254.916
-256.943
-259.267
-262.022
-265.366
-269.427
-274.357
-280.363
-287.505
-295.715
-304.791
-314.281
-323.674
-332.566
-340.414
-346.539
-350.539
-352.198
-351.767
-350.187
-348.398
-347.008
-346.431
-347.032
-348.94
-352.018
-355.383
-356.005
-349.582
-332.863
-303.372
-262.016
-213.346
-158.669
-97.922
-28.041
59.168
165.223
287.226
418.9
546.499
659.71
748.901
802.138
810.697
765.997
665.065
514.073
325.896
119.005
-87.305
-273.802
-424.272
-528.457
-583.583
-597.004
-582.157
-552.723
-517.038
-477.323
-432.139
-379.456
-321.624
-262.974
-208.156
-162.308
-127.658
-104.399
-91.876
-87.946
-90.365
-97.732
-108.368
-120.168
-131.175
-139.426
-143.849
-144.593
-142.18
-137.072
-129.865
-121.34
-112.466
-104.439
-97.944
-92.972
-89.252
-86.426
-84.184
-82.306
-80.475
-78.222
-75.265
-71.557
-67.173
-62.296
-57.063
-51.517
-45.719
-39.775
-33.773
-27.792
-21.899
-16.094
-10.375
-4.748
0.789
6.235
11.595
16.893
22.17
27.453
32.765
38.117
43.517
48.98
54.531
60.2
66.012
71.989
78.153
84.523
91.123
97.974
105.094
112.491
120.175
128.152
136.436
145.04
153.974
163.248
172.867
182.836
193.161
203.842
214.877
226.259
237.98
250.031
262.401
275.077
288.045
301.288
314.788
328.524
342.473
356.612
370.912
385.344
399.875
414.472
429.099
443.719
458.292
472.777
487.134
501.32
515.291
529.005
542.418
555.485
568.164
580.412
592.186
603.445
614.148
624.258
633.736
642.548
650.661
658.043
664.665
670.5
675.523
679.713
683.05
685.518
687.103
687.795
687.587
686.476
684.463
681.55
677.746
673.062
667.513
661.115
653.891
645.865
637.064
627.518
617.26
606.324
594.749
582.573
569.837
556.585
542.859
528.706
514.171
499.301
484.142
468.743
453.149
437.409
421.568
405.673
389.768
373.898
358.104
342.427
326.906
311.577
296.475
281.631
267.076
252.833
238.928
225.382
212.211
199.431
187.054
175.09
163.546
152.425
141.731
131.462
121.616
112.187
103.17
94.555
86.333
78.492
71.018
63.898
57.117
50.659
44.507
38.644
33.053
27.714
22.612
17.727
13.043
8.544
4.213
0.035
-4.003
-7.913
-11.708
-15.396
-18.986
-22.486
-25.901
-29.235
-32.491
-35.671
-38.775
-41.803
-44.751
-47.617
-50.396
-53.084
-55.676
-58.165
-60.544
-62.808
-64.948
-66.957
-68.829
-70.556
-72.13
-73.545
-74.795
-75.873
-76.775
-77.496
-78.032
-78.382
-78.545
-78.521
-78.311
-77.918
-77.346
-76.601
-75.689
-74.62
-73.402
-72.047
-70.565
-68.972
-67.279
-65.504
-63.66
-61.765
-59.834
-57.884
-55.932
-53.995
-52.088
-50.227
-48.429
-46.708
-45.078
-43.553
-42.145
-40.866
-39.724
-38.73
-37.889
-37.207
-36.686
-36.33
-36.137
-36.107
-36.235
-36.517
-36.944
-37.509
-38.201
-39.006
-39.912
-40.901
-41.956
-43.059
-44.19
-45.331
-46.459
-47.555
-48.599
-49.57
-50.449
-51.217
-51.854
-52.343
-52.666
-52.807
-52.753
-52.49
-52.008
-51.297
-50.35
-49.163
-47.736
-46.068
-44.161
-42.02
-39.651
-37.065
-34.273
-31.291
-28.135
-24.822
-21.378
-17.827
-14.201
-10.531
-6.846
-3.18
0.434
3.961
7.369
10.629
13.714
16.599
19.254
21.651
23.761
25.56
27.023
28.126
28.847
29.169
29.077
28.567
27.641
26.299
24.542
22.366
19.758
16.718
13.253
9.373
5.1
0.466
-4.491
-9.71
-15.114
-20.638
-26.211
-31.774
-37.284
-42.681
-47.925
-52.972
-57.76
-62.236
-66.361
-70.106
-73.481
-76.53
-79.287
-81.822
-84.232
-86.603
-89.07
-91.76
-94.774
-98.221
-102.133
-106.547
-111.575
-117.253
-123.501
-130.1
-136.577
-142.38
-147.142
-150.45
-151.784
-150.828
-147.43
-141.884
-135.127
-128.269
-122.214
-117.675
-115.371
-115.801
-118.943
-123.891
-127.969
-127.24
-118.362
-99.252
-70.632
-34.925
7.061
56.169
116.901
193.781
286.835
392.608
502.198
604.804
689.788
745.597
760.855
725.261
634.849
492.919
311.389
109.948
-91.606
-273.552
-420.229
-524.596
-586.008
-610.636
-607.133
-582.367
-541.244
-488.522
-431.635
-378.105
-333.662
-299.502
-271.192
-245.201
-220.899
-200.052
-186.905
-183.649
-189.148
-200.909
-215.264
-228.7
-239.012
-245.14
-246.897
-244.646
-239.049
-230.777
-220.594
-209.757
-199.58
-190.79
-183.695
-178.148
-173.646
-169.824
-166.392
-162.909
-158.942
-154.243
-148.697
-142.365
-135.453
-128.092
-120.368
-112.375
-104.188
-95.89
-87.562
-79.269
-71.071
-63.017
-55.146
-47.492
-40.084
-32.935
-26.054
-19.436
-13.057
-6.905
-0.977
4.725
10.19
15.42
20.426
25.224
29.827
34.247
38.495
42.583
46.527
50.338
54.021
57.578
61.008
64.317
67.514
70.606
73.606
76.52
79.357
82.126
84.837
87.496
90.108
92.677
95.204
97.695
100.151
102.575
104.97
107.336
109.674
111.984
114.264
116.513
118.727
120.902
123.032
125.111
127.132
129.088
130.968
132.763
134.462
136.054
137.528
138.87
140.067
141.106
141.973
142.652
143.131
143.394
143.425
143.211
142.737
141.99
140.956
139.621
137.974
136.003
133.697
131.046
128.041
124.673
120.936
116.825
112.335
107.463
102.209
96.574
90.559
84.169
77.408
70.284
62.806
54.984
46.831
38.359
29.584
20.522
11.192
1.613
-8.195
-18.21
-28.408
-38.766
-49.259
-59.86
-70.544
-81.283
-92.05
-102.816
-113.553
-124.234
-134.83
-145.312
-155.655
-165.829
-175.809
-185.568
-195.081
-204.325
-213.275
-221.91
-230.207
-238.147
-245.71
-252.878
-259.635
-265.965
-271.854
-277.288
-282.256
-286.746
-290.75
-294.259
-297.267
-299.768
-301.757
-303.233
-304.193
-304.637
-304.566
-303.982
-302.888
-301.291
-299.194
-296.606
-293.535
-289.99
-285.982
-281.522
-276.623
-271.3
-265.568
-259.441
-252.939
-246.08
-238.882
-231.367
-223.556
-215.473
-207.141
-198.586
-189.833
-180.909
-171.841
-162.659
-153.391
-144.068
-134.719
-125.374
-116.065
-106.823
-97.679
-88.663
-79.806
-71.138
-62.69
-54.489
-46.563
-38.941
-31.648
-24.709
-18.146
-11.982
-6.237
-0.928
3.928
8.317
12.229
15.654
18.586
21.021
22.959
24.4
25.349
25.815
25.806
25.337
24.422
23.08
21.331
19.2
16.712
13.894
10.776
7.391
3.772
-0.045
-4.025
-8.128
-12.317
-16.551
-20.791
-24.996
-29.124
-33.137
-36.993
-40.653
-44.078
-47.232
-50.078
-52.581
-54.71
-56.435
-57.728
-58.564
-58.921
-58.779
-58.122
-56.937
-55.213
-52.943
-50.123
-46.75
-42.828
-38.36
-33.355
-27.825
-21.785
-15.251
-8.247
-0.795
7.079
15.344
23.97
32.923
42.167
51.664
61.374
71.256
81.267
91.363
101.497
111.625
121.699
131.675
141.506
151.147
160.555
169.686
178.497
186.95
195.004
202.619
209.755
216.372
222.435
227.91
232.764
236.966
240.491
243.319
245.434
246.829
247.494
247.425
246.617
245.069
242.785
239.772
236.039
231.6
226.474
220.685
214.264
207.251
199.682
191.587
182.997
173.925
164.393
154.438
144.097
133.415
122.446
111.246
99.891
88.478
77.095
65.829
54.761
43.949
33.455
23.346
13.688
4.568
-3.926
-11.761
-18.929
-25.431
-31.307
-36.587
-41.317
-45.636
-49.705
-53.695
-57.786
-62.118
-66.775
-71.888
-77.634
-84.114
-91.324
-99.027
-106.699
-113.803
-119.933
-124.69
-127.59
-128.273
-126.632
-123.09
-118.773
-114.971
-112.61
-112.329
-114.789
-120.343
-128.698
-138.6
-146.781
-148.712
-140.824
-120.823
-89.262
-48.603
0.35
58.34
129.543
218.045
323.26
441.074
561.42
672.875
765.804
829.093
852.537
825.947
741.086
598.377
407.346
186.199
-41.324
-252.097
-427.883
-557.871
-639.219
-677.066
-678.952
-652.825
-607.59
-549.657
-487.626
-430.009
-380.162
-338.641
-301.239
-263.548
-225.706
-190.592
-162.953
-145.606
-137.919
-137.527
-140.951
-145.393
-149.045
-150.307
-148.587
-144.001
-136.894
-127.98
-117.968
-107.529
-97.536
-88.954
-82.308
-77.623
-74.626
-72.838
-71.834
-71.327
-70.963
-70.275
-68.951
-66.836
-63.851
-60.082
-55.646
-50.623
-45.18
-39.553
-33.924
-28.454
-23.301
-18.554
-14.28
-10.536
-7.327
-4.647
-2.507
-0.922
0.084
0.494
0.327
-0.385
-1.59
-3.21
-5.171
-7.396
-9.796
-12.298
-14.844
-17.381
-19.876
-22.305
-24.633
-26.824
-28.837
-30.628
-32.159
-33.395
-34.3
-34.847
-35.009
-34.763
-34.094
-32.983
-31.415
-29.376
-26.849
-23.818
-20.273
-16.207
-11.617
-6.504
-0.875
5.26
11.887
18.987
26.537
34.512
42.885
51.626
60.703
70.081
79.72
89.581
99.622
109.798
120.063
130.369
140.669
150.912
161.05
171.031
180.809
190.333
199.556
208.432
216.916
224.965
232.538
239.597
246.104
252.026
257.332
261.992
265.984
269.285
271.878
273.749
274.889
275.291
274.952
273.875
272.063
269.526
266.275
262.328
257.702
252.423
246.516
240.011
232.941
225.342
217.252
208.71
199.761
190.446
180.812
170.906
160.776
150.468
140.032
129.517
118.971
108.442
97.977
87.623
77.424
67.423
57.663
48.182
39.019
30.208
21.782
13.771
6.201
-0.903
-7.52
-13.632
-19.226
-24.288
-28.812
-32.793
-36.228
-39.118
-41.468
-43.285
-44.579
-45.362
-45.648
-45.454
-44.801
-43.708
-42.199
-40.298
-38.03
-35.422
-32.502
-29.298
-25.84
-22.158
-18.281
-14.239
-10.062
-5.78
-1.423
2.982
7.406
11.822
16.204
20.528
24.769
28.906
32.916
36.781
40.482
44.003
47.329
50.445
53.34
56.002
58.423
60.595
62.511
64.164
65.552
66.671
67.519
68.095
68.4
68.434
68.2
67.701
66.941
65.925
64.659
63.148
61.401
59.425
57.227
54.818
52.205
49.399
46.41
43.247
39.922
36.445
32.827
29.079
25.211
21.235
17.163
13.005
8.773
4.479
0.135
-4.246
-8.654
-13.075
-17.498
-21.911
-26.302
-30.658
-34.97
-39.226
-43.414
-47.525
-51.548
-55.474
-59.294
-62.999
-66.582
-70.037
-73.356
-76.534
-79.565
-82.447
-85.173
-87.742
-90.148
-92.391
-94.468
-96.378
-98.121
-99.696
-101.106
-102.352
-103.438
-104.367
-105.143
-105.772
-106.258
-106.607
-106.825
-106.918
-106.893
-106.758
-106.518
-106.183
-105.76
-105.258
-104.683
-104.042
-103.342
-102.589
-101.79
-100.949
-100.071
-99.162
-98.226
-97.27
-96.298
-95.317
-94.332
-93.347
-92.368
-91.397
-90.438
-89.495
-88.57
-87.664
-86.779
-85.917
-85.083
-84.279
-83.512
-82.785
-82.1
-81.464
-80.878
-80.345
-79.863
-79.43
-79.04
-78.689
-78.375
-78.095
-77.849
-77.635
-77.452
-77.301
-77.18
-77.081
-76.998
-76.92
-76.829
-76.713
-76.563
-76.377
-76.167
-75.943
-75.703
-75.444
-75.158
-74.825
-74.423
-73.918
-73.255
-72.381
-71.25
-69.822
-68.079
-66.017
-63.625
-60.881
-57.737
-54.15
-50.113
-45.659
-40.829
-35.674
-30.242
-24.597
-18.885
-13.31
-8.057
-3.286
0.89
4.435
7.268
9.177
10.02
9.815
8.732
7.191
5.626
4.241
3.331
3.507
5.248
8.663
13.525
18.954
23.788
27.281
28.695
26.725
21.377
14.656
8.406
5.273
6.22
7.79
8.825
12.469
24.756
56.51
116.125
202.522
309.917
428.422
544.729
650.521
737.643
795.536
818.256
798.188
729.845
615.851
458.48
267.26
60.33
-144.216
-322.859
-457.136
-544.286
-589.558
-607.362
-613.303
-610.115
-594.298
-561.946
-511.949
-454.318
-403.506
-368.336
-350.878
-345.044
-342.32
-338.4
-332.982
-328.839
-327.663
-328.483
-329.243
-327.139
-320.791
-310.452
-296.834
-281.148
-264.778
-248.889
-234.268
-221.442
-210.578
-201.535
-194.103
-187.922
-182.365
-176.713
-170.498
-163.461
-155.53
-146.803
-137.315
-127.085
-116.232
-104.917
-93.279
-81.433
-69.436
-57.313
-45.142
-33.04
-21.139
-9.585
1.527
12.146
22.233
31.764
40.722
49.098
56.907
64.187
70.962
77.251
83.069
88.427
93.353
97.887
102.07
105.946
109.554
112.926
116.098
119.103
121.973
124.738
127.425
130.058
132.668
135.287
137.949
140.686
143.531
146.512
149.657
152.994
156.547
160.334
164.373
168.68
173.266
178.141
183.313
188.785
194.559
200.634
207.004
213.663
220.599
227.8
235.249
242.926
250.81
258.877
267.099
275.446
283.887
292.388
300.913
309.426
317.888
326.258
334.497
342.563
350.415
358.011
365.31
372.272
378.855
385.023
390.739
395.967
400.674
404.827
408.399
411.361
413.689
415.361
416.355
416.655
416.247
415.117
413.258
410.664
407.331
403.26
398.453
392.917
386.66
379.696
372.038
363.705
354.716
345.096
334.869
324.063
312.707
300.834
288.477
275.67
262.449
248.853
234.918
220.683
206.189
191.473
176.576
161.538
146.398
131.195
115.968
100.755
85.594
70.52
55.571
40.78
26.182
11.808
-2.311
-16.145
-29.668
-42.852
-55.675
-68.113
-80.148
-91.76
-102.933
-113.653
-123.906
-133.683
-142.973
-151.771
-160.071
-167.868
-175.161
-181.95
-188.234
-194.017
-199.301
-204.092
-208.396
-212.219
-215.57
-218.459
-220.895
-222.892
-224.461
-225.616
-226.373
-226.746
-226.753
-226.409
-225.733
-224.743
-223.457
-221.895
-220.074
-218.015
-215.737
-213.259
-210.601
-207.782
-204.823
-201.741
-198.557
-195.288
-191.955
-188.574
-185.165
-181.744
-178.331
-174.941
-171.592
-168.3
-165.081
-161.95
-158.921
-156.008
-153.223
-150.579
-148.084
-145.748
-143.581
-141.588
-139.776
-138.149
-136.711
-135.465
-134.412
-133.551
-132.882
-132.402
-132.109
-131.996
-132.059
-132.292
-132.685
-133.232
-133.922
-134.744
-135.689
-136.742
-137.892
-139.125
-140.426
-141.779
-143.168
-144.578
-145.993
-147.394
-148.767
-150.094
-151.359
-152.548
-153.644
-154.633
-155.501
-156.234
-156.819
-157.245
-157.5
-157.576
-157.463
-157.154
-156.643
-155.926
-155
-153.861
-152.509
-150.944
-149.168
-147.183
-144.993
-142.601
-140.014
-137.238
-134.282
-131.156
-127.871
-124.436
-120.866
-117.173
-113.37
-109.472
-105.492
-101.444
-97.342
-93.202
-89.038
-84.864
-80.694
-76.543
-72.425
-68.351
-64.337
-60.392
-56.527
-52.751
-49.074
-45.503
-42.045
-38.708
-35.497
-32.417
-29.477
-26.685
-24.048
-21.573
-19.264
-17.126
-15.164
-13.378
-11.768
-10.326
-9.046
-7.925
-6.96
-6.148
-5.485
-4.966
-4.584
-4.336
-4.215
-4.215
-4.322
-4.517
-4.786
-5.123
-5.535
-6.039
-6.644
-7.354
-8.167
-9.08
-10.087
-11.17
-12.294
-13.399
-14.431
-15.343
-16.108
-16.706
-17.113
-17.289
-17.183
-16.741
-15.927
-14.724
-13.13
-11.162
-8.864
-6.31
-3.619
-0.967
1.463
3.486
4.923
5.612
5.417
4.172
1.673
-2.211
-7.502
-14.052
-21.476
-29.29
-37.053
-44.287
-50.404
-54.889
-57.463
-58.366
-58.481
-59.016
-61.002
-65.058
-71.787
-81.766
-95.026
-110.537
-125.065
-133.47
-131.225
-115.972
-89.263
-54.737
-13.953
34.948
99.864
188.439
302.237
436.908
577.85
709.06
818.367
894.294
930.577
920.088
853.982
729.719
550.785
332.25
101.279
-113.827
-287.488
-405.745
-473.116
-501.848
-507.459
-501.599
-483.145
-449.147
-400.165
-341.041
-283.341
-236.227
-201.156
-174.063
-149.335
-123.901
-98.571
-77.305
-62.68
-54.139
-49.853
-46.448
-40.67
-31.485
-18.924
-3.413
14.092
32.636
51.571
69.798
85.763
98.601
107.909
113.517
115.827
115.349
112.46
107.752
101.969
95.581
88.987
82.577
76.519
71.009
66.238
62.254
59.091
56.804
55.416
54.931
55.33
56.509
58.347
60.767
63.669
66.953
70.487
74.073
77.549
80.796
83.731
86.305
88.472
90.185
91.432
92.242
92.654
92.724
92.498
91.996
91.261
90.342
89.303
88.229
87.179
86.195
85.311
84.551
83.938
83.494
83.224
83.114
83.156
83.345
83.681
84.169
84.809
85.594
86.517
87.568
88.742
90.036
91.444
92.96
94.578
96.292
98.098
99.994
101.976
104.033
106.155
108.328
110.539
112.775
115.02
117.256
119.469
121.642
123.761
125.811
127.778
129.647
131.403
133.032
134.52
135.853
137.018
138.001
138.79
139.374
139.741
139.882
139.786
139.445
138.849
137.992
136.869
135.474
133.805
131.858
129.632
127.13
124.353
121.304
117.987
114.408
110.575
106.495
102.177
97.631
92.866
87.895
82.728
77.379
71.859
66.182
60.362
54.413
48.349
42.187
35.941
29.626
23.259
16.856
10.432
4.003
-2.414
-8.804
-15.151
-21.44
-27.656
-33.784
-39.811
-45.722
-51.506
-57.151
-62.645
-67.978
-73.141
-78.125
-82.922
-87.525
-91.927
-96.124
-100.109
-103.88
-107.431
-110.761
-113.866
-116.746
-119.399
-121.825
-124.023
-125.994
-127.74
-129.261
-130.56
-131.64
-132.504
-133.158
-133.604
-133.85
-133.901
-133.762
-133.442
-132.948
-132.286
-131.464
-130.491
-129.374
-128.12
-126.739
-125.237
-123.624
-121.907
-120.094
-118.194
-116.214
-114.162
-112.047
-109.877
-107.66
-105.404
-103.119
-100.813
-98.496
-96.176
-93.864
-91.567
-89.295
-87.058
-84.862
-82.718
-80.632
-78.613
-76.668
-74.803
-73.027
-71.344
-69.763
-68.288
-66.927
-65.685
-64.567
-63.58
-62.727
-62.015
-61.448
-61.031
-60.769
-60.665
-60.724
-60.948
-61.342
-61.907
-62.644
-63.553
-64.635
-65.888
-67.309
-68.897
-70.647
-72.554
-74.614
-76.822
-79.17
-81.653
-84.263
-86.99
-89.825
-92.759
-95.78
-98.878
-102.039
-105.252
-108.501
-111.774
-115.055
-118.33
-121.581
-124.792
-127.943
-131.018
-133.997
-136.862
-139.591
-142.166
-144.566
-146.775
-148.775
-150.547
-152.076
-153.345
-154.338
-155.043
-155.445
-155.533
-155.294
-154.718
-153.797
-152.524
-150.894
-148.902
-146.547
-143.827
-140.745
-137.303
-133.506
-129.362
-124.878
-120.065
-114.936
-109.507
-103.797
-97.825
-91.613
-85.187
-78.577
-71.813
-64.926
-57.948
-50.911
-43.848
-36.793
-29.779
-22.834
-15.985
-9.265
-2.703
3.666
9.811
15.704
21.317
26.625
31.601
36.222
40.473
44.349
47.842
50.942
53.632
55.887
57.693
59.051
59.966
60.446
60.516
60.201
59.552
58.643
57.537
56.291
54.943
53.518
52.056
50.614
49.258
48.061
47.069
46.308
45.821
45.63
45.715
46.032
46.471
46.898
47.238
47.429
47.405
47.112
46.451
45.319
43.657
41.392
38.418
34.719
30.374
25.641
21.054
17.223
14.648
13.828
15.336
19.492
26.194
34.906
44.454
53.495
61.319
67.52
71.267
72.134
70.821
68.677
69.053
76.688
93.526
120.385
157.419
202.041
254.89
318.733
394.833
485.37
588.072
695.335
799.076
890.365
960.744
1004.291
1015.109
986.289
916.186
807.358
664.927
502.055
332.011
167.604
26.575
-80.314
-149.502
-181.387
-187.449
-178.853
-159.634
-135.293
-106.479
-72.97
-40.156
-8.542
21.272
46.956
68.957
84.848
93.073
94.678
90.299
82.034
71.714
60.609
50.896
43.834
39.807
38.913
40.495
43.878
48.699
54.166
59.068
62.61
64.387
64.321
62.807
60.279
57.048
53.552
50.312
47.653
45.743
44.645
44.244
44.421
45.095
46.157
47.499
49.054
50.771
52.597
54.49
56.379
58.174
59.809
61.231
62.388
63.236
63.752
63.933
63.811
63.439
62.856
62.082
61.15
60.1
58.967
57.778
56.529
55.182
53.726
52.173
50.552
48.927
47.322
45.721
44.109
42.455
40.731
38.931
37.004
34.859
32.471
29.866
27.135
24.459
21.962
19.716
17.778
16.165
14.924
14.146
13.899
14.236
15.23
16.945
19.503
23.09
27.795
33.619
40.485
48.201
56.63
65.695
75.311
85.415
95.929
106.745
117.795
129.043
140.415
151.824
163.131
174.127
184.687
194.755
204.329
213.485
222.262
230.654
238.669
246.316
253.593
260.505
267.019
273.067
278.61
283.636
288.156
292.224
295.856
299.035
301.73
303.884
305.453
306.42
306.754
306.425
305.416
303.724
301.366
298.385
294.813
290.674
285.988
280.769
275.039
268.834
262.189
255.145
247.742
240.021
232.028
223.814
215.425
206.903
198.285
189.602
180.888
172.179
163.507
154.904
146.403
138.032
129.821
121.8
113.995
106.43
99.125
92.096
85.359
78.927
72.809
67.012
61.542
56.4
51.589
47.105
42.946
39.106
35.577
32.351
29.416
26.758
24.365
22.221
20.309
18.612
17.114
15.796
14.641
13.63
12.746
11.972
11.29
10.683
10.133
9.623
9.137
8.658
8.174
7.669
7.131
6.548
5.91
5.206
4.428
3.567
2.617
1.569
0.419
-0.838
-2.207
-3.692
-5.294
-7.017
-8.86
-10.826
-12.915
-15.128
-17.465
-19.926
-22.511
-25.222
-28.058
-31.02
-34.11
-37.328
-40.675
-44.154
-47.766
-51.514
-55.401
-59.429
-63.603
-67.926
-72.401
-77.032
-81.824
-86.778
-91.9
-97.19
-102.653
-108.29
-114.104
-120.095
-126.265
-132.614
-139.142
-145.846
-152.724
-159.774
-166.99
-174.367
-181.897
-189.574
-197.387
-205.326
-213.378
-221.53
-229.766
-238.07
-246.425
-254.809
-263.202
-271.583
-279.926
-288.209
-296.407
-304.494
-312.445
-320.233
-327.832
-335.215
-342.358
-349.235
-355.819
-362.085
-368.01
-373.57
-378.744
-383.512
-387.854
-391.754
-395.195
-398.165
-400.651
-402.645
-404.138
-405.124
-405.602
-405.57
-405.032
-403.992
-402.459
-400.443
-397.959
-395.022
-391.654
-387.875
-383.707
-379.177
-374.313
-369.144
-363.703
-358.022
-352.134
-346.076
-339.888
-333.611
-327.288
-320.957
-314.658
-308.434
-302.325
-296.369
-290.602
-285.055
-279.756
-274.739
-270.035
-265.675
-261.687
-258.092
-254.913
-252.171
-249.879
-248.051
-246.689
-245.786
-245.337
-245.342
-245.804
-246.734
-248.131
-249.983
-252.274
-254.978
-258.063
-261.49
-265.199
-269.11
-273.153
-277.267
-281.396
-285.5
-289.526
-293.414
-297.101
-300.516
-303.6
-306.308
-308.609
-310.503
-312.02
-313.212
-314.16
-314.971
-315.753
-316.625
-317.716
-319.134
-320.996
-323.369
-326.332
-330.021
-334.474
-339.63
-345.267
-350.913
-356.053
-360.321
-363.316
-364.533
-363.684
-360.661
-355.794
-350.067
-344.516
-339.833
-336.476
-334.919
-335.499
-338.163
-342.017
-344.2
-340.604
-327.988
-304.758
-272.854
-236.085
-196.144
-151.673
-95.836
-21.572
73.083
184.528
299.991
405.802
490.856
544.431
561.907
537.257
464.317
344.19
179.453
-18.385
-229.824
-435.287
-612.841
-747.352
-832.856
-871.712
-872.807
-843.924
-794.456
-731.828
-664.26
-604.567
-558.618
-527.434
-507.442
-489.018
-468.542
-447.375
-428.617
-417.925
-416.824
-423.585
-435.659
-448.921
-460.39
-468.299
-471.604
-470.409
-465.066
-455.749
-442.874
-427.157
-409.597
-391.495
-373.697
-356.406
-339.535
-322.791
-305.94
-288.874
-271.432
-253.365
-234.568
-215.142
-195.315
-175.481
-156.058
-137.34
-119.579
-103.001
-87.738
-73.883
-61.512
-50.645
-41.219
-33.128
-26.189
-20.171
-14.907
-10.236
-5.977
-1.935
2.134
6.438
11.116
16.262
21.945
28.215
35.126
42.707
50.909
59.652
68.821
78.264
87.884
97.607
107.35
117.039
126.585
135.912
144.987
153.804
162.355
170.637
178.64
186.358
193.826
201.087
208.193
215.206
222.162
229.08
235.977
242.861
249.733
256.593
263.42
270.18
276.85
283.406
289.829
296.103
302.2
308.087
313.734
319.111
324.188
328.944
333.354
337.397
341.056
344.318
347.171
349.608
351.619
353.195
354.324
354.995
355.199
354.93
354.181
352.947
351.226
349.02
346.33
343.165
339.533
335.443
330.907
325.939
320.556
314.773
308.61
302.089
295.229
288.057
280.596
272.873
264.915
256.752
248.41
239.922
231.314
222.619
213.865
205.085
196.307
187.563
178.884
170.299
161.839
153.532
145.405
137.487
129.8
122.368
115.211
108.347
101.793
95.561
89.663
84.108
78.904
74.054
69.561
65.424
61.641
58.207
55.114
52.354
49.913
47.78
45.939
44.374
43.066
41.997
41.147
40.493
40.016
39.691
39.496
39.409
39.404
39.46
39.554
39.663
39.769
39.85
39.889
39.869
39.775
39.592
39.311
38.919
38.409
37.775
37.013
36.119
35.094
33.94
32.661
31.262
29.752
28.14
26.437
24.655
22.809
20.913
18.985
17.04
15.098
13.177
11.297
9.478
7.74
6.104
4.589
3.216
2.003
0.97
0.135
-0.487
-0.877
-1.021
-0.905
-0.516
0.157
1.126
2.397
3.979
5.875
8.09
10.625
13.479
16.651
20.135
23.928
28.021
32.405
37.07
42.003
47.192
52.622
58.277
64.138
70.189
76.409
82.78
89.279
95.886
102.58
109.338
116.138
122.957
129.774
136.566
143.312
149.99
156.58
163.061
169.415
175.623
181.669
187.538
193.217
198.692
203.955
208.997
213.811
218.393
222.741
226.854
230.733
234.38
237.8
240.998
243.984
246.765
249.353
251.759
253.998
256.085
258.035
259.865
261.594
263.24
264.822
266.358
267.867
269.368
270.88
272.421
274.009
275.661
277.391
279.216
281.147
283.196
285.373
287.683
290.131
292.718
295.445
298.309
301.305
304.427
307.667
311.014
314.455
317.976
321.563
325.194
328.848
332.501
336.125
339.693
343.175
346.543
349.763
352.809
355.653
358.27
360.636
362.727
364.518
365.985
367.106
367.859
368.223
368.18
367.713
366.815
365.477
363.698
361.483
358.835
355.755
352.24
348.278
343.865
339.008
333.718
328.006
321.901
315.429
308.636
301.587
294.346
286.975
279.533
272.062
264.6
257.191
249.887
242.76
235.872
229.239
222.865
216.746
210.882
205.284
199.912
194.646
189.331
183.801
177.919
171.621
164.826
157.402
149.264
140.377
130.9
121.248
111.824
102.897
94.71
87.52
81.551
76.98
73.52
70.284
66.396
61.267
54.447
45.584
34.425
20.76
6.165
-5.843
-12.189
-10.05
0.143
14.334
31.44
52.057
80.667
127.5
196.533
287.036
394.004
502.349
600.499
679.791
729.595
746.939
728.932
671.409
578.582
454.807
303.987
136.332
-38.979
-210.106
-358.287
-469.921
-538.548
-565.439
-562.926
-544.433
-517.344
-485.214
-447.099
-400.823
-349.077
-296.137
-246.513
-205.492
-175.108
-154.813
-143.447
-138.72
-138.017
-139.614
-141.624
-141.535
-137.919
-130.236
-118.401
-103.311
-86.313
-68.491
-51.172
-35.97
-23.757
-14.902
-9.542
-7.231
-7.344
-9.311
-12.358
-15.702
-18.926
-21.811
-24.228
-26.198
-27.673
-28.537
-28.779
-28.425
-27.476
-25.942
-23.823
-21.15
-18.048
-14.73
-11.418
-8.27
-5.376
-2.772
-0.487
1.445
2.987
4.119
4.85
5.192
5.153
4.742
3.967
2.872
1.531
0.052
-1.449
-2.882
-4.183
-5.304
-6.206
-6.856
-7.221
-7.284
-7.044
-6.49
-5.607
-4.377
-2.778
-0.8
1.557
4.285
7.372
10.807
14.581
18.683
23.099
27.819
32.828
38.118
43.678
49.496
55.551
61.82
68.278
74.896
81.647
88.5
95.422
102.38
109.342
116.275
123.149
129.93
136.587
143.087
149.4
155.494
161.339
166.906
172.166
177.091
181.657
185.838
189.614
192.965
195.871
198.319
200.294
201.785
202.782
203.277
203.266
202.746
201.715
200.178
198.138
195.602
192.579
189.082
185.126
180.725
175.897
170.662
165.041
159.055
152.729
146.089
139.159
131.968
124.545
116.917
109.116
101.172
93.115
84.974
76.781
68.565
60.355
52.179
44.065
36.04
28.129
20.357
12.747
5.32
-1.903
-8.904
-15.665
-22.171
-28.409
-34.367
-40.035
-45.405
-50.471
-55.229
-59.675
-63.809
-67.632
-71.148
-74.359
-77.274
-79.899
-82.244
-84.319
-86.137
-87.71
-89.051
-90.177
-91.102
-91.842
-92.412
-92.831
-93.113
-93.277
-93.338
-93.314
-93.221
-93.074
-92.891
-92.685
-92.473
-92.268
-92.085
-91.937
-91.836
-91.794
-91.822
-91.93
-92.127
-92.421
-92.821
-93.332
-93.959
-94.708
-95.58
-96.58
-97.707
-98.964
-100.349
-101.862
-103.501
-105.265
-107.151
-109.155
-111.274
-113.505
-115.843
-118.283
-120.82
-123.45
-126.167
-128.966
-131.84
-134.785
-137.794
-140.861
-143.981
-147.147
-150.353
-153.594
-156.863
-160.156
-163.465
-166.787
-170.115
-173.447
-176.776
-180.1
-183.415
-186.718
-190.006
-193.276
-196.528
-199.759
-202.967
-206.151
-209.309
-212.44
-215.545
-218.622
-221.67
-224.689
-227.678
-230.639
-233.569
-236.469
-239.338
-242.176
-244.983
-247.757
-250.499
-253.207
-255.883
-258.524
-261.131
-263.703
-266.239
-268.738
-271.197
-273.615
-275.988
-278.314
-280.589
-282.81
-284.973
-287.073
-289.108
-291.074
-292.967
-294.783
-296.518
-298.169
-299.731
-301.201
-302.575
-303.85
-305.022
-306.089
-307.05
-307.902
-308.647
-309.282
-309.807
-310.224
-310.532
-310.732
-310.826
-310.814
-310.7
-310.484
-310.173
-309.771
-309.286
-308.728
-308.104
-307.424
-306.698
-305.936
-305.144
-304.329
-303.494
-302.638
-301.764
-300.871
-299.963
-299.042
-298.108
-297.164
-296.21
-295.243
-294.258
-293.249
-292.204
-291.106
-289.939
-288.692
-287.362
-285.961
-284.493
-282.951
-281.323
-279.591
-277.73
-275.711
-273.491
-271.002
-268.184
-264.976
-261.332
-257.235
-252.667
-247.604
-242.006
-235.806
-228.959
-221.469
-213.361
-204.67
-195.448
-185.741
-175.636
-165.309
-154.952
-144.748
-134.857
-125.364
-116.321
-107.813
-100.019
-93.078
-86.967
-81.443
-76.056
-70.391
-64.204
-57.224
-48.939
-38.85
-26.827
-13.265
0.784
14.253
26.493
36.89
44.661
49.067
50.736
52.375
57.666
70.347
90.989
115.491
140.71
166.103
195.303
240.03
310.069
408.192
531.81
666.109
793.142
898.937
969.887
1000.395
986.541
922.839
809.625
647.63
447.268
230.802
20.769
-156.509
-283.656
-361.667
-398.016
-407.301
-404.761
-392.061
-366.526
-328.255
-275.72
-214.956
-156.094
-101.35
-53.479
-14.346
17.733
40.26
51.861
53.769
46.682
33.362
17.028
0.516
-13.164
-22.41
-26.721
-26.162
-21.441
-13.292
-2.556
9.272
20.566
30.32
38.084
43.958
48.406
51.774
54.333
56.546
58.927
61.792
65.261
69.243
73.5
77.863
82.237
86.519
90.606
94.407
97.839
100.842
103.381
105.43
106.964
107.968
108.43
108.354
107.752
106.66
105.121
103.172
100.84
98.149
95.118
91.782
88.186
84.373
80.393
76.295
72.123
67.931
63.772
59.691
55.733
51.936
48.335
44.971
41.886
39.122
36.717
34.711
33.137
32.028
31.416
31.323
31.771
32.776
34.35
36.501
39.238
42.563
46.474
50.969
56.039
61.673
67.856
74.567
81.785
89.482
97.628
106.191
115.135
124.421
134.009
143.854
153.912
164.136
174.478
184.887
195.312
205.702
216.004
226.166
236.135
245.861
255.291
264.378
273.072
281.328
289.102
296.352
303.037
309.12
314.566
319.342
323.419
326.772
329.375
331.211
332.261
332.514
331.96
330.591
328.405
325.402
321.586
316.963
311.545
305.345
298.381
290.672
282.242
273.119
263.332
252.913
241.897
230.321
218.224
205.648
192.635
179.229
165.475
151.421
137.112
122.597
107.923
93.138
78.289
63.422
48.584
33.818
19.169
4.678
-9.613
-23.666
-37.443
-50.909
-64.032
-76.78
-89.125
-101.042
-112.509
-123.504
-134.013
-144.02
-153.515
-162.49
-170.94
-178.862
-186.256
-193.127
-199.481
-205.324
-210.669
-215.529
-219.918
-223.854
-227.353
-230.437
-233.126
-235.441
-237.404
-239.039
-240.369
-241.416
-242.205
-242.759
-243.1
-243.251
-243.234
-243.07
-242.778
-242.377
-241.884
-241.316
-240.686
-240.009
-239.295
-238.555
-237.797
-237.029
-236.255
-235.48
-234.705
-233.933
-233.163
-232.394
-231.623
-230.847
-230.063
-229.265
-228.45
-227.611
-226.744
-225.844
-224.904
-223.919
-222.885
-221.796
-220.649
-219.439
-218.163
-216.819
-215.404
-213.919
-212.362
-210.733
-209.034
-207.268
-205.436
-203.542
-201.59
-199.584
-197.529
-195.431
-193.294
-191.124
-188.928
-186.711
-184.477
-182.233
-179.983
-177.731
-175.481
-173.235
-170.995
-168.763
-166.539
-164.321
-162.11
-159.901
-157.693
-155.48
-153.26
-151.025
-148.77
-146.487
-144.169
-141.806
-139.392
-136.914
-134.364
-131.73
-129.003
-126.171
-123.226
-120.157
-116.956
-113.613
-110.122
-106.476
-102.67
-98.698
-94.559
-90.248
-85.768
-81.119
-76.305
-71.33
-66.201
-60.926
-55.516
-49.983
-44.339
-38.599
-32.777
-26.891
-20.959
-15
-9.034
-3.081
2.833
8.684
14.442
20.079
25.566
30.876
35.98
40.848
45.455
49.779
53.803
57.509
60.878
63.891
66.531
68.782
70.634
72.077
73.103
73.706
73.882
73.639
72.991
71.947
70.511
68.676
66.427
63.758
60.675
57.19
53.316
49.073
44.493
39.626
34.549
29.335
24.047
18.733
13.432
8.197
3.093
-1.798
-6.393
-10.632
-14.477
-17.91
-20.929
-23.56
-25.849
-27.883
-29.826
-31.845
-34.1
-36.759
-39.963
-43.848
-48.63
-54.581
-61.831
-70.395
-80.103
-90.504
-101.126
-111.561
-121.218
-129.375
-135.602
-139.706
-141.974
-143.627
-146.092
-150.347
-157.514
-167.939
-180.345
-194.486
-209.958
-225.808
-242.97
-257.853
-262.408
-248.846
-207.789
-137.545
-46.455
56.953
162.581
265.501
369.24
473.246
574.279
664.403
728.136
753.967
733.006
660.382
539.918
376.332
180.971
-27.758
-232.439
-411.087
-548.079
-642.324
-696.834
-722.948
-733.285
-728.792
-711.036
-682.702
-644.908
-606.546
-573.046
-542.396
-514.065
-485.267
-456.31
-432.809
-417.279
-410.397
-411.421
-417.584
-427.269
-439.413
-451.989
-463.004
-471.237
-476.186
-478.048
-477.178
-473.779
-468.197
-461.43
-454.866
-449.364
-445.203
-442.211
