Name,Criss Capps
Date of Birth,"Feb 5, 1952"
Recorded Date,2021-09-11 17:09:41 -0400
Classification,High Heart Rate
Symptoms,
Software Version,1.90
Device,"Watch5,4"
Sample Rate,512.844 hertz


Lead,Lead I
Unit,µV

16.53
14.504
12.441
10.344
8.22
6.072
3.907
1.729
-0.455
-2.64
-4.819
-6.984
-9.129
-11.245
-13.326
-15.363
-17.347
-19.271
-21.126
-22.904
-24.595
-26.192
-27.686
-29.068
-30.329
-31.463
-32.461
-33.316
-34.02
-34.566
-34.947
-35.159
-35.194
-35.047
-34.714
-34.19
-33.473
-32.56
-31.451
-30.145
-28.643
-26.947
-25.063
-22.995
-20.75
-18.334
-15.758
-13.032
-10.167
-7.177
-4.077
-0.882
2.391
5.722
9.091
12.476
15.856
19.209
22.513
25.744
28.882
31.906
34.797
37.535
40.101
42.474
44.631
46.554
48.223
49.623
50.738
51.552
52.055
52.245
52.118
51.672
50.902
49.794
48.338
46.536
44.392
41.913
39.114
36.018
32.657
29.084
25.348
21.496
17.569
13.594
9.604
5.64
1.755
-1.989
-5.537
-8.855
-11.914
-14.676
-17.132
-19.308
-21.257
-23.076
-24.854
-26.638
-28.476
-30.435
-32.58
-35.004
-37.813
-41.065
-44.85
-49.294
-54.383
-60.006
-65.92
-71.656
-76.761
-80.923
-83.692
-84.575
-83.489
-80.606
-76.479
-72.119
-68.206
-64.956
-62.793
-62.287
-63.304
-65.12
-66.206
-64.195
-57.219
-44.123
-23.58
6.315
46.863
98.352
160.062
228.488
298.574
366.233
427.032
480.025
528.867
574.581
616.086
643.321
637.294
584.342
476.945
325.549
157.647
1.119
-116.708
-184.772
-210.389
-207.525
-195.779
-186.213
-178.814
-169.886
-153.314
-128.724
-101.195
-75.345
-55.245
-42.317
-35.93
-35.755
-40.731
-48.732
-57.315
-64.827
-70.583
-74.434
-76.306
-75.725
-72.511
-67.462
-62.009
-57.174
-53.376
-50.635
-48.794
-48.008
-48.442
-49.836
-51.625
-53.282
-54.479
-55.134
-55.326
-55.038
-54.208
-52.834
-50.971
-48.725
-46.199
-43.438
-40.447
-37.234
-33.829
-30.287
-26.683
-23.088
-19.565
-16.155
-12.886
-9.779
-6.854
-4.123
-1.597
0.731
2.875
4.841
6.633
8.248
9.685
10.951
12.063
13.033
13.872
14.588
15.184
15.666
16.04
16.31
16.478
16.544
16.507
16.368
16.131
15.8
15.379
14.871
14.276
13.599
12.841
12.006
11.095
10.109
9.049
7.916
6.712
5.437
4.092
2.679
1.198
-0.35
-1.963
-3.64
-5.38
-7.181
-9.041
-10.957
-12.927
-14.946
-17.012
-19.121
-21.267
-23.445
-25.651
-27.878
-30.121
-32.374
-34.631
-36.884
-39.128
-41.356
-43.561
-45.738
-47.878
-49.976
-52.026
-54.02
-55.954
-57.821
-59.616
-61.335
-62.974
-64.527
-65.993
-67.369
-68.653
-69.843
-70.94
-71.943
-72.854
-73.674
-74.406
-75.052
-75.616
-76.101
-76.513
-76.856
-77.136
-77.358
-77.528
-77.653
-77.737
-77.788
-77.811
-77.813
-77.8
-77.776
-77.748
-77.72
-77.699
-77.687
-77.689
-77.708
-77.748
-77.809
-77.894
-78.004
-78.137
-78.294
-78.472
-78.669
-78.883
-79.11
-79.346
-79.586
-79.826
-80.058
-80.279
-80.48
-80.655
-80.796
-80.896
-80.946
-80.94
-80.87
-80.728
-80.505
-80.196
-79.792
-79.287
-78.673
-77.945
-77.096
-76.121
-75.016
-73.777
-72.401
-70.887
-69.234
-67.444
-65.518
-63.459
-61.272
-58.961
-56.532
-53.992
-51.35
-48.614
-45.793
-42.9
-39.948
-36.951
-33.928
-30.893
-27.864
-24.858
-21.893
-18.988
-16.156
-13.412
-10.77
-8.243
-5.849
-3.605
-1.526
0.373
2.082
3.587
4.881
5.954
6.806
7.441
7.861
8.063
8.041
7.778
7.267
6.506
5.497
4.249
2.775
1.093
-0.766
-2.758
-4.842
-6.981
-9.145
-11.316
-13.458
-15.527
-17.469
-19.219
-20.725
-21.944
-22.841
-23.407
-23.652
-23.597
-23.291
-22.788
-22.143
-21.444
-20.77
-20.203
-19.857
-19.803
-20.166
-21.171
-22.87
-25.187
-27.911
-30.521
-32.542
-33.744
-33.681
-31.813
-28.134
-22.864
-16.745
-11.408
-7.998
-7.043
-9.361
-15.463
-24.828
-36.483
-48.211
-56.16
-57.383
-49.748
-30.399
2.986
51.145
114.177
189.015
268.706
349.277
428.072
502.644
574.2
637.256
680.424
694.339
668.675
603.522
511.446
405.049
298.522
200.237
109.594
27.999
-42.553
-99.253
-137.498
-156.493
-158.523
-146.844
-125.744
-99.452
-71.828
-46.497
-25.847
-10.732
-0.951
4.401
6.485
6.65
6.513
7.636
10.869
16.303
23.566
32.017
41.07
50.214
58.85
66.38
72.507
77.215
80.658
83.126
84.855
86.008
86.778
87.371
87.967
88.718
89.747
91.103
92.821
94.933
97.447
100.365
103.669
107.309
111.224
115.355
119.65
124.063
128.552
133.067
137.55
141.942
146.188
150.249
154.104
157.738
161.144
164.318
167.27
170.016
172.583
174.993
177.261
179.401
181.424
183.345
185.18
186.946
188.655
190.321
191.952
193.557
195.146
196.722
198.291
199.854
201.409
202.957
204.501
206.04
207.576
209.109
210.637
212.161
213.678
215.186
216.682
218.16
219.614
221.039
222.428
223.775
225.071
226.31
227.484
228.586
229.607
230.541
231.38
232.118
232.746
233.258
233.65
233.913
234.044
234.038
233.89
233.599
233.161
232.575
231.84
230.956
229.923
228.743
227.417
225.948
224.339
222.593
220.715
218.71
216.584
214.344
211.997
209.55
207.01
204.387
201.687
198.919
196.092
193.213
190.291
187.334
184.35
181.349
178.336
175.32
172.309
169.308
166.324
163.363
160.43
157.531
154.671
151.853
149.083
146.363
143.698
141.092
138.546
136.064
133.647
131.298
129.018
126.81
124.674
122.611
120.622
118.709
116.872
115.112
113.431
111.828
110.304
108.861
107.499
106.221
105.026
103.917
102.896
101.966
101.129
100.388
99.745
99.203
98.765
98.433
98.209
98.097
98.098
98.213
98.446
98.798
99.271
99.866
100.582
101.421
102.382
103.465
104.669
105.991
107.428
108.976
110.633
112.393
114.251
116.199
118.229
120.333
122.5
124.719
126.976
129.256
131.543
133.821
136.074
138.284
140.434
142.507
144.487
146.36
148.11
149.722
151.179
152.464
153.563
154.458
155.135
155.579
155.775
155.713
155.391
154.804
153.947
152.812
151.384
149.653
147.622
145.289
142.659
139.74
136.546
133.11
129.482
125.708
121.831
117.882
113.88
109.855
105.847
101.901
98.076
94.404
90.898
87.585
84.494
81.634
78.989
76.481
73.991
71.428
68.736
65.894
62.879
59.625
56.05
52.064
47.586
42.608
37.11
31.001
24.304
17.185
9.963
3.233
-2.452
-6.746
-9.235
-9.578
-7.819
-4.216
0.594
5.525
9.844
13.054
14.394
13.584
11.127
8.048
6.244
8.024
14.962
28.769
51.867
85.991
132.092
188.569
250.782
314.721
376.731
436.994
499.308
561.553
619.305
662.275
671.571
638.762
561.488
443.116
304.391
163.213
35.91
-58.026
-115.223
-138.462
-135.026
-121.685
-107.342
-95.011
-85.112
-72.916
-57.97
-43.092
-30.618
-23.566
-22.36
-25.17
-30.399
-35.996
-40.116
-42.066
-41.567
-38.763
-34.317
-28.871
-22.967
-17.27
-12.414
-8.72
-6.306
-5.096
-4.831
-5.303
-6.348
-7.792
-9.471
-11.248
-13.001
-14.61
-15.978
-17.032
-17.713
-17.985
-17.831
-17.244
-16.235
-14.845
-13.127
-11.13
-8.9
-6.471
-3.869
-1.139
1.669
4.502
7.301
10.029
12.659
15.169
17.546
19.781
21.876
23.843
25.702
27.466
29.143
30.74
32.26
33.711
35.104
36.446
37.746
39.01
40.242
41.449
42.633
43.797
44.94
46.062
47.158
48.229
49.275
50.294
51.288
52.256
53.198
54.113
55
55.86
56.689
57.486
58.249
58.975
59.664
60.312
60.919
61.483
62.002
62.475
62.901
63.278
63.607
63.886
64.115
64.295
64.425
64.505
64.536
64.518
64.452
64.339
64.181
63.978
63.731
63.445
63.12
62.759
62.366
61.944
61.495
61.024
60.535
60.031
59.516
58.995
58.471
57.947
57.427
56.914
56.409
55.914
55.431
54.959
54.5
54.051
53.612
53.184
52.763
52.351
51.945
51.544
51.147
50.753
50.36
49.968
49.572
49.172
48.765
48.348
47.918
47.472
47.008
46.523
46.012
45.472
44.901
44.295
43.651
42.965
42.237
41.465
40.649
39.79
38.89
37.955
36.989
35.998
34.99
33.968
32.941
31.912
30.89
29.878
28.879
27.898
26.941
26.014
25.127
24.291
23.514
22.808
22.184
21.654
21.234
20.934
20.759
20.719
20.823
21.085
21.526
22.156
22.978
23.995
25.201
26.588
28.147
29.854
31.669
33.555
35.48
37.423
39.388
41.37
43.362
45.36
47.351
49.343
51.365
53.432
55.553
57.746
60.021
62.423
65.028
67.894
71.06
74.538
78.295
82.296
86.508
90.87
95.311
99.733
103.992
107.98
111.613
114.805
117.478
119.527
120.794
121.159
120.529
118.837
116.07
112.228
107.31
101.373
94.509
86.852
78.591
69.892
60.88
51.684
42.417
33.208
24.236
15.649
7.567
0.107
-6.653
-12.645
-17.806
-22.141
-25.715
-28.626
-31.032
-33.068
-34.839
-36.476
-38.1
-39.841
-41.861
-44.264
-47.161
-50.748
-55.107
-60.2
-65.861
-71.621
-76.94
-81.423
-84.568
-85.785
-84.861
-81.894
-77.421
-72.793
-69.397
-68.179
-70.08
-75.852
-85.414
-97.943
-111.642
-123.177
-128.867
-125.62
-110.546
-80.988
-35.316
26.507
103.101
189.756
279.08
365.673
444.792
512.945
570.255
612.553
632.375
623.319
576.878
491.093
372.813
232.877
89.648
-37.466
-135.237
-196.643
-225.494
-234.218
-233.243
-228.789
-221.776
-207.322
-184.067
-155.428
-125.556
-99.697
-80.751
-68.345
-62.065
-61.843
-66.451
-74.107
-83.169
-91.685
-98.646
-104.114
-107.741
-108.829
-107.406
-103.951
-99.245
-94.594
-90.675
-87.489
-85.215
-84.067
-84.087
-85.262
-87.274
-89.444
-91.346
-92.842
-93.832
-94.337
-94.358
-93.821
-92.753
-91.281
-89.504
-87.489
-85.269
-82.818
-80.133
-77.257
-74.242
-71.16
-68.074
-65.019
-62.017
-59.087
-56.241
-53.491
-50.841
-48.28
-45.79
-43.359
-40.981
-38.658
-36.389
-34.168
-31.98
-29.807
-27.635
-25.456
-23.262
-21.05
-18.814
-16.55
-14.258
-11.941
-9.605
-7.252
-4.884
-2.501
-0.106
2.299
4.709
7.121
9.529
11.928
14.313
16.676
19.01
21.307
23.559
25.758
27.896
29.962
31.95
33.848
35.648
37.341
38.916
40.365
41.678
42.848
43.866
44.726
45.421
45.947
46.299
46.476
46.474
46.293
45.933
45.394
44.677
43.785
42.72
41.486
40.088
38.53
36.819
34.96
32.961
30.83
28.573
26.201
23.722
21.145
18.481
15.74
12.933
10.071
7.165
4.227
1.267
-1.705
-4.678
-7.644
-10.595
-13.523
-16.422
-19.285
-22.107
-24.883
-27.609
-30.28
-32.894
-35.447
-37.937
-40.363
-42.723
-45.018
-47.246
-49.407
-51.502
-53.529
-55.491
-57.387
-59.22
-60.989
-62.698
-64.35
-65.947
-67.494
-68.994
-70.45
-71.866
-73.242
-74.581
-75.884
-77.149
-78.373
-79.555
-80.693
-81.784
-82.827
-83.819
-84.757
-85.641
-86.47
-87.241
-87.949
-88.589
-89.154
-89.635
-90.026
-90.317
-90.501
-90.572
-90.522
-90.35
-90.055
-89.634
-89.083
-88.391
-87.546
-86.54
-85.374
-84.047
-82.565
-80.941
-79.196
-77.364
-75.486
-73.585
-71.682
-69.783
-67.881
-65.976
-64.065
-62.141
-60.214
-58.291
-56.369
-54.463
-52.576
-50.688
-48.774
-46.776
-44.624
-42.289
-39.76
-37.047
-34.2
-31.274
-28.337
-25.49
-22.804
-20.335
-18.144
-16.263
-14.731
-13.625
-13.022
-13.018
-13.739
-15.256
-17.609
-20.814
-24.813
-29.518
-34.816
-40.544
-46.568
-52.794
-59.115
-65.451
-71.725
-77.815
-83.626
-89.065
-93.993
-98.313
-101.971
-104.938
-107.294
-109.176
-110.718
-112.075
-113.363
-114.67
-116.122
-117.828
-119.892
-122.429
-125.465
-129.07
-133.401
-138.459
-144.1
-149.999
-155.517
-160.071
-163.251
-164.508
-163.405
-159.898
-154.162
-146.956
-139.5
-132.656
-127.22
-124.048
-123.349
-124.674
-126.906
-127.829
-124.938
-115.941
-98.084
-68.65
-25.825
29.911
95.47
167.018
241.461
319.091
401.359
484.71
559.76
610.618
621.203
585.147
507.285
402.766
288.169
174.347
66.745
-34.616
-128.344
-209.077
-272.63
-315.188
-333.357
-328.669
-302.449
-256.664
-201.273
-145.3
-97.787
-67.686
-53.394
-52.239
-61.17
-74.348
-91.699
-112.093
-132.464
-151.98
-167.565
-176.88
-180.061
-177.328
-170.002
-160.343
-150.17
-140.715
-132.957
-127.333
-123.863
-122.492
-122.941
-124.629
-126.874
-129.218
-131.341
-133.074
-134.435
-135.404
-135.955
-136.128
-135.98
-135.543
-134.84
-133.873
-132.612
-131.054
-129.224
-127.144
-124.864
-122.436
-119.908
-117.337
-114.766
-112.222
-109.733
-107.32
-104.997
-102.77
-100.637
-98.586
-96.608
-94.699
-92.847
-91.044
-89.272
-87.514
-85.757
-83.988
-82.198
-80.38
-78.526
-76.629
-74.685
-72.693
-70.654
-68.568
-66.438
-64.262
-62.043
-59.781
-57.478
-55.138
-52.761
-50.351
-47.911
-45.446
-42.961
-40.463
-37.96
-35.459
-32.969
-30.498
-28.058
-25.656
-23.304
-21.01
-18.786
-16.639
-14.581
-12.619
-10.762
-9.018
-7.395
-5.9
-4.538
-3.314
-2.232
-1.297
-0.51
0.126
0.612
0.946
1.13
1.164
1.052
0.796
0.4
-0.132
-0.792
-1.576
-2.476
-3.483
-4.59
-5.788
-7.067
-8.419
-9.834
-11.303
-12.817
-14.367
-15.943
-17.538
-19.142
-20.747
-22.346
-23.93
-25.493
-27.029
-28.53
-29.992
-31.41
-32.781
-34.099
-35.363
-36.571
-37.72
-38.81
-39.841
-40.812
-41.725
-42.581
-43.381
-44.127
-44.823
-45.47
-46.07
-46.627
-47.141
-47.615
-48.05
-48.446
-48.805
-49.125
-49.408
-49.651
-49.854
-50.016
-50.136
-50.212
-50.24
-50.22
-50.147
-50.019
-49.83
-49.577
-49.255
-48.857
-48.379
-47.813
-47.154
-46.396
-45.53
-44.552
-43.454
-42.229
-40.871
-39.376
-37.737
-35.951
-34.016
-31.929
-29.692
-27.307
-24.775
-22.102
-19.294
-16.357
-13.3
-10.132
-6.864
-3.508
-0.076
3.416
6.956
10.524
14.103
17.674
21.216
24.71
28.132
31.456
34.658
37.713
40.598
43.292
45.775
48.024
50.018
51.74
53.173
54.306
55.128
55.622
55.778
55.589
55.054
54.188
53.004
51.509
49.711
47.614
45.221
42.545
39.597
36.386
32.925
29.224
25.308
21.219
17.009
12.734
8.43
4.108
-0.216
-4.529
-8.782
-12.885
-16.761
-20.346
-23.596
-26.527
-29.087
-31.13
-32.689
-33.934
-35.062
-36.373
-37.91
-39.365
-40.677
-42.025
-43.304
-44.318
-44.669
-43.546
-40.734
-36.674
-31.481
-25.149
-17.837
-9.554
-0.939
6.559
12.06
15.198
15.623
13.414
8.52
0.466
-10.094
-21.3
-31.046
-36.858
-36.743
-29.651
-13.961
12.873
52.375
104.648
167.256
235.129
304.057
371.593
437.989
503.876
566.125
617.981
647.632
643.147
598.863
514.963
400.322
269.646
138.446
23.223
-64.465
-119.822
-145.072
-150.723
-146.591
-138.923
-130.101
-116.869
-98.297
-77.168
-56.705
-41.125
-32.464
-29.799
-31.613
-36.183
-41.526
-45.948
-48.509
-48.781
-46.893
-43.464
-39.078
-34.21
-29.501
-25.628
-22.937
-21.553
-21.379
-22.108
-23.512
-25.429
-27.663
-30.019
-32.339
-34.458
-36.25
-37.668
-38.671
-39.225
-39.327
-38.958
-38.122
-36.858
-35.22
-33.262
-31.036
-28.583
-25.936
-23.144
-20.26
-17.343
-14.458
-11.645
-8.931
-6.337
-3.878
-1.563
0.602
2.631
4.542
6.352
8.073
9.711
11.272
12.766
14.209
15.612
16.989
18.349
19.699
21.049
22.405
23.774
25.16
26.562
27.98
29.415
30.87
32.345
33.842
35.361
36.902
38.465
40.049
41.652
43.27
44.9
46.537
48.175
49.809
51.432
53.038
54.618
56.165
57.672
59.129
60.528
61.86
63.118
64.291
65.373
66.355
67.23
67.99
68.63
69.144
69.527
69.775
69.885
69.856
69.687
69.377
68.929
68.344
67.627
66.78
65.809
64.721
63.522
62.221
60.825
59.344
57.788
56.167
54.493
52.776
51.029
49.263
47.489
45.719
43.966
42.238
40.549
38.906
37.322
35.804
34.36
32.999
31.727
30.55
29.471
28.494
27.621
26.854
26.19
25.629
25.169
24.806
24.536
24.353
24.252
24.225
24.267
24.368
24.52
24.714
24.941
25.191
25.456
25.725
25.99
26.242
26.474
26.677
26.845
26.972
27.052
27.079
27.05
26.963
26.814
26.604
26.333
26.003
25.616
25.177
24.692
24.167
23.61
23.029
22.432
21.83
21.232
20.65
20.096
19.579
19.113
18.709
18.38
18.136
17.989
17.947
18.021
18.218
18.546
19.009
19.614
20.362
21.256
22.296
23.481
24.81
26.277
27.875
29.599
31.438
33.381
35.415
37.522
39.685
41.885
44.104
46.321
48.513
50.661
52.743
54.742
56.639
58.415
60.049
61.52
62.808
63.894
64.762
65.394
65.778
65.9
65.757
65.346
64.667
63.716
62.484
60.959
59.135
57.01
54.588
51.878
48.899
45.68
42.258
38.69
35.024
31.305
27.571
23.854
20.191
16.633
13.232
10.044
7.119
4.499
2.221
0.306
-1.269
-2.544
-3.594
-4.513
-5.361
-6.214
-7.158
-8.268
-9.648
-11.401
-13.588
-16.308
-19.697
-23.746
-28.354
-33.272
-38.014
-42.177
-45.421
-47.235
-47.218
-45.335
-41.802
-37.311
-32.887
-29.112
-26.464
-25.682
-27.016
-30.062
-33.774
-36.047
-34.588
-27.934
-14.185
9.067
43.236
89.199
145.434
207.299
272.303
339.207
407.01
477.06
543.851
595.911
622.851
613.064
564.792
488.533
396.433
300.478
205.992
109.747
8.029
-95.158
-188.48
-259.384
-296.435
-299.506
-279.061
-244.937
-208.106
-175.004
-144.823
-117.931
-94.374
-74.36
-60.851
-55.413
-57.285
-64.538
-74.023
-83.06
-90.539
-96.153
-99.534
-100.103
-97.742
-92.973
-86.95
-81.129
-76.267
-72.489
-69.878
-68.581
-68.664
-70.068
-72.399
-74.942
-77.228
-79.082
-80.435
-81.317
-81.725
-81.597
-80.95
-79.907
-78.579
-77.036
-75.318
-73.407
-71.304
-69.057
-66.725
-64.384
-62.103
-59.919
-57.853
-55.92
-54.128
-52.485
-50.995
-49.644
-48.406
-47.264
-46.206
-45.228
-44.326
-43.486
-42.69
-41.913
-41.138
-40.35
-39.539
-38.697
-37.814
-36.882
-35.897
-34.858
-33.765
-32.618
-31.413
-30.148
-28.821
-27.431
-25.979
-24.469
-22.9
-21.278
-19.607
-17.893
-16.143
-14.365
-12.567
-10.756
-8.943
-7.135
-5.344
-3.58
-1.852
-0.171
1.453
3.009
4.488
5.881
7.177
8.369
9.448
10.406
11.237
11.935
12.495
12.912
13.183
13.304
13.276
13.097
12.767
12.288
11.661
10.89
9.979
8.933
7.757
6.459
5.046
3.525
1.906
0.196
-1.593
-3.454
-5.377
-7.352
-9.37
-11.422
-13.499
-15.591
-17.69
-19.787
-21.875
-23.945
-25.99
-28.003
-29.979
-31.911
-33.794
-35.624
-37.397
-39.109
-40.757
-42.34
-43.854
-45.298
-46.671
-47.974
-49.205
-50.365
-51.455
-52.476
-53.428
-54.314
-55.133
-55.887
-56.577
-57.201
-57.761
-58.255
-58.685
-59.048
-59.344
-59.571
-59.728
-59.813
-59.824
-59.758
-59.611
-59.38
-59.062
-58.653
-58.149
-57.546
-56.84
-56.027
-55.104
-54.067
-52.911
-51.634
-50.232
-48.7
-47.037
-45.241
-43.31
-41.242
-39.038
-36.699
-34.23
-31.633
-28.914
-26.078
-23.133
-20.088
-16.951
-13.735
-10.449
-7.108
-3.724
-0.318
3.095
6.495
9.863
13.18
16.425
19.579
22.623
25.539
28.313
30.928
33.365
35.606
37.634
39.431
40.984
42.279
43.302
44.043
44.496
44.662
44.544
44.14
43.445
42.45
41.152
39.553
37.658
35.475
33.022
30.319
27.398
24.305
21.086
17.776
14.409
11.01
7.613
4.268
1.026
-2.062
-4.95
-7.602
-9.976
-12.039
-13.794
-15.266
-16.51
-17.591
-18.537
-19.378
-20.179
-21.004
-21.948
-23.11
-24.517
-26.244
-28.446
-31.147
-34.294
-37.69
-40.818
-43.27
-44.883
-45.288
-44.049
-41.172
-36.796
-31.542
-26.861
-23.557
-21.702
-22.043
-25.325
-31.14
-38.941
-46.03
-47.099
-40.362
-25.822
-4.326
19.87
47.416
82.763
129.644
194.422
278.245
374.574
473.79
560.006
616.934
635.66
613.302
556.005
477.456
389.29
299.459
211.843
125.365
40.56
-38.514
-106.922
-159.551
-194.079
-211.427
-213.994
-205.255
-188.712
-168.22
-147.87
-130.419
-117.351
-109.206
-105.552
-105.521
-108.155
-111.86
-114.752
-115.809
-114.698
-111.559
-106.989
-101.534
-95.615
-89.871
-85.038
-81.505
-79.396
-78.626
-78.89
-79.949
-81.643
-83.76
-86.075
-88.403
-90.555
-92.378
-93.81
-94.794
-95.287
-95.274
-94.731
-93.653
-92.081
-90.069
-87.678
-84.967
-81.984
-78.77
-75.381
-71.878
-68.331
-64.808
-61.355
-58.003
-54.771
-51.675
-48.726
-45.928
-43.268
-40.725
-38.283
-35.928
-33.654
-31.456
-29.322
-27.238
-25.192
-23.171
-21.166
-19.17
-17.176
-15.177
-13.17
-11.152
-9.124
-7.089
-5.046
-2.994
-0.932
1.14
3.223
5.317
7.421
9.534
11.654
13.777
15.898
18.011
20.112
22.193
24.25
26.273
28.258
30.196
32.08
33.904
35.659
37.337
38.932
40.435
41.839
43.138
44.325
45.394
46.339
47.156
47.84
48.389
48.799
49.067
49.193
49.176
49.016
48.713
48.27
47.69
46.975
46.13
45.16
44.073
42.873
41.568
40.166
38.675
37.103
35.459
33.751
31.988
30.18
28.335
26.463
24.572
22.67
20.768
18.872
16.99
15.129
13.297
11.499
9.742
8.029
6.365
4.755
3.2
1.703
0.267
-1.109
-2.423
-3.676
-4.868
-6
-7.074
-8.092
-9.057
-9.969
-10.832
-11.648
-12.42
-13.149
-13.84
-14.492
-15.109
-15.691
-16.241
-16.76
-17.248
-17.707
-18.135
-18.533
-18.898
-19.231
-19.527
-19.784
-19.998
-20.164
-20.278
-20.334
-20.327
-20.25
-20.098
-19.863
-19.539
-19.119
-18.596
-17.964
-17.215
-16.344
-15.346
-14.216
-12.949
-11.544
-9.997
-8.307
-6.475
-4.502
-2.39
-0.142
2.24
4.748
7.375
10.113
12.954
15.885
18.895
21.966
25.082
28.224
31.373
34.512
37.618
40.67
43.647
46.533
49.309
51.957
54.455
56.783
58.921
60.849
62.552
64.012
65.212
66.138
66.783
67.144
67.22
67.006
66.492
65.664
64.514
63.043
61.252
59.146
56.739
54.05
51.114
47.981
44.699
41.31
37.848
34.34
30.823
27.348
23.968
20.735
17.694
14.877
12.324
10.068
8.101
6.392
4.875
3.466
2.115
0.777
-0.623
-2.151
-3.892
-5.958
-8.402
-11.3
-14.796
-18.897
-23.528
-28.504
-33.361
-37.63
-40.985
-42.923
-42.91
-40.879
-36.955
-31.672
-26.268
-21.666
-18.438
-17.51
-19.575
-24.386
-31.188
-38.186
-42.315
-41.112
-32.411
-13.501
17.752
62.296
120.054
189.044
265.295
344.861
423.209
494.381
552.724
593.25
611.558
606.553
579.149
529.067
459.023
371.189
268.003
159.762
55.287
-35.856
-103.481
-148.963
-175.23
-185.919
-187.6
-180.186
-163.84
-141.639
-116.144
-92.259
-73.444
-60.072
-52.247
-49.288
-50.385
-55.039
-61.437
-67.384
-71.864
-74.632
-75.836
-75.849
-74.625
-71.836
-68.093
-64.529
-61.752
-60.065
-59.42
-59.487
-60.263
-62.003
-64.562
-67.495
-70.428
-73
-75.075
-76.742
-77.985
-78.717
-78.91
-78.583
-77.805
-76.69
-75.307
-73.664
-71.778
-69.667
-67.373
-64.969
-62.524
-60.102
-57.743
-55.472
-53.305
-51.258
-49.347
-47.577
-45.938
-44.407
-42.965
-41.609
-40.34
-39.149
-38.016
-36.915
-35.821
-34.728
-33.648
-32.559
-31.438
-30.316
-29.22
-28.171
-27.206
-26.299
-25.389
-24.509
-23.716
-22.852
-21.73
-20.462
-19.038
-17.425
-16.026
-13.761
-9.579
-4.994
-0.466
1.229
-3.227
-10.172
-17.171
-20.594
-15.451
-6.173
3.485
10.947
11.956
9.533
6.758
4.317
4.084
4.979
5.583
6.14
6.483
6.718
7.087
7.37
7.393
7.167
6.733
6.135
5.344
4.309
3.201
2.241
1.349
0.529
-0.191
-1.211
-1.418
0.27
2.326
4.285
3.324
-3.932
-13.728
-23.564
-29.717
-27.075
-20.152
-12.77
-7.549
-8.821
-13.485
-18.399
-22.863
-24.963
-25.811
-26.836
-27.768
-28.791
-29.812
-30.544
-31.179
-31.872
-32.579
-33.29
-34.029
-34.796
-35.584
-36.392
-37.197
-37.97
-38.728
-39.489
-40.251
-41.016
-41.788
-42.565
-43.351
-44.152
-44.963
-45.782
-46.607
-47.433
-48.256
-49.073
-49.877
-50.661
-51.42
-52.146
-52.83
-53.465
-54.042
-54.553
-54.99
-55.343
-55.603
-55.762
-55.81
-55.738
-55.538
-55.202
-54.721
-54.086
-53.291
-52.329
-51.194
-49.881
-48.386
-46.706
-44.838
-42.781
-40.538
-38.108
-35.498
-32.712
-29.757
-26.644
-23.383
-19.988
-16.473
-12.856
-9.153
-5.383
-1.565
2.279
6.129
9.962
13.758
17.494
21.149
24.699
28.121
31.391
34.487
37.385
40.065
42.502
44.674
46.56
48.14
49.401
50.329
50.913
51.137
50.986
50.451
49.528
48.22
46.534
44.478
42.064
39.318
36.28
32.995
29.506
25.846
22.038
18.106
14.078
9.992
5.895
1.817
-2.216
-6.189
-10.089
-13.899
-17.614
-21.263
-24.917
-28.669
-32.594
-36.739
-41.107
-45.684
-50.473
-55.513
-60.848
-66.505
-72.516
-78.843
-85.492
-92.568
-100.003
-107.549
-114.774
-120.954
-125.439
-127.899
-127.95
-125.174
-119.668
-111.776
-102.288
-92.856
-84.854
-79.081
-76.439
-77.405
-81.356
-87.219
-93.139
-95.825
-92.229
-79.906
-56.284
-19.455
30.889
93.816
167.372
246.61
324.709
396.826
458.334
506.658
543.728
566.775
569.553
545.472
485.288
388.647
263.747
124.437
-9.145
-122.627
-206.478
-258.857
-288.163
-300.824
-302.564
-295.753
-276.504
-244.581
-203.152
-156.921
-112.913
-75.961
-48.219
-31.182
-25.095
-29.158
-41.485
-59.294
-79.652
-99.82
-117.854
-132.191
-141.71
-146.169
-146.111
-142.653
-137.255
-131.432
-126.151
-122.09
-119.695
-118.966
-119.739
-121.656
-124.104
-126.455
-128.349
-129.604
-130.169
-130.135
-129.54
-128.418
-126.883
-125.048
-122.987
-120.736
-118.289
-115.629
-112.779
-109.792
-106.731
-103.653
-100.587
-97.547
-94.545
-91.59
-88.696
-85.869
-83.102
-80.394
-77.748
-75.171
-72.673
-70.258
-67.919
-65.646
-63.425
-61.244
-59.095
-56.973
-54.873
-52.792
-50.727
-48.679
-46.648
-44.633
-42.631
-40.638
-38.65
-36.661
-34.671
-32.675
-30.672
-28.66
-26.64
-24.612
-22.576
-20.534
-18.488
-16.438
-14.389
-12.345
-10.308
-8.285
-6.282
-4.304
-2.36
-0.457
1.397
3.193
4.922
6.577
8.148
9.628
11.008
12.282
13.441
14.48
15.393
16.174
16.819
17.323
17.682
17.894
17.956
17.867
17.626
17.233
16.691
16
15.164
14.188
13.076
11.835
10.471
8.992
7.407
5.726
3.958
2.115
0.208
-1.751
-3.749
-5.774
-7.813
-9.853
-11.882
-13.889
-15.859
-17.784
-19.651
-21.45
-23.17
-24.804
-26.342
-27.775
-29.098
-30.302
-31.383
-32.335
-33.154
-33.836
-34.38
-34.784
-35.046
-35.168
-35.15
-34.993
-34.701
-34.277
-33.723
-33.045
-32.248
-31.337
-30.317
-29.195
-27.977
-26.67
-25.279
-23.811
-22.271
-20.666
-19
-17.279
-15.505
-13.684
-11.817
-9.909
-7.959
-5.972
-3.948
-1.888
0.209
2.342
4.512
6.72
8.968
11.257
13.591
15.97
18.397
20.874
23.403
25.985
28.622
31.315
34.065
36.871
39.733
42.65
45.62
48.64
51.707
54.814
57.955
61.124
64.311
67.504
70.692
73.861
76.996
80.083
83.105
86.045
88.887
91.616
94.216
96.672
98.968
101.086
103.01
104.721
106.202
107.439
108.417
109.12
109.54
109.672
109.512
109.057
108.299
107.226
105.826
104.097
102.035
99.642
96.924
93.899
90.594
87.055
83.324
79.445
75.454
71.378
67.248
63.104
58.995
54.973
51.085
47.367
43.853
40.586
37.582
34.82
32.246
29.768
27.307
24.822
22.268
19.572
16.663
13.444
9.806
5.706
1.071
-4.241
-10.235
-16.825
-23.781
-30.548
-36.556
-41.386
-44.5
-45.371
-43.96
-40.454
-35.461
-30.398
-26.469
-24.5
-25.557
-30.293
-38.199
-48.168
-58.171
-64.781
-64.877
-55.715
-34.089
2.309
53.838
119.652
197.376
282.477
369.882
454.04
528.128
585.816
622.677
635.461
622.26
583.644
521.959
441.225
347.734
248.509
149.756
57.482
-22.42
-85.738
-130.293
-155.824
-164.363
-159.23
-143.768
-121.784
-97.849
-75.973
-58.76
-47.5
-42.052
-41.389
-44.457
-49.96
-56.022
-60.854
-63.417
-63.357
-60.975
-56.979
-51.966
-46.464
-41.15
-36.653
-33.318
-31.25
-30.327
-30.271
-30.867
-31.944
-33.317
-34.834
-36.364
-37.783
-38.995
-39.918
-40.48
-40.635
-40.362
-39.648
-38.499
-36.94
-35.012
-32.768
-30.264
-27.557
-24.679
-21.64
-18.472
-15.206
-11.888
-8.621
-5.476
-2.46
0.355
2.868
5.041
6.808
8.136
9.182
10.077
10.776
11.478
12.608
14.157
15.995
18.303
20.529
23.105
28.527
36.365
44.235
48.706
41.651
21.047
-5.171
-27.409
-31.424
-9.425
28.181
66.708
90.723
88.505
66.92
39.996
18.242
10.79
15.869
24.816
33.473
39.003
41.144
42.926
45.164
47.161
49.778
54.646
61.186
68.012
71.664
65.649
51.033
34.312
22.186
24.156
39.885
60.301
78.818
88.106
86.985
81.752
75.719
71.041
68.885
67.153
64.839
62.275
59.541
57.037
55.296
54.455
54.049
53.795
53.56
53.066
52.336
51.475
50.289
48.629
46.669
44.505
42.213
39.95
37.665
35.299
32.911
30.528
28.14
25.757
23.363
20.934
18.503
16.096
13.725
11.409
9.147
6.933
4.774
2.673
0.631
-1.345
-3.255
-5.097
-6.872
-8.579
-10.218
-11.785
-13.285
-14.715
-16.079
-17.379
-18.611
-19.773
-20.862
-21.877
-22.815
-23.678
-24.462
-25.168
-25.792
-26.334
-26.791
-27.162
-27.443
-27.63
-27.718
-27.703
-27.581
-27.346
-26.993
-26.517
-25.914
-25.176
-24.301
-23.284
-22.121
-20.808
-19.342
-17.721
-15.945
-14.014
-11.929
-9.692
-7.306
-4.777
-2.111
0.686
3.605
6.636
9.771
12.998
16.305
19.678
23.103
26.565
30.047
33.532
36.998
40.424
43.789
47.07
50.245
53.291
56.186
58.909
61.442
63.769
65.871
67.731
69.332
70.655
71.688
72.418
72.834
72.927
72.692
72.129
71.243
70.039
68.518
66.68
64.519
62.033
59.228
56.111
52.694
49.002
45.064
40.92
36.625
32.229
27.777
23.311
18.864
14.478
10.205
6.101
2.223
-1.375
-4.653
-7.569
-10.102
-12.272
-14.114
-15.701
-17.122
-18.428
-19.691
-20.992
-22.405
-24.051
-26.043
-28.426
-31.302
-34.801
-38.916
-43.582
-48.564
-53.318
-57.445
-60.664
-62.507
-62.656
-61.133
-58.105
-54.264
-50.828
-48.436
-47.328
-48.268
-51.657
-56.913
-63.209
-67.715
-65.629
-55.278
-36.578
-10.327
18.867
51.639
93.375
147.862
220.802
309.336
400.079
480.308
537.132
564.412
566.309
547.181
508.864
451.814
373.632
272.388
155.311
34.827
-76.437
-163.055
-219.614
-251.961
-265.884
-269.913
-268.07
-256.666
-235.323
-206.597
-174.87
-146.194
-123.738
-108.023
-99.082
-96.718
-100.19
-107.493
-115.741
-122.936
-128.193
-131.35
-132.42
-130.953
-126.776
-120.734
-114.334
-108.689
-104.276
-101.109
-99.006
-98.096
-98.525
-100.029
-102.035
-103.998
-105.565
-106.635
-107.276
-107.463
-107.122
-106.243
-104.867
-103.093
-101.019
-98.69
-96.11
-93.289
-90.255
-87.061
-83.78
-80.484
-77.236
-74.078
-71.037
-68.131
-65.375
-62.779
-60.351
-58.081
-55.951
-53.947
-52.064
-50.3
-48.653
-47.113
-45.662
-44.283
-42.963
-41.691
-40.462
-39.269
-38.104
-36.962
-35.84
-34.738
-33.657
-32.596
-31.552
-30.52
-29.498
-28.484
-27.477
-26.476
-25.481
-24.491
-23.509
-22.536
-21.574
-20.628
-19.7
-18.792
-17.909
-17.053
-16.23
-15.442
-14.694
-13.991
-13.336
-12.734
-12.19
-11.707
-11.289
-10.94
-10.663
-10.461
-10.336
-10.291
-10.327
-10.447
-10.653
-10.944
-11.321
-11.785
-12.333
-12.965
-13.678
-14.471
-15.338
-16.277
-17.282
-18.35
-19.474
-20.651
-21.874
-23.137
-24.434
-25.759
-27.105
-28.467
-29.837
-31.211
-32.582
-33.946
-35.298
-36.633
-37.948
-39.238
-40.502
-41.734
-42.932
-44.093
-45.214
-46.292
-47.326
-48.314
-49.257
-50.153
-51.003
-51.809
-52.57
-53.29
-53.969
-54.61
-55.213
-55.782
-56.319
-56.827
-57.309
-57.769
-58.209
-58.633
-59.043
-59.441
-59.827
-60.202
-60.566
-60.916
-61.251
-61.568
-61.864
-62.136
-62.383
-62.602
-62.791
-62.949
-63.074
-63.164
-63.215
-63.223
-63.18
-63.079
-62.91
-62.663
-62.329
-61.9
-61.368
-60.726
-59.969
-59.094
-58.095
-56.968
-55.701
-54.282
-52.7
-50.954
-49.045
-46.985
-44.79
-42.485
-40.097
-37.659
-35.192
-32.713
-30.223
-27.712
-25.167
-22.576
-19.941
-17.28
-14.606
-11.93
-9.254
-6.578
-3.883
-1.138
1.702
4.692
7.864
11.224
14.744
18.366
22.016
25.603
29.057
32.327
35.367
38.141
40.616
42.753
44.494
45.762
46.457
46.467
45.711
44.146
41.774
38.648
34.854
30.521
25.779
20.736
15.488
10.111
4.666
-0.768
-6.097
-11.214
-15.992
-20.296
-24.022
-27.091
-29.481
-31.223
-32.393
-33.125
-33.552
-33.802
-34.013
-34.299
-34.774
-35.57
-36.786
-38.57
-41.133
-44.539
-48.733
-53.532
-58.528
-63.347
-67.768
-71.341
-73.495
-74.071
-73.165
-71.33
-69.673
-68.85
-69
-70.546
-74.023
-79.288
-85.641
-91.337
-93.599
-90.494
-80.865
-62.892
-34.371
5.986
58.631
121.145
188.152
257.156
326.799
396.239
467.165
533.523
583.926
608.898
596.748
547.225
473.304
385.076
293.85
204.429
109.808
11.851
-80.616
-157.785
-205.545
-221.818
-216.65
-199.578
-181.28
-166.333
-152.426
-139.543
-127.608
-117.219
-110.81
-108.472
-109.167
-111.856
-114.532
-115.531
-114.255
-110.526
-104.666
-97.445
-89.514
-81.405
-73.758
-67.16
-61.915
-58.121
-55.698
-54.384
-53.946
-54.207
-54.969
-56.056
-57.317
-58.596
-59.756
-60.685
-61.296
-61.525
-61.341
-60.717
-59.646
-58.147
-56.26
-54.043
-51.557
-48.853
-45.977
-42.969
-39.881
-36.775
-33.716
-30.764
-27.961
-25.335
-22.904
-20.68
-18.667
-16.859
-15.238
-13.78
-12.465
-11.281
-10.214
-9.255
-8.388
-7.597
-6.866
-6.18
-5.526
-4.894
-4.272
-3.652
-3.028
-2.394
-1.748
-1.088
-0.41
0.289
1.014
1.769
2.558
3.385
4.252
5.162
6.115
7.113
8.153
9.234
10.353
11.508
12.694
13.908
15.143
16.396
17.659
18.926
20.191
21.446
22.685
23.899
25.081
26.226
27.324
28.371
29.359
30.282
31.135
31.914
32.612
33.225
33.751
34.185
34.525
34.769
34.916
34.962
34.91
34.757
34.506
34.158
33.714
33.177
32.551
31.838
31.044
30.172
29.228
28.217
27.144
26.015
24.837
23.614
22.354
21.062
19.745
18.408
17.057
15.698
14.336
12.975
11.621
10.278
8.949
7.639
6.351
5.088
3.853
2.648
1.478
0.343
-0.754
-1.811
-2.827
-3.799
-4.726
-5.606
-6.439
-7.223
-7.957
-8.64
-9.27
-9.845
-10.365
-10.829
-11.234
-11.58
-11.863
-12.083
-12.236
-12.32
-12.331
-12.267
-12.123
-11.894
-11.578
-11.17
-10.666
-10.06
-9.35
-8.53
-7.597
-6.548
-5.378
-4.085
-2.667
-1.121
0.553
2.357
4.289
6.35
8.538
10.85
13.282
15.83
18.489
21.253
24.115
27.065
30.094
33.191
36.344
39.54
42.763
45.994
49.217
52.412
55.56
58.64
61.631
64.513
67.268
69.878
72.325
74.589
76.653
78.497
80.105
81.459
82.541
83.337
83.831
84.015
83.884
83.434
82.659
81.552
80.097
78.288
76.126
73.611
70.747
67.544
64.023
60.223
56.199
52.006
47.692
43.299
38.855
34.404
30
25.698
21.565
17.644
13.959
10.552
7.455
4.678
2.193
-0.086
-2.287
-4.514
-6.843
-9.32
-11.987
-14.927
-18.248
-22.056
-26.451
-31.451
-37.075
-43.404
-50.403
-57.894
-65.516
-72.639
-78.609
-82.961
-85.337
-85.45
-83.358
-79.319
-73.863
-67.97
-62.586
-58.475
-56.02
-55.072
-54.778
-53.795
-50.49
-42.77
-28.392
-5.111
28.712
73.665
129.066
193.054
263.11
335.942
407.246
471.659
523.906
559.615
575.384
570.485
545.144
498.609
433.103
350.465
253.312
151.233
52.088
-35.575
-102.5
-149.609
-178.795
-192.802
-197.777
-193.641
-180.492
-160.784
-135.755
-109.626
-86.446
-67.695
-54.08
-45.234
-40.386
-39.367
-42.001
-47.355
-54.199
-61.256
-67.793
-73.689
-78.898
-83.132
-85.874
-86.988
-86.845
-86.153
-85.399
-84.644
-83.834
-82.96
-82.239
-81.815
-81.52
-80.979
-79.886
-78.154
-75.836
-73.054
-69.867
-66.316
-62.561
-58.86
-55.444
-52.461
-49.977
-47.991
-46.486
-45.461
-44.886
-44.68
-44.768
-45.079
-45.558
-46.181
-46.897
-47.633
-48.29
-48.749
-48.921
-48.752
-48.204
-47.255
-45.914
-44.203
-42.184
-39.954
-37.586
-35.13
-32.621
-30.071
-27.5
-24.943
-22.429
-19.99
-17.652
-15.431
-13.344
-11.407
-9.616
-7.959
-6.403
-4.9
-3.415
-1.93
-0.433
1.076
2.599
4.138
5.685
7.229
8.762
10.278
11.773
13.248
14.696
16.108
17.47
18.766
19.982
21.109
22.136
23.056
23.863
24.552
25.123
25.578
25.918
26.141
26.247
26.233
26.098
25.842
25.464
24.964
24.343
23.603
22.746
21.779
20.705
19.529
18.256
16.892
15.445
13.919
12.323
10.662
8.946
7.181
5.376
3.539
1.679
-0.198
-2.083
-3.969
-5.85
-7.72
-9.573
-11.404
-13.209
-14.983
-16.721
-18.421
-20.077
-21.688
-23.25
-24.763
-26.222
-27.629
-28.982
-30.28
-31.525
-32.716
-33.853
-34.937
-35.967
-36.946
-37.873
-38.75
-39.577
-40.355
-41.086
-41.769
-42.405
-42.994
-43.533
-44.022
-44.459
-44.843
-45.168
-45.433
-45.633
-45.766
-45.83
-45.822
-45.738
-45.574
-45.324
-44.987
-44.557
-44.027
-43.388
-42.629
-41.745
-40.729
-39.577
-38.282
-36.84
-35.246
-33.497
-31.598
-29.548
-27.345
-24.981
-22.447
-19.746
-16.892
-13.906
-10.805
-7.604
-4.32
-0.977
2.395
5.774
9.152
12.539
15.945
19.364
22.774
26.141
29.428
32.616
35.705
38.697
41.587
44.368
47.044
49.637
52.18
54.677
57.092
59.348
61.374
63.123
64.576
65.732
66.588
67.126
67.315
67.129
66.551
65.555
64.101
62.122
59.542
56.335
52.538
48.246
43.559
38.56
33.317
27.883
22.324
16.718
11.144
5.672
0.369
-4.681
-9.382
-13.615
-17.276
-20.307
-22.72
-24.568
-25.915
-26.844
-27.452
-27.859
-28.211
-28.648
-29.288
-30.269
-31.793
-33.985
-36.844
-40.235
-43.811
-47.199
-50.121
-52.221
-52.979
-52.102
-49.704
-46.335
-43.128
-41.247
-41.368
-44.098
-50.263
-60.142
-73.031
-87.198
-99.627
-106.968
-106.702
-96.314
-72.59
-33.022
23.358
94.739
176.062
261.797
347.98
433.598
517.655
595.421
658.246
693.091
689.339
644.215
562.123
453.037
326.95
193.155
61.378
-56.338
-146.262
-201.031
-222.269
-219.907
-206.796
-190.658
-173.109
-152.072
-126.941
-100.291
-75.998
-58.185
-48.804
-47.697
-53.744
-64.482
-76.881
-88.617
-98.259
-105.146
-109.027
-109.613
-106.93
-101.783
-95.674
-89.953
-85.34
-82.073
-80.139
-79.62
-80.598
-82.848
-85.81
-88.944
-91.92
-94.57
-96.868
-98.765
-100.15
-100.989
-101.324
-101.208
-100.686
-99.792
-98.522
-96.89
-94.939
-92.711
-90.258
-87.638
-84.902
-82.109
-79.318
-76.57
-73.894
-71.316
-68.851
-66.511
-64.302
-62.216
-60.24
-58.369
-56.596
-54.913
-53.311
-51.774
-50.288
-48.84
-47.42
-46.018
-44.627
-43.236
-41.84
-40.433
-39.013
-37.579
-36.13
-34.664
-33.178
-31.671
-30.14
-28.585
-27.006
-25.402
-23.772
-22.117
-20.439
-18.741
-17.026
-15.298
-13.561
-11.82
-10.081
-8.351
-6.635
-4.941
-3.276
-1.649
-0.069
1.457
2.919
4.31
5.62
6.843
7.97
8.995
9.912
10.715
11.399
11.961
12.397
12.704
12.88
12.925
12.838
12.62
12.271
11.794
11.192
10.468
9.626
8.673
7.613
6.452
5.197
3.856
2.435
0.943
-0.611
-2.22
-3.874
-5.564
-7.281
-9.017
-10.762
-12.508
-14.247
-15.972
-17.674
-19.348
-20.986
-22.584
-24.137
-25.639
-27.088
-28.479
-29.811
-31.082
-32.289
-33.433
-34.512
-35.528
-36.481
-37.371
-38.2
-38.97
-39.682
-40.337
-40.938
-41.486
-41.984
-42.432
-42.833
-43.188
-43.499
-43.765
-43.988
-44.168
-44.305
-44.398
-44.447
-44.45
-44.405
-44.31
-44.163
-43.959
-43.695
-43.367
-42.969
-42.497
-41.946
-41.309
-40.58
-39.754
-38.825
-37.786
-36.633
-35.359
-33.959
-32.429
-30.766
-28.966
-27.027
-24.948
-22.729
-20.369
-17.873
-15.242
-12.483
-9.598
-6.596
-3.483
-0.271
3.033
6.415
9.865
13.366
16.903
20.457
24.009
27.54
31.029
34.455
37.797
41.033
44.145
47.115
49.924
52.553
54.98
57.186
59.152
60.863
62.303
63.458
64.314
64.862
65.101
65.03
64.644
63.936
62.891
61.5
59.763
57.684
55.27
52.537
49.504
46.202
42.68
38.987
35.167
31.264
27.306
23.333
19.399
15.563
11.899
8.461
5.284
2.405
-0.149
-2.386
-4.327
-6.027
-7.581
-9.049
-10.494
-12.01
-13.667
-15.562
-17.816
-20.503
-23.749
-27.712
-32.389
-37.683
-43.374
-49.023
-54.25
-58.82
-62.3
-64.191
-64.372
-62.935
-60.401
-57.776
-55.643
-54.117
-53.525
-54.311
-56.373
-59.118
-61.021
-59.671
-53.385
-41.15
-21.533
7.22
46.511
97.17
157.187
221.943
288.022
351.954
413.6
476.939
540.95
602.364
651.757
669.957
644.978
571.749
454.937
315.945
175.869
53.423
-37.74
-97.353
-130.19
-145.727
-153.618
-157.085
-156.31
-148.204
-131.143
-108.454
-84.96
-65.427
-52.45
-45.739
-43.964
-45.766
-49.826
-54.563
-58.376
-60.279
-60.009
-57.901
-54.591
-50.591
-46.34
-42.427
-39.442
-37.702
-37.241
-37.871
-39.274
-41.204
-43.497
-45.953
-48.376
-50.594
-52.444
-53.838
-54.761
-55.191
-55.117
-54.541
-53.457
-51.892
-49.911
-47.572
-44.933
-42.05
-38.964
-35.723
-32.386
-29.015
-25.675
-22.415
-19.265
-16.247
-13.378
-10.667
-8.124
-5.743
-3.504
-1.392
0.604
2.495
4.286
5.985
7.609
9.171
10.684
12.159
13.605
15.029
16.442
17.85
19.259
20.671
22.088
23.512
24.948
26.399
27.87
29.364
30.883
32.431
34.008
35.617
37.256
38.924
40.618
42.333
44.067
45.815
47.571
49.327
51.079
52.817
54.535
56.225
57.877
59.483
61.033
62.521
63.936
65.272
66.519
67.67
68.719
69.659
70.485
71.192
71.775
72.232
72.558
72.752
72.812
72.738
72.53
72.188
71.715
71.114
70.389
69.545
68.588
67.523
66.358
65.1
63.758
62.339
60.853
59.308
57.713
56.077
54.41
52.719
51.014
49.303
47.593
45.892
44.206
42.542
40.905
39.3
37.731
36.203
34.719
33.281
31.891
30.55
29.26
28.019
26.828
25.684
24.585
23.529
22.513
21.533
20.584
19.662
18.764
17.883
17.017
16.16
15.309
14.46
13.609
12.754
11.892
11.023
10.145
9.256
8.358
7.45
6.534
5.613
4.687
3.762
2.839
1.924
1.021
0.138
-0.72
-1.546
-2.333
-3.073
-3.757
-4.376
-4.922
-5.387
-5.76
-6.033
-6.198
-6.246
-6.171
-5.966
-5.626
-5.147
-4.526
-3.762
-2.855
-1.807
-0.62
0.702
2.155
3.731
5.424
7.225
9.124
11.11
13.168
15.284
17.439
19.615
21.793
23.951
26.07
28.127
30.102
31.976
33.729
35.344
36.799
38.074
39.15
40.008
40.635
41.016
41.138
40.993
40.575
39.882
38.914
37.669
36.139
34.317
32.189
29.75
27.004
23.951
20.599
16.959
13.051
8.907
4.571
0.086
-4.51
-9.18
-13.881
-18.556
-23.138
-27.562
-31.758
-35.673
-39.269
-42.505
-45.357
-47.813
-49.864
-51.549
-52.954
-54.163
-55.284
-56.429
-57.688
-59.231
-61.291
-63.996
-67.351
-71.193
-75.159
-78.958
-82.415
-85.262
-87.099
-87.677
-87.095
-86.001
-85.567
-86.76
-90.015
-95.56
-103.724
-114.646
-127.687
-141.121
-152.109
-157.837
-156.406
-146.358
-125.934
-93.471
-48.421
8.545
75.106
147.972
224.562
301.052
371.185
430.359
475.419
505.538
524.383
530.094
515.777
475.698
403.487
303.175
188.65
72.108
-33.999
-122.997
-195.733
-251.731
-291.105
-314.397
-320.56
-310.522
-287.26
-254.828
-218.198
-182.045
-149.862
-123.59
-104.361
-93.143
-89.948
-93.591
-102.177
-113.067
-123.765
-133.028
-140.036
-143.841
-144.08
-140.931
-135.003
-127.685
-120.468
-114.058
-108.84
-105.164
-103.072
-102.539
-103.436
-105.206
-107.168
-108.923
-110.255
-111.07
-111.42
-111.308
-110.691
-109.629
-108.226
-106.564
-104.705
-102.67
-100.436
-98.014
-95.448
-92.796
-90.129
-87.512
-84.975
-82.535
-80.204
-77.989
-75.895
-73.925
-72.064
-70.292
-68.594
-66.962
-65.392
-63.879
-62.408
-60.959
-59.511
-58.046
-56.553
-55.023
-53.448
-51.822
-50.138
-48.395
-46.592
-44.731
-42.812
-40.833
-38.792
-36.689
-34.522
-32.294
-30.008
-27.665
-25.269
-22.826
-20.34
-17.821
-15.274
-12.709
-10.133
-7.556
-4.988
-2.439
0.082
2.564
4.997
7.37
9.673
11.896
14.028
16.062
17.987
19.795
21.479
23.033
24.451
25.728
26.858
27.838
28.666
29.338
29.852
30.208
30.405
30.443
30.324
30.05
29.624
29.051
28.336
27.484
26.503
25.399
24.18
22.854
21.429
19.915
18.319
16.652
14.923
13.142
11.317
9.459
7.575
5.676
3.768
1.859
-0.042
-1.931
-3.8
-5.643
-7.455
-9.23
-10.963
-12.65
-14.285
-15.866
-17.389
-18.85
-20.249
-21.582
-22.85
-24.05
-25.182
-26.245
-27.24
-28.166
-29.024
-29.815
-30.538
-31.196
-31.788
-32.316
-32.78
-33.183
-33.523
-33.8
-34.016
-34.168
-34.257
-34.279
-34.234
-34.12
-33.934
-33.675
-33.341
-32.93
-32.44
-31.867
-31.211
-30.469
-29.638
-28.715
-27.699
-26.586
-25.377
-24.069
-22.662
-21.155
-19.549
-17.843
-16.04
-14.141
-12.149
-10.066
-7.896
-5.645
-3.318
-0.923
1.532
4.037
6.582
9.153
11.735
14.315
16.877
19.405
21.884
24.296
26.627
28.862
30.987
32.991
34.857
36.57
38.116
39.478
40.642
41.596
42.327
42.823
43.077
43.09
42.859
42.385
41.659
40.671
39.413
37.882
36.077
34.001
31.665
29.09
26.308
23.37
20.32
17.2
14.043
10.87
7.713
4.602
1.573
-1.325
-4.058
-6.597
-8.906
-10.953
-12.741
-14.307
-15.719
-17.088
-18.489
-19.965
-21.574
-23.375
-25.435
-27.84
-30.662
-33.92
-37.682
-42.085
-47.149
-52.785
-58.693
-64.265
-68.917
-72.212
-73.661
-72.783
-69.496
-63.995
-57.064
-50.293
-45.057
-42.316
-43.003
-47.564
-55.536
-65.895
-76.383
-83.302
-83.198
-73.044
-49.932
-12.04
41.008
108.569
187.915
273.913
360.866
442.796
513.088
565.611
595.426
598.346
573.82
525.78
458.656
376.423
280.094
168.666
46.105
-76.22
-179.686
-246.543
-269.891
-255.457
-220.501
-183.113
-153.243
-133.377
-119.446
-107.279
-96.448
-88.354
-85.136
-86.98
-92.04
-97.842
-101.99
-103.492
-102.363
-98.91
-93.764
-87.614
-81.092
-74.975
-69.967
-66.349
-64.15
-63.242
-63.365
-64.307
-65.893
-67.909
-70.131
-72.385
-74.51
-76.367
-77.884
-78.999
-79.658
-79.837
-79.52
-78.709
-77.441
-75.769
-73.74
-71.402
-68.797
-65.96
-62.945
-59.813
-56.632
-53.473
-50.388
-47.41
-44.568
-41.88
-39.358
-37.005
-34.809
-32.75
-30.811
-28.983
-27.259
-25.632
-24.095
-22.632
-21.232
-19.881
-18.569
-17.289
-16.032
-14.792
-13.562
-12.342
-11.131
-9.93
-8.739
-7.556
-6.378
-5.2
-4.021
-2.836
-1.642
-0.436
0.786
2.023
3.275
4.543
5.825
7.119
8.423
9.734
11.047
12.36
13.668
14.966
16.248
17.51
18.743
19.944
21.104
22.219
23.281
24.286
25.229
26.104
26.907
27.636
28.285
28.853
29.334
29.728
30.03
30.238
30.349
30.362
30.276
30.089
29.801
29.413
28.925
28.34
27.658
26.883
26.016
25.062
24.023
22.905
21.713
20.451
19.125
17.741
16.305
14.823
13.3
11.742
10.153
8.538
6.903
5.251
3.588
1.919
0.248
-1.42
-3.081
-4.728
-6.359
-7.968
-9.552
-11.108
-12.63
-14.117
-15.563
-16.965
-18.319
-19.623
-20.873
-22.066
-23.199
-24.27
-25.279
-26.222
-27.099
-27.907
-28.644
-29.309
-29.897
-30.406
-30.83
-31.166
-31.41
-31.56
-31.613
-31.566
-31.418
-31.17
-30.823
-30.377
-29.829
-29.178
-28.419
-27.547
-26.56
-25.452
-24.218
-22.856
-21.364
-19.743
-17.999
-16.135
-14.149
-12.04
-9.801
-7.432
-4.938
-2.324
0.398
3.21
6.085
8.984
11.863
14.693
17.452
20.128
22.726
25.241
27.676
30.038
32.318
34.512
36.619
38.628
40.538
42.369
44.153
45.948
47.826
49.82
51.942
54.192
56.528
58.902
61.254
63.489
65.543
67.367
68.912
70.152
71.053
71.543
71.55
70.98
69.717
67.697
64.888
61.279
56.924
51.91
46.348
40.397
34.189
27.823
21.399
14.997
8.703
2.629
-3.116
-8.424
-13.161
-17.241
-20.633
-23.322
-25.371
-26.875
-27.923
-28.657
-29.228
-29.753
-30.36
-31.174
-32.259
-33.731
-35.787
-38.459
-41.687
-45.263
-48.67
-51.438
-53.276
-53.727
-52.254
-48.783
-43.482
-36.952
-30.624
-25.576
-22.327
-21.721
-24.384
-29.912
-37.441
-45.157
-49.677
-48.223
-38.848
-18.736
14.623
62.195
124.186
197.844
276.75
355.242
429.473
498.35
562.68
621.39
668.415
689.62
671.726
606.612
492.988
347.189
190.865
45.33
-66.491
-137.583
-170.541
-173.479
-163.599
-150.577
-138.276
-127.65
-113.993
-97.217
-80.339
-65.793
-57.266
-55.534
-58.65
-64.948
-72.109
-77.851
-81.307
-82.076
-80.122
-76.091
-70.678
-64.463
-58.235
-52.79
-48.529
-45.617
-44.024
-43.483
-43.776
-44.739
-46.161
-47.838
-49.612
-51.347
-52.916
-54.219
-55.171
-55.701
-55.765
-55.344
-54.428
-53.026
-51.179
-48.939
-46.359
-43.492
-40.379
-37.054
-33.568
-29.98
-26.354
-22.759
-19.245
-15.845
-12.586
-9.488
-6.559
-3.804
-1.21
1.246
3.578
5.796
7.908
9.916
11.831
13.666
15.431
17.138
18.796
20.41
21.989
23.539
25.064
26.566
28.043
29.494
30.92
32.322
33.702
35.062
36.405
37.731
39.041
40.338
41.621
42.887
44.136
45.362
46.563
47.733
48.869
49.965
51.014
52.012
52.951
53.826
54.631
55.36
56.006
56.566
57.034
57.406
57.677
57.845
57.904
57.854
57.69
57.411
57.014
56.499
55.863
55.107
54.23
53.233
52.116
50.882
49.533
48.072
46.503
44.833
43.065
41.208
39.268
37.252
35.17
33.03
30.841
28.611
26.348
24.062
21.759
19.448
17.135
14.827
12.53
10.25
7.993
5.765
3.572
1.419
-0.69
-2.748
-4.752
-6.697
-8.58
-10.398
-12.148
-13.829
-15.437
-16.974
-18.437
-19.828
-21.147
-22.396
-23.577
-24.694
-25.749
-26.747
-27.691
-28.585
-29.432
-30.234
-30.993
-31.709
-32.381
-33.009
-33.592
-34.129
-34.619
-35.062
-35.458
-35.808
-36.113
-36.374
-36.592
-36.764
-36.888
-36.959
-36.972
-36.922
-36.802
-36.604
-36.319
-35.94
-35.464
-34.886
-34.2
-33.394
-32.453
-31.366
-30.132
-28.749
-27.221
-25.555
-23.761
-21.858
-19.885
-17.875
-15.86
-13.86
-11.872
-9.898
-7.942
-6.009
-4.107
-2.229
-0.343
1.571
3.528
5.545
7.635
9.844
12.252
14.925
17.911
21.227
24.844
28.733
32.866
37.19
41.641
46.116
50.473
54.599
58.416
61.845
64.814
67.209
68.867
69.652
69.466
68.252
65.999
62.704
58.373
53.065
46.885
39.996
32.602
24.859
16.878
8.766
0.63
-7.382
-15.083
-22.322
-28.99
-35.004
-40.297
-44.817
-48.542
-51.52
-53.865
-55.735
-57.276
-58.603
-59.82
-61.029
-62.343
-63.909
-65.83
-68.213
-71.206
-74.835
-79.04
-83.638
-88.156
-92.097
-95.1
-96.669
-96.288
-93.886
-89.607
-84.018
-78.459
-74.021
-71.36
-71.346
-74.606
-80.794
-89.071
-97.676
-103.367
-103.316
-95.428
-77.062
-45.898
-1.099
57.404
127.052
201.683
275.847
346.006
411.279
472.797
528.815
571.722
588.82
569.806
512.073
421.898
312.577
196.174
81.22
-24.603
-113.449
-176.827
-208.753
-211.421
-193.124
-164.223
-136.332
-114.232
-99.586
-94.721
-95.123
-98.737
-104.864
-109.171
-113.361
-118.542
-122.9
-127.178
-129.999
-129.803
-127.414
-123.391
-118.368
-113.407
-109.129
-105.718
-103.379
-102.157
-101.806
-102.161
-103.107
-104.435
-105.997
-107.717
-109.475
-111.183
-112.771
-114.115
-115.121
-115.731
-115.898
-115.616
-114.888
-113.721
-112.151
-110.229
-108
-105.512
-102.798
-99.883
-96.81
-93.628
-90.393
-87.168
-83.996
-80.908
-77.93
-75.077
-72.353
-69.763
-67.291
-64.92
-62.636
-60.43
-58.292
-56.221
-54.206
-52.235
-50.3
-48.389
-46.493
-44.607
-42.723
-40.835
-38.942
-37.041
-35.134
-33.224
-31.311
-29.396
-27.479
-25.56
-23.64
-21.719
-19.798
-17.877
-15.958
-14.044
-12.139
-10.246
-8.37
-6.517
-4.691
-2.901
-1.152
0.549
2.194
3.775
5.287
6.72
8.068
9.326
10.485
11.542
12.49
13.326
14.046
14.646
15.126
15.482
15.716
15.826
15.812
15.677
15.421
15.047
14.557
13.953
13.239
12.419
11.497
10.479
9.371
8.177
6.906
5.565
4.161
2.703
1.199
-0.342
-1.912
-3.502
-5.104
-6.709
-8.31
-9.899
-11.47
-13.015
-14.528
-16.006
-17.442
-18.832
-20.174
-21.465
-22.701
-23.88
-25.002
-26.063
-27.064
-28.003
-28.88
-29.693
-30.443
-31.131
-31.755
-32.318
-32.82
-33.263
-33.649
-33.978
-34.254
-34.478
-34.652
-34.779
-34.86
-34.896
-34.889
-34.841
-34.75
-34.618
-34.443
-34.224
-33.961
-33.65
-33.288
-32.874
-32.402
-31.869
-31.271
-30.605
-29.866
-29.05
-28.152
-27.17
-26.099
-24.936
-23.676
-22.317
-20.855
-19.287
-17.612
-15.827
-13.931
-11.921
-9.799
-7.566
-5.222
-2.771
-0.215
2.44
5.189
8.023
10.935
13.913
16.949
20.028
23.136
26.255
29.369
32.46
35.51
38.499
41.407
44.217
46.91
49.47
51.88
54.124
56.182
58.036
59.669
61.063
62.206
63.081
63.675
63.979
63.993
63.711
63.132
62.251
61.051
59.529
57.684
55.517
53.034
50.249
47.18
43.863
40.342
36.661
32.86
28.969
25.007
21.007
17.004
13.048
9.196
5.491
1.964
-1.341
-4.388
-7.171
-9.713
-12.074
-14.347
-16.586
-18.81
-21.05
-23.347
-25.76
-28.365
-31.24
-34.423
-37.988
-42.094
-46.762
-51.882
-57.18
-62.102
-66.126
-68.904
-69.976
-68.797
-65.324
-59.849
-53.07
-46.45
-41.089
-37.575
-36.876
-39.774
-45.94
-54.353
-63.067
-68.893
-69.106
-61.336
-42.331
-9.209
38.155
97.654
166.282
240.553
320.823
408.898
500.664
586.172
649.031
673.339
654.06
596.418
514.375
420.442
317.646
205.79
84.34
-40.556
-151.6
-230.525
-266.84
-259.72
-219.427
-165.625
-115.395
-79.658
-65.765
-68.884
-78.726
-89.316
-94.106
-92.695
-90.916
-90.349
-91.441
-93.874
-94.564
-92.599
-88.834
-83.787
-78.439
-73.7
-69.956
-67.434
-66.29
-66.382
-67.384
-69.092
-71.344
-73.941
-76.705
-79.471
-82.05
-84.29
-86.133
-87.522
-88.403
-88.753
-88.551
-87.794
-86.52
-84.789
-82.656
-80.177
-77.406
-74.382
-71.163
-67.814
-64.405
-61.006
-57.672
-54.436
-51.328
-48.367
-45.57
-42.944
-40.482
-38.168
-35.986
-33.93
-31.993
-30.17
-28.455
-26.833
-25.291
-23.818
-22.403
-21.038
-19.715
-18.424
-17.157
-15.909
-14.677
-13.459
-12.25
-11.044
-9.835
-8.617
-7.385
-6.134
-4.859
-3.556
-2.222
-0.854
0.546
1.98
3.445
4.942
6.468
8.022
9.6
11.198
12.813
14.44
16.075
17.71
19.341
20.959
22.559
24.132
25.672
27.17
28.618
30.009
31.335
32.589
33.762
34.849
35.842
36.735
37.524
38.202
38.767
39.214
39.542
39.748
39.832
39.795
39.636
39.356
38.958
38.442
37.812
37.07
36.219
35.262
34.204
33.048
31.8
30.465
29.047
27.552
25.987
24.357
22.669
20.929
19.145
17.323
15.469
13.591
11.697
9.791
7.883
5.976
4.078
2.193
0.328
-1.514
-3.328
-5.109
-6.853
-8.557
-10.215
-11.824
-13.379
-14.875
-16.309
-17.674
-18.968
-20.184
-21.32
-22.368
-23.326
-24.188
-24.95
-25.607
-26.155
-26.589
-26.905
-27.099
-27.168
-27.109
-26.92
-26.598
-26.14
-25.544
-24.808
-23.93
-22.908
-21.741
-20.427
-18.964
-17.354
-15.596
-13.691
-11.642
-9.45
-7.121
-4.658
-2.069
0.641
3.464
6.392
9.413
12.517
15.692
18.925
22.202
25.508
28.825
32.136
35.424
38.669
41.854
44.961
47.97
50.863
53.626
56.241
58.695
60.97
63.05
64.917
66.556
67.951
69.089
69.958
70.544
70.841
70.849
70.565
69.989
69.116
67.933
66.435
64.625
62.503
60.077
57.359
54.37
51.144
47.73
44.17
40.507
36.773
32.991
29.194
25.422
21.72
18.146
14.738
11.526
8.548
5.837
3.396
1.196
-0.83
-2.783
-4.727
-6.695
-8.731
-10.884
-13.231
-15.862
-18.863
-22.273
-26.155
-30.645
-35.758
-41.391
-47.266
-52.827
-57.533
-61.023
-62.857
-62.545
-60.041
-55.576
-49.793
-44.09
-39.541
-36.719
-36.501
-39.5
-45.32
-53.045
-60.74
-65.165
-63.793
-54.516
-34.336
-0.88
46.832
107.74
177.784
251.863
326.438
401.147
475.802
546.27
604.139
636.314
631.73
587.705
509.125
405.957
287.892
163.903
43.325
-62.34
-139.849
-182.468
-194.052
-186.103
-170.68
-155.892
-140.434
-118.589
-93.003
-67.427
-48.565
-44.972
-52.477
-65.527
-79.564
-87.64
-90.956
-91.958
-90.951
-89.959
-88.425
-85.47
-81.928
-78.33
-75.468
-73.976
-73.769
-74.603
-76.247
-78.486
-81.131
-83.993
-86.876
-89.635
-92.16
-94.358
-96.166
-97.526
-98.396
-98.757
-98.599
-97.923
-96.756
-95.149
-93.152
-90.818
-88.194
-85.31
-82.215
-78.961
-75.608
-72.221
-68.849
-65.522
-62.271
-59.114
-56.069
-53.145
-50.34
-47.637
-45.027
-42.502
-40.059
-37.699
-35.415
-33.198
-31.04
-28.933
-26.87
-24.846
-22.859
-20.901
-18.969
-17.063
-15.181
-13.326
-11.497
-9.692
-7.908
-6.142
-4.391
-2.655
-0.931
0.784
2.489
4.186
5.872
7.546
9.206
10.848
12.471
14.071
15.642
17.182
18.684
20.143
21.555
22.913
24.211
25.444
26.606
27.693
28.698
29.618
30.447
31.181
31.815
32.347
32.771
33.086
33.287
33.373
33.34
33.189
32.917
32.524
32.011
31.379
30.631
29.769
28.798
27.722
26.546
25.277
23.921
22.485
20.975
19.4
17.767
16.082
14.353
12.586
10.79
8.972
7.138
5.295
3.449
1.608
-0.222
-2.036
-3.827
-5.592
-7.324
-9.02
-10.674
-12.28
-13.834
-15.334
-16.775
-18.154
-19.468
-20.713
-21.891
-23.003
-24.051
-25.035
-25.953
-26.805
-27.589
-28.305
-28.954
-29.533
-30.036
-30.461
-30.807
-31.076
-31.272
-31.399
-31.455
-31.44
-31.353
-31.196
-30.979
-30.703
-30.367
-29.967
-29.498
-28.954
-28.34
-27.653
-26.892
-26.054
-25.119
-24.072
-22.903
-21.6
-20.167
-18.593
-16.844
-14.893
-12.715
-10.326
-7.809
-5.226
-2.615
-0.001
2.655
5.326
7.853
10.232
12.611
15.132
18.062
21.442
24.904
28.297
31.736
35.053
38.031
40.344
41.201
40.379
38.495
35.929
33.029
30.511
28.799
28.558
31.165
37.276
46.615
58.833
72.971
87.555
101.667
114.219
123.527
128.385
128.147
122.559
112.444
99.334
84.24
68.057
51.928
36.793
23.518
12.745
4.241
-2.945
-9.353
-15.259
-20.896
-26.084
-30.783
-35.225
-39.247
-42.205
-43.796
-43.739
-41.843
-38.853
-35.391
-31.559
-27.676
-24.251
-21.626
-20.538
-21.682
-24.655
-29.152
-35.163
-42.356
-50.362
-58.59
-65.968
-71.565
-75.115
-76.299
-75.076
-71.783
-66.934
-61.768
-57.576
-55.219
-55.493
-58.879
-64.848
-72.344
-79.559
-83.344
-80.854
-69.607
-46.718
-10.112
40.77
105.523
182.176
266.619
354.209
439.667
516.671
579.117
621.673
639.864
630.604
594.427
535.062
457.133
365.462
262.094
147.237
24.959
-94.145
-194.551
-261.712
-287.835
-277.537
-243.953
-200.245
-159.957
-129.111
-108.228
-98.902
-96.26
-97.28
-101.127
-103.636
-105.978
-108.792
-110.393
-111.648
-111.51
-108.984
-105.01
-100.073
-94.886
-90.482
-87.339
-85.56
-85.175
-85.994
-87.68
-89.986
-92.727
-95.691
-98.701
-101.629
-104.307
-106.603
-108.467
-109.85
-110.718
-111.066
-110.879
-110.164
-108.974
-107.371
-105.418
-103.171
-100.677
-97.969
-95.097
-92.118
-89.091
-86.08
-83.126
-80.258
-77.498
-74.86
-72.356
-69.99
-67.749
-65.615
-63.572
-61.61
-59.723
-57.907
-56.154
-54.452
-52.789
-51.157
-49.548
-47.956
-46.376
-44.8
-43.226
-41.651
-40.077
-38.504
-36.933
-35.363
-33.793
-32.221
-30.646
-29.071
-27.493
-25.914
-24.333
-22.755
-21.18
-19.612
-18.055
-16.51
-14.982
-13.474
-11.99
-10.535
-9.113
-7.728
-6.385
-5.089
-3.845
-2.659
-1.535
-0.478
0.507
1.416
2.242
2.983
3.634
4.191
4.652
5.012
5.269
5.422
5.47
5.411
5.245
4.974
4.597
4.116
3.533
2.851
2.073
1.201
0.239
-0.809
-1.938
-3.145
-4.426
-5.774
-7.186
-8.656
-10.179
-11.75
-13.364
-15.015
-16.697
-18.406
-20.135
-21.877
-23.629
-25.382
-27.131
-28.871
-30.594
-32.295
-33.968
-35.609
-37.212
-38.772
-40.284
-41.744
-43.146
-44.487
-45.763
-46.968
-48.098
-49.151
-50.121
-51.005
-51.799
-52.5
-53.103
-53.605
-54.001
-54.288
-54.461
-54.517
-54.451
-54.261
-53.942
-53.492
-52.907
-52.186
-51.326
-50.325
-49.182
-47.896
-46.464
-44.888
-43.164
-41.295
-39.281
-37.121
-34.817
-32.37
-29.784
-27.062
-24.206
-21.221
-18.112
-14.883
-11.541
-8.094
-4.551
-0.919
2.79
6.565
10.393
14.261
18.154
22.059
25.959
29.837
33.673
37.451
41.15
44.753
48.239
51.588
54.781
57.803
60.635
63.263
65.67
67.84
69.756
71.403
72.765
73.832
74.591
75.031
75.145
74.933
74.394
73.53
72.336
70.802
68.923
66.702
64.143
61.255
58.053
54.559
50.807
46.845
42.717
38.468
34.13
29.724
25.285
20.853
16.478
12.226
8.143
4.264
0.629
-2.724
-5.79
-8.591
-11.191
-13.687
-16.143
-18.585
-21.05
-23.582
-26.249
-29.136
-32.336
-35.895
-39.89
-44.477
-49.675
-55.369
-61.28
-66.845
-71.529
-75.009
-76.852
-76.531
-74.017
-69.577
-63.892
-58.412
-54.174
-51.599
-51.415
-54.22
-59.615
-66.654
-73.455
-76.882
-74.409
-64.084
-43.42
-9.972
36.596
94.132
159.418
228.023
298.8
375.681
459.708
546.503
625.153
676.631
685.291
646.66
565.268
454.071
327.689
196.604
70.775
-38.498
-121.279
-171.343
-190.377
-189.429
-180.023
-169.345
-159.361
-146.323
-128.693
-108.912
-90.173
-76.367
-69.044
-67.061
-68.905
-72.905
-77.239
-80.434
-81.705
-80.812
-78.049
-74.098
-69.548
-64.869
-60.664
-57.52
-55.718
-55.312
-56.143
-57.874
-60.259
-63.118
-66.229
-69.386
-72.405
-75.098
-77.363
-79.168
-80.474
-81.264
-81.533
-81.263
-80.474
-79.224
-77.564
-75.552
-73.24
-70.666
-67.882
-64.948
-61.928
-58.895
-55.901
-52.974
-50.141
-47.414
-44.805
-42.321
-39.957
-37.693
-35.512
-33.405
-31.361
-29.378
-27.448
-25.557
-23.692
-21.842
-19.996
-18.15
-16.296
-14.43
-12.546
-10.643
-8.72
-6.782
-4.828
-2.857
-0.867
1.142
3.171
5.221
7.291
9.381
11.49
13.616
15.754
17.9
20.049
22.195
24.333
26.456
28.558
30.63
32.667
34.659
36.6
38.481
40.293
42.03
43.684
45.246
46.71
48.07
49.318
50.449
51.457
52.339
53.089
53.705
54.183
54.521
54.718
54.771
54.682
54.449
54.075
53.561
52.911
52.128
51.217
50.182
49.031
47.768
46.402
44.94
43.39
41.76
40.058
38.293
36.475
34.611
32.711
30.783
28.836
26.877
24.915
22.957
21.011
19.081
17.176
15.302
13.463
11.666
9.915
8.215
6.569
4.982
3.457
1.996
0.601
-0.725
-1.982
-3.169
-4.284
-5.328
-6.301
-7.204
-8.037
-8.8
-9.495
-10.123
-10.685
-11.181
-11.612
-11.98
-12.283
-12.521
-12.693
-12.8
-12.838
-12.808
-12.705
-12.529
-12.278
-11.949
-11.54
-11.048
-10.47
-9.804
-9.047
-8.195
-7.246
-6.197
-5.043
-3.783
-2.414
-0.935
0.657
2.364
4.186
6.125
8.181
10.351
12.636
15.031
17.535
20.141
22.843
25.632
28.501
31.437
34.429
37.463
40.525
43.6
46.672
49.724
52.74
55.704
58.598
61.405
64.109
66.691
69.134
71.418
73.526
75.441
77.145
78.622
79.854
80.827
81.532
81.961
82.106
81.956
81.498
80.72
79.625
78.214
76.495
74.475
72.169
69.602
66.817
63.856
60.761
57.561
54.278
50.937
47.573
44.233
40.968
37.816
34.796
31.919
29.206
26.673
24.323
22.11
19.938
17.716
15.382
12.907
10.293
7.508
4.478
1.13
-2.603
-6.767
-11.332
-16.307
-21.801
-27.777
-34.062
-40.328
-45.977
-50.498
-53.623
-54.959
-54.028
-50.744
-45.23
-37.967
-30.134
-22.627
-15.959
-11.036
-8.614
-8.52
-10.101
-11.999
-11.764
-7.225
3.571
23.498
55.359
99.126
152.409
212.51
275.37
341.391
415.161
494.194
572.014
634.96
662.261
645.38
584.331
487.668
374.184
253.829
135.192
27.492
-66.291
-136.944
-180.509
-202.896
-208.306
-205.213
-198.893
-186.972
-170.067
-149.703
-128.374
-110.94
-99.43
-93.465
-92.169
-93.947
-97.318
-101.025
-103.669
-104.419
-103.221
-100.432
-96.647
-92.4
-88.116
-84.316
-81.535
-80.05
-79.868
-80.805
-82.555
-84.877
-87.601
-90.531
-93.468
-96.22
-98.613
-100.559
-102.033
-103.018
-103.513
-103.508
-102.995
-102.005
-100.598
-98.83
-96.76
-94.434
-91.89
-89.18
-86.361
-83.499
-80.662
-77.897
-75.228
-72.676
-70.253
-67.967
-65.823
-63.811
-61.909
-60.101
-58.374
-56.718
-55.13
-53.598
-52.106
-50.642
-49.192
-47.746
-46.297
-44.838
-43.36
-41.86
-40.334
-38.783
-37.207
-35.608
-33.983
-32.332
-30.652
-28.944
-27.207
-25.442
-23.648
-21.827
-19.982
-18.116
-16.234
-14.34
-12.439
-10.537
-8.641
-6.756
-4.889
-3.049
-1.241
0.526
2.245
3.907
5.505
7.031
8.479
9.841
11.11
12.281
13.349
14.307
15.153
15.883
16.494
16.983
17.349
17.591
17.708
17.701
17.571
17.317
16.943
16.45
15.843
15.124
14.298
13.369
12.342
11.224
10.02
8.736
7.378
5.953
4.468
2.929
1.344
-0.281
-1.938
-3.623
-5.328
-7.048
-8.777
-10.51
-12.243
-13.971
-15.69
-17.398
-19.09
-20.765
-22.418
-24.048
-25.653
-27.23
-28.778
-30.294
-31.776
-33.222
-34.632
-36.002
-37.332
-38.619
-39.862
-41.059
-42.207
-43.306
-44.353
-45.346
-46.282
-47.159
-47.973
-48.722
-49.402
-50.008
-50.536
-50.982
-51.341
-51.608
-51.778
-51.846
-51.806
-51.653
-51.383
-50.991
-50.472
-49.823
-49.038
-48.116
-47.054
-45.85
-44.503
-43.012
-41.377
-39.599
-37.682
-35.627
-33.439
-31.122
-28.682
-26.127
-23.464
-20.705
-17.86
-14.941
-11.963
-8.942
-5.894
-2.837
0.212
3.232
6.206
9.113
11.936
14.657
17.257
19.719
22.023
24.151
26.087
27.814
29.313
30.569
31.565
32.289
32.736
32.901
32.775
32.354
31.624
30.579
29.226
27.567
25.605
23.351
20.816
18.029
15.039
11.893
8.633
5.292
1.893
-1.53
-4.936
-8.279
-11.511
-14.602
-17.546
-20.321
-22.892
-25.25
-27.396
-29.382
-31.319
-33.288
-35.344
-37.527
-39.84
-42.328
-45.069
-48.118
-51.543
-55.374
-59.563
-64.148
-69.236
-74.756
-80.528
-86.15
-90.928
-94.336
-96.044
-95.63
-92.801
-87.582
-80.191
-71.458
-62.773
-55.238
-49.793
-47.228
-47.581
-50.255
-54.201
-57.298
-56.673
-49.633
-33.344
-5.337
35.274
88.172
152.049
223.866
299.378
373.592
440.245
493.033
527.072
539.606
530.202
498.467
444.637
369.05
271.306
158.869
44.414
-59.504
-137.525
-184.852
-208.189
-213.715
-210.517
-203.819
-190.926
-172.363
-150.808
-128.857
-111.126
-100.023
-94.972
-94.825
-98.095
-102.827
-107.007
-109.422
-109.386
-106.77
-102.251
-96.506
-90.019
-83.525
-77.805
-73.273
-70.154
-68.432
-67.802
-68.037
-68.973
-70.398
-72.128
-74.013
-75.912
-77.698
-79.284
-80.59
-81.553
-82.133
-82.306
-82.063
-81.416
-80.403
-79.08
-77.497
-75.702
-73.731
-71.611
-69.384
-67.099
-64.806
-62.56
-60.399
-58.343
-56.411
-54.613
-52.952
-51.422
-50.005
-48.673
-47.407
-46.192
-45.016
-43.871
-42.742
-41.615
-40.477
-39.315
-38.12
-36.882
-35.594
-34.248
-32.84
-31.367
-29.83
-28.231
-26.569
-24.844
-23.058
-21.209
-19.299
-17.331
-15.305
-13.225
-11.095
-8.92
-6.705
-4.459
-2.188
0.1
2.396
4.692
6.978
9.245
11.485
13.688
15.846
17.95
19.991
21.962
23.856
25.664
27.379
28.995
30.506
31.907
33.191
34.356
35.397
36.312
37.098
37.754
38.278
38.671
38.932
39.062
39.063
38.938
38.689
38.322
37.841
37.252
36.562
35.777
34.904
33.951
32.925
31.831
30.679
29.473
28.221
26.928
25.601
24.246
22.869
21.477
20.074
18.668
17.262
15.862
14.472
13.097
11.739
10.403
9.092
7.809
6.557
5.34
4.158
3.015
1.91
0.845
-0.18
-1.166
-2.115
-3.028
-3.907
-4.753
-5.565
-6.346
-7.094
-7.808
-8.485
-9.124
-9.724
-10.281
-10.796
-11.266
-11.691
-12.07
-12.405
-12.694
-12.936
-13.126
-13.26
-13.332
-13.338
-13.27
-13.12
-12.884
-12.554
-12.128
-11.606
-10.985
-10.26
-9.422
-8.457
-7.356
-6.12
-4.747
-3.238
-1.603
0.146
1.98
3.858
5.749
7.639
9.518
11.396
13.277
15.16
17.051
18.956
20.878
22.832
24.821
26.837
28.897
31.028
33.284
35.753
38.485
41.496
44.782
48.313
52.044
55.927
59.883
63.806
67.604
71.193
74.515
77.537
80.193
82.395
84.025
84.94
85.044
84.293
82.653
80.126
76.743
72.567
67.73
62.413
56.766
50.91
44.931
38.894
32.894
27.055
21.511
16.388
11.762
7.684
4.211
1.379
-0.826
-2.477
-3.751
-4.861
-5.964
-7.177
-8.576
-10.214
-12.192
-14.598
-17.493
-20.912
-24.836
-29.24
-34.172
-39.665
-45.584
-51.679
-57.517
-62.477
-66.007
-67.655
-67.024
-63.829
-58.123
-50.104
-40.091
-29.269
-19.201
-10.885
-5.061
-0.792
4.817
12.385
21.613
31.826
40.174
50.41
69.445
101.841
154.703
226.508
310.038
401.207
489.444
563.827
614.416
628.377
601.005
538.638
455.704
366.746
280.593
197.987
111.551
22.292
-60.141
-125.603
-160.966
-164.859
-148.081
-120.088
-91.838
-69.141
-50.029
-34.136
-21.157
-11.291
-7.398
-10.88
-20.955
-35.742
-52.242
-67.792
-81.057
-91.535
-98.738
-102.013
-101.29
-97.086
-90.502
-83.051
-75.617
-68.496
-62.004
-56.484
-52.139
-49.069
-47.038
-45.493
-44.169
-43.023
-42.061
-41.39
-41.009
-40.841
-40.905
-41.269
-41.94
-42.895
-44.037
-45.19
-46.256
-47.18
-47.926
-48.5
-48.872
-48.993
-48.82
-48.297
-47.397
-46.12
-44.453
-42.392
-39.96
-37.191
-34.159
-30.978
-27.723
-24.441
-21.17
-17.917
-14.702
-11.56
-8.514
-5.589
-2.804
-0.17
2.294
4.571
6.659
8.571
10.335
12.001
13.602
15.156
16.676
18.166
19.629
21.072
22.49
23.874
25.217
26.517
27.773
28.987
30.159
31.278
32.336
33.318
34.214
35.015
35.713
36.302
36.778
37.138
37.383
37.516
37.54
37.455
37.261
36.956
36.54
36.013
35.375
34.625
33.764
32.794
31.717
30.538
29.261
27.892
26.435
24.896
23.283
21.603
19.863
18.072
16.239
14.374
12.486
10.585
8.683
6.787
4.908
3.054
1.232
-0.55
-2.286
-3.971
-5.6
-7.169
-8.673
-10.108
-11.471
-12.758
-13.966
-15.094
-16.14
-17.104
-17.984
-18.781
-19.498
-20.136
-20.696
-21.182
-21.597
-21.946
-22.232
-22.463
-22.643
-22.781
-22.884
-22.958
-23.012
-23.053
-23.086
-23.118
-23.152
-23.194
-23.244
-23.303
-23.373
-23.454
-23.546
-23.648
-23.761
-23.883
-24.016
-24.157
-24.306
-24.457
-24.605
-24.743
-24.862
-24.953
-25.007
-25.015
-24.97
-24.862
-24.686
-24.438
-24.108
-23.69
-23.168
-22.526
-21.748
-20.827
-19.759
-18.545
-17.197
-15.733
-14.174
-12.547
-10.868
-9.149
-7.391
-5.579
-3.701
-1.743
0.297
2.407
4.574
6.79
9.054
11.369
13.755
16.247
18.886
21.722
24.787
28.084
31.587
35.235
38.951
42.639
46.22
49.634
52.827
55.755
58.369
60.617
62.432
63.728
64.408
64.368
63.534
61.866
59.373
56.105
52.154
47.658
42.737
37.494
32.024
26.389
20.651
14.875
9.137
3.525
-1.865
-6.94
-11.634
-15.903
-19.744
-23.18
-26.281
-29.185
-32.016
-34.888
-37.901
-41.098
-44.512
-48.181
-52.103
-56.285
-60.747
-65.484
-70.493
-75.759
-81.204
-86.795
-92.524
-98.188
-103.452
-107.81
-110.524
-111.016
-108.942
-103.933
-95.721
-84.443
-70.66
-55.671
-41.472
-29.811
-21.847
-18.25
-18.979
-23.329
-29.75
-35.203
-35.594
-26.928
-5.893
29.322
78.871
141.92
215.953
296.083
376.143
449.177
507.99
547.245
563.221
552.966
516.236
455.649
375.056
280.36
179.296
78.619
-14.988
-94.37
-156.673
-201.225
-225.965
-232.261
-220.709
-191.75
-154.361
-116.723
-85.989
-69.486
-64.398
-67.118
-74.892
-82.452
-89.883
-97.246
-103.539
-109.56
-113.929
-115.394
-113.897
-109.617
-104.11
-98.956
-94.797
-91.929
-90.268
-89.679
-90.37
-92.255
-94.868
-97.8
-100.688
-103.324
-105.689
-107.736
-109.342
-110.445
-111.047
-111.159
-110.831
-110.095
-108.959
-107.446
-105.584
-103.413
-100.979
-98.334
-95.533
-92.636
-89.705
-86.788
-83.918
-81.122
-78.421
-75.828
-73.35
-70.983
-68.709
-66.519
-64.409
-62.373
-60.404
-58.493
-56.623
-54.783
-52.964
-51.156
-49.353
-47.547
-45.731
-43.9
-42.053
-40.19
-38.31
-36.413
-34.497
-32.56
-30.602
-28.621
-26.619
-24.595
-22.549
-20.483
-18.4
-16.304
-14.2
-12.095
-9.992
-7.898
-5.822
-3.771
-1.752
0.226
2.155
4.027
5.833
7.565
9.215
10.774
12.236
13.591
14.835
15.958
16.956
17.822
18.551
19.14
19.583
19.878
20.024
20.018
19.86
19.552
19.093
18.485
17.732
16.838
15.808
14.646
13.36
11.956
10.444
8.83
7.124
5.336
3.474
1.548
-0.432
-2.456
-4.516
-6.601
-8.702
-10.811
-12.917
-15.012
-17.087
-19.133
-21.144
-23.111
-25.028
-26.888
-28.687
-30.417
-32.077
-33.66
-35.164
-36.587
-37.925
-39.178
-40.344
-41.423
-42.416
-43.323
-44.147
-44.889
-45.551
-46.137
-46.649
-47.089
-47.459
-47.764
-48.005
-48.184
-48.303
-48.365
-48.373
-48.327
-48.229
-48.081
-47.884
-47.637
-47.342
-46.997
-46.601
-46.153
-45.652
-45.094
-44.478
-43.801
-43.06
-42.252
-41.372
-40.417
-39.382
-38.261
-37.051
-35.745
-34.338
-32.827
-31.207
-29.475
-27.625
-25.658
-23.569
-21.359
-19.027
-16.574
-14.001
-11.311
-8.507
-5.596
-2.583
0.524
3.718
6.986
10.317
13.695
17.105
20.531
23.957
27.364
30.733
34.046
37.286
40.437
43.48
46.398
49.168
51.77
54.184
56.39
58.373
60.113
61.595
62.806
63.742
64.397
64.765
64.834
64.583
63.999
63.072
61.798
60.176
58.215
55.925
53.33
50.468
47.374
44.08
40.615
36.993
33.236
29.379
25.465
21.556
17.705
13.948
10.33
6.886
3.611
0.492
-2.516
-5.487
-8.452
-11.44
-14.508
-17.702
-21.092
-24.771
-28.792
-33.262
-38.372
-44.18
-50.621
-57.473
-64.19
-70.217
-75.164
-78.521
-79.751
-78.728
-75.66
-71.295
-67.217
-64.93
-65.457
-69.784
-78.572
-91.629
-107.951
-125.388
-140.322
-149.013
-148.119
-134.38
-105.277
-59.478
2.84
79.655
167.052
260.024
352.724
438.573
511.215
564.879
595.313
599.933
577.429
528.413
455.79
364.358
260.052
149.509
39.012
-65.344
-157.079
-230.991
-284.156
-315.61
-325.964
-317.048
-291.538
-253.237
-207.512
-159.9
-114.756
-75.443
-44.661
-24.313
-15.165
-16.749
-27.094
-43.328
-62.965
-83.693
-102.985
-118.755
-129.764
-135.506
-136.415
-133.639
-128.193
-121.177
-114.013
-107.759
-103.021
-100.089
-98.785
-98.673
-99.384
-100.484
-101.439
-101.939
-101.839
-101.085
-99.781
-98.032
-95.899
-93.475
-90.851
-88.067
-85.143
-82.096
-78.921
-75.647
-72.335
-69.027
-65.759
-62.554
-59.421
-56.368
-53.404
-50.531
-47.739
-45.023
-42.384
-39.826
-37.356
-34.974
-32.672
-30.437
-28.255
-26.113
-23.996
-21.895
-19.799
-17.703
-15.6
-13.489
-11.368
-9.233
-7.08
-4.901
-2.692
-0.447
1.838
4.165
6.536
8.954
11.416
13.921
16.466
19.048
21.665
24.312
26.984
29.676
32.381
35.091
37.798
40.493
43.166
45.805
48.399
50.938
53.409
55.802
58.105
60.306
62.395
64.36
66.193
67.883
69.42
70.796
72.004
73.035
73.883
74.543
75.009
75.279
75.349
75.219
74.887
74.354
73.62
72.689
71.563
70.247
68.747
67.069
65.221
63.212
61.052
58.752
56.323
53.778
51.129
48.388
45.568
42.683
39.744
36.763
33.755
30.731
27.704
24.685
21.687
18.721
15.797
12.926
10.118
7.381
4.723
2.152
-0.326
-2.704
-4.977
-7.139
-9.187
-11.118
-12.929
-14.619
-16.188
-17.637
-18.968
-20.183
-21.286
-22.28
-23.168
-23.953
-24.639
-25.228
-25.722
-26.123
-26.431
-26.65
-26.781
-26.828
-26.79
-26.673
-26.479
-26.212
-25.874
-25.467
-24.988
-24.434
-23.803
-23.089
-22.288
-21.395
-20.404
-19.31
-18.113
-16.812
-15.406
-13.889
-12.253
-10.483
-8.573
-6.52
-4.324
-1.988
0.475
3.049
5.699
8.388
11.093
13.798
16.496
19.198
21.904
24.621
27.358
30.109
32.87
35.645
38.423
41.201
44
46.848
49.8
52.928
56.26
59.805
63.554
67.456
71.453
75.477
79.421
83.209
86.782
90.075
93.051
95.671
97.855
99.521
100.57
100.874
100.359
98.982
96.721
93.623
89.77
85.265
80.26
74.887
69.232
63.39
57.431
51.418
45.457
39.646
34.072
28.857
24.101
19.86
16.169
12.972
10.157
7.603
5.177
2.783
0.341
-2.25
-5.081
-8.224
-11.767
-15.737
-20.184
-25.268
-31.002
-37.241
-43.707
-49.843
-55.123
-59.235
-61.723
-62.028
-60.055
-55.992
-50.42
-44.613
-39.493
-35.527
-33.533
-34.218
-37.339
-42.072
-46.824
-48.941
-46.088
-36.195
-16.524
15.472
59.691
113.826
175.367
241.66
313.657
393.955
479.208
559.705
619.378
642.829
624.866
570.378
493.424
404.896
305.612
195.862
75.256
-46.737
-147.246
-211.3
-233.899
-222.321
-197.335
-172.985
-154.037
-139.935
-124.791
-107.092
-89.392
-74.149
-64.02
-59.141
-57.922
-58.92
-60.231
-60.304
-58.56
-54.875
-49.62
-43.513
-37.122
-30.915
-25.451
-21.235
-18.51
-17.301
-17.437
-18.608
-20.561
-23.101
-26.007
-29.066
-32.079
-34.865
-37.322
-39.413
-41.103
-42.374
-43.215
-43.618
-43.614
-43.257
-42.595
-41.68
-40.555
-39.255
-37.827
-36.328
-34.816
-33.352
-31.978
-30.716
-29.583
-28.584
-27.722
-26.994
-26.382
-25.859
-25.405
-24.999
-24.629
-24.284
-23.947
-23.601
-23.229
-22.813
-22.342
-21.804
-21.189
-20.489
-19.696
-18.807
-17.82
-16.736
-15.555
-14.276
-12.896
-11.417
-9.837
-8.159
-6.384
-4.514
-2.553
-0.505
1.624
3.827
6.097
8.427
10.809
13.234
15.692
18.173
20.669
23.169
25.662
28.137
30.584
32.992
35.35
37.648
39.875
42.022
44.077
46.033
47.879
49.609
51.215
52.689
54.027
55.222
56.271
57.17
57.916
58.506
58.938
59.213
59.33
59.29
59.095
58.747
58.249
57.605
56.82
55.897
54.844
53.663
52.363
50.948
49.425
47.801
46.082
44.275
42.387
40.424
38.394
36.303
34.159
31.967
29.734
27.467
25.17
22.851
20.515
18.166
15.81
13.453
11.099
8.753
6.42
4.103
1.807
-0.465
-2.709
-4.923
-7.103
-9.246
-11.35
-13.411
-15.427
-17.394
-19.308
-21.168
-22.968
-24.704
-26.374
-27.972
-29.494
-30.937
-32.295
-33.562
-34.735
-35.808
-36.775
-37.631
-38.37
-38.986
-39.475
-39.831
-40.049
-40.124
-40.051
-39.826
-39.444
-38.9
-38.192
-37.316
-36.267
-35.043
-33.642
-32.065
-30.31
-28.377
-26.269
-23.987
-21.536
-18.921
-16.149
-13.227
-10.163
-6.967
-3.65
-0.227
3.29
6.886
10.545
14.248
17.975
21.707
25.421
29.099
32.717
36.254
39.687
42.998
46.165
49.17
51.992
54.61
57.002
59.151
61.035
62.638
63.942
64.928
65.584
65.907
65.89
65.529
64.815
63.735
62.283
60.463
58.278
55.734
52.844
49.622
46.104
42.342
38.384
34.275
30.05
25.731
21.355
16.969
12.625
8.384
4.287
0.351
-3.392
-6.904
-10.167
-13.193
-16.048
-18.836
-21.64
-24.505
-27.448
-30.492
-33.704
-37.165
-40.966
-45.186
-49.836
-54.948
-60.614
-66.811
-73.399
-80.064
-86.239
-91.409
-95.203
-97.172
-96.976
-94.604
-90.255
-84.546
-78.481
-72.741
-67.924
-64.893
-63.99
-64.835
-66.49
-67.095
-64.441
-56.994
-42.819
-19.159
15.704
62.514
119.896
183.406
249.973
317.907
386.042
454.332
516.529
562.047
581.064
564.233
513.447
438.037
345.91
246.42
141.142
31.011
-74.478
-165.701
-230.029
-261.466
-266.91
-254.625
-234.112
-210.474
-182.156
-149.843
-115.532
-82.523
-55.649
-37.196
-27.954
-27.835
-34.987
-47.206
-62.045
-76.878
-90.208
-101.119
-108.569
-112.145
-112.058
-108.919
-104.063
-98.985
-94.43
-90.802
-88.505
-87.606
-88.051
-89.706
-92.015
-94.3
-96.22
-97.605
-98.384
-98.64
-98.389
-97.604
-96.371
-94.812
-93.002
-90.999
-88.812
-86.411
-83.817
-81.079
-78.257
-75.428
-72.64
-69.913
-67.265
-64.708
-62.252
-59.907
-57.677
-55.549
-53.515
-51.575
-49.731
-47.99
-46.349
-44.796
-43.317
-41.894
-40.515
-39.174
-37.863
-36.576
-35.307
-34.052
-32.808
-31.577
-30.356
-29.142
-27.929
-26.712
-25.489
-24.257
-23.015
-21.761
-20.495
-19.218
-17.931
-16.637
-15.338
-14.039
-12.741
-11.449
-10.168
-8.903
-7.657
-6.437
-5.249
-4.097
-2.989
-1.931
-0.928
0.012
0.884
1.683
2.403
3.04
3.588
4.045
4.407
4.671
4.834
4.894
4.849
4.7
4.445
4.085
3.621
3.055
2.389
1.628
0.774
-0.168
-1.193
-2.296
-3.471
-4.714
-6.017
-7.375
-8.78
-10.227
-11.708
-13.217
-14.747
-16.291
-17.844
-19.399
-20.951
-22.496
-24.027
-25.541
-27.033
-28.498
-29.932
-31.331
-32.691
-34.009
-35.282
-36.508
-37.684
-38.809
-39.881
-40.899
-41.862
-42.769
-43.617
-44.407
-45.137
-45.807
-46.416
-46.963
-47.449
-47.873
-48.235
-48.534
-48.768
-48.937
-49.038
-49.069
-49.026
-48.904
-48.701
-48.412
-48.035
-47.568
-47.007
-46.353
-45.603
-44.757
-43.814
-42.771
-41.624
-40.366
-38.993
-37.498
-35.877
-34.126
-32.242
-30.224
-28.074
-25.797
-23.394
-20.868
-18.216
-15.432
-12.515
-9.471
-6.309
-3.045
0.296
3.683
7.08
10.45
13.762
16.996
20.142
23.204
26.184
29.09
31.916
34.644
37.256
39.738
42.086
44.301
46.407
48.438
50.437
52.459
54.538
56.684
58.878
61.066
63.178
65.129
66.853
68.313
69.474
70.309
70.784
70.859
70.475
69.564
68.045
65.822
62.829
59.043
54.489
49.248
43.448
37.236
30.741
24.075
17.333
10.604
3.981
-2.453
-8.61
-14.396
-19.707
-24.423
-28.46
-31.804
-34.488
-36.6
-38.266
-39.612
-40.763
-41.862
-43.048
-44.457
-46.219
-48.395
-51.034
-54.24
-58.015
-62.266
-66.787
-71.145
-74.888
-77.687
-79.227
-79.203
-77.646
-74.795
-70.992
-66.948
-63.284
-60.382
-58.594
-57.973
-57.766
-56.751
-53.678
-46.945
-35.156
-16.992
9.289
45.035
90.205
142.669
198.852
255.025
308.948
362.221
417.688
474.584
526.43
559.028
556.833
512.616
431.48
330.185
226.942
134.2
55.65
-12.396
-71.303
-119.797
-155.872
-176.212
-181.18
-174.456
-159.41
-140.202
-121.335
-105.361
-93.815
-87.618
-86.151
-88.189
-92.73
-98.211
-102.717
-105.246
-105.348
-102.979
-98.8
-93.477
-87.491
-81.52
-76.26
-72.068
-69.111
-67.361
-66.565
-66.524
-67.091
-68.085
-69.344
-70.738
-72.141
-73.433
-74.514
-75.302
-75.736
-75.776
-75.406
-74.618
-73.419
-71.849
-69.963
-67.809
-65.437
-62.886
-60.181
-57.368
-54.496
-51.624
-48.812
-46.104
-43.527
-41.102
-38.843
-36.756
-34.841
-33.081
-31.452
-29.937
-28.521
-27.193
-25.947
-24.769
-23.643
-22.555
-21.492
-20.441
-19.393
-18.338
-17.268
-16.175
-15.058
-13.913
-12.743
-11.545
-10.319
-9.062
-7.773
-6.451
-5.095
-3.705
-2.282
-0.827
0.657
2.167
3.697
5.243
6.797
8.355
9.908
11.449
12.97
14.464
15.922
17.338
18.701
20.005
21.243
22.408
23.493
24.493
25.402
26.217
26.933
27.548
28.06
28.467
28.767
28.961
29.048
29.029
28.905
28.677
28.348
27.918
27.393
26.775
26.068
25.278
24.409
23.468
22.46
21.392
20.269
19.1
17.889
16.643
15.369
14.071
12.755
11.426
10.089
8.746
7.401
6.057
4.716
3.378
2.046
0.719
-0.603
-1.919
-3.229
-4.535
-5.836
-7.132
-8.424
-9.713
-10.999
-12.282
-13.563
-14.842
-16.121
-17.399
-18.679
-19.959
-21.241
-22.524
-23.808
-25.092
-26.375
-27.654
-28.926
-30.19
-31.439
-32.671
-33.879
-35.058
-36.199
-37.297
-38.343
-39.328
-40.243
-41.079
-41.828
-42.48
-43.027
-43.461
-43.774
-43.958
-44.006
-43.911
-43.667
-43.267
-42.704
-41.974
-41.072
-39.994
-38.737
-37.299
-35.677
-33.873
-31.888
-29.724
-27.385
-24.875
-22.202
-19.373
-16.399
-13.29
-10.06
-6.722
-3.294
0.206
3.758
7.341
10.935
14.519
18.071
21.569
24.992
28.323
31.541
34.63
37.57
40.339
42.917
45.285
47.424
49.318
50.95
52.304
53.368
54.14
54.613
54.784
54.643
54.173
53.366
52.221
50.739
48.926
46.796
44.369
41.679
38.778
35.711
32.522
29.244
25.895
22.51
19.125
15.786
12.552
9.462
6.542
3.826
1.344
-0.907
-2.955
-4.869
-6.758
-8.692
-10.709
-12.851
-15.162
-17.705
-20.563
-23.811
-27.487
-31.646
-36.403
-41.764
-47.624
-53.725
-59.536
-64.547
-68.409
-70.683
-70.888
-68.959
-65.035
-59.658
-54.113
-49.32
-45.718
-44.058
-44.875
-47.864
-52.421
-56.961
-58.493
-54.795
-44.301
-24.604
6.355
49.373
104.903
170.658
240.811
312.043
382.205
448.938
512.616
567.912
604.009
612.793
587.281
527.359
442.08
339.306
225.385
108.628
-3.598
-101.929
-174.244
-216.765
-234.006
-231.757
-218.781
-199.654
-172.907
-140.189
-104.289
-68.827
-39.277
-18.523
-7.578
-6.479
-13.531
-26.291
-41.867
-57.419
-71.238
-82.306
-89.676
-92.98
-92.395
-88.591
-83.046
-77.337
-72.287
-68.335
-65.818
-64.781
-65.211
-66.976
-69.542
-72.255
-74.714
-76.708
-78.157
-79.111
-79.575
-79.519
-78.997
-78.104
-76.924
-75.517
-73.898
-72.051
-69.981
-67.727
-65.343
-62.895
-60.447
-58.036
-55.683
-53.408
-51.224
-49.145
-47.182
-45.334
-43.585
-41.928
-40.361
-38.884
-37.496
-36.189
-34.945
-33.745
-32.574
-31.42
-30.274
-29.13
-27.977
-26.81
-25.621
-24.41
-23.175
-21.912
-20.618
-19.287
-17.914
-16.498
-15.036
-13.529
-11.974
-10.373
-8.726
-7.038
-5.311
-3.55
-1.758
0.058
1.892
3.739
5.591
7.441
9.279
11.099
12.89
14.644
16.352
18.004
19.591
21.107
22.541
23.887
25.139
26.289
27.332
28.264
29.079
29.773
30.345
30.79
31.108
31.298
31.36
31.295
31.105
30.792
30.361
29.816
29.162
28.404
27.548
26.602
25.572
24.466
23.292
22.057
20.769
19.437
18.067
16.669
15.247
13.81
12.363
10.911
9.46
8.013
6.576
5.151
3.741
2.349
0.976
-0.375
-1.703
-3.008
-4.289
-5.546
-6.78
-7.992
-9.182
-10.352
-11.504
-12.64
-13.761
-14.87
-15.969
-17.06
-18.145
-19.224
-20.299
-21.371
-22.439
-23.503
-24.559
-25.606
-26.64
-27.657
-28.651
-29.616
-30.545
-31.432
-32.267
-33.043
-33.75
-34.379
-34.92
-35.365
-35.703
-35.925
-36.022
-35.985
-35.803
-35.47
-34.976
-34.313
-33.473
-32.45
-31.236
-29.826
-28.216
-26.401
-24.38
-22.152
-19.718
-17.081
-14.246
-11.218
-8.007
-4.621
-1.074
2.621
6.448
10.389
14.428
18.541
22.706
26.899
31.093
35.265
39.388
43.435
47.38
51.198
54.865
58.361
61.663
64.748
67.593
70.174
72.473
74.468
76.145
77.485
78.474
79.104
79.375
79.285
78.837
78.025
76.839
75.275
73.335
71.024
68.351
65.334
61.991
58.356
54.478
50.403
46.175
41.831
37.399
32.912
28.417
23.964
19.616
15.429
11.444
7.717
4.292
1.169
-1.659
-4.239
-6.645
-8.899
-11.039
-13.138
-15.245
-17.425
-19.738
-22.176
-24.816
-27.858
-31.377
-35.341
-39.597
-43.709
-47.324
-50.296
-52.208
-52.453
-50.773
-47.241
-42.375
-37.329
-33.101
-30.273
-29.916
-33.605
-40.941
-49.18
-55.299
-55.288
-50.011
-46.959
-49.026
-55.114
-56.472
-33.007
27.362
127.734
263.383
413.235
556.852
676.534
753.378
780.795
758.476
689.953
587.488
462.509
324.174
184.276
54.857
-53.932
-133.692
-183.771
-212.945
-229.725
-239.018
-241.209
-231.352
-207.298
-172.714
-133.3
-95.104
-62.132
-35.707
-16.661
-5.634
-2.257
-5.113
-12.524
-23.161
-35.723
-49.031
-61.871
-73.065
-82.535
-91.137
-97.911
-101.708
-103.938
-104.86
-107.73
-116.188
-125.449
-132.104
-132.183
-120.61
-102.773
-83.773
-66.811
-56.808
-51.843
-49.677
-50.052
-51.29
-53.89
-57.933
-62.407
-67.026
-70.89
-73.227
-73.825
-72.286
-68.855
-64.475
-59.696
-54.85
-50.215
-45.771
-41.659
-38.256
-35.569
-33.297
-31.251
-29.272
-27.319
-25.536
-23.941
-22.432
-20.981
-19.595
-18.294
-17.125
-16.09
-15.131
-14.209
-13.299
-12.39
-11.49
-10.594
-9.686
-8.752
-7.778
-6.758
-5.694
-4.588
-3.44
-2.253
-1.024
0.243
1.542
2.867
4.209
5.565
6.936
8.318
9.707
11.097
12.48
13.847
15.191
16.504
17.777
19
20.165
21.261
22.28
23.215
24.059
24.803
25.439
25.962
26.364
26.64
26.786
26.798
26.675
26.413
26.012
25.473
24.798
23.988
23.046
21.976
20.782
19.469
18.043
16.509
14.876
13.151
11.344
9.462
7.516
5.516
3.471
1.392
-0.713
-2.833
-4.96
-7.083
-9.194
-11.284
-13.343
-15.363
-17.335
-19.251
-21.104
-22.886
-24.592
-26.216
-27.752
-29.198
-30.548
-31.801
-32.954
-34.005
-34.954
-35.8
-36.543
-37.186
-37.729
-38.177
-38.533
-38.8
-38.981
-39.081
-39.102
-39.046
-38.916
-38.711
-38.434
-38.084
-37.664
-37.174
-36.618
-35.997
-35.316
-34.578
-33.788
-32.949
-32.064
-31.133
-30.156
-29.131
-28.058
-26.932
-25.75
-24.508
-23.199
-21.825
-20.381
-18.865
-17.269
-15.58
-13.79
-11.899
-9.908
-7.823
-5.658
-3.426
-1.148
1.138
3.398
5.599
7.712
9.732
11.656
13.479
15.194
16.794
18.28
19.679
21.025
22.346
23.672
25.037
26.486
28.104
29.968
32.132
34.637
37.478
40.63
44.071
47.764
51.656
55.669
59.685
63.567
67.216
70.537
73.435
75.803
77.48
78.314
78.198
77.052
74.848
71.589
67.286
61.971
55.739
48.722
41.094
33.055
24.752
16.311
7.87
-0.428
-8.394
-15.841
-22.631
-28.656
-33.841
-38.152
-41.571
-44.106
-45.839
-46.876
-47.357
-47.47
-47.367
-47.181
-47.058
-47.103
-47.481
-48.438
-50.089
-52.41
-55.226
-58.101
-60.604
-62.467
-63.284
-62.514
-59.917
-55.557
-50.029
-44.691
-40.815
-39.207
-40.7
-46.001
-55.164
-67.509
-81.171
-92.905
-99.507
-98.106
-85.604
-59.232
-17.009
40.479
109.597
185.738
265.033
347.509
434.417
521.605
599.299
650.993
661.122
626.285
552.116
452.781
342.76
226.985
110.788
0.192
-97.654
-169.47
-210.639
-226.662
-224.125
-213.637
-200.965
-184.149
-164.141
-142.753
-122.048
-106.356
-97.33
-94.037
-95.256
-99.149
-103.582
-106.828
-107.894
-106.315
-102.274
-96.522
-89.745
-82.519
-75.602
-69.705
-65.192
-62.22
-60.693
-60.309
-60.843
-62.121
-63.928
-66.069
-68.372
-70.673
-72.844
-74.79
-76.422
-77.675
-78.508
-78.894
-78.83
-78.338
-77.456
-76.235
-74.726
-72.97
-71.008
-68.872
-66.61
-64.277
-61.929
-59.623
-57.399
-55.28
-53.285
-51.424
-49.697
-48.095
-46.599
-45.182
-43.826
-42.515
-41.237
-39.982
-38.736
-37.482
-36.207
-34.896
-33.539
-32.127
-30.651
-29.105
-27.486
-25.792
-24.025
-22.189
-20.284
-18.313
-16.276
-14.174
-12.01
-9.786
-7.504
-5.169
-2.785
-0.357
2.107
4.601
7.116
9.643
12.174
14.699
17.207
19.687
22.129
24.522
26.853
29.112
31.285
33.364
35.335
37.189
38.916
40.508
41.955
43.251
44.389
45.364
46.171
46.807
47.268
47.552
47.659
47.587
47.337
46.909
46.307
45.532
44.588
43.481
42.215
40.796
39.232
37.53
35.699
33.748
31.685
29.523
27.271
24.94
22.543
20.091
17.595
15.067
12.519
9.961
7.404
4.858
2.332
-0.164
-2.623
-5.035
-7.394
-9.693
-11.924
-14.082
-16.161
-18.157
-20.063
-21.877
-23.594
-25.211
-26.726
-28.135
-29.436
-30.628
-31.71
-32.681
-33.541
-34.29
-34.928
-35.458
-35.88
-36.196
-36.409
-36.52
-36.531
-36.445
-36.262
-35.984
-35.613
-35.15
-34.595
-33.949
-33.212
-32.384
-31.467
-30.461
-29.366
-28.181
-26.908
-25.546
-24.097
-22.562
-20.941
-19.236
-17.448
-15.58
-13.633
-11.613
-9.519
-7.357
-5.13
-2.841
-0.496
1.901
4.344
6.828
9.345
11.888
14.448
17.016
19.58
22.131
24.654
27.136
29.563
31.92
34.193
36.365
38.421
40.346
42.127
43.751
45.205
46.477
47.553
48.421
49.071
49.494
49.676
49.609
49.281
48.686
47.827
46.702
45.312
43.651
41.71
39.487
36.989
34.223
31.197
27.923
24.416
20.711
16.865
12.931
8.958
4.986
1.041
-2.839
-6.608
-10.215
-13.604
-16.74
-19.613
-22.201
-24.477
-26.44
-28.106
-29.546
-30.896
-32.269
-33.758
-35.44
-37.345
-39.538
-42.111
-45.15
-48.747
-52.954
-57.742
-63.128
-69.173
-75.785
-82.757
-89.676
-95.867
-100.724
-103.8
-104.714
-103.182
-99.229
-93.083
-85.286
-76.836
-68.762
-61.972
-57.001
-53.837
-51.748
-49.497
-45.574
-38
-24.433
-2.234
30.743
75.748
131.414
193.789
259.149
323.232
385.279
448.108
509.748
565.098
602.062
601.552
554.502
462.49
338.002
205.217
81.863
-23.532
-108.132
-175.951
-228.66
-264.746
-283.219
-283.784
-269.396
-245.004
-215.997
-187.58
-162.938
-143.729
-130.714
-123.384
-120.488
-120.595
-121.659
-121.568
-119.297
-114.525
-107.403
-98.574
-88.687
-78.34
-68.367
-59.644
-52.64
-47.511
-44.205
-42.485
-42.158
-43.061
-44.936
-47.462
-50.326
-53.254
-56.035
-58.556
-60.734
-62.48
-63.738
-64.466
-64.641
-64.274
-63.377
-61.925
-59.907
-57.348
-54.289
-50.832
-47.112
-43.244
-39.336
-35.478
-31.722
-28.114
-24.684
-21.438
-18.371
-15.475
-12.743
-10.193
-7.848
-5.711
-3.775
-2.014
-0.384
1.146
2.606
4.028
5.435
6.841
8.261
9.69
11.119
12.543
13.961
15.377
16.8
18.233
19.678
21.134
22.598
24.068
25.538
27.003
28.454
29.886
31.294
32.677
34.035
35.365
36.667
37.937
39.173
40.37
41.526
42.635
43.691
44.689
45.625
46.493
47.291
48.012
48.654
49.212
49.683
50.062
50.347
50.535
50.623
50.61
50.493
50.272
49.949
49.522
48.993
48.366
47.642
46.825
45.918
44.927
43.855
42.706
41.484
40.195
38.841
37.429
35.961
34.442
32.878
31.273
29.632
27.96
26.26
24.538
22.799
21.046
19.285
17.519
15.753
13.991
12.236
10.493
8.764
7.052
5.36
3.689
2.042
0.421
-1.175
-2.743
-4.283
-5.794
-7.275
-8.725
-10.143
-11.527
-12.875
-14.185
-15.456
-16.683
-17.863
-18.995
-20.074
-21.096
-22.058
-22.955
-23.783
-24.538
-25.216
-25.811
-26.319
-26.734
-27.052
-27.269
-27.38
-27.378
-27.26
-27.02
-26.653
-26.155
-25.521
-24.747
-23.828
-22.761
-21.545
-20.176
-18.655
-16.98
-15.152
-13.174
-11.05
-8.785
-6.383
-3.853
-1.201
1.561
4.423
7.373
10.398
13.485
16.619
19.78
22.95
26.111
29.242
32.324
35.335
38.254
41.061
43.739
46.269
48.635
50.816
52.794
54.55
56.065
57.323
58.309
59.005
59.399
59.485
59.262
58.728
57.883
56.719
55.227
53.403
51.248
48.766
45.964
42.857
39.47
35.844
32.033
28.087
24.051
19.958
15.841
11.737
7.695
3.768
0.005
-3.55
-6.861
-9.883
-12.574
-14.936
-17.013
-18.876
-20.625
-22.328
-24.011
-25.731
-27.555
-29.558
-31.849
-34.507
-37.547
-41.045
-45.125
-49.79
-54.942
-60.245
-65.086
-68.952
-71.46
-72.165
-70.747
-67.177
-61.671
-55.08
-48.706
-43.491
-40.182
-39.418
-41.234
-45.098
-49.863
-53.151
-52.128
-44.494
-27.839
0.061
40.47
94.178
159.376
230.887
303.938
373.784
439.222
503.539
564.908
618.481
654.136
654.857
613.344
529.308
407.671
265.98
119.371
-18.445
-129.75
-206.229
-243.86
-242.544
-213.248
-167.186
-116.115
-73.209
-44.425
-33.176
-37.966
-50.205
-64.117
-74.386
-78.615
-80.585
-81.941
-83.73
-86.234
-86.944
-84.865
-80.305
-74.186
-68.151
-63.275
-59.847
-57.861
-57.216
-57.852
-59.766
-62.664
-66.211
-70.147
-74.231
-78.391
-82.537
-86.49
-90.112
-93.325
-96.077
-98.357
-100.172
-101.492
-102.322
-102.701
-102.658
-102.241
-101.488
-100.422
-99.083
-97.523
-95.8
-93.982
-92.118
-90.237
-88.367
-86.521
-84.707
-82.928
-81.171
-79.417
-77.652
-75.867
-74.053
-72.21
-70.331
-68.405
-66.426
-64.386
-62.28
-60.106
-57.863
-55.549
-53.167
-50.722
-48.219
-45.668
-43.075
-40.443
-37.778
-35.083
-32.364
-29.625
-26.87
-24.103
-21.332
-18.562
-15.802
-13.059
-10.344
-7.662
-5.023
-2.435
0.093
2.553
4.938
7.241
9.455
11.572
13.586
15.493
17.286
18.962
20.518
21.949
23.254
24.43
25.477
26.393
27.176
27.827
28.345
28.731
28.986
29.11
29.107
28.979
28.729
28.362
27.883
27.299
26.616
25.841
24.98
24.043
23.036
21.969
20.848
19.683
18.48
17.249
15.995
14.726
13.448
12.166
10.885
9.61
8.345
7.094
5.86
4.646
3.457
2.294
1.161
0.061
-1.006
-2.036
-3.028
-3.983
-4.898
-5.774
-6.612
-7.412
-8.176
-8.904
-9.599
-10.263
-10.899
-11.509
-12.095
-12.662
-13.21
-13.741
-14.257
-14.758
-15.244
-15.712
-16.161
-16.588
-16.991
-17.365
-17.708
-18.014
-18.28
-18.5
-18.67
-18.784
-18.838
-18.824
-18.738
-18.574
-18.326
-17.988
-17.555
-17.02
-16.379
-15.626
-14.756
-13.762
-12.639
-11.381
-9.984
-8.443
-6.756
-4.92
-2.935
-0.802
1.476
3.895
6.449
9.129
11.929
14.838
17.844
20.934
24.094
27.31
30.567
33.846
37.126
40.388
43.61
46.772
49.853
52.831
55.684
58.393
60.941
63.309
65.481
67.437
69.157
70.622
71.813
72.718
73.32
73.606
73.567
73.2
72.507
71.491
70.154
68.494
66.505
64.184
61.537
58.57
55.293
51.727
47.892
43.825
39.57
35.172
30.666
26.086
21.456
16.81
12.195
7.661
3.262
-0.954
-4.943
-8.655
-12.049
-15.129
-17.907
-20.425
-22.73
-24.829
-26.741
-28.524
-30.232
-31.94
-33.751
-35.701
-37.879
-40.485
-43.55
-46.992
-50.599
-53.834
-56.224
-57.538
-57.358
-55.178
-51.043
-45.263
-38.603
-32.689
-28.704
-27.219
-29.207
-35.425
-45.448
-58.19
-71.521
-81.843
-86.108
-81.9
-65.871
-34.784
11.559
70.76
139.398
212.016
288.104
372.409
463.093
553.885
629.994
668.211
657.748
598.732
502.479
389.225
268.405
146.405
27.622
-83.074
-168.599
-218.226
-229.868
-209.24
-175.826
-143.542
-118.233
-101.889
-89.041
-77.015
-67.543
-61.938
-62.391
-69.104
-79.266
-90.036
-99.242
-105.642
-108.976
-109.534
-107.536
-103.239
-97.716
-92.084
-87.087
-83.279
-80.737
-79.282
-78.935
-79.736
-81.363
-83.513
-85.945
-88.391
-90.8
-93.139
-95.248
-97.009
-98.37
-99.291
-99.782
-99.869
-99.529
-98.77
-97.628
-96.133
-94.334
-92.271
-89.969
-87.471
-84.828
-82.096
-79.343
-76.619
-73.954
-71.378
-68.907
-66.551
-64.316
-62.193
-60.166
-58.228
-56.366
-54.576
-52.854
-51.192
-49.579
-48.005
-46.46
-44.935
-43.424
-41.919
-40.416
-38.91
-37.401
-35.889
-34.376
-32.863
-31.348
-29.831
-28.31
-26.785
-25.253
-23.715
-22.169
-20.614
-19.053
-17.486
-15.916
-14.345
-12.777
-11.216
-9.664
-8.127
-6.61
-5.117
-3.655
-2.229
-0.846
0.487
1.765
2.98
4.125
5.195
6.183
7.084
7.891
8.602
9.21
9.713
10.108
10.39
10.559
10.611
10.547
10.366
10.067
9.65
9.118
8.472
7.715
6.849
5.879
4.809
3.644
2.388
1.048
-0.369
-1.858
-3.412
-5.023
-6.684
-8.386
-10.122
-11.885
-13.665
-15.456
-17.25
-19.04
-20.818
-22.578
-24.314
-26.02
-27.691
-29.322
-30.909
-32.447
-33.934
-35.366
-36.74
-38.055
-39.309
-40.501
-41.629
-42.693
-43.693
-44.628
-45.5
-46.309
-47.056
-47.741
-48.364
-48.927
-49.431
-49.875
-50.26
-50.587
-50.856
-51.067
-51.22
-51.314
-51.349
-51.323
-51.234
-51.081
-50.861
-50.57
-50.206
-49.765
-49.242
-48.634
-47.936
-47.144
-46.254
-45.26
-44.158
-42.945
-41.615
-40.164
-38.589
-36.886
-35.052
-33.087
-30.988
-28.757
-26.393
-23.898
-21.276
-18.53
-15.666
-12.69
-9.607
-6.426
-3.157
0.19
3.605
7.073
10.582
14.114
17.652
21.177
24.668
28.107
31.471
34.741
37.894
40.913
43.779
46.475
48.985
51.291
53.372
55.212
56.797
58.114
59.152
59.901
60.353
60.505
60.361
59.921
59.187
58.15
56.798
55.123
53.127
50.811
48.189
45.275
42.087
38.657
35.033
31.258
27.379
23.436
19.457
15.486
11.575
7.785
4.192
0.855
-2.18
-4.874
-7.217
-9.21
-10.873
-12.248
-13.397
-14.39
-15.323
-16.293
-17.401
-18.755
-20.443
-22.601
-25.432
-29.022
-33.306
-38.056
-42.822
-47.171
-50.833
-53.451
-54.517
-53.799
-51.444
-48.085
-44.936
-43.105
-43.141
-45.467
-50.651
-58.757
-68.998
-79.616
-87.72
-90.322
-85.305
-70.635
-43.777
-2.772
53.302
122.463
199.49
279.455
357.706
433.653
510.151
583.979
650.125
697.853
708.228
673.711
592.427
467.594
319.678
165.99
23.31
-86.523
-157.277
-189.212
-188.846
-174.735
-158.042
-143.828
-133.35
-120.947
-105.555
-89.709
-75.718
-67.333
-65.328
-67.767
-73.014
-78.796
-82.998
-84.874
-84.118
-80.821
-75.694
-69.45
-62.673
-56.113
-50.524
-46.289
-43.559
-42.282
-42.177
-43.007
-44.594
-46.722
-49.175
-51.781
-54.385
-56.839
-59.041
-60.903
-62.349
-63.336
-63.841
-63.851
-63.376
-62.457
-61.146
-59.494
-57.555
-55.369
-52.975
-50.426
-47.783
-45.11
-42.475
-39.922
-37.481
-35.178
-33.027
-31.034
-29.2
-27.508
-25.935
-24.463
-23.08
-21.776
-20.541
-19.364
-18.227
-17.117
-16.02
-14.925
-13.824
-12.707
-11.568
-10.401
-9.204
-7.978
-6.723
-5.44
-4.126
-2.78
-1.401
0.012
1.46
2.943
4.461
6.014
7.6
9.216
10.857
12.52
14.2
15.89
17.584
19.273
20.951
22.608
24.236
25.824
27.364
28.845
30.259
31.597
32.85
34.012
35.073
36.028
36.871
37.597
38.202
38.683
39.036
39.26
39.355
39.319
39.153
38.857
38.434
37.885
37.212
36.419
35.51
34.489
33.363
32.136
30.818
29.414
27.933
26.385
24.777
23.12
21.424
19.698
17.951
16.192
14.431
12.677
10.936
9.218
7.529
5.875
4.261
2.693
1.175
-0.291
-1.701
-3.054
-4.347
-5.58
-6.752
-7.863
-8.911
-9.897
-10.821
-11.685
-12.49
-13.236
-13.927
-14.565
-15.152
-15.692
-16.187
-16.641
-17.056
-17.437
-17.786
-18.105
-18.396
-18.662
-18.905
-19.125
-19.322
-19.498
-19.651
-19.779
-19.88
-19.952
-19.992
-19.994
-19.954
-19.868
-19.731
-19.537
-19.281
-18.958
-18.561
-18.087
-17.528
-16.881
-16.139
-15.297
-14.349
-13.292
-12.12
-10.832
-9.424
-7.893
-6.237
-4.458
-2.555
-0.53
1.613
3.873
6.243
8.717
11.287
13.945
16.679
19.48
22.333
25.221
28.127
31.033
33.922
36.773
39.567
42.283
44.902
47.409
49.786
52.017
54.082
55.965
57.645
59.106
60.333
61.311
62.025
62.463
62.618
62.488
62.073
61.37
60.369
59.057
57.427
55.477
53.211
50.635
47.762
44.615
41.227
37.647
33.923
30.096
26.201
22.266
18.324
14.422
10.617
6.961
3.503
0.279
-2.673
-5.329
-7.699
-9.817
-11.747
-13.574
-15.35
-17.125
-18.969
-20.942
-23.125
-25.617
-28.476
-31.78
-35.682
-40.199
-45.242
-50.599
-55.772
-60.272
-63.775
-65.805
-65.837
-63.798
-59.841
-54.545
-49.256
-45
-42.323
-42.057
-44.816
-50.3
-57.786
-65.513
-70.257
-69.409
-60.991
-42.459
-11.64
32.526
90.403
159.374
233.554
308.122
379.308
446.072
509.515
566.357
609.512
627.879
609.937
553.133
461.245
342.835
211.881
79.192
-43.716
-141.787
-207.673
-239.278
-241.491
-228.826
-210.845
-191.543
-171.89
-148.383
-121.375
-94.389
-70.426
-52.865
-43.184
-41.299
-46.425
-56.461
-68.734
-80.918
-91.617
-100.355
-106.759
-110.165
-110.343
-107.685
-103.281
-98.649
-94.651
-91.496
-89.307
-88.251
-88.444
-89.878
-92.201
-94.716
-96.945
-98.708
-99.939
-100.675
-100.917
-100.609
-99.763
-98.495
-96.91
-95.077
-93.029
-90.744
-88.217
-85.49
-82.615
-79.666
-76.714
-73.8
-70.948
-68.181
-65.512
-62.955
-60.524
-58.215
-56.013
-53.906
-51.89
-49.966
-48.137
-46.398
-44.731
-43.118
-41.542
-39.993
-38.462
-36.941
-35.423
-33.9
-32.366
-30.821
-29.265
-27.697
-26.112
-24.506
-22.875
-21.217
-19.532
-17.817
-16.073
-14.3
-12.499
-10.673
-8.826
-6.961
-5.082
-3.195
-1.304
0.585
2.465
4.329
6.17
7.982
9.754
11.48
13.15
14.757
16.293
17.748
19.117
20.39
21.562
22.627
23.579
24.414
25.125
25.711
26.168
26.493
26.685
26.744
26.669
26.462
26.124
25.658
25.067
24.355
23.526
22.585
21.537
20.389
19.146
17.814
16.401
14.913
13.357
11.742
10.074
8.361
6.612
4.832
3.031
1.216
-0.607
-2.43
-4.246
-6.05
-7.833
-9.592
-11.321
-13.014
-14.667
-16.278
-17.843
-19.36
-20.826
-22.242
-23.605
-24.915
-26.173
-27.377
-28.528
-29.626
-30.671
-31.664
-32.606
-33.497
-34.338
-35.128
-35.868
-36.559
-37.201
-37.794
-38.337
-38.831
-39.276
-39.672
-40.019
-40.316
-40.565
-40.763
-40.91
-41.005
-41.046
-41.031
-40.956
-40.818
-40.612
-40.334
-39.979
-39.543
-39.02
-38.405
-37.694
-36.882
-35.964
-34.936
-33.795
-32.537
-31.16
-29.663
-28.045
-26.305
-24.447
-22.47
-20.378
-18.175
-15.866
-13.454
-10.946
-8.347
-5.664
-2.906
-0.08
2.804
5.733
8.694
11.671
14.647
17.604
20.522
23.383
26.166
28.852
31.423
33.863
36.158
38.288
40.237
41.987
43.524
44.833
45.904
46.726
47.291
47.592
47.629
47.405
46.921
46.175
45.155
43.85
42.248
40.351
38.164
35.692
32.948
29.95
26.731
23.339
19.822
16.226
12.587
8.939
5.325
1.803
-1.565
-4.708
-7.569
-10.113
-12.323
-14.182
-15.699
-16.891
-17.795
-18.506
-19.135
-19.79
-20.585
-21.617
-22.973
-24.798
-27.286
-30.534
-34.509
-39.005
-43.637
-48.037
-51.939
-55.014
-56.776
-56.926
-55.549
-53.159
-50.781
-49.455
-49.763
-52.152
-57.198
-65.007
-74.848
-85.2
-93.511
-96.89
-93.022
-79.825
-55.208
-17.503
33.942
98.218
172.98
253.641
334.049
409.847
477.031
533.004
578.687
610.439
621.448
605.594
554.138
465.541
347.415
210.776
73.309
-47.061
-139.021
-196.9
-224.138
-231.76
-229.145
-222.097
-212.521
-197.738
-177.534
-155.118
-133.765
-117.118
-106.772
-101.783
-100.764
-102.154
-104.064
-104.81
-103.527
-99.956
-94.392
-87.552
-80.061
-72.411
-65.264
-59.317
-54.929
-52.195
-50.974
-50.922
-51.775
-53.351
-55.436
-57.806
-60.266
-62.612
-64.686
-66.417
-67.746
-68.628
-69.043
-68.965
-68.393
-67.371
-65.96
-64.216
-62.198
-59.948
-57.503
-54.913
-52.238
-49.543
-46.896
-44.337
-41.892
-39.581
-37.412
-35.393
-33.524
-31.785
-30.152
-28.603
-27.124
-25.705
-24.34
-23.017
-21.72
-20.437
-19.157
-17.869
-16.569
-15.25
-13.905
-12.532
-11.129
-9.698
-8.243
-6.765
-5.264
-3.74
-2.193
-0.624
0.964
2.572
4.197
5.836
7.487
9.143
10.801
12.455
14.101
15.732
17.344
18.93
20.486
22.007
23.487
24.921
26.305
27.633
28.901
30.104
31.238
32.3
33.284
34.187
35.005
35.737
36.379
36.929
37.385
37.747
38.013
38.185
38.261
38.243
38.132
37.93
37.64
37.264
36.806
36.27
35.661
34.981
34.237
33.432
32.571
31.658
30.699
29.696
28.654
27.576
26.467
25.33
24.168
22.985
21.784
20.567
19.338
18.098
16.851
15.597
14.34
13.079
11.818
10.556
9.294
8.034
6.776
5.52
4.266
3.014
1.765
0.517
-0.73
-1.976
-3.221
-4.467
-5.714
-6.96
-8.206
-9.45
-10.692
-11.929
-13.159
-14.379
-15.587
-16.778
-17.95
-19.097
-20.216
-21.301
-22.346
-23.345
-24.294
-25.185
-26.01
-26.765
-27.44
-28.031
-28.529
-28.929
-29.222
-29.403
-29.465
-29.401
-29.206
-28.872
-28.395
-27.769
-26.989
-26.052
-24.956
-23.699
-22.279
-20.697
-18.956
-17.058
-15.008
-12.81
-10.472
-8
-5.405
-2.697
0.112
3.009
5.98
9.009
12.077
15.165
18.253
21.323
24.353
27.322
30.21
32.998
35.667
38.202
40.584
42.794
44.814
46.625
48.21
49.554
50.643
51.463
52.005
52.264
52.238
51.929
51.333
50.445
49.256
47.757
45.951
43.841
41.435
38.753
35.817
32.662
29.335
25.882
22.344
18.758
15.154
11.565
8.034
4.612
1.351
-1.7
-4.5
-7.012
-9.215
-11.123
-12.767
-14.204
-15.507
-16.721
-17.909
-19.148
-20.511
-22.079
-23.94
-26.135
-28.744
-31.924
-35.687
-39.931
-44.421
-48.663
-52.222
-54.841
-56.113
-55.543
-53.054
-48.819
-43.414
-38.111
-33.828
-30.99
-30.309
-32.362
-36.878
-43.097
-49.312
-52.606
-50.666
-41.623
-22.959
7.485
51.026
106.915
171.499
240.403
309.229
377.112
445.902
512.321
571.128
612.379
620.879
590.827
521.854
416.737
287.832
147.475
9.259
-107.273
-187.735
-227.606
-232.242
-216.311
-195.34
-175.74
-155.736
-133.872
-109.57
-87.264
-74.715
-71.771
-75.965
-83.196
-87.477
-89.338
-89.713
-88.554
-87.367
-85.085
-80.935
-75.814
-70.07
-64.511
-60.133
-57.081
-55.321
-54.843
-55.368
-56.649
-58.533
-60.817
-63.283
-65.784
-68.182
-70.325
-72.152
-73.621
-74.682
-75.323
-75.529
-75.3
-74.672
-73.701
-72.433
-70.913
-69.181
-67.264
-65.21
-63.07
-60.901
-58.764
-56.701
-54.737
-52.892
-51.178
-49.603
-48.164
-46.849
-45.631
-44.492
-43.419
-42.402
-41.433
-40.5
-39.59
-38.689
-37.783
-36.862
-35.918
-34.943
-33.929
-32.87
-31.764
-30.611
-29.411
-28.166
-26.874
-25.535
-24.147
-22.711
-21.228
-19.698
-18.122
-16.503
-14.845
-13.151
-11.429
-9.683
-7.92
-6.146
-4.369
-2.595
-0.832
0.913
2.632
4.319
5.964
7.562
9.105
10.586
11.998
13.335
14.59
15.757
16.832
17.81
18.686
19.457
20.12
20.672
21.111
21.436
21.647
21.743
21.725
21.594
21.353
21.005
20.553
20.001
19.356
18.621
17.802
16.906
15.939
14.907
13.817
12.675
11.487
10.261
9.003
7.719
6.417
5.101
3.779
2.456
1.137
-0.172
-1.467
-2.744
-3.998
-5.226
-6.424
-7.59
-8.719
-9.811
-10.863
-11.874
-12.843
-13.769
-14.652
-15.492
-16.29
-17.046
-17.761
-18.436
-19.071
-19.667
-20.226
-20.747
-21.232
-21.681
-22.095
-22.473
-22.817
-23.125
-23.397
-23.631
-23.828
-23.983
-24.097
-24.166
-24.187
-24.157
-24.073
-23.93
-23.727
-23.458
-23.12
-22.709
-22.219
-21.647
-20.988
-20.239
-19.394
-18.45
-17.405
-16.254
-14.998
-13.632
-12.158
-10.574
-8.881
-7.081
-5.176
-3.17
-1.065
1.132
3.414
5.775
8.204
10.693
13.231
15.805
18.398
20.996
23.583
26.142
28.655
31.105
33.472
35.741
37.897
39.924
41.807
43.531
45.077
46.429
47.572
48.495
49.182
49.625
49.813
49.741
49.411
48.825
47.981
46.873
45.491
43.827
41.884
39.666
37.182
34.452
31.498
28.356
25.076
21.706
18.283
14.844
11.412
8.015
4.696
1.501
-1.519
-4.317
-6.858
-9.106
-11.041
-12.678
-14.049
-15.217
-16.266
-17.246
-18.213
-19.234
-20.361
-21.66
-23.216
-25.068
-27.283
-30.002
-33.238
-36.903
-40.798
-44.446
-47.373
-49.269
-49.694
-48.178
-44.677
-39.374
-32.822
-26.308
-20.912
-17.254
-16.143
-18.11
-22.723
-29.104
-35.606
-39.267
-37.329
-27.658
-7.937
23.797
68.138
124.564
191.529
264.408
336.738
404.364
463.286
510.989
549.292
575.196
582.265
565.38
516.514
433.599
323.545
196.978
70.931
-36.041
-111.575
-150.947
-159.703
-151.423
-138.222
-127.395
-120.046
-112.083
-101.959
-90.827
-80.764
-75.089
-74.582
-77.667
-82.918
-88.432
-92.357
-94.049
-93.252
-89.974
-84.927
-78.858
-72.322
-66.005
-60.54
-56.231
-53.235
-51.555
-50.965
-51.269
-52.303
-53.868
-55.8
-57.961
-60.214
-62.42
-64.45
-66.195
-67.575
-68.539
-69.063
-69.133
-68.747
-67.934
-66.741
-65.212
-63.397
-61.334
-59.051
-56.594
-54.02
-51.391
-48.78
-46.235
-43.788
-41.464
-39.277
-37.235
-35.338
-33.574
-31.918
-30.354
-28.873
-27.467
-26.132
-24.86
-23.638
-22.454
-21.296
-20.155
-19.023
-17.893
-16.757
-15.61
-14.452
-13.282
-12.102
-10.913
-9.712
-8.499
-7.272
-6.028
-4.767
-3.489
-2.193
-0.878
0.452
1.794
3.145
4.5
5.854
7.203
8.542
9.867
11.172
12.452
13.704
14.923
16.104
17.242
18.332
19.37
20.351
21.27
22.123
22.907
23.616
24.249
24.802
25.272
25.657
25.955
26.164
26.283
26.312
26.25
26.098
25.857
25.53
25.118
24.626
24.058
23.418
22.711
21.941
21.114
20.234
19.307
18.336
17.326
16.283
15.21
14.113
12.996
11.863
10.718
9.565
8.408
7.252
6.099
4.954
3.819
2.698
1.593
0.507
-0.558
-1.6
-2.618
-3.611
-4.578
-5.518
-6.433
-7.323
-8.188
-9.031
-9.853
-10.654
-11.436
-12.2
-12.948
-13.68
-14.395
-15.093
-15.774
-16.436
-17.079
-17.698
-18.292
-18.858
-19.394
-19.898
-20.367
-20.799
-21.19
-21.539
-21.841
-22.094
-22.289
-22.421
-22.482
-22.465
-22.366
-22.178
-21.896
-21.511
-21.019
-20.414
-19.697
-18.86
-17.894
-16.789
-15.532
-14.124
-12.574
-10.892
-9.08
-7.146
-5.1
-2.953
-0.731
1.56
3.928
6.378
8.921
11.551
14.244
16.979
19.732
22.491
25.269
28.06
30.844
33.616
36.378
39.139
41.927
44.729
47.482
50.132
52.621
54.915
57.007
58.88
60.509
61.867
62.909
63.616
63.994
64.018
63.651
62.842
61.515
59.661
57.34
54.6
51.486
48.036
44.266
40.225
35.99
31.626
27.19
22.723
18.243
13.804
9.494
5.405
1.647
-1.73
-4.739
-7.369
-9.612
-11.483
-13.02
-14.301
-15.457
-16.572
-17.677
-18.828
-20.084
-21.537
-23.328
-25.574
-28.348
-31.729
-35.812
-40.573
-45.89
-51.466
-56.748
-61.263
-64.651
-66.481
-66.425
-64.498
-60.927
-56.343
-51.819
-48.038
-45.412
-44.57
-45.655
-48.074
-50.776
-51.869
-48.972
-40.398
-24.495
1.008
37.639
85.762
143.71
207.287
272.116
335.499
397.91
460.942
523.033
577.245
609.851
606.744
561.525
479.088
375.325
267.405
167.031
78.224
-1.502
-72.423
-131.944
-177.294
-205.031
-214.97
-210.111
-193.23
-168.304
-140.731
-114.655
-92.688
-76.636
-66.804
-62.801
-64.747
-71.487
-80.182
-88.539
-95.212
-99.447
-101.443
-101.416
-98.959
-94.456
-89.259
-84.44
-80.719
-78.425
-77.302
-77.206
-78.353
-80.646
-83.642
-86.96
-90.221
-93.181
-95.842
-98.173
-100.047
-101.417
-102.291
-102.676
-102.635
-102.221
-101.441
-100.322
-98.895
-97.194
-95.262
-93.151
-90.91
-88.595
-86.261
-83.947
-81.677
-79.474
-77.352
-75.321
-73.385
-71.531
-69.744
-68.013
-66.335
-64.706
-63.118
-61.562
-60.025
-58.501
-56.983
-55.468
-53.952
-52.432
-50.906
-49.373
-47.838
-46.302
-44.769
-43.241
-41.719
-40.203
-38.694
-37.192
-35.7
-34.218
-32.746
-31.286
-29.842
-28.416
-27.012
-25.633
-24.281
-22.962
-21.678
-20.434
-19.233
-18.079
-16.976
-15.927
-14.937
-14.008
-13.144
-12.346
-11.617
-10.958
-10.372
-9.859
-9.42
-9.057
-8.771
-8.562
-8.431
-8.378
-8.405
-8.51
-8.693
-8.952
-9.287
-9.695
-10.174
-10.72
-11.331
-12.003
-12.732
-13.515
-14.347
-15.224
-16.141
-17.092
-18.074
-19.08
-20.107
-21.15
-22.206
-23.269
-24.337
-25.407
-26.476
-27.541
-28.598
-29.645
-30.677
-31.692
-32.686
-33.656
-34.599
-35.512
-36.393
-37.241
-38.054
-38.832
-39.575
-40.282
-40.953
-41.589
-42.191
-42.759
-43.295
-43.8
-44.277
-44.729
-45.157
-45.565
-45.953
-46.322
-46.674
-47.008
-47.323
-47.617
-47.888
-48.134
-48.354
-48.549
-48.718
-48.861
-48.979
-49.075
-49.151
-49.206
-49.239
-49.245
-49.219
-49.157
-49.051
-48.894
-48.676
-48.388
-48.021
-47.572
-47.034
-46.402
-45.663
-44.8
-43.801
-42.666
-41.391
-39.982
-38.443
-36.782
-35.019
-33.191
-31.327
-29.459
-27.6
-25.742
-23.884
-22.026
-20.165
-18.305
-16.431
-14.508
-12.512
-10.429
-8.235
-5.914
-3.417
-0.664
2.408
5.848
9.673
13.858
18.375
23.198
28.269
33.524
38.863
44.144
49.259
54.124
58.648
62.75
66.316
69.184
71.225
72.336
72.441
71.518
69.559
66.557
62.563
57.665
51.995
45.748
39.094
32.167
25.105
18.036
11.101
4.494
-1.625
-7.13
-11.901
-15.871
-18.995
-21.231
-22.599
-23.183
-23.117
-22.604
-21.869
-21.098
-20.479
-20.19
-20.398
-21.296
-23.041
-25.752
-29.523
-34.363
-40.243
-47.112
-54.858
-63.307
-72.234
-81.283
-90.029
-98.119
-105.153
-110.697
-114.305
-115.41
-113.472
-108.179
-99.433
-87.146
-71.407
-52.744
-31.691
-8.848
14.757
39.816
67.592
97.221
129.345
162.63
193.761
225.39
259.506
298.794
350.427
414.815
487.048
559.015
612.935
631.612
608.96
545.222
451.915
345.032
229.19
108.748
-12.595
-129.288
-222.981
-281.096
-300.236
-284.397
-250.421
-211.254
-172.456
-136.255
-99.081
-60.144
-22.707
9.28
31.077
41.017
40.224
30.754
15.607
-2.936
-22.994
-42.064
-58.066
-69.9
-77.086
-80.014
-79.699
-76.906
-72.539
-67.926
-64.049
-61.439
-60.346
-60.565
-61.673
-63.392
-65.364
-67.094
-68.309
-68.88
-68.762
-68.081
-66.962
-65.464
-63.686
-61.728
-59.636
-57.453
-55.206
-52.896
-50.554
-48.219
-45.915
-43.668
-41.489
-39.382
-37.35
-35.394
-33.508
-31.689
-29.936
-28.251
-26.643
-25.113
-23.66
-22.279
-20.958
-19.689
-18.464
-17.272
-16.106
-14.958
-13.826
-12.706
-11.6
-10.504
-9.414
-8.325
-7.231
-6.129
-5.015
-3.885
-2.735
-1.566
-0.377
0.832
2.057
3.299
4.553
5.82
7.095
8.376
9.658
10.938
12.213
13.475
14.722
15.946
17.142
18.303
19.423
20.497
21.517
22.478
23.375
24.202
24.955
25.629
26.22
26.726
27.143
27.467
27.698
27.834
27.872
27.813
27.656
27.402
27.052
26.609
26.075
25.454
24.748
23.963
23.104
22.175
21.182
20.131
19.029
17.881
16.696
15.479
14.237
12.978
11.708
10.434
9.161
7.895
6.641
5.404
4.189
2.999
1.839
0.712
-0.378
-1.428
-2.436
-3.397
-4.31
-5.172
-5.983
-6.741
-7.444
-8.094
-8.689
-9.231
-9.721
-10.159
-10.546
-10.886
-11.179
-11.429
-11.637
-11.805
-11.937
-12.033
-12.097
-12.129
-12.13
-12.1
-12.04
-11.949
-11.826
-11.67
-11.479
-11.252
-10.985
-10.678
-10.328
-9.931
-9.484
-8.985
-8.429
-7.813
-7.133
-6.385
-5.565
-4.667
-3.689
-2.625
-1.472
-0.225
1.12
2.567
4.119
5.778
7.547
9.428
11.421
13.525
15.739
18.06
20.484
23.005
25.619
28.316
31.089
33.928
36.821
39.759
42.728
45.713
48.697
51.663
54.595
57.473
60.281
62.997
65.605
68.087
70.429
72.613
74.624
76.442
78.052
79.435
80.576
81.46
82.074
82.404
82.442
82.188
81.637
80.789
79.636
78.165
76.369
74.248
71.805
69.047
65.985
62.641
59.05
55.26
51.319
47.269
43.145
38.973
34.79
30.643
26.587
22.688
18.992
15.533
12.35
9.478
6.919
4.643
2.581
0.627
-1.294
-3.217
-5.197
-7.292
-9.582
-12.185
-15.208
-18.717
-22.797
-27.564
-33.004
-39.011
-45.308
-51.363
-56.706
-60.973
-63.706
-64.564
-63.574
-60.96
-57.336
-53.742
-50.783
-48.817
-48.426
-49.715
-52.116
-54.653
-55.482
-52.252
-43.376
-27.468
-2.678
32.321
78.106
134.455
198.476
265.36
331.378
393.497
451.799
508.47
561
602.179
619.433
599.282
538.905
446.132
335.268
223.011
117.564
19.798
-67.132
-140.834
-196.07
-225.646
-231.811
-219.21
-193.783
-164.253
-133.867
-105.014
-80.084
-59.39
-45.06
-38.436
-39.136
-45.964
-55.707
-65.314
-73.451
-79.395
-82.99
-84.316
-82.994
-79.388
-74.94
-70.868
-67.875
-66.25
-65.758
-66.212
-67.809
-70.449
-73.628
-76.925
-79.944
-82.435
-84.454
-86.021
-87.04
-87.495
-87.409
-86.805
-85.773
-84.391
-82.672
-80.652
-78.368
-75.853
-73.172
-70.389
-67.559
-64.742
-61.977
-59.284
-56.686
-54.197
-51.827
-49.588
-47.472
-45.464
-43.553
-41.733
-40.001
-38.352
-36.775
-35.254
-33.775
-32.325
-30.897
-29.486
-28.083
-26.681
-25.274
-23.857
-22.429
-20.989
-19.533
-18.058
-16.559
-15.032
-13.478
-11.895
-10.283
-8.642
-6.972
-5.276
-3.558
-1.821
-0.071
1.688
3.451
5.212
6.964
8.7
10.413
12.095
13.738
15.333
16.873
18.347
19.749
21.07
22.302
23.437
24.467
25.386
26.187
26.864
27.412
27.825
28.1
28.234
28.225
28.071
27.773
27.33
26.746
26.021
25.16
24.168
23.048
21.807
20.45
18.986
17.421
15.765
14.025
12.212
10.334
8.401
6.424
4.413
2.376
0.324
-1.735
-3.791
-5.836
-7.863
-9.862
-11.828
-13.752
-15.629
-17.452
-19.215
-20.914
-22.544
-24.103
-25.589
-26.998
-28.33
-29.584
-30.761
-31.859
-32.881
-33.827
-34.698
-35.498
-36.229
-36.894
-37.498
-38.045
-38.538
-38.984
-39.384
-39.744
-40.066
-40.351
-40.603
-40.821
-41.006
-41.158
-41.276
-41.36
-41.409
-41.425
-41.407
-41.355
-41.268
-41.146
-40.984
-40.78
-40.529
-40.222
-39.851
-39.408
-38.887
-38.28
-37.584
-36.792
-35.898
-34.901
-33.796
-32.577
-31.236
-29.756
-28.127
-26.347
-24.421
-22.36
-20.187
-17.919
-15.576
-13.185
-10.768
-8.334
-5.887
-3.407
-0.873
1.718
4.362
7.031
9.7
12.367
15.031
17.698
20.391
23.125
25.927
28.85
31.925
35.148
38.487
41.863
45.177
48.362
51.367
54.156
56.705
58.966
60.896
62.467
63.627
64.326
64.493
64.016
62.813
60.865
58.183
54.843
50.962
46.627
41.928
36.965
31.81
26.548
21.25
15.962
10.747
5.684
0.871
-3.561
-7.506
-10.913
-13.746
-16.017
-17.806
-19.197
-20.3
-21.252
-22.142
-23.027
-23.984
-25.075
-26.377
-27.99
-30.008
-32.484
-35.495
-39.168
-43.505
-48.378
-53.482
-58.249
-62.14
-64.803
-65.818
-64.727
-61.46
-56.169
-49.401
-42.438
-36.309
-31.598
-29.117
-29.427
-32.179
-36.648
-41.294
-43.168
-39.781
-29.266
-9.045
22.967
67.437
124.419
191.232
261.997
331.834
397
456.019
509.727
555.518
587.081
594.458
567.243
503.082
405.368
282.658
149.338
16.922
-101.687
-190.882
-244.139
-260.802
-248.085
-223.281
-197.824
-176.695
-160.797
-144.959
-127.727
-111.231
-97.261
-88.412
-84.955
-85.095
-87.224
-89.559
-90.62
-89.92
-87.45
-83.451
-78.508
-73.181
-67.916
-63.243
-59.657
-57.364
-56.347
-56.445
-57.358
-58.838
-60.709
-62.766
-64.815
-66.678
-68.201
-69.306
-69.979
-70.21
-70.001
-69.348
-68.252
-66.749
-64.901
-62.766
-60.404
-57.859
-55.172
-52.392
-49.575
-46.78
-44.066
-41.472
-39.018
-36.721
-34.587
-32.623
-30.831
-29.196
-27.695
-26.312
-25.028
-23.834
-22.719
-21.669
-20.666
-19.694
-18.738
-17.784
-16.824
-15.846
-14.842
-13.803
-12.725
-11.605
-10.44
-9.227
-7.964
-6.646
-5.27
-3.835
-2.339
-0.781
0.839
2.52
4.26
6.055
7.901
9.794
11.727
13.695
15.69
17.705
19.729
21.756
23.774
25.774
27.745
29.676
31.557
33.377
35.125
36.792
38.366
39.839
41.202
42.446
43.563
44.548
45.392
46.091
46.639
47.034
47.272
47.351
47.269
47.025
46.621
46.057
45.337
44.462
43.439
42.271
40.966
39.53
37.971
36.297
34.518
32.644
30.683
28.647
26.545
24.389
22.189
19.956
17.699
15.43
13.158
10.892
8.641
6.415
4.221
2.067
-0.04
-2.095
-4.09
-6.02
-7.88
-9.665
-11.372
-12.998
-14.539
-15.994
-17.362
-18.642
-19.835
-20.941
-21.962
-22.9
-23.756
-24.533
-25.234
-25.862
-26.419
-26.908
-27.333
-27.696
-28
-28.246
-28.438
-28.577
-28.664
-28.699
-28.683
-28.615
-28.496
-28.323
-28.096
-27.814
-27.474
-27.075
-26.615
-26.091
-25.5
-24.839
-24.104
-23.292
-22.398
-21.419
-20.35
-19.188
-17.93
-16.572
-15.112
-13.548
-11.878
-10.102
-8.219
-6.231
-4.14
-1.947
0.343
2.723
5.187
7.729
10.338
13.004
15.714
18.454
21.209
23.964
26.703
29.411
32.069
34.662
37.175
39.592
41.9
44.079
46.112
47.98
49.667
51.157
52.435
53.487
54.299
54.862
55.174
55.231
55.028
54.555
53.794
52.735
51.377
49.719
47.768
45.537
43.041
40.31
37.389
34.318
31.134
27.868
24.535
21.164
17.796
14.474
11.263
8.207
5.33
2.669
0.248
-1.945
-3.932
-5.772
-7.559
-9.34
-11.164
-13.103
-15.207
-17.558
-20.247
-23.324
-26.89
-31.084
-35.938
-41.381
-47.198
-52.956
-58.238
-62.736
-66.021
-67.588
-67.162
-64.821
-61.128
-57.112
-53.722
-51.471
-50.843
-52.577
-57.014
-63.606
-70.8
-76.145
-77.15
-71.879
-58.318
-33.744
4.156
55.097
116.144
183.438
253.799
328.109
408.651
492.228
569.344
624.001
641.169
615.867
553.33
467.289
368.796
262.26
150.675
36.526
-69.305
-151.178
-200.744
-217.882
-212.901
-199.805
-186.823
-175.851
-164.271
-150.405
-135.322
-121.51
-112.02
-107.554
-106.823
-108.438
-110.457
-111.126
-109.822
-106.32
-100.755
-93.802
-86.114
-78.207
-70.763
-64.476
-59.692
-56.536
-54.951
-54.656
-55.407
-57.026
-59.279
-61.906
-64.69
-67.417
-69.901
-72.053
-73.8
-75.074
-75.848
-76.095
-75.808
-75.025
-73.799
-72.181
-70.226
-67.983
-65.495
-62.823
-60.038
-57.212
-54.424
-51.725
-49.147
-46.716
-44.445
-42.344
-40.413
-38.638
-36.993
-35.462
-34.032
-32.692
-31.437
-30.257
-29.134
-28.056
-27.007
-25.977
-24.958
-23.94
-22.916
-21.88
-20.828
-19.758
-18.673
-17.57
-16.447
-15.299
-14.123
-12.918
-11.682
-10.413
-9.109
-7.773
-6.404
-5.006
-3.583
-2.139
-0.677
0.797
2.278
3.761
5.24
6.711
8.166
9.6
11.007
12.38
13.712
14.998
16.23
17.402
18.506
19.537
20.487
21.351
22.123
22.798
23.372
23.839
24.196
24.44
24.57
24.582
24.477
24.253
23.912
23.454
22.883
22.2
21.409
20.514
19.518
18.427
17.245
15.977
14.629
13.206
11.713
10.157
8.544
6.879
5.168
3.419
1.635
-0.176
-2.008
-3.857
-5.716
-7.58
-9.444
-11.303
-13.152
-14.987
-16.805
-18.6
-20.369
-22.109
-23.817
-25.489
-27.122
-28.715
-30.263
-31.766
-33.221
-34.625
-35.977
-37.274
-38.515
-39.697
-40.819
-41.878
-42.872
-43.799
-44.656
-45.441
-46.15
-46.78
-47.328
-47.79
-48.163
-48.441
-48.62
-48.697
-48.667
-48.526
-48.27
-47.896
-47.399
-46.776
-46.026
-45.145
-44.131
-42.983
-41.699
-40.279
-38.723
-37.031
-35.205
-33.245
-31.154
-28.935
-26.591
-24.129
-21.55
-18.863
-16.073
-13.189
-10.221
-7.179
-4.075
-0.923
2.261
5.459
8.654
11.828
14.963
18.041
21.043
23.953
26.754
29.432
31.972
34.357
36.569
38.592
40.412
42.013
43.382
44.504
45.364
45.951
46.26
46.28
46.003
45.413
44.489
43.217
41.596
39.629
37.325
34.701
31.778
28.596
25.217
21.701
18.106
14.485
10.872
7.322
3.897
0.663
-2.308
-4.97
-7.311
-9.316
-10.979
-12.326
-13.405
-14.318
-15.223
-16.258
-17.542
-19.194
-21.308
-23.997
-27.391
-31.582
-36.644
-42.584
-49.342
-56.863
-65.07
-73.814
-82.904
-92.059
-100.897
-109.084
-116.298
-122.134
-126.212
-128.09
-127.231
-123.254
-115.93
-105.178
-91.272
-74.653
-55.71
-34.986
-13.147
9.365
32.208
55.612
80.858
109.499
143.107
181.731
223.483
266.708
309.415
353.237
403.139
458.255
514.941
562.356
579.945
557.195
489.332
377.697
242.59
102.051
-25.87
-118.409
-170.827
-185.638
-171.242
-147.905
-127.124
-112.99
-106.069
-99.983
-92.051
-83.779
-77.062
-75.029
-78.202
-84.733
-92.606
-99.397
-103.884
-105.96
-105.638
-103.425
-99.937
-95.673
-91.352
-87.712
-85.122
-83.723
-83.502
-84.228
-85.71
-87.796
-90.273
-92.958
-95.709
-98.402
-100.936
-103.205
-105.121
-106.619
-107.66
-108.224
-108.309
-107.912
-107.06
-105.805
-104.199
-102.29
-100.123
-97.724
-95.137
-92.415
-89.616
-86.807
-84.036
-81.334
-78.728
-76.235
-73.868
-71.631
-69.519
-67.511
-65.592
-63.756
-61.995
-60.308
-58.688
-57.123
-55.601
-54.113
-52.65
-51.205
-49.773
-48.344
-46.915
-45.483
-44.047
-42.61
-41.17
-39.725
-38.273
-36.81
-35.335
-33.845
-32.338
-30.812
-29.267
-27.704
-26.124
-24.532
-22.932
-21.326
-19.722
-18.124
-16.539
-14.973
-13.433
-11.925
-10.455
-9.032
-7.663
-6.354
-5.113
-3.945
-2.857
-1.855
-0.943
-0.127
0.591
1.207
1.717
2.119
2.41
2.588
2.652
2.6
2.431
2.145
1.743
1.227
0.599
-0.136
-0.975
-1.911
-2.938
-4.051
-5.242
-6.503
-7.827
-9.206
-10.632
-12.096
-13.59
-15.106
-16.636
-18.173
-19.709
-21.239
-22.756
-24.256
-25.733
-27.184
-28.605
-29.993
-31.343
-32.654
-33.922
-35.145
-36.321
-37.448
-38.525
-39.551
-40.526
-41.451
-42.326
-43.153
-43.934
-44.671
-45.366
-46.022
-46.642
-47.228
-47.785
-48.315
-48.82
-49.304
-49.768
-50.214
-50.643
-51.054
-51.447
-51.821
-52.174
-52.502
-52.803
-53.071
-53.304
-53.496
-53.642
-53.737
-53.774
-53.748
-53.653
-53.483
-53.231
-52.891
-52.455
-51.918
-51.272
-50.512
-49.63
-48.621
-47.478
-46.197
-44.772
-43.199
-41.476
-39.598
-37.566
-35.379
-33.038
-30.548
-27.911
-25.133
-22.222
-19.187
-16.038
-12.787
-9.448
-6.035
-2.568
0.935
4.455
7.97
11.46
14.903
18.277
21.56
24.734
27.779
30.676
33.403
35.939
38.262
40.351
42.187
43.754
45.036
46.016
46.685
47.039
47.076
46.791
46.177
45.218
43.902
42.23
40.203
37.827
35.12
32.098
28.791
25.247
21.509
17.618
13.608
9.5
5.323
1.118
-3.063
-7.154
-11.098
-14.858
-18.397
-21.678
-24.693
-27.451
-29.993
-32.39
-34.685
-36.91
-39.11
-41.331
-43.644
-46.137
-48.877
-51.967
-55.566
-59.721
-64.363
-69.289
-74.073
-78.275
-81.567
-83.544
-83.717
-81.908
-78.329
-73.613
-68.942
-65.451
-63.781
-64.49
-68.202
-74.988
-84.047
-93.691
-101.165
-103.515
-98.535
-84.139
-58.045
-18.673
34.338
99.918
175.261
256.489
339.657
420.146
492.459
551.176
591.498
609.851
604.246
574.405
521.67
449.116
361.448
264.515
164.763
68.676
-17.257
-87.853
-140.34
-173.702
-188.506
-186.859
-171.69
-147.072
-118.666
-91.493
-68.507
-51.592
-41.507
-38.126
-41.366
-49.885
-60.557
-70.685
-78.799
-84.046
-86.468
-86.281
-83.131
-77.482
-70.851
-64.449
-59.066
-55.112
-52.384
-50.768
-50.535
-51.588
-53.466
-55.794
-58.193
-60.445
-62.564
-64.469
-65.991
-67.056
-67.643
-67.761
-67.464
-66.77
-65.671
-64.193
-62.366
-60.23
-57.835
-55.214
-52.411
-49.478
-46.472
-43.453
-40.467
-37.544
-34.711
-31.985
-29.373
-26.878
-24.49
-22.191
-19.974
-17.828
-15.744
-13.714
-11.727
-9.77
-7.834
-5.909
-3.985
-2.055
-0.111
1.853
3.841
5.854
7.893
9.956
12.044
14.158
16.297
18.463
20.653
22.869
25.109
27.373
29.659
31.963
34.283
36.613
38.949
41.285
43.615
45.933
48.232
50.504
52.743
54.94
57.087
59.176
61.199
63.146
65.011
66.783
68.455
70.019
71.468
72.794
73.99
75.053
75.976
76.756
77.389
77.873
78.207
78.39
78.421
78.302
78.034
77.62
77.063
76.368
75.539
74.583
73.506
72.315
71.019
69.624
68.14
66.576
64.942
63.247
61.502
59.718
57.906
56.077
54.242
52.413
50.601
48.817
47.071
45.373
43.732
42.156
40.655
39.234
37.901
36.66
35.518
34.477
33.541
32.714
31.995
31.387
30.89
30.501
30.221
30.047
29.976
30.006
30.131
30.348
30.652
31.037
31.497
32.024
32.611
33.251
33.934
34.652
35.397
36.159
36.93
37.7
38.461
39.206
39.925
40.611
41.258
41.858
42.405
42.893
43.317
43.672
43.953
44.157
44.279
44.318
44.269
44.131
43.902
43.58
43.164
42.652
42.044
41.34
40.54
39.645
38.656
37.576
36.405
35.148
33.806
32.383
30.882
