Name,Criss Capps
Date of Birth,"Feb 5, 1952"
Recorded Date,2020-09-06 15:19:28 -0400
Classification,Sinus Rhythm
Symptoms,
Software Version,1.90
Device,"Watch5,4"
Sample Rate,512.844 hertz


Lead,Lead I
Unit,µV

135.317
160.512
183.339
202.501
216.108
222.919
222.677
215.576
202.802
186.407
167.967
149.01
131.544
116.999
106.242
99.962
98.043
99.745
104.685
112.414
122.128
133.361
145.812
159.123
173.208
188.291
204.679
223.006
244.352
269.668
299.453
333.93
373.16
416.526
462.414
508.348
550.786
585.759
610.122
621.202
616.487
594.874
557.041
505.019
442.654
374.968
306.429
241.568
185.257
140.83
109.968
93.203
89.282
95.732
110.269
130.038
151.442
172.019
190.267
205.203
216.93
226.093
233.167
239.095
245.303
252.486
260.858
270.436
280.721
291.175
301.419
310.852
318.774
324.833
328.891
330.982
331.387
330.344
328.05
324.813
320.949
316.75
312.494
308.364
304.467
300.924
297.863
295.388
293.592
292.514
292.144
292.467
293.446
295.028
297.142
299.681
302.531
305.576
308.7
311.821
314.884
317.837
320.645
323.294
325.772
328.089
330.264
332.299
334.2
335.978
337.644
339.226
340.742
342.202
343.62
345.009
346.367
347.687
348.934
350.046
350.967
351.643
352.029
352.101
351.843
351.239
350.297
349.039
347.502
345.745
343.807
341.708
339.479
337.16
334.815
332.537
330.407
328.489
326.85
325.546
324.623
324.112
324.006
324.259
324.808
325.566
326.46
327.429
328.388
329.24
329.878
330.174
330.007
329.27
327.833
325.552
322.308
317.994
312.532
305.883
298.003
288.864
278.457
266.781
253.864
239.75
224.477
208.095
190.665
172.246
152.925
132.804
111.949
90.43
68.324
45.698
22.648
-0.73
-24.371
-48.219
-72.221
-96.329
-120.471
-144.575
-168.592
-192.458
-216.106
-239.449
-262.347
-284.665
-306.29
-327.106
-347.016
-365.923
-383.692
-400.199
-415.347
-429.037
-441.196
-451.751
-460.61
-467.718
-473.064
-476.675
-478.643
-479.068
-478.041
-475.683
-472.131
-467.543
-462.113
-456.025
-449.432
-442.507
-435.42
-428.343
-421.465
-414.935
-408.848
-403.274
-398.241
-393.762
-389.847
-386.466
-383.559
-381.043
-378.809
-376.75
-374.774
-372.765
-370.583
-368.097
-365.162
-361.661
-357.527
-352.704
-347.16
-340.881
-333.864
-326.128
-317.72
-308.698
-299.136
-289.112
-278.697
-267.982
-257.086
-246.129
-235.25
-224.573
-214.183
-204.14
-194.484
-185.234
-176.394
-167.954
-159.881
-152.119
-144.605
-137.274
-130.065
-122.908
-115.71
-108.349
-100.669
-92.517
-83.78
-74.375
-64.251
-53.369
-41.703
-29.252
-16.056
-2.198
12.216
27.078
42.28
57.702
73.193
88.555
103.543
117.911
131.448
143.969
155.311
165.317
173.827
180.723
185.94
189.47
191.353
191.648
190.433
187.82
183.968
179.084
173.425
167.25
160.796
154.302
147.985
142.069
136.784
132.318
128.831
126.441
125.216
125.196
126.359
128.602
131.787
135.765
140.368
145.466
150.88
156.327
161.673
166.937
172.143
177.408
182.664
187.555
191.96
196.09
199.958
203.371
206.007
207.148
206.534
204.714
201.987
198.312
193.83
188.875
184.302
181.831
182.77
187.391
195.838
208.201
224.402
243.964
265.198
285.141
300.581
308.72
307.29
294.368
268.032
227.296
173.015
107.516
34.349
-42.175
-118.158
-189.642
-252.116
-302.275
-338.582
-360.673
-369.823
-368.562
-359.178
-344.45
-328.044
-312.504
-299.137
-288.484
-279.642
-270.985
-261.381
-249.443
-233.309
-212.171
-186.294
-156.89
-126.554
-98.147
-73.94
-56.187
-47.223
-48.574
-60.582
-82.234
-111.073
-144.244
-179.128
-212.968
-242.742
-265.806
-280.577
-286.723
-285.148
-277.338
-264.829
-249.509
-233.763
-219.806
-209.163
-202.624
-200.18
-201.382
-205.73
-212.407
-220.228
-228.197
-235.65
-242.209
-247.89
-252.852
-257.227
-261.301
-265.469
-269.964
-274.89
-280.246
-285.897
-291.732
-297.677
-303.625
-309.475
-315.174
-320.726
-326.191
-331.655
-337.17
-342.765
-348.456
-354.268
-360.238
-366.392
-372.741
-379.278
-385.986
-392.86
-399.896
-407.063
-414.302
-421.502
-428.513
-435.188
-441.391
-446.98
-451.812
-455.723
-458.538
-460.116
-460.341
-459.107
-456.314
-451.828
-445.532
-437.356
-427.271
-415.32
-401.594
-386.191
-369.236
-350.894
-331.362
-310.884
-289.714
-268.071
-246.164
-224.216
-202.478
-181.257
-160.856
-141.533
-123.52
-106.998
-92.122
-79.042
-67.859
-58.607
-51.29
-45.861
-42.271
-40.511
-40.549
-42.32
-45.715
-50.551
-56.629
-63.764
-71.752
-80.393
-89.478
-98.777
-108.104
-117.32
-126.285
-134.874
-142.95
-150.326
-156.84
-162.353
-166.745
-169.959
-171.96
-172.724
-172.266
-170.628
-167.869
-164.074
-159.311
-153.634
-147.12
-139.852
-131.931
-123.501
-114.699
-105.655
-96.516
-87.391
-78.366
-69.516
-60.881
-52.489
-44.37
-36.536
-28.988
-21.728
-14.731
-7.971
-1.415
4.994
11.316
17.627
24.017
30.55
37.262
44.18
51.318
58.7
66.373
74.367
82.681
91.299
100.184
109.305
118.63
128.101
137.635
147.118
156.437
165.509
174.281
182.713
190.757
198.338
205.356
211.73
217.42
222.402
226.669
230.2
232.985
235.051
236.481
237.4
237.923
238.124
238.054
237.75
237.268
236.692
236.122
235.632
235.27
235.078
235.098
235.391
236.005
236.944
238.154
239.54
241.028
242.582
244.181
245.812
247.443
249.028
250.526
251.925
253.217
254.389
255.425
256.294
256.984
257.525
257.974
258.409
258.886
259.434
260.087
260.878
261.846
263.035
264.463
266.119
268.004
270.121
272.456
274.982
277.625
280.273
282.83
285.219
287.389
289.282
290.795
291.802
292.18
291.84
290.784
289.007
286.434
283.089
279.087
274.715
270.52
266.899
263.95
261.748
260.323
259.607
259.682
260.324
260.749
260.639
260.072
259.231
258.807
259.454
261.355
265.088
271.818
282.145
296.623
315.706
338.834
365.581
395.797
428.724
463.202
497.941
530.667
558.733
580.138
592.42
593.295
581.072
554.019
511.617
455.405
387.987
312.596
233.571
155.07
81.346
17.413
-33.326
-69.557
-91.072
-99.101
-96.08
-84.418
-67.283
-48.883
-32.157
-18.779
-9.802
-5.118
-4.076
-6.145
-10.116
-14.196
-17.364
-19.156
-19.417
-18.561
-17.001
-14.988
-13.029
-11.736
-11.39
-12.062
-13.643
-15.809
-18.297
-20.906
-23.388
-25.508
-27.078
-27.953
-28.046
-27.345
-25.838
-23.519
-20.411
-16.565
-12.072
-7.052
-1.629
4.081
9.957
15.858
21.645
27.191
32.377
37.1
41.268
44.795
47.609
49.666
50.956
51.503
51.366
50.615
49.321
47.542
45.345
42.823
40.073
37.19
34.272
31.414
28.721
26.318
24.323
22.824
21.881
21.529
21.784
22.659
24.174
26.353
29.221
32.788
37.056
42.013
47.631
53.864
60.642
67.878
75.481
83.378
91.499
99.769
108.112
116.439
124.652
132.636
140.25
147.335
153.734
159.309
163.956
167.578
170.091
171.41
171.455
170.162
167.493
163.438
158.004
151.222
143.154
133.905
123.646
112.592
100.978
89.025
76.938
64.938
53.272
42.216
32.04
22.975
15.222
8.955
4.343
1.52
0.574
1.517
4.287
8.77
14.818
22.282
30.997
40.749
51.276
62.276
73.445
84.504
95.194
105.253
114.402
122.404
129.073
134.29
138.005
140.194
140.859
140.03
137.763
134.168
129.403
123.651
117.101
109.949
102.39
94.639
86.935
79.478
72.421
65.874
59.905
54.574
49.924
45.967
42.678
40.007
37.882
36.227
34.964
33.995
33.217
32.511
31.748
30.835
29.713
28.355
26.757
24.918
22.866
20.667
18.425
16.267
14.306
12.638
11.357
10.559
10.348
10.829
12.098
14.222
17.25
21.201
26.089
31.917
38.642
46.168
54.348
62.996
71.948
81.074
90.25
99.364
108.305
116.964
125.252
133.103
140.442
147.208
153.33
158.729
163.379
167.304
170.585
173.349
175.7
177.709
179.435
180.92
182.198
183.286
184.165
184.795
185.156
185.234
185.037
184.589
183.878
182.858
181.451
179.552
177.07
173.941
170.105
165.514
160.13
153.953
147.04
139.47
131.317
122.656
113.551
104.07
94.316
84.403
74.442
64.557
54.857
45.449
36.457
28.003
20.206
13.149
6.86
1.35
-3.388
-7.391
-10.707
-13.416
-15.638
-17.458
-18.957
-20.236
-21.384
-22.513
-23.774
-25.279
-27.172
-29.658
-32.786
-36.5
-40.623
-44.712
-48.324
-51.155
-52.766
-52.714
-51.014
-47.926
-44.109
-40.925
-39.507
-40.601
-45.123
-53.608
-65.565
-79.958
-94.905
-107.269
-114.194
-113.234
-101.604
-77.391
-40.414
8.478
67.103
131.451
197.163
259.541
312.798
351.721
372.921
374.044
353.915
313.226
253.748
178.639
93.174
3.14
-86.655
-171.602
-247.283
-310.259
-357.882
-389.109
-405.188
-408.402
-400.923
-385.373
-364.822
-342.323
-320.929
-302.628
-287.904
-276.587
-268.334
-262.51
-258.303
-254.703
-250.49
-245.059
-238.493
-231.145
-223.58
-216.364
-209.943
-204.84
-201.606
-200.485
-201.469
-204.407
-208.99
-214.942
-222.023
-229.933
-238.371
-247.073
-255.812
-264.402
-272.668
-280.417
-287.488
-293.764
-299.167
-303.673
-307.271
-309.968
-311.803
-312.833
-313.133
-312.789
-311.877
-310.474
-308.657
-306.505
-304.112
-301.572
-298.954
-296.305
-293.654
-291.009
-288.371
-285.736
-283.079
-280.374
-277.595
-274.715
-271.72
-268.601
-265.346
-261.952
-258.408
-254.702
-250.828
-246.782
-242.557
-238.158
-233.59
-228.863
-223.987
-218.964
-213.788
-208.456
-202.963
-197.296
-191.445
-185.376
-179.066
-172.501
-165.677
-158.614
-151.34
-143.887
-136.288
-128.592
-120.855
-113.16
-105.599
-98.248
-91.185
-84.485
-78.231
-72.529
-67.475
-63.142
-59.586
-56.837
-54.905
-53.802
-53.523
-54.037
-55.298
-57.231
-59.749
-62.782
-66.269
-70.145
-74.343
-78.774
-83.355
-88.028
-92.743
-97.466
-102.169
-106.826
-111.416
-115.942
-120.419
-124.871
-129.337
-133.832
-138.362
-142.932
-147.543
-152.204
-156.919
-161.68
-166.467
-171.261
-176.044
-180.798
-185.506
-190.138
-194.655
-199.02
-203.188
-207.127
-210.811
-214.212
-217.309
-220.08
-222.509
-224.588
-226.314
-227.683
-228.685
-229.309
-229.547
-229.4
-228.873
-227.974
-226.712
-225.099
-223.151
-220.897
-218.362
-215.571
-212.54
-209.27
-205.768
-202.04
-198.095
-193.944
-189.589
-185.018
-180.225
-175.209
-169.968
-164.498
-158.779
-152.77
-146.44
-139.769
-132.753
-125.419
-117.79
-109.891
-101.761
-93.447
-85.017
-76.562
-68.154
-59.85
-51.713
-43.798
-36.185
-28.981
-22.269
-16.118
-10.572
-5.647
-1.358
2.284
5.298
7.721
9.615
11.065
12.134
12.863
13.297
13.477
13.459
13.324
13.13
12.917
12.719
12.552
12.431
12.375
12.372
12.393
12.397
12.329
12.151
11.849
11.405
10.806
10.041
9.089
7.944
6.611
5.093
3.393
1.523
-0.508
-2.674
-4.931
-7.239
-9.544
-11.795
-13.945
-15.947
-17.752
-19.326
-20.636
-21.649
-22.341
-22.671
-22.604
-22.114
-21.187
-19.816
-18.008
-15.771
-13.129
-10.136
-6.855
-3.362
0.255
3.929
7.597
11.208
14.734
18.117
21.283
24.169
26.717
28.922
30.85
32.538
33.983
35.298
36.69
38.556
41.528
46.015
52.144
59.983
69.572
80.947
94.102
108.458
122.752
136.057
148.039
158.896
169.287
179.586
190.094
202.072
217.789
239.415
268.428
304.922
347.797
396.23
449.067
503.649
556.062
601.564
635.426
654.614
657.393
641.869
607.358
555.191
488.168
411.014
329.605
248.855
173.38
108.279
57.03
21.273
1.453
-4.042
1.756
16.029
35.328
55.44
73.537
87.939
97.602
102.8
104.437
103.291
100.765
98.741
98.213
99.589
102.929
107.655
113.193
119.139
124.834
129.521
132.775
134.388
134.355
132.926
130.297
126.614
122.086
116.921
111.325
105.508
99.654
93.92
88.437
83.329
78.702
74.657
71.279
68.622
66.707
65.53
65.081
65.344
66.291
67.871
69.999
72.575
75.477
78.57
81.731
84.831
87.754
90.402
92.691
94.561
95.964
96.858
97.203
96.969
96.15
94.776
92.895
90.571
87.894
84.967
81.923
78.936
76.154
73.706
71.72
70.297
69.552
69.616
70.601
72.598
75.674
79.84
85.09
91.401
98.705
106.916
115.899
125.455
135.402
145.551
155.691
165.617
175.09
183.831
191.574
198.065
203.053
206.346
207.779
207.198
204.499
199.591
192.423
183.018
171.42
157.703
142
124.457
105.268
84.696
63.014
40.521
17.547
-5.625
-28.728
-51.488
-73.656
-94.967
-115.171
-134.085
-151.564
-167.5
-181.837
-194.538
-205.599
-215.087
-223.096
-229.754
-235.224
-239.643
-243.138
-245.859
-247.957
-249.606
-250.989
-252.239
-253.449
-254.694
-256.021
-257.466
-259.054
-260.765
-262.557
-264.372
-266.141
-267.811
-269.335
-270.65
-271.687
-272.364
-272.592
-272.315
-271.506
-270.146
-268.23
-265.759
-262.742
-259.211
-255.215
-250.798
-246.011
-240.894
-235.481
-229.821
-223.965
-217.968
-211.893
-205.783
-199.671
-193.585
-187.547
-181.573
-175.675
-169.845
-164.064
-158.321
-152.606
-146.912
-141.243
-135.593
-129.958
-124.339
-118.733
-113.15
-107.611
-102.135
-96.746
-91.478
-86.368
-81.466
-76.841
-72.546
-68.629
-65.129
-62.074
-59.496
-57.411
-55.815
-54.688
-53.991
-53.658
-53.619
-53.792
-54.073
-54.363
-54.545
-54.483
-54.06
-53.167
-51.696
-49.552
-46.634
-42.86
-38.19
-32.615
-26.165
-18.906
-10.924
-2.323
6.754
16.17
25.777
35.402
44.892
54.096
62.856
71.014
78.402
84.863
90.275
94.563
97.69
99.656
100.486
100.221
98.942
96.733
93.685
89.904
85.485
80.519
75.108
69.366
63.415
57.381
51.374
45.451
39.652
33.996
28.484
23.119
17.879
12.724
7.616
2.516
-2.608
-7.763
-12.958
-18.226
-23.585
-29.059
-34.661
-40.349
-46.077
-51.795
-57.431
-62.924
-68.186
-73.079
-77.467
-81.216
-84.199
-86.339
-87.552
-87.694
-86.637
-84.242
-80.366
-74.949
-67.888
-59.009
-48.28
-35.794
-21.803
-6.831
8.611
24.189
39.458
53.947
67.582
80.575
93.57
107.756
124.079
142.982
164.921
190.178
218.056
247.019
274.649
297.631
313.053
318.787
312.644
292.597
258.229
210.748
152.769
88.282
21.139
-45.354
-107.165
-159.707
-199.873
-226.36
-239.29
-240.215
-230.704
-212.077
-186.998
-159.478
-132.873
-109.248
-89.674
-74.263
-63.312
-57.47
-56.207
-57.612
-59.711
-61.245
-61.654
-60.938
-58.878
-54.819
-48.68
-41.264
-33.718
-26.87
-21.034
-16.131
-12.084
-9.093
-7.244
-6.254
-5.578
-4.723
-3.437
-1.688
0.455
3.023
6.105
9.737
13.894
18.506
23.51
28.891
34.664
40.817
47.299
54.023
60.87
67.742
74.579
81.341
88.004
94.547
100.937
107.15
113.17
118.992
124.614
130.027
135.221
140.188
144.936
149.487
153.876
158.131
162.265
166.289
170.206
174.021
177.743
181.374
184.914
188.357
191.699
194.942
198.095
201.163
204.152
207.072
209.928
212.741
215.535
218.336
221.17
224.056
227.009
230.04
233.161
236.376
239.694
243.11
246.612
250.184
253.806
257.446
261.071
264.632
268.061
271.296
274.279
276.953
279.282
281.244
282.83
284.057
284.951
285.556
285.938
286.169
286.336
286.535
286.865
287.432
288.358
289.76
291.743
294.419
297.866
302.132
307.239
313.161
319.841
327.198
335.118
343.46
352.062
360.747
369.337
377.663
385.551
392.835
399.356
404.942
409.454
412.786
414.857
415.633
415.115
413.324
410.314
406.175
401.022
394.982
388.193
380.761
372.791
364.38
355.622
346.622
337.47
328.233
318.961
309.686
300.425
291.184
281.959
272.712
263.396
253.956
244.335
234.5
224.434
214.123
203.561
192.742
181.665
170.344
158.803
147.064
135.156
123.103
110.936
98.7
86.443
74.219
62.079
50.065
38.213
26.556
15.126
3.949
-6.95
-17.553
-27.848
-37.819
-47.449
-56.723
-65.628
-74.155
-82.297
-90.044
-97.387
-104.319
-110.837
-116.947
-122.654
-127.971
-132.908
-137.479
-141.7
-145.587
-149.151
-152.397
-155.322
-157.924
-160.207
-162.183
-163.874
-165.302
-166.475
-167.399
-168.079
-168.507
-168.68
-168.59
-168.217
-167.552
-166.613
-165.426
-164.045
-162.536
-160.947
-159.316
-157.674
-156.042
-154.45
-152.934
-151.521
-150.257
-149.185
-148.348
-147.811
-147.618
-147.78
-148.289
-149.099
-150.134
-151.339
-152.663
-154.061
-155.509
-156.98
-158.442
-159.87
-161.227
-162.47
-163.561
-164.45
-165.086
-165.462
-165.585
-165.495
-165.28
-165.015
-164.766
-164.609
-164.587
-164.726
-165.045
-165.547
-166.249
-167.211
-168.489
-170.124
-172.131
-174.442
-177.009
-179.818
-182.753
-185.59
-187.961
-189.432
-189.765
-188.996
-187.19
-184.27
-180.149
-174.836
-168.822
-162.887
-157.488
-152.663
-148.068
-143.43
-138.783
-134.146
-128.692
-121.047
-109.946
-94.312
-74.089
-49.608
-20.771
12.221
47.865
83.702
116.532
142.514
159.005
164.049
155.224
130.911
91.206
37.635
-26.504
-96.417
-167.871
-236.901
-298.82
-349.548
-386.487
-408.379
-415.802
-410.678
-394.872
-370.47
-340.377
-307.697
-274.906
-243.815
-215.37
-190.16
-169.045
-152.725
-141.42
-134.729
-132.183
-133.417
-138.08
-145.545
-154.654
-164.258
-173.407
-181.607
-188.649
-194.396
-198.849
-202.278
-205.34
-208.593
-212.405
-216.943
-222.109
-227.755
-233.719
-239.705
-245.277
-250.129
-254.092
-257.102
-259.267
-260.689
-261.444
-261.665
-261.501
-261.089
-260.563
-259.996
-259.404
-258.825
-258.306
-257.904
-257.706
-257.769
-258.105
-258.722
-259.603
-260.723
-262.058
-263.554
-265.133
-266.696
-268.137
-269.371
-270.345
-271.011
-271.318
-271.197
-270.548
-269.295
-267.391
-264.796
-261.492
-257.46
-252.679
-247.166
-240.989
-234.247
-227.055
-219.517
-211.704
-203.678
-195.504
-187.256
-179.033
-170.912
-162.952
-155.209
-147.734
-140.585
-133.83
-127.499
-121.57
-115.988
-110.679
-105.571
-100.619
-95.79
-91.046
-86.351
-81.666
-76.962
-72.231
-67.458
-62.625
-57.7
-52.642
-47.429
-42.079
-36.626
-31.116
-25.603
-20.112
-14.67
-9.311
-4.062
1.051
6.007
10.803
15.429
19.861
24.073
28.038
31.738
35.189
38.405
41.4
44.187
46.758
49.111
51.267
53.241
55.051
56.717
58.246
59.66
61.009
62.334
63.658
64.986
66.28
67.503
68.639
69.676
70.613
71.442
72.128
72.631
72.922
72.972
72.749
72.209
71.262
69.83
67.87
65.378
62.404
59.01
55.235
51.123
46.726
42.106
37.357
32.584
27.861
23.257
18.85
14.728
11.026
7.877
5.371
3.561
2.452
2.028
2.286
3.217
4.783
6.926
9.566
12.608
15.991
19.668
23.582
27.67
31.841
35.992
40.053
43.981
47.754
51.364
54.799
58.045
61.118
64.044
66.866
69.637
72.387
75.13
77.885
80.675
83.536
86.52
89.66
92.97
96.453
100.097
103.895
107.841
111.916
116.095
120.336
124.588
128.814
132.989
137.08
141.05
144.834
148.344
151.506
154.271
156.612
158.528
160.011
161.062
161.692
161.93
161.836
161.481
160.923
160.208
159.393
158.559
157.834
157.389
157.371
157.889
159.025
160.83
163.365
166.677
170.776
175.638
181.184
187.321
193.974
201.08
208.546
216.239
223.962
231.454
238.494
244.89
250.459
255.031
258.407
260.4
260.872
259.743
256.977
252.554
246.44
238.603
229.065
217.907
205.291
191.461
176.635
161.038
144.919
128.548
112.261
96.424
81.386
67.467
54.983
44.245
35.621
29.537
26.278
25.955
28.456
33.409
40.46
49.353
59.739
71.099
83.04
95.514
109.001
124.579
143.196
165.239
190.794
219.925
252.433
287.287
322.304
354.06
379.014
394.526
398.589
389.363
365.213
325.615
271.865
207.312
136.207
62.235
-11.164
-80.352
-141.3
-190.293
-225.33
-246.623
-255.623
-253.71
-242.517
-224.04
-201.053
-177.203
-155.086
-135.638
-119.021
-105.248
-94.1
-85.449
-78.665
-71.88
-63.804
-54.167
-42.962
-30.524
-17.257
-3.13
11.694
26.174
39.532
51.437
61.608
70.155
77.192
82.471
85.831
87.478
87.583
86.271
83.671
79.703
74.311
67.606
59.73
50.809
40.989
30.396
19.163
7.503
-4.339
-16.125
-27.642
-38.705
-49.167
-58.882
-67.685
-75.436
-82.028
-87.394
-91.518
-94.411
-96.099
-96.636
-96.112
-94.651
-92.419
-89.598
-86.35
-82.838
-79.205
-75.59
-72.139
-68.975
-66.18
-63.809
-61.889
-60.43
-59.435
-58.883
-58.716
-58.853
-59.194
-59.637
-60.088
-60.442
-60.593
-60.43
-59.847
-58.764
-57.135
-54.937
-52.156
-48.792
-44.863
-40.41
-35.508
-30.254
-24.732
-19.013
-13.172
-7.292
-1.484
4.12
9.406
14.276
18.642
22.435
25.58
28.025
29.753
30.786
31.177
30.999
30.299
29.105
27.45
25.385
22.99
20.37
17.625
14.854
12.17
9.696
7.555
5.851
4.642
3.951
3.784
4.138
5.029
6.494
8.566
11.268
14.605
18.56
23.096
28.158
33.659
39.484
45.521
51.665
57.829
63.932
69.883
75.582
80.916
85.747
89.918
93.262
95.608
96.808
96.753
95.357
92.565
88.342
82.652
75.476
66.824
56.726
45.247
32.475
18.513
3.504
-12.361
-28.858
-45.737
-62.772
-79.763
-96.516
-112.846
-128.557
-143.457
-157.385
-170.223
-181.881
-192.298
-201.431
-209.251
-215.774
-221.061
-225.205
-228.325
-230.527
-231.911
-232.586
-232.676
-232.329
-231.694
-230.889
-230
-229.088
-228.205
-227.39
-226.674
-226.065
-225.54
-225.064
-224.592
-224.079
-223.482
-222.745
-221.792
-220.525
-218.851
-216.692
-213.999
-210.752
-206.937
-202.554
-197.615
-192.143
-186.184
-179.797
-173.047
-166.003
-158.742
-151.348
-143.931
-136.623
-129.546
-122.824
-116.554
-110.804
-105.642
-101.124
-97.296
-94.195
-91.833
-90.194
-89.261
-89.013
-89.416
-90.431
-91.994
-94.018
-96.427
-99.144
-102.103
-105.254
-108.531
-111.861
-115.175
-118.399
-121.486
-124.411
-127.138
-129.632
-131.853
-133.761
-135.328
-136.545
-137.384
-137.808
-137.781
-137.266
-136.256
-134.764
-132.813
-130.442
-127.677
-124.535
-121.055
-117.302
-113.362
-109.342
-105.333
-101.407
-97.637
-94.115
-90.955
-88.271
-86.146
-84.626
-83.682
-83.292
-83.506
-84.274
-85.424
-86.666
-87.467
-87.32
-86.028
-83.426
-79.332
-73.836
-67.095
-59.503
-52.148
-46.116
-41.84
-39.47
-38.746
-38.756
-38.681
-37.49
-32.984
-22.532
-4.19
23.332
59.125
99.905
142.928
186.472
231.368
279.606
329.242
372.869
396.56
386.308
336.591
252.716
150.515
47.359
-45.409
-123.712
-189.473
-243.871
-285.62
-312.637
-322.49
-315.935
-296.659
-268.645
-236.628
-204.982
-176.274
-152.196
-133.667
-120.381
-111.444
-105.797
-101.762
-97.565
-92.308
-85.613
-77.485
-68.393
-58.841
-49.313
-40.529
-33.217
-27.712
-24.072
-22.15
-21.625
-22.232
-23.752
-25.889
-28.326
-30.819
-33.205
-35.398
-37.383
-39.108
-40.487
-41.458
-41.988
-42.08
-41.774
-41.105
-40.105
-38.834
-37.377
-35.842
-34.345
-32.972
-31.774
-30.781
-30.018
-29.522
-29.337
-29.492
-30.008
-30.9
-32.196
-33.941
-36.168
-38.878
-42.045
-45.614
-49.534
-53.765
-58.273
-63.021
-67.96
-73.02
-78.139
-83.259
-88.306
-93.192
-97.797
-101.974
-105.606
-108.61
-110.921
-112.501
-113.31
-113.309
-112.484
-110.837
-108.385
-105.158
-101.173
-96.446
-91.018
-84.945
-78.303
-71.19
-63.67
-55.789
-47.602
-39.151
-30.482
-21.643
-12.658
-3.535
5.709
15.054
24.468
33.903
43.318
52.661
61.867
70.866
79.565
87.872
95.714
103.027
109.752
115.838
121.235
125.884
129.748
132.801
135.012
136.384
136.946
136.754
135.909
134.54
132.782
130.77
128.632
126.475
124.4
122.494
120.819
119.442
118.417
117.798
117.655
118.028
118.915
120.287
122.083
124.209
126.579
129.1
131.666
134.196
136.625
138.904
141.027
142.992
144.79
146.41
147.825
149.024
150.036
150.899
151.657
152.367
153.078
153.841
154.73
155.796
157.066
158.534
160.153
161.858
163.591
165.297
166.926
168.421
169.694
170.661
171.246
171.385
171.012
170.061
168.456
166.13
163.055
159.251
154.771
149.695
144.111
138.103
131.764
125.209
118.559
111.935
105.453
99.211
93.32
87.904
83.079
78.952
75.596
73.033
71.269
70.295
70.073
70.57
71.738
73.497
75.787
78.557
81.753
85.329
89.233
93.385
97.735
102.262
106.949
111.806
116.842
122.054
127.471
133.129
139.059
145.305
151.871
158.719
165.817
173.115
180.54
188.031
195.473
202.693
209.543
215.878
221.555
226.461
230.462
233.396
235.135
235.568
234.619
232.283
228.571
223.518
217.227
209.828
201.513
192.556
183.204
173.687
164.252
155.112
146.498
138.688
131.918
126.395
122.314
119.8
118.944
119.808
122.368
126.541
132.185
139.071
146.967
155.657
164.894
174.441
184.05
193.406
202.209
210.197
217.108
222.735
226.927
229.525
230.415
229.593
227.136
223.204
218.051
211.858
204.723
196.944
188.996
181.407
174.809
169.588
165.793
163.722
163.97
166.715
171.764
178.592
186.105
193.807
202.131
211.079
220.19
229.527
239.598
251.615
267.905
289.851
317.157
349.639
387.288
429.229
473.675
517.414
555.469
583.355
598.306
597.807
579.374
541.702
485.221
412.58
328.712
239.219
148.977
62.868
-13.557
-75.333
-119.512
-145.385
-154.207
-148.474
-130.752
-103.828
-72.026
-40.191
-11.562
12.163
30.334
43.222
51.036
53.813
53.122
51.544
50.616
51.057
53.123
56.494
61.213
67.817
75.916
84.356
92.496
99.995
106.814
113.363
119.756
125.767
131.556
137.581
144.151
151.538
159.797
168.689
178.061
187.824
197.772
207.672
217.29
226.361
234.709
242.24
248.832
254.376
258.763
261.862
263.602
263.97
262.98
260.712
257.291
252.874
247.682
241.949
235.875
229.641
223.389
217.224
211.266
205.623
200.392
195.685
191.573
188.084
185.231
182.987
181.271
179.979
178.961
178.038
177.081
175.995
174.708
173.187
171.39
169.279
166.84
164.053
160.903
157.402
153.567
149.433
145.085
140.622
136.162
131.846
127.772
124.001
120.571
117.482
114.711
112.226
109.961
107.835
105.79
103.752
101.647
99.402
96.906
94.046
90.71
86.773
82.127
76.704
70.462
63.404
55.582
47.066
37.966
28.42
18.551
8.489
-1.641
-11.732
-21.665
-31.32
-40.584
-49.333
-57.435
-64.792
-71.331
-77.017
-81.861
-85.896
-89.186
-91.832
-93.937
-95.609
-96.944
-98.007
-98.851
-99.526
-100.087
-100.601
-101.147
-101.795
-102.595
-103.585
-104.782
-106.191
-107.791
-109.532
-111.334
-113.113
-114.806
-116.382
-117.834
-119.162
-120.353
-121.382
-122.223
-122.843
-123.218
-123.314
-123.082
-122.477
-121.486
-120.132
-118.481
-116.624
-114.624
-112.526
-110.36
-108.15
-105.939
-103.777
-101.699
-99.745
-97.959
-96.407
-95.193
-94.429
-94.179
-94.468
-95.265
-96.501
-98.129
-100.103
-102.369
-104.87
-107.526
-110.264
-113.039
-115.813
-118.539
-121.147
-123.524
-125.546
-127.136
-128.254
-128.905
-129.13
-128.959
-128.434
-127.623
-126.607
-125.487
-124.348
-123.24
-122.198
-121.264
-120.497
-119.983
-119.814
-120.053
-120.74
-121.893
-123.514
-125.606
-128.16
-131.137
-134.482
-138.131
-142.036
-146.173
-150.533
-155.102
-159.861
-164.78
-169.83
-174.992
-180.252
-185.595
-191.005
-196.465
-201.964
-207.507
-213.105
-218.774
-224.516
-230.324
-236.182
-242.074
-247.983
-253.888
-259.766
-265.59
-271.336
-276.986
-282.533
-287.972
-293.292
-298.476
-303.5
-308.336
-312.961
-317.348
-321.466
-325.284
-328.768
-331.886
-334.618
-336.941
-338.835
-340.278
-341.231
-341.659
-341.543
-340.881
-339.695
-338.018
-335.884
-333.327
-330.398
-327.164
-323.712
-320.151
-316.588
-313.134
-309.861
-306.861
-304.271
-302.139
-300.417
-298.922
-297.297
-295.165
-292.266
-288.414
-283.44
-277.463
-270.782
-263.89
-257.664
-252.99
-250.576
-250.779
-253.453
-257.727
-262.319
-265.724
-265.841
-260.442
-247.32
-224.715
-192.074
-150.124
-100.361
-44.889
13.083
69.71
120.486
160.663
186.83
196.811
189.067
163.324
120.991
64.641
-1.571
-72.196
-142.463
-207.899
-263.855
-307.203
-336.418
-351.01
-352.283
-342.978
-325.71
-303.634
-280.607
-259.227
-241.057
-227.122
-217.26
-210.653
-206.591
-203.807
-200.554
-195.904
-189.504
-181.277
-171.719
-161.38
-150.646
-140.158
-130.699
-122.699
-116.364
-111.736
-108.606
-106.814
-106.262
-106.755
-108.071
-110.013
-112.363
-114.928
-117.573
-120.136
-122.467
-124.449
-125.963
-126.929
-127.308
-127.082
-126.248
-124.831
-122.866
-120.397
-117.482
-114.195
-110.629
-106.906
-103.161
-99.526
-96.111
-92.998
-90.25
-87.906
-85.985
-84.473
-83.339
-82.526
-81.962
-81.592
-81.369
-81.231
-81.104
-80.887
-80.449
-79.665
-78.42
-76.613
-74.16
-71.005
-67.116
-62.506
-57.219
-51.323
-44.907
-38.039
-30.773
-23.183
-15.341
-7.342
0.683
8.604
16.282
23.561
30.297
36.371
41.687
46.187
49.847
52.65
54.607
55.714
55.959
55.34
53.85
51.497
48.327
44.395
39.778
34.584
28.915
22.869
16.548
10.043
3.441
-3.163
-9.677
-16.001
-22.007
-27.57
-32.559
-36.862
-40.394
-43.088
-44.882
-45.732
-45.603
-44.468
-42.324
-39.199
-35.126
-30.179
-24.455
-18.079
-11.216
-4.046
3.27
10.582
17.753
24.664
31.194
37.217
42.63
47.334
51.243
54.31
56.505
57.836
58.369
58.201
57.458
56.3
54.862
53.271
51.669
50.168
48.874
47.901
47.333
47.258
47.787
49
50.965
53.727
57.276
61.59
66.64
72.356
78.671
85.509
92.757
100.329
108.163
116.188
124.361
132.627
140.889
149.061
157.057
164.778
172.144
179.064
185.413
191.108
196.074
200.257
203.647
206.22
207.923
208.707
208.51
207.264
204.946
201.535
197.015
191.416
184.784
177.204
168.811
159.729
150.075
139.957
129.457
118.671
107.734
96.786
85.982
75.504
65.514
56.181
47.687
40.173
33.745
28.48
24.411
21.568
19.993
19.718
20.772
23.156
26.823
31.707
37.724
44.746
52.638
61.233
70.317
79.694
89.185
98.613
107.806
116.586
124.742
132.065
138.379
143.531
147.411
149.933
151.023
150.644
148.787
145.481
140.81
134.873
127.769
119.624
110.593
100.856
90.633
80.157
69.635
59.262
49.221
39.677
30.784
22.688
15.514
9.355
4.276
0.316
-2.508
-4.202
-4.814
-4.427
-3.141
-1.081
1.623
4.844
8.432
12.225
16.082
19.846
23.363
26.516
29.178
31.223
32.557
33.07
32.69
31.423
29.246
26.123
22.142
17.45
12.349
7.368
2.982
-0.446
-2.585
-3.248
-2.54
-0.668
1.812
3.86
4.473
2.767
-1.708
-8.652
-17.105
-25.949
-33.644
-37.705
-35.628
-25.011
-3.944
26.516
64.153
108.501
157.264
209.413
263.76
311.653
346.304
361.402
350.572
317.674
267.006
203.258
134.182
61.503
-12.79
-85.188
-153.903
-214.189
-261.735
-295.428
-315.113
-322.248
-319.246
-307.922
-290.295
-269.284
-247.685
-227.288
-209.032
-193.059
-179.031
-166.69
-155.636
-144.885
-133.341
-120.467
-106.213
-90.921
-75.148
-59.34
-43.913
-29.451
-16.595
-5.735
2.999
9.667
14.467
17.552
19.017
19.007
17.717
15.321
11.964
7.749
2.726
-3.023
-9.368
-16.191
-23.402
-30.947
-38.841
-47.11
-55.761
-64.803
-74.241
-84.078
-94.325
-104.983
-116.021
-127.381
-139.002
-150.826
-162.821
-174.951
-187.144
-199.289
-211.221
-222.757
-233.728
-243.97
-253.318
-261.615
-268.705
-274.446
-278.742
-281.537
-282.777
-282.411
-280.376
-276.603
-271.067
-263.795
-254.871
-244.42
-232.582
-219.515
-205.395
-190.415
-174.784
-158.716
-142.393
-125.974
-109.626
-93.514
-77.835
-62.811
-48.633
-35.463
-23.413
-12.55
-2.916
5.469
12.619
18.575
23.407
27.204
30.038
31.975
33.087
33.457
33.208
32.493
31.461
30.251
28.976
27.721
26.566
25.572
24.774
24.18
23.768
23.505
23.367
23.332
23.378
23.466
23.521
23.462
23.21
22.686
21.834
20.595
18.895
16.687
13.94
10.651
6.847
2.557
-2.197
-7.374
-12.919
-18.753
-24.755
-30.819
-36.852
-42.752
-48.438
-53.813
-58.751
-63.16
-66.968
-70.111
-72.555
-74.257
-75.162
-75.263
-74.586
-73.189
-71.182
-68.654
-65.683
-62.369
-58.792
-55.043
-51.233
-47.44
-43.719
-40.139
-36.751
-33.626
-30.848
-28.452
-26.435
-24.772
-23.391
-22.227
-21.22
-20.28
-19.331
-18.31
-17.146
-15.802
-14.257
-12.474
-10.418
-8.047
-5.3
-2.148
1.413
5.383
9.73
14.417
19.402
24.621
30.011
35.531
41.143
46.824
52.566
58.346
64.143
69.938
75.697
81.394
87.009
92.518
97.908
103.174
108.311
113.328
118.231
123.017
127.679
132.201
136.564
140.751
144.743
148.518
152.057
155.343
158.36
161.099
163.545
165.686
167.507
168.994
170.131
170.909
171.319
171.353
171.006
170.273
169.153
167.647
165.759
163.492
160.849
157.835
154.457
150.725
146.651
142.245
137.516
132.473
127.128
121.502
115.618
109.499
103.174
96.671
90.024
83.276
76.467
69.635
62.81
56.02
49.296
42.682
36.221
29.965
23.951
18.202
12.742
7.592
2.765
-1.741
-5.945
-9.889
-13.605
-17.112
-20.428
-23.569
-26.571
-29.487
-32.376
-35.29
-38.268
-41.327
-44.482
-47.73
-51.045
-54.368
-57.612
-60.68
-63.48
-65.919
-67.877
-69.202
-69.711
-69.217
-67.499
-64.281
-59.373
-52.726
-44.449
-34.875
-24.394
-13.304
-1.95
9.226
20.047
30.756
42.024
55.049
71.068
90.798
114.71
143.194
175.878
211.328
247.205
280.072
306.095
322.271
326.016
314.875
287.842
245.683
190.536
126.302
57.974
-9.989
-73.063
-126.374
-166.688
-192.525
-203.612
-201.491
-188.888
-168.378
-143.14
-117.054
-92.754
-71.79
-55.102
-42.457
-33.084
-26.356
-21.118
-15.79
-9.556
-2.111
6.573
15.965
25.498
34.758
43.11
49.849
54.606
57.206
57.667
56.234
53.112
48.472
42.555
35.612
27.867
19.535
10.779
1.721
-7.496
-16.73
-25.846
-34.727
-43.298
-51.506
-59.337
-66.798
-73.901
-80.679
-87.166
-93.397
-99.417
-105.265
-110.958
-116.507
-121.911
-127.147
-132.194
-137.005
-141.51
-145.639
-149.293
-152.378
-154.817
-156.524
-157.43
-157.483
-156.629
-154.836
-152.103
-148.443
-143.89
-138.508
-132.365
-125.557
-118.203
-110.41
-102.298
-93.972
-85.512
-76.998
-68.492
-60.026
-51.631
-43.318
-35.068
-26.859
-18.652
-10.377
-1.974
6.632
15.527
24.772
34.431
44.544
55.114
66.131
77.559
89.317
101.315
113.446
125.568
137.545
149.227
160.437
171.025
180.849
189.765
197.66
204.414
209.936
214.179
217.125
218.795
219.259
218.603
216.939
214.425
211.215
207.478
203.412
199.17
194.897
190.737
186.814
183.262
180.206
177.725
175.873
174.676
174.116
174.158
174.747
175.779
177.152
178.753
180.448
182.138
183.741
185.175
186.368
187.239
187.701
187.687
187.152
186.06
184.405
182.201
179.469
176.266
172.655
168.706
164.508
160.134
155.635
151.054
146.429
141.806
137.249
132.831
128.609
124.637
120.952
117.573
114.515
111.775
109.32
107.103
105.053
103.094
101.175
99.266
97.328
95.314
93.153
90.749
88.018
84.882
81.262
77.083
72.289
66.843
60.759
54.094
46.925
39.353
31.461
23.311
14.99
6.6
-1.735
-9.868
-17.653
-24.952
-31.603
-37.429
-42.284
-46.06
-48.702
-50.221
-50.641
-50.003
-48.35
-45.714
-42.151
-37.743
-32.578
-26.759
-20.398
-13.602
-6.507
0.718
7.945
15.085
22.092
28.984
35.782
42.49
49.119
55.667
62.134
68.532
74.864
81.121
87.305
93.402
99.408
105.343
111.184
116.871
122.307
127.342
131.825
135.635
138.665
140.825
142.05
142.279
141.469
139.607
136.68
132.691
127.659
121.604
114.568
106.637
97.926
88.6
78.848
68.84
58.726
48.637
38.677
28.937
19.505
10.446
1.813
-6.337
-13.972
-21.073
-27.617
-33.605
-39.074
-44.093
-48.787
-53.304
-57.762
-62.261
-66.876
-71.642
-76.613
-81.854
-87.415
-93.358
-99.717
-106.451
-113.568
-121.107
-128.981
-137.007
-144.821
-151.836
-157.547
-161.613
-163.749
-163.761
-161.698
-157.75
-152.459
-146.77
-141.573
-137.638
-135.355
-134.623
-134.857
-135.07
-133.785
-129.142
-119.319
-102.153
-75.914
-39.936
5.673
58.387
113.508
167.136
216.227
260.539
302.653
340.798
368.624
375.749
349.063
284.004
185.919
66.647
-54.363
-160.157
-241.343
-291.526
-313.604
-316.593
-306.329
-289.845
-270.553
-246.164
-217.776
-187.429
-157.151
-130.981
-110.74
-96.004
-85.979
-79.209
-73.929
-68.768
-63.013
-56.366
-49.033
-41.626
-34.704
-28.768
-24.492
-22.532
-23.223
-26.657
-32.669
-40.865
-50.875
-62.363
-74.945
-88.219
-101.83
-115.445
-128.782
-141.642
-153.841
-165.193
-175.536
-184.702
-192.526
-198.889
-203.714
-206.968
-208.677
-208.88
-207.638
-205.034
-201.162
-196.13
-190.044
-182.983
-175.006
-166.175
-156.563
-146.275
-135.447
-124.213
-112.713
-101.061
-89.343
-77.649
-66.063
-54.659
-43.513
-32.681
-22.216
-12.19
-2.686
6.222
14.472
22.044
28.949
35.22
40.91
46.074
50.755
55.015
58.92
62.536
65.941
69.195
72.345
75.453
78.587
81.802
85.149
88.653
92.31
96.108
100.008
103.965
107.932
111.848
115.654
119.297
122.713
125.854
128.692
131.189
133.318
135.07
136.426
137.384
137.961
138.173
138.061
137.692
137.125
136.422
135.639
134.804
133.948
133.09
132.222
131.331
130.385
129.318
128.089
126.658
124.965
122.956
120.55
117.625
114.087
109.846
104.82
98.972
92.276
84.715
76.321
67.144
57.264
46.804
35.864
24.537
12.94
1.191
-10.567
-22.146
-33.384
-44.139
-54.262
-63.645
-72.199
-79.839
-86.536
-92.288
-97.116
-101.08
-104.236
-106.624
-108.316
-109.389
-109.937
-110.095
-109.973
-109.663
-109.271
-108.877
-108.552
-108.362
-108.342
-108.499
-108.837
-109.336
-109.978
-110.754
-111.638
-112.597
-113.591
-114.563
-115.469
-116.281
-116.963
-117.49
-117.844
-118.003
-117.964
-117.736
-117.325
-116.741
-115.999
-115.104
-114.067
-112.907
-111.639
-110.284
-108.856
-107.361
-105.803
-104.185
-102.509
-100.773
-98.974
-97.101
-95.148
-93.112
-90.986
-88.769
-86.454
-84.031
-81.494
-78.834
-76.044
-73.119
-70.054
-66.848
-63.5
-60.017
-56.403
-52.667
-48.814
-44.847
-40.768
-36.583
-32.3
-27.927
-23.476
-18.965
-14.415
-9.858
-5.326
-0.843
3.571
7.902
12.145
16.295
20.348
24.306
28.162
31.91
35.542
39.045
42.41
45.648
48.777
51.834
54.866
57.902
60.97
64.093
67.277
70.519
73.803
77.088
80.352
83.584
86.777
89.944
93.089
96.188
99.208
102.1
104.797
107.242
109.376
111.125
112.443
113.299
113.69
113.653
113.208
112.36
111.104
109.412
107.26
104.662
101.649
98.269
94.609
90.736
86.716
82.677
78.759
75.103
71.87
69.119
66.816
65.117
64.327
64.748
66.765
70.547
75.912
82.97
92.115
103.213
115.865
129.471
142.84
155.469
167.813
179.725
190.749
201.376
212.151
223.996
239.422
259.786
284.608
314.351
347.994
381.593
413.777
443.418
468.98
493.609
514.626
522.654
509.432
465.588
392.014
301.482
206.866
120.944
49.404
-9.647
-56.487
-91.757
-115.192
-124.895
-122.33
-110.321
-91.741
-70.782
-50.87
-33.896
-21.167
-13.017
-8.818
-7.878
-9.333
-11.811
-14.032
-15.321
-15.416
-14.442
-12.828
-10.925
-9.037
-7.625
-7.116
-7.662
-9.231
-11.626
-14.537
-17.732
-21.021
-24.172
-26.953
-29.168
-30.68
-31.457
-31.534
-30.947
-29.762
-28.063
-25.977
-23.704
-21.434
-19.331
-17.553
-16.232
-15.516
-15.58
-16.581
-18.651
-21.89
-26.327
-31.961
-38.773
-46.691
-55.609
-65.374
-75.775
-86.619
-97.74
-108.969
-120.144
-131.082
-141.553
-151.343
-160.269
-168.155
-174.882
-180.364
-184.529
-187.355
-188.858
-189.089
-188.138
-186.087
-182.998
-178.933
-173.964
-168.191
-161.759
-154.823
-147.527
-140.027
-132.447
-124.892
-117.47
-110.26
-103.325
-96.704
-90.424
-84.509
-79.001
-73.966
-69.466
-65.548
-62.236
-59.544
-57.485
-56.071
-55.329
-55.279
-55.93
-57.291
-59.368
-62.186
-65.778
-70.18
-75.421
-81.496
-88.387
-96.073
-104.529
-113.708
-123.542
-133.939
-144.779
-155.958
-167.38
-178.947
-190.573
-202.141
-213.517
-224.555
-235.093
-244.974
-254.05
-262.167
-269.184
-275.003
-279.562
-282.838
-284.845
-285.585
-285.065
-283.299
-280.296
-276.083
-270.702
-264.216
-256.716
-248.324
-239.178
-229.427
-219.236
-208.736
-198.035
-187.225
-176.373
-165.548
-154.823
-144.262
-133.938
-123.937
-114.353
-105.264
-96.732
-88.787
-81.437
-74.689
-68.527
-62.937
-57.916
-53.444
-49.511
-46.115
-43.249
-40.908
-39.083
-37.739
-36.821
-36.293
-36.118
-36.271
-36.74
-37.484
-38.469
-39.674
-41.074
-42.657
-44.411
-46.303
-48.29
-50.331
-52.373
-54.372
-56.288
-58.047
-59.569
-60.772
-61.576
-61.934
-61.815
-61.172
-59.968
-58.166
-55.735
-52.67
-48.983
-44.685
-39.793
-34.345
-28.393
-22.025
-15.355
-8.487
-1.525
5.445
12.346
19.1
25.631
31.881
37.812
43.4
48.635
53.504
57.995
62.121
65.92
69.45
72.781
75.973
79.08
82.158
85.276
88.495
91.867
95.427
99.178
103.11
107.205
111.436
115.758
120.099
124.353
128.402
132.147
135.508
138.412
140.78
142.502
143.481
143.635
142.89
141.209
138.561
134.927
130.321
124.806
118.493
111.539
104.13
96.408
88.497
80.51
72.563
64.801
57.36
50.359
43.909
38.106
33.047
28.819
25.464
22.956
21.201
20.033
19.255
18.709
18.274
17.856
17.346
16.597
15.47
13.827
11.587
8.741
5.222
0.923
-4.133
-9.832
-15.829
-21.501
-26.41
-30.385
-33.275
-35.02
-35.602
-34.874
-33.188
-31.488
-30.316
-29.876
-30.021
-29.994
-29.241
-27.646
-24.366
-17.769
-6.525
10.618
34.126
63.068
96.631
134.379
174.839
215.417
253.016
283.82
304.575
313.621
309.397
290.14
255.269
205.751
144.001
74.082
0.459
-73.174
-142.993
-204.668
-254.602
-290.652
-312.205
-320.369
-317.21
-304.803
-285.645
-263.007
-240.027
-218.915
-200.942
-186.374
-174.82
-165.802
-158.603
-152.035
-144.893
-136.52
-126.755
-115.854
-104.354
-92.767
-81.597
-71.47
-62.988
-56.464
-51.965
-49.386
-48.485
-49.05
-50.902
-53.794
-57.454
-61.648
-66.165
-70.833
-75.514
-80.026
-84.168
-87.785
-90.76
-93.027
-94.57
-95.377
-95.449
-94.819
-93.535
-91.663
-89.282
-86.464
-83.281
-79.811
-76.132
-72.339
-68.536
-64.794
-61.163
-57.673
-54.335
-51.154
-48.132
-45.254
-42.494
-39.824
-37.216
-34.648
-32.102
-29.553
-26.973
-24.33
-21.591
-18.733
-15.743
-12.615
-9.344
-5.933
-2.382
1.298
5.093
8.992
12.986
17.065
21.222
25.448
29.729
34.051
38.4
42.762
47.123
51.469
55.786
60.062
64.283
68.44
72.521
76.517
80.416
84.205
87.87
91.396
94.771
97.978
101.006
103.839
106.464
108.871
111.049
112.994
114.698
116.155
117.357
118.293
118.957
119.348
119.469
119.321
118.91
118.247
117.349
116.243
114.956
113.508
111.91
110.167
108.285
106.272
104.137
101.888
99.525
97.041
94.438
91.72
88.893
85.951
82.872
79.62
76.165
72.497
68.625
64.573
60.364
56.028
51.603
47.142
42.719
38.399
34.235
30.265
26.528
23.074
19.975
17.315
15.165
13.568
12.545
12.103
12.245
12.958
14.208
15.935
18.055
20.496
23.206
26.146
29.279
32.555
35.907
39.261
42.561
45.763
48.836
51.755
54.495
57.046
59.418
61.643
63.768
65.825
67.83
69.787
71.702
73.582
75.442
77.296
79.143
80.984
82.816
84.639
86.454
88.254
90.022
91.732
93.352
94.863
96.251
97.507
98.624
99.596
100.417
101.083
101.598
101.962
102.172
102.225
102.117
101.844
101.411
100.821
100.077
99.181
98.136
96.942
95.599
94.107
92.463
90.665
88.71
86.601
84.341
81.928
79.363
76.641
73.756
70.701
67.466
64.033
60.388
56.514
52.398
48.036
43.425
38.57
33.473
28.138
22.571
16.791
10.826
4.712
-1.509
-7.789
-14.073
-20.285
-26.344
-32.171
-37.692
-42.842
-47.577
-51.867
-55.686
-59.017
-61.856
-64.218
-66.143
-67.688
-68.924
-69.925
-70.783
-71.617
-72.573
-73.801
-75.452
-77.677
-80.587
-84.267
-88.782
-94.146
-100.364
-107.438
-115.337
-124.007
-133.375
-143.281
-153.573
-164.138
-174.724
-184.968
-194.389
-202.26
-207.939
-211.136
-211.626
-209.211
-203.993
-196.161
-186.242
-175.53
-165.265
-155.953
-147.707
-140.193
-132.594
-124.161
-113.626
-98.566
-76.46
-45.692
-5.705
42.823
98.382
159.241
222.61
284.153
338.805
381.79
409.597
420.186
412.272
385.31
340.44
280.714
210.787
136.072
61.351
-9.305
-71.796
-122.534
-159.432
-181.977
-191.286
-189.413
-178.261
-159.723
-136.269
-110.585
-84.707
-60.024
-37.231
-16.811
0.399
13.624
22.53
27.339
28.332
25.824
20.228
12.31
3.398
-5.231
-12.52
-17.867
-21.024
-21.906
-20.653
-17.764
-14.123
-10.466
-7.36
-5.115
-3.711
-3.089
-3.134
-3.574
-4.036
-4.265
-4.109
-3.526
-2.618
-1.461
-0.104
1.377
2.922
4.492
6.065
7.637
9.206
10.764
12.291
13.77
15.179
16.502
17.713
18.801
19.762
20.582
21.24
21.693
21.871
21.71
21.158
20.177
18.761
16.908
14.625
11.944
8.908
5.581
2.048
-1.631
-5.404
-9.202
-12.952
-16.548
-19.856
-22.758
-25.154
-26.954
-28.102
-28.554
-28.28
-27.294
-25.639
-23.385
-20.628
-17.433
-13.862
-9.994
-5.924
-1.78
2.295
6.184
9.784
12.995
15.732
17.912
19.463
20.36
20.602
20.205
19.194
17.563
15.32
12.498
9.153
5.377
1.256
-3.152
-7.794
-12.614
-17.541
-22.482
-27.352
-32.078
-36.586
-40.793
-44.597
-47.866
-50.494
-52.408
-53.563
-53.947
-53.524
-52.241
-50.042
-46.869
-42.696
-37.532
-31.392
-24.315
-16.375
-7.672
1.645
11.392
21.416
31.586
41.793
51.954
61.953
71.649
80.893
89.512
97.354
104.289
110.19
114.969
118.573
120.982
122.221
122.351
121.407
119.409
116.36
112.247
107.098
100.973
93.957
86.176
77.761
68.846
59.582
50.104
40.528
30.961
21.476
12.134
3.024
-5.753
-14.068
-21.782
-28.792
-35.028
-40.448
-45.043
-48.824
-51.815
-54.075
-55.663
-56.643
-57.075
-57.006
-56.489
-55.599
-54.431
-53.108
-51.758
-50.477
-49.345
-48.421
-47.747
-47.356
-47.262
-47.456
-47.917
-48.624
-49.56
-50.713
-52.067
-53.587
-55.228
-56.926
-58.626
-60.289
-61.885
-63.394
-64.803
-66.1
-67.289
-68.384
-69.404
-70.366
-71.28
-72.154
-72.999
-73.831
-74.669
-75.539
-76.459
-77.44
-78.489
-79.611
-80.807
-82.075
-83.408
-84.79
-86.208
-87.649
-89.1
-90.548
-91.982
-93.387
-94.75
-96.057
-97.291
-98.437
-99.478
-100.398
-101.183
-101.818
-102.287
-102.58
-102.685
-102.6
-102.322
-101.848
-101.167
-100.267
-99.129
-97.737
-96.077
-94.131
-91.882
-89.306
-86.385
-83.108
-79.47
-75.465
-71.085
-66.31
-61.122
-55.521
-49.516
-43.14
-36.445
-29.479
-22.302
-14.982
-7.568
-0.146
7.182
14.32
21.156
27.619
33.708
39.36
44.477
49.074
53.195
57.084
61.225
65.876
71.081
76.9
83.302
90.243
97.822
105.62
112.64
118.33
122.475
125.206
127.271
129.218
131.171
134.051
139.67
149.503
164.928
186.618
213.825
245.98
282.962
323.405
364.585
403.502
436.403
459.551
470.982
468.774
450.239
415.832
367.827
307.314
238.297
163.222
83.041
6.017
-60.203
-108.502
-132.185
-135.349
-123.496
-102.118
-78.166
-52.08
-25.049
0.649
25.04
45.939
62.186
74.874
84.557
92.642
101.155
110.843
121.935
134.548
148.16
162.186
176.2
189.561
201.569
211.914
220.523
227.462
233.019
237.452
240.952
243.775
246.175
248.35
250.472
252.662
254.998
257.578
260.496
263.822
267.589
271.801
276.421
281.395
286.646
292.057
297.513
302.9
308.121
313.084
317.696
321.861
325.491
328.516
330.895
332.607
333.639
333.986
333.662
332.692
331.137
329.09
326.635
323.851
320.823
317.641
314.42
311.297
308.383
305.753
303.459
301.532
300.017
298.968
298.417
298.394
298.901
299.931
301.5
303.617
306.254
309.353
312.806
316.469
320.235
324.019
327.748
331.355
334.75
337.826
340.49
342.655
344.226
345.096
345.121
344.165
342.148
339.036
334.851
329.65
323.468
316.326
308.257
299.298
289.505
278.957
267.721
255.866
243.484
230.689
217.624
204.434
191.209
177.987
164.761
151.501
138.191
124.829
111.418
97.957
84.444
70.875
57.255
43.598
29.911
16.196
2.448
-11.326
-25.073
-38.677
-51.974
-64.776
-76.905
-88.216
-98.596
-107.942
-116.166
-123.196
-128.979
-133.482
-136.697
-138.623
-139.257
-138.626
-136.8
-133.918
-130.185
-125.839
-121.114
-116.198
-111.225
-106.314
-101.573
-97.085
-92.912
-89.083
-85.592
-82.442
-79.663
-77.268
-75.241
-73.506
-71.92
-70.32
-68.56
-66.555
-64.275
-61.713
-58.877
-55.805
-52.571
-49.294
-46.137
-43.226
-40.647
-38.485
-36.838
-35.852
-35.725
-36.649
-38.769
-42.175
-46.896
-52.935
-60.269
-68.828
-78.492
-89.086
-100.392
-112.223
-124.418
-136.804
-149.193
-161.346
-172.981
-183.836
-193.691
-202.37
-209.738
-215.683
-220.118
-223.009
-224.36
-224.218
-222.649
-219.706
-215.446
-209.962
-203.375
-195.86
-187.627
-178.879
-169.81
-160.595
-151.393
-142.354
-133.613
-125.276
-117.44
-110.195
-103.642
-97.891
-93.028
-89.106
-86.142
-84.116
-82.985
-82.697
-83.188
-84.39
-86.238
-88.666
-91.622
-95.056
-98.909
-103.105
-107.543
-112.11
-116.719
-121.302
-125.815
-130.232
-134.539
-138.728
-142.807
-146.792
-150.698
-154.534
-158.293
-161.959
-165.518
-168.97
-172.338
-175.647
-178.912
-182.134
-185.296
-188.374
-191.339
-194.163
-196.814
-199.252
-201.435
-203.345
-204.981
-206.377
-207.605
-208.717
-209.753
-210.741
-211.682
-212.6
-213.563
-214.639
-215.915
-217.471
-219.299
-221.423
-223.925
-226.757
-229.79
-232.762
-235.11
-236.318
-236.189
-234.561
-231.364
-226.836
-221.084
-214.438
-207.929
-202.503
-198.629
-196.538
-195.781
-195.285
-194.46
-192.451
-187.339
-177.21
-160.333
-135.359
-102.539
-63.218
-18.242
30.909
81.236
129.173
170.25
199.913
215.567
215.676
198.318
162.616
109.451
41.052
-38.18
-122.867
-208.829
-291.971
-367.419
-430.885
-479.12
-510.2
-524.44
-523.404
-508.372
-481.457
-446.004
-405.749
-364.601
-325.987
-292.169
-264.618
-244.736
-233.099
-229.244
-231.947
-239.297
-249.22
-259.855
-269.797
-277.855
-283.261
-285.814
-285.744
-283.708
-280.625
-277.522
-275.088
-273.713
-273.573
-274.553
-276.431
-278.906
-281.518
-283.696
-285.031
-285.285
-284.335
-282.23
-279.05
-274.858
-269.793
-264.033
-257.728
-251.034
-244.093
-236.987
-229.801
-222.637
-215.578
-208.736
-202.237
-196.173
-190.623
-185.641
-181.23
-177.369
-174.013
-171.082
-168.494
-166.156
-163.959
-161.822
-159.684
-157.476
-155.148
-152.635
-149.846
-146.704
-143.136
-139.07
-134.482
-129.372
-123.761
-117.705
-111.267
-104.523
-97.565
-90.471
-83.296
-76.095
-68.903
-61.759
-54.727
-47.867
-41.243
-34.928
-28.973
-23.412
-18.269
-13.546
-9.232
-5.304
-1.723
1.543
4.51
7.186
9.561
11.627
13.383
14.827
15.959
16.789
17.324
17.568
17.531
17.212
16.607
15.704
14.481
12.921
11.009
8.74
6.122
3.169
-0.099
-3.653
-7.461
-11.492
-15.708
-20.081
-24.586
-29.203
-33.917
-38.717
-43.581
-48.481
-53.382
-58.245
-63.042
-67.753
-72.365
-76.879
-81.298
-85.629
-89.897
-94.12
-98.304
-102.44
-106.495
-110.415
-114.152
-117.671
-120.949
-123.969
-126.703
-129.116
-131.165
-132.801
-133.982
-134.655
-134.748
-134.19
-132.92
-130.91
-128.174
-124.763
-120.736
-116.146
-111.041
-105.478
-99.523
-93.264
-86.799
-80.216
-73.593
-67.022
-60.607
-54.468
-48.719
-43.444
-38.682
-34.438
-30.701
-27.463
-24.713
-22.422
-20.546
-19.018
-17.759
-16.713
-15.834
-15.067
-14.352
-13.611
-12.758
-11.733
-10.502
-9.048
-7.364
-5.442
-3.272
-0.863
1.764
4.572
7.512
10.556
13.689
16.886
20.125
23.368
26.568
29.695
32.733
35.672
38.506
41.225
43.819
46.293
48.657
50.934
53.157
55.352
57.54
59.754
62.025
64.392
66.905
69.594
72.473
75.557
78.847
82.344
86.043
89.919
93.938
98.058
102.218
106.35
110.381
114.214
117.756
120.915
123.587
125.696
127.178
127.971
128.036
127.343
125.877
123.652
120.693
117.039
112.758
107.935
102.681
97.136
91.432
85.693
80.051
74.622
69.511
64.824
60.647
57.037
54.038
51.67
49.934
48.813
48.255
48.168
48.42
48.863
49.351
49.747
49.918
49.732
49.071
47.827
45.932
43.37
40.147
36.294
31.863
26.923
21.612
16.154
10.823
5.909
1.718
-1.449
-3.231
-3.176
-0.96
3.562
10.41
19.393
30.255
42.828
56.8
71.63
87.087
103.383
120.885
140.303
162.681
188.745
218.932
254.01
292.731
331.49
368.701
402.743
432.712
461.594
485.582
496.419
488.885
454.295
392.408
312.272
219.25
125.602
43.752
-20.855
-59.312
-72.06
-68.156
-53.406
-36.926
-22.868
-8.118
6.767
21.593
35.83
45.946
50.986
51.972
49.618
45.619
41.817
38.796
36.836
36.157
36.358
36.966
37.701
38.079
37.556
35.973
33.316
29.668
25.359
20.673
15.802
10.995
6.437
2.236
-1.503
-4.732
-7.45
-9.641
-11.316
-12.515
-13.276
-13.666
-13.776
-13.696
-13.553
-13.483
-13.581
-13.923
-14.536
-15.4
-16.508
-17.855
-19.424
-21.197
-23.119
-25.107
-27.075
-28.934
-30.588
-31.931
-32.829
-33.136
-32.748
-31.595
-29.652
-26.939
-23.471
-19.251
-14.292
-8.609
-2.254
4.68
12.095
19.892
27.969
36.209
44.467
52.579
60.415
67.872
74.885
81.423
87.439
92.879
97.692
101.826
105.261
108.015
110.116
111.591
112.48
112.833
112.729
112.272
111.545
110.603
109.484
108.203
106.794
105.299
103.76
102.224
100.717
99.248
97.823
96.45
95.124
93.834
92.549
91.22
89.811
88.309
86.711
85.025
83.25
81.381
79.416
77.353
75.196
72.952
70.626
68.221
65.746
63.217
60.657
58.099
55.567
53.074
50.631
48.241
45.91
43.644
41.444
39.308
37.235
35.225
33.28
31.403
29.594
27.85
26.166
24.535
22.952
21.414
19.916
18.457
17.036
15.651
14.303
12.996
11.732
10.513
9.338
8.21
7.13
6.101
5.125
4.205
3.346
2.551
1.826
1.177
0.609
0.128
-0.26
-0.551
-0.739
-0.819
-0.785
-0.632
-0.355
0.053
0.596
1.281
2.114
3.098
4.239
5.54
7.002
8.628
10.416
12.365
14.474
16.74
19.164
21.743
24.476
27.36
30.394
33.573
36.896
40.355
43.944
47.65
51.466
55.383
59.394
63.495
67.678
71.932
76.243
80.601
84.987
89.382
93.757
98.079
102.318
106.456
110.477
114.377
118.15
121.787
125.286
128.643
131.856
134.927
137.854
140.63
143.261
145.759
148.153
150.486
152.788
155.064
157.313
159.517
161.65
163.687
165.59
167.305
168.787
169.997
170.903
171.49
171.727
171.572
170.968
169.843
168.146
165.859
162.977
159.509
155.485
150.938
145.924
140.529
134.829
128.882
122.738
116.434
110.019
103.568
97.172
90.925
84.909
79.177
73.769
68.727
64.075
59.829
55.991
52.527
49.406
46.627
44.191
42.097
40.327
38.811
37.46
36.194
34.952
33.698
32.396
30.986
29.406
27.596
25.495
23.102
20.385
17.25
13.711
9.872
5.951
2.39
-0.387
-2.074
-2.275
-0.691
2.596
7.302
12.795
18.033
22.23
24.683
24.463
21.209
15.367
7.933
0.735
-3.91
-4.114
2.149
17.377
43.111
79.642
126.111
179.984
237.898
296.543
351.584
397.428
429.226
442.987
436.929
412.634
370.793
311.818
236.274
143.657
40.52
-61.428
-150.691
-214.491
-250.206
-265.2
-266.442
-263.067
-259.27
-252.234
-242.063
-229.675
-216.459
-206.035
-199.779
-197.02
-196.915
-198.091
-198.997
-198.462
-195.882
-191.035
-184.169
-175.912
-166.815
-157.351
-148.168
-139.938
-133.086
-127.877
-124.38
-122.469
-122.059
-123.08
-125.392
-128.838
-133.266
-138.517
-144.464
-151.024
-158.104
-165.609
-173.446
-181.486
-189.597
-197.657
-205.532
-213.104
-220.276
-226.964
-233.109
-238.678
-243.636
-247.955
-251.614
-254.565
-256.768
-258.178
-258.743
-258.442
-257.28
-255.27
-252.453
-248.882
-244.597
-239.649
-234.082
-227.929
-221.237
-214.06
-206.455
-198.507
-190.294
-181.891
-173.389
-164.856
-156.34
-147.884
-139.507
-131.214
-123.018
-114.921
-106.923
-99.034
-91.252
-83.567
-75.967
-68.425
-60.916
-53.425
-45.929
-38.415
-30.884
-23.337
-15.789
-8.267
-0.795
6.6
13.89
21.05
28.054
34.873
41.481
47.847
53.943
59.747
65.235
70.383
75.178
79.61
83.675
87.378
90.728
93.741
96.442
98.858
101.008
102.908
104.569
105.992
107.181
108.137
108.855
109.342
109.601
109.635
109.459
109.08
108.493
107.681
106.607
105.23
103.532
101.506
99.154
96.496
93.563
90.402
87.09
83.693
80.26
76.833
73.432
70.077
66.816
63.715
60.855
58.322
56.171
54.446
53.198
52.457
52.225
52.463
53.073
53.972
55.112
56.461
58.01
59.741
61.595
63.51
65.426
67.283
69.044
70.668
72.089
73.249
74.128
74.761
75.234
75.624
75.958
76.241
76.478
76.701
76.974
77.357
77.878
78.557
79.408
80.461
81.774
83.403
85.371
87.656
90.207
92.99
96.008
99.279
102.801
106.532
110.402
114.356
118.374
122.44
126.539
130.634
134.671
138.602
142.403
146.069
149.595
152.964
156.131
159.051
161.703
164.093
166.247
168.177
169.878
171.338
172.556
173.537
174.294
174.827
175.126
175.178
174.979
174.533
173.857
172.967
171.866
170.55
169.007
167.232
165.228
162.999
160.548
157.877
154.989
151.897
148.619
145.174
141.579
137.844
133.982
130.004
125.927
121.769
117.549
113.286
108.995
104.692
100.389
96.102
91.848
87.644
83.507
79.453
75.504
71.686
68.034
64.578
61.349
58.374
55.675
53.281
51.223
49.531
48.238
47.364
46.916
46.897
47.303
48.112
49.291
50.785
52.508
54.379
56.313
58.227
60.039
61.656
62.981
63.924
64.402
64.362
63.781
62.652
60.987
58.831
56.239
53.323
50.259
47.243
44.5
42.274
40.792
40.333
41.248
43.808
48.141
54.202
61.704
70.319
79.82
89.905
100.137
110.262
120.382
131.057
143.41
158.602
177.3
199.95
226.949
258.078
292.078
326.607
358.173
382.917
397.731
399.997
387.105
357.37
310.915
249.628
177.201
98.434
17.682
-60.958
-132.61
-192.732
-238.456
-268.499
-283.376
-285.067
-275.363
-256.007
-230.274
-202.03
-174.375
-149.806
-129.6
-113.838
-102.949
-97.575
-96.969
-99.577
-103.852
-108.048
-111.231
-113.322
-113.86
-112.139
-108.191
-102.498
-95.859
-89.51
-84.12
-79.794
-76.791
-75.41
-75.764
-77.855
-81.396
-85.802
-90.754
-96.181
-102.035
-108.335
-115.055
-122.123
-129.544
-137.39
-145.678
-154.351
-163.317
-172.432
-181.58
-190.707
-199.769
-208.72
-217.504
-226.049
-234.265
-242.063
-249.346
-255.985
-261.875
-266.935
-271.109
-274.395
-276.805
-278.365
-279.119
-279.102
-278.343
-276.885
-274.768
-272.026
-268.727
-264.947
-260.787
-256.39
-251.874
-247.327
-242.824
-238.407
-234.105
-229.946
-225.935
-222.067
-218.343
-214.758
-211.317
-208.037
-204.911
-201.926
-199.052
-196.232
-193.429
-190.623
-187.801
-184.963
-182.115
-179.266
-176.439
-173.668
-170.983
-168.413
-165.977
-163.69
-161.571
-159.647
-157.944
-156.496
-155.328
-154.458
-153.9
-153.664
-153.754
-154.172
-154.912
-155.959
-157.301
-158.924
-160.815
-162.961
-165.347
-167.952
-170.756
-173.738
-176.873
-180.141
-183.517
-186.978
-190.5
-194.057
-197.626
-201.184
-204.707
-208.171
-211.547
-214.808
-217.929
-220.884
-223.648
-226.197
-228.507
-230.554
-232.317
-233.775
-234.914
-235.714
-236.155
-236.219
-235.889
-235.153
-234.01
-232.456
-230.488
-228.104
-225.305
-222.095
-218.486
-214.483
-210.081
-205.279
-200.073
-194.473
-188.498
-182.164
-175.493
-168.497
-161.178
-153.548
-145.627
-137.428
-128.961
-120.234
-111.243
-102.013
-92.595
-83.033
-73.377
-63.662
-53.907
-44.138
-34.387
-24.688
-15.082
-5.602
3.733
12.887
21.816
30.474
38.805
46.787
54.439
61.768
68.783
75.485
81.858
87.898
93.614
99.006
104.077
108.823
113.234
117.316
121.092
124.583
127.82
130.809
133.527
135.961
138.104
139.951
141.511
142.785
143.763
144.452
144.863
145.011
144.917
144.589
144.025
143.225
142.189
140.926
139.457
137.801
135.971
133.983
131.848
129.585
127.215
124.754
122.207
119.579
116.879
114.12
111.32
108.497
105.66
102.82
99.988
97.173
94.388
91.639
88.925
86.243
83.589
80.965
78.383
75.853
73.378
70.964
68.616
66.342
64.173
62.139
60.263
58.573
57.095
55.865
54.93
54.338
54.118
54.285
54.828
55.727
56.975
58.552
60.446
62.615
64.96
67.376
69.74
71.919
73.8
75.216
75.955
75.93
75.171
73.837
72.262
70.704
69.312
68.37
68.109
68.465
69.143
69.476
68.589
66.007
61.533
54.879
46.028
35.519
24.483
14.852
8.683
7.343
11.878
23.536
43.375
71.825
108.417
151.358
198.572
248.549
299.538
348.782
392.929
428.555
452.548
463.148
458.958
438.122
399.959
345.798
278.456
202.059
121.676
41.712
-33.258
-97.82
-148.129
-182.408
-200.313
-203.353
-194.431
-176.34
-152.585
-127.711
-104.926
-86.133
-72.528
-63.935
-59.447
-58.271
-58.98
-59.564
-58.931
-56.613
-52.422
-46.861
-40.496
-33.729
-27.277
-21.953
-18.146
-16.015
-15.527
-16.386
-18.389
-21.387
-25.116
-29.323
-33.785
-38.285
-42.701
-46.947
-50.891
-54.408
-57.379
-59.694
-61.318
-62.241
-62.456
-61.979
-60.83
-59.039
-56.674
-53.8
-50.481
-46.795
-42.797
-38.547
-34.128
-29.604
-25.027
-20.445
-15.872
-11.314
-6.794
-2.316
2.118
6.51
10.886
15.265
19.654
24.064
28.498
32.955
37.449
41.977
46.514
51.033
55.506
59.906
64.245
68.529
72.755
76.926
81.031
85.068
89.052
92.99
96.884
100.746
104.58
108.412
112.302
116.297
120.43
124.717
129.122
133.607
138.136
142.655
147.11
151.428
155.529
159.352
162.853
165.984
168.692
170.904
172.511
173.428
173.59
172.952
171.52
169.299
166.308
162.592
158.215
153.264
147.822
141.947
135.676
129.046
122.105
114.915
107.562
100.114
92.624
85.134
77.67
70.252
62.892
55.577
48.272
40.929
33.51
25.999
18.396
10.706
2.93
-4.935
-12.895
-20.944
-29.07
-37.262
-45.508
-53.795
-62.107
-70.413
-78.672
-86.837
-94.866
-102.725
-110.397
-117.864
-125.113
-132.135
-138.923
-145.482
-151.825
-157.961
-163.895
-169.631
-175.162
-180.483
-185.594
-190.497
-195.194
-199.681
-203.937
-207.937
-211.663
-215.092
-218.206
-220.977
-223.354
-225.29
-226.75
-227.709
-228.164
-228.12
-227.578
-226.54
-225.026
-223.073
-220.747
-218.131
-215.285
-212.267
-209.129
-205.932
-202.778
-199.765
-196.97
-194.462
-192.295
-190.513
-189.181
-188.356
-188.05
-188.246
-188.89
-189.904
-191.239
-192.856
-194.713
-196.762
-198.921
-201.1
-203.229
-205.233
-207.025
-208.508
-209.558
-210.054
-209.93
-209.144
-207.682
-205.555
-202.749
-199.237
-195.003
-190.024
-184.296
-177.829
-170.643
-162.776
-154.308
-145.344
-136.025
-126.494
-116.866
-107.252
-97.756
-88.472
-79.511
-70.999
-63.065
-55.859
-49.535
-44.218
-40.014
-36.988
-35.168
-34.557
-35.127
-36.841
-39.655
-43.51
-48.343
-54.087
-60.657
-67.952
-75.844
-84.164
-92.736
-101.403
-110.03
-118.523
-126.805
-134.809
-142.486
-149.791
-156.697
-163.196
-169.285
-174.965
-180.254
-185.185
-189.827
-194.307
-198.762
-203.329
-208.126
-213.226
-218.69
-224.553
-230.845
-237.625
-244.932
-252.8
-261.257
-270.242
-279.706
-289.648
-299.919
-310.248
-320.26
-329.318
-336.848
-342.618
-346.41
-348.074
-347.782
-345.61
-341.897
-337.683
-333.885
-330.934
-329.04
-327.767
-326.099
-323.478
-318.977
-310.618
-296.513
-275.012
-244.943
-206.718
-161.762
-111.109
-56.608
-1.596
50.194
94.376
126.667
144.67
146.992
132.069
99.822
52.073
-8.297
-76.727
-147.851
-217.436
-281.418
-335.292
-376.169
-402.843
-415.167
-414.802
-404.46
-386.488
-363.786
-339.975
-317.456
-297.615
-281.293
-268.218
-257.659
-249.094
-241.479
-233.31
-223.853
-212.889
-200.448
-187.078
-173.304
-159.471
-146.168
-134.092
-123.608
-114.875
-107.859
-102.285
-97.93
-94.628
-92.122
-90.142
-88.423
-86.698
-84.782
-82.568
-79.954
-76.84
-73.123
-68.701
-63.522
-57.575
-50.878
-43.465
-35.373
-26.652
-17.38
-7.656
2.408
12.687
23.089
33.547
44.004
54.414
64.73
74.908
84.925
94.78
104.472
114.006
123.378
132.591
141.66
150.61
159.469
168.268
177.025
185.746
194.438
203.103
211.738
220.34
228.897
237.391
245.808
254.133
262.356
270.465
278.443
286.274
293.94
301.424
308.711
315.788
322.642
329.26
335.632
341.746
347.592
353.162
358.447
363.434
368.114
372.475
376.507
380.203
383.557
386.561
389.21
391.499
393.422
394.977
396.168
397
397.484
397.632
397.461
396.993
396.259
395.286
394.1
392.73
391.193
389.519
387.732
385.856
383.918
381.937
379.919
377.87
375.79
373.67
371.503
369.276
366.96
364.539
362.004
359.349
356.577
353.687
350.676
347.552
344.325
341.02
337.686
334.381
331.167
328.132
325.353
322.907
320.889
319.37
318.408
318.059
318.371
319.392
321.18
323.787
327.245
331.573
336.754
342.743
349.481
356.872
364.816
373.22
381.974
390.979
400.154
409.401
418.614
427.678
436.448
444.761
452.464
459.408
465.462
470.531
474.541
477.449
479.229
479.854
479.31
477.584
474.657
470.532
465.243
458.844
451.43
443.143
434.137
424.585
414.67
404.551
394.378
384.294
374.426
364.898
355.826
347.32
339.495
332.452
326.266
320.991
316.648
313.216
310.651
308.89
307.851
307.458
307.632
308.284
309.323
310.672
312.258
314.011
315.858
317.717
319.525
321.231
322.811
324.264
325.595
326.816
327.947
329.007
330.027
331.058
332.154
333.355
334.701
336.233
338.003
340.085
342.528
345.358
348.572
352.148
356.061
360.29
364.803
369.563
374.511
379.565
384.642
389.661
394.523
399.119
403.309
406.923
409.829
411.931
413.158
413.479
412.861
411.28
408.738
405.251
400.851
395.594
389.535
382.735
375.29
367.313
358.953
350.391
341.766
333.188
324.746
316.485
308.436
300.615
292.993
285.528
278.181
270.891
263.603
256.251
248.745
240.996
232.907
224.391
215.39
205.847
195.713
184.982
173.687
161.945
149.914
137.696
125.472
113.517
102.204
92.123
83.85
77.645
73.703
72.211
73.067
76.108
80.893
86.257
91.027
94.642
96.858
97.865
98.357
98.964
100.821
106.17
117.374
136.095
163.084
197.918
239.428
286.173
335.591
383.626
425.441
456.233
472.355
471.531
452.084
413.192
355.87
282.988
199.203
110.345
21.614
-62.422
-136.961
-198.044
-243.337
-271.919
-284.955
-285.31
-275.668
-258.811
-238.311
-217.252
-198.161
-183.312
-173.43
-168.017
-166.771
-169.146
-174.161
-181.286
-189.675
-197.965
-205.693
-212.969
-219.768
-226.315
-232.705
-238.558
-243.995
-249.655
-255.745
-262.263
-269.129
-275.997
-282.75
-289.558
-296.305
-302.639
-308.328
-313.179
-317.119
-320.26
-322.655
-324.276
-325.181
-325.489
-325.332
-324.872
-324.24
-323.491
-322.664
-321.788
-320.87
-319.908
-318.885
-317.741
-316.395
-314.763
-312.739
-310.223
-307.118
-303.309
-298.677
-293.114
-286.534
-278.898
-270.214
-260.519
-249.874
-238.361
-226.082
-213.184
-199.831
-186.2
-172.476
-158.842
-145.487
-132.626
-120.491
-109.3
-99.228
-90.404
-82.909
-76.796
-72.096
-68.807
-66.894
-66.284
-66.89
-68.617
-71.369
-75.041
-79.497
-84.574
-90.084
-95.836
-101.673
-107.46
-113.085
-118.454
-123.493
-128.157
-132.437
-136.341
-139.878
-143.061
-145.899
-148.413
-150.649
-152.662
-154.513
-156.274
-158.009
-159.783
-161.669
-163.724
-165.98
-168.449
-171.121
-173.975
-176.989
-180.127
-183.338
-186.557
-189.718
-192.769
-195.673
-198.377
-200.813
-202.896
-204.526
-205.614
-206.093
-205.901
-204.975
-203.272
-200.777
-197.508
-193.533
-188.938
-183.797
-178.175
-172.126
-165.727
-159.089
-152.344
-145.633
-139.103
-132.902
-127.198
-122.186
-118.033
-114.858
-112.743
-111.708
-111.757
-112.905
-115.159
-118.512
-122.94
-128.385
-134.775
-142.04
-150.084
-158.791
-168.014
-177.562
-187.275
-197.032
-206.736
-216.33
-225.763
-234.979
-243.935
-252.607
-260.976
-269.033
-276.77
-284.168
-291.226
-297.961
-304.412
-310.64
-316.691
-322.582
-328.317
-333.888
-339.276
-344.471
-349.452
-354.187
-358.647
-362.814
-366.675
-370.232
-373.486
-376.428
-379.038
-381.29
-383.162
-384.646
-385.742
-386.454
-386.791
-386.755
-386.348
-385.579
-384.451
-382.956
-381.075
-378.782
-376.04
-372.831
-369.157
-365.024
-360.454
-355.468
-350.085
-344.336
-338.26
-331.902
-325.316
-318.562
-311.701
-304.813
-297.993
-291.341
-284.964
-278.952
-273.369
-268.266
-263.682
-259.649
-256.192
-253.329
-251.067
-249.405
-248.337
-247.849
-247.918
-248.51
-249.576
-251.059
-252.895
-255.031
-257.424
-260.041
-262.85
-265.811
-268.878
-271.989
-275.066
-278.033
-280.81
-283.31
-285.455
-287.16
-288.334
-288.901
-288.786
-287.917
-286.228
-283.642
-280.093
-275.554
-270.025
-263.564
-256.285
-248.3
-239.738
-230.742
-221.436
-211.999
-202.644
-193.563
-184.97
-177.074
-170.039
-164.084
-159.457
-156.224
-154.333
-153.573
-153.491
-153.731
-154.045
-154.032
-153.356
-152.007
-150.137
-148.265
-147.306
-147.83
-150.225
-155.073
-162.492
-171.887
-182.229
-191.808
-198.389
-200.102
-195.092
-181.169
-156.985
-122.49
-78.614
-27.41
28.128
84.595
137.838
182.784
214.78
230.511
227.76
205.321
163.31
103.378
28.826
-55.347
-143.496
-230.567
-311.881
-382.785
-439.59
-480.394
-504.998
-514.951
-512.913
-501.525
-483.658
-462.906
-442.558
-424.69
-410.314
-399.342
-390.948
-384.351
-378.607
-372.218
-363.754
-352.432
-338
-320.745
-301.263
-280.055
-257.626
-234.657
-211.81
-189.514
-167.986
-147.255
-127.27
-108.038
-89.602
-71.997
-55.235
-39.343
-24.384
-10.437
2.415
14.109
24.637
34.014
42.248
49.347
55.311
60.138
63.852
66.49
68.098
68.746
68.516
67.492
65.782
63.503
60.771
57.716
54.445
51.039
47.579
44.144
40.829
37.749
35.025
32.761
31.049
29.97
29.589
29.971
31.142
33.097
35.805
39.208
43.263
47.941
53.212
59.041
65.362
72.082
79.096
86.301
93.591
100.865
108.02
114.949
121.589
127.909
133.909
139.612
145.024
150.142
154.963
159.493
163.753
167.777
171.6
175.256
178.782
182.205
185.554
188.849
192.063
195.152
198.049
200.668
202.944
204.814
206.208
207.064
207.305
206.867
205.697
203.741
200.956
197.323
192.834
187.512
181.42
174.637
167.258
159.396
151.154
142.649
134.009
125.36
116.842
108.584
100.702
93.318
86.537
80.437
75.082
70.501
66.69
63.639
61.318
59.683
58.69
58.276
58.359
58.857
59.663
60.685
61.835
63.021
64.164
65.203
66.084
66.776
67.271
67.558
67.639
67.525
67.224
66.76
66.167
65.484
64.765
64.053
63.382
62.79
62.303
61.938
61.708
61.613
61.64
61.778
62.01
62.318
62.683
63.082
63.484
63.862
64.183
64.42
64.55
64.55
64.405
64.107
63.651
63.039
62.283
61.391
60.378
59.266
58.077
56.831
55.555
54.258
52.951
51.649
50.361
49.102
47.877
46.676
45.483
44.287
43.072
41.829
40.544
39.179
37.701
36.086
34.318
32.402
30.353
28.177
25.88
23.482
21.015
18.546
16.163
13.934
11.923
10.196
8.818
7.891
7.518
7.77
8.705
10.354
12.732
15.871
19.808
24.54
30.04
36.236
43.017
50.293
57.982
65.985
74.197
82.474
90.656
98.623
106.28
113.54
120.33
126.559
132.115
136.937
140.991
144.272
146.82
148.657
149.799
150.293
150.2
149.608
148.633
147.367
145.871
144.217
142.471
140.704
139.011
137.452
136.065
134.884
133.919
133.177
132.675
132.397
132.306
132.357
132.467
132.551
132.535
132.321
131.819
130.955
129.656
127.877
125.583
122.716
119.225
115.061
110.18
104.605
98.356
91.429
83.944
76.126
68.315
61.026
54.739
49.772
46.386
44.793
44.928
46.575
49.285
52.206
54.537
55.673
55.293
53.508
50.982
48.631
47.63
49.762
56.901
70.903
93.187
124.077
162.847
208.235
258.446
310.586
361.045
405.5
439.497
459.836
464.429
451.662
420.795
372.734
309.865
236.235
157.021
76.877
0.077
-68.836
-125.954
-168.91
-196.877
-210.817
-213.076
-206.093
-192.52
-175.77
-159.156
-144.976
-134.521
-127.954
-124.595
-123.708
-124.452
-125.48
-125.364
-123.26
-118.838
-112.262
-104.093
-94.827
-84.887
-74.853
-65.338
-56.722
-49.222
-42.902
-37.641
-33.339
-29.916
-27.231
-25.145
-23.541
-22.297
-21.314
-20.509
-19.79
-19.081
-18.327
-17.45
-16.378
-15.021
-13.264
-11.036
-8.297
-5.021
-1.208
3.144
8.027
13.406
19.229
25.44
31.989
38.841
45.974
53.346
60.907
68.592
76.322
84.041
91.71
99.293
106.767
114.11
121.303
128.345
135.245
142.011
148.643
155.139
161.486
167.685
173.738
179.653
185.445
191.118
196.671
202.103
207.409
212.584
217.619
222.502
227.212
231.735
236.06
240.176
244.077
247.754
251.198
254.402
257.357
260.057
262.498
264.676
266.585
268.225
269.595
270.695
271.53
272.103
272.416
272.475
272.284
271.849
271.176
270.273
269.147
267.806
266.262
264.525
262.607
260.522
258.282
255.905
253.404
250.798
248.101
245.331
242.503
239.634
236.739
233.832
230.927
228.037
225.176
222.358
219.598
216.909
214.307
211.804
209.413
207.148
205.019
203.037
201.208
199.537
198.03
196.695
195.539
194.569
193.792
193.205
192.81
192.599
192.563
192.686
192.943
193.307
193.761
194.287
194.876
195.526
196.233
196.995
197.811
198.672
199.57
200.501
201.452
202.417
203.399
204.406
205.46
206.593
207.814
209.123
210.508
211.933
213.361
214.742
216.015
217.135
218.067
218.774
219.239
219.448
219.375
218.999
218.283
217.171
215.634
213.655
211.228
208.383
205.158
201.601
197.785
193.761
189.562
185.219
180.732
176.091
171.292
166.32
161.181
155.912
150.538
145.086
139.581
134.025
128.426
122.794
117.124
111.431
105.758
100.154
94.706
89.528
84.722
80.406
76.674
73.581
71.181
69.512
68.599
68.464
69.115
70.537
72.714
75.617
79.188
83.356
88.017
93.033
98.277
103.616
108.931
114.131
119.129
123.847
128.226
132.212
135.766
138.87
141.504
143.658
145.337
146.555
147.339
147.735
147.779
147.505
146.941
146.099
144.995
143.647
142.073
140.295
138.327
136.177
133.846
131.333
128.636
125.758
122.704
119.48
116.098
112.569
108.905
105.127
101.246
97.245
93.076
88.673
83.971
78.931
73.544
67.793
61.639
55.019
47.848
40.048
31.573
22.367
12.35
1.547
-9.893
-21.687
-33.381
-44.53
-54.819
-64.003
-71.863
-78.514
-84.346
-89.851
-95.688
-102.365
-110.073
-118.849
-128.665
-138.825
-148.003
-154.882
-158.137
-156.675
-149.716
-136.488
-116.089
-88.468
-54.793
-16.415
25.288
68.708
111.83
151.864
185.072
207.978
218.404
214.492
194.339
156.839
102.326
32.903
-47.352
-133.432
-220.82
-304.874
-380.306
-442.398
-488.098
-516.235
-527.706
-524.845
-510.21
-486.838
-458.832
-430.331
-404.329
-382.646
-365.858
-353.563
-345.19
-339.936
-336.293
-332.613
-327.915
-321.791
-314.371
-306.23
-297.896
-289.86
-282.811
-277.432
-274.071
-272.816
-273.519
-275.858
-279.55
-284.331
-289.887
-295.897
-302.089
-308.247
-314.21
-319.841
-324.986
-329.512
-333.318
-336.344
-338.578
-340.024
-340.707
-340.668
-339.972
-338.704
-336.95
-334.791
-332.314
-329.595
-326.714
-323.761
-320.814
-317.927
-315.144
-312.483
-309.944
-307.526
-305.216
-302.989
-300.825
-298.696
-296.572
-294.433
-292.256
-290.019
-287.7
-285.269
-282.691
-279.943
-277.004
-273.867
-270.537
-267.02
-263.325
-259.462
-255.426
-251.22
-246.854
-242.328
-237.64
-232.785
-227.751
-222.55
-217.221
-211.796
-206.309
-200.781
-195.219
-189.635
-184.044
-178.466
-172.928
-167.451
-162.044
-156.732
-151.549
-146.533
-141.734
-137.168
-132.811
-128.651
-124.676
-120.881
-117.279
-113.874
-110.655
-107.621
-104.77
-102.106
-99.639
-97.366
-95.267
-93.321
-91.501
-89.804
-88.256
-86.873
-85.669
-84.65
-83.815
-83.167
-82.721
-82.478
-82.431
-82.572
-82.886
-83.371
-84.031
-84.871
-85.893
-87.092
-88.445
-89.939
-91.559
-93.292
-95.126
-97.048
-99.037
-101.081
-103.176
-105.316
-107.494
-109.704
-111.932
-114.168
-116.403
-118.629
-120.84
-123.029
-125.188
-127.311
-129.393
-131.43
-133.417
-135.351
-137.225
-139.034
-140.776
-142.447
-144.046
-145.572
-147.024
-148.402
-149.71
-150.949
-152.123
-153.235
-154.291
-155.293
-156.248
-157.16
-158.034
-158.874
-159.685
-160.47
-161.233
-161.978
-162.709
-163.428
-164.141
-164.85
-165.56
-166.275
-167
-167.736
-168.487
-169.253
-170.036
-170.834
-171.645
-172.469
-173.301
-174.138
-174.976
-175.812
-176.642
-177.462
-178.265
-179.039
-179.778
-180.478
-181.135
-181.748
-182.319
-182.849
-183.345
-183.823
-184.295
-184.774
-185.269
-185.783
-186.317
-186.873
-187.454
-188.063
-188.694
-189.331
-189.955
-190.543
-191.073
-191.526
-191.87
-192.054
-192.038
-191.785
-191.267
-190.465
-189.365
-187.955
-186.234
-184.212
-181.922
-179.418
-176.764
-174.026
-171.271
-168.56
-165.97
-163.598
-161.531
-159.846
-158.618
-157.914
-157.799
-158.339
-159.566
-161.48
-164.048
-167.198
-170.846
-174.888
-179.213
-183.711
-188.256
-192.708
-196.932
-200.79
-204.135
-206.812
-208.658
-209.512
-209.26
-207.83
-205.198
-201.379
-196.408
-190.342
-183.251
-175.225
-166.376
-156.822
-146.701
-136.171
-125.39
-114.58
-104.004
-93.805
-84.002
-74.481
-64.968
-55.25
-45.201
-34.55
-23.05
-10.77
1.945
14.367
25.573
35.053
42.551
47.687
50.307
50.76
50.004
49.816
52.07
58.007
68.667
85.276
108.931
140.288
178.989
223.381
271.617
322.059
372.671
420.651
462.451
494.297
513.218
517.439
505.481
476.291
429.904
367.955
293.966
212.68
128.997
47.555
-26.93
-90.037
-138.287
-169.92
-185.224
-185.944
-174.604
-154.155
-127.963
-99.621
-72.452
-48.645
-29.11
-13.911
-2.535
5.787
12.007
17.353
23.059
29.742
37.436
45.828
54.351
62.486
69.788
75.737
79.841
81.889
81.915
80.117
76.828
72.358
66.981
61.003
54.743
48.482
42.463
36.896
31.945
27.747
24.418
22.036
20.644
20.255
20.853
22.392
24.807
28.013
31.919
36.43
41.445
46.854
52.546
58.405
64.331
70.255
76.121
81.892
87.543
93.058
98.436
103.695
108.856
113.936
118.951
123.912
128.834
133.733
138.627
143.525
148.431
153.338
158.237
163.122
167.982
172.804
177.573
182.262
186.858
191.363
195.782
200.128
204.411
208.639
212.832
217.025
221.252
225.539
229.908
234.368
238.929
243.6
248.381
253.263
258.219
263.192
268.121
272.937
277.571
281.957
286.013
289.634
292.724
295.2
296.983
298.006
298.205
297.516
295.902
293.356
289.901
285.593
280.505
274.726
268.35
261.48
254.236
246.757
239.184
231.649
224.296
217.27
210.713
204.769
199.554
195.14
191.577
188.884
187.057
186.076
185.904
186.491
187.772
189.677
192.119
195.012
198.249
201.709
205.273
208.821
212.254
215.501
218.505
221.222
223.629
225.713
227.473
228.923
230.073
230.935
231.531
231.886
232.041
232.047
231.95
231.791
231.601
231.4
231.201
231.013
230.835
230.658
230.468
230.247
229.981
229.657
229.261
228.775
228.18
227.453
226.579
225.548
224.357
223.009
221.505
219.852
218.056
216.125
214.071
211.91
209.66
207.345
204.986
202.606
200.229
197.887
195.602
193.391
191.261
189.208
187.233
185.345
183.555
181.889
180.363
178.982
177.75
176.658
175.698
174.863
174.128
173.452
172.809
172.177
171.561
170.997
170.506
170.099
169.776
169.522
169.331
169.214
169.18
169.247
169.441
169.786
170.337
171.183
172.387
174.003
176.04
178.454
181.212
184.287
187.649
191.278
195.134
199.155
203.282
207.452
211.585
215.593
219.345
222.67
225.418
227.456
228.688
229.076
228.581
227.165
224.81
221.507
217.269
212.134
206.133
199.293
191.67
183.336
174.402
165.02
155.326
145.45
135.509
125.594
115.795
106.195
96.851
87.799
79.067
70.672
62.642
55.017
47.815
41.033
34.646
28.613
22.888
17.427
12.159
6.983
1.807
-3.446
-8.825
-14.332
-19.988
-25.831
-31.918
-38.326
-45.116
-52.289
-59.851
-67.848
-76.204
-84.755
-93.219
-101.109
-107.987
-113.585
-117.685
-120.109
-121.009
-120.684
-119.509
-118.232
-117.453
-117.472
-118.547
-120.692
-123.252
-125.301
-125.938
-123.686
-117.281
-105.914
-88.361
-63.601
-31.637
7.112
50.694
94.858
136.072
172.396
204.746
236.4
267.447
292.661
300.515
278.191
219.412
125.328
6.534
-121.491
-243.888
-345.268
-415.65
-452.159
-458.96
-448.776
-433.414
-419.393
-407.663
-392.956
-372.088
-346.5
-319.146
-294.415
-275.046
-260.894
-251.505
-246.717
-246.019
-248.607
-253.785
-260.509
-267.449
-274.026
-279.718
-283.591
-285.344
-285.132
-283.032
-279.621
-275.764
-271.783
-267.935
-264.616
-261.828
-259.464
-257.474
-255.522
-253.206
-250.401
-247.048
-243.115
-238.709
-233.885
-228.662
-223.163
-217.507
-211.767
-206.022
-200.317
-194.681
-189.199
-183.945
-178.965
-174.293
-169.925
-165.828
-161.994
-158.421
-155.113
-152.09
-149.358
-146.917
-144.777
-142.934
-141.371
-140.053
-138.919
-137.91
-136.98
-136.086
-135.193
-134.273
-133.282
-132.173
-130.892
-129.365
-127.527
-125.325
-122.698
-119.595
-115.98
-111.834
-107.157
-101.959
-96.252
-90.051
-83.382
-76.292
-68.833
-61.066
-53.062
-44.904
-36.677
-28.457
-20.333
-12.392
-4.721
2.598
9.499
15.932
21.846
27.19
31.932
36.063
39.58
42.491
44.814
46.563
47.751
48.397
48.527
48.175
47.389
46.218
44.692
42.836
40.683
38.271
35.628
32.771
29.707
26.445
22.993
19.384
15.663
11.882
8.095
4.35
0.69
-2.835
-6.151
-9.188
-11.89
-14.209
-16.095
-17.49
-18.339
-18.591
-18.217
-17.214
-15.599
-13.415
-10.727
-7.603
-4.136
-0.438
3.356
7.102
10.671
13.944
16.792
19.089
20.723
21.588
21.602
20.705
18.84
15.983
12.14
7.334
1.628
-4.886
-12.087
-19.822
-27.939
-36.287
-44.695
-53.003
-61.069
-68.762
-75.968
-82.588
-88.505
-93.62
-97.854
-101.141
-103.439
-104.74
-105.07
-104.49
-103.095
-100.993
-98.32
-95.217
-91.804
-88.189
-84.457
-80.682
-76.955
-73.378
-70.045
-67.056
-64.522
-62.524
-61.13
-60.387
-60.29
-60.796
-61.83
-63.291
-65.075
-67.109
-69.337
-71.72
-74.218
-76.762
-79.279
-81.685
-83.856
-85.672
-87.001
-87.691
-87.645
-86.816
-85.178
-82.755
-79.584
-75.666
-70.994
-65.549
-59.29
-52.206
-44.296
-35.563
-26.064
-15.885
-5.153
5.958
17.298
28.755
40.22
51.618
62.883
73.916
84.614
94.857
104.487
113.347
121.284
128.139
133.79
138.167
141.245
143.046
143.602
142.933
141.067
138.028
133.837
128.538
122.18
114.838
106.64
97.74
88.311
78.541
68.607
58.654
48.798
39.13
29.729
20.666
12.005
3.814
-3.835
-10.878
-17.24
-22.889
-27.844
-32.145
-35.853
-39.041
-41.764
-44.081
-46.062
-47.768
-49.263
-50.602
-51.798
-52.883
-53.93
-54.901
-55.692
-56.096
-55.74
-54.28
-51.482
-47.125
-41.041
-33.385
-24.501
-14.826
-5.066
4.175
12.46
19.458
25.135
30.093
35.344
41.86
50.847
63.465
80.923
104.371
134.342
170.679
212.592
258.957
308.49
358.405
403.763
441.221
468.74
486.159
497.003
498.745
483.929
446.343
378.977
284.939
177.376
68.04
-30.867
-112.633
-178.212
-227.321
-260.397
-278.324
-280.371
-268.207
-245.298
-215.456
-183.225
-152.497
-125.469
-103.207
-85.945
-73.127
-63.856
-57.009
-51.159
-44.948
-37.739
-29.479
-20.471
-11.35
-2.737
4.813
10.665
14.267
15.399
14.102
10.598
5.25
-1.604
-9.651
-18.545
-27.954
-37.589
-47.217
-56.637
-65.655
-74.098
-81.823
-88.72
-94.728
-99.815
-103.97
-107.221
-109.63
-111.277
-112.257
-112.66
-112.56
-112.045
-111.205
-110.141
-108.97
-107.784
-106.656
-105.656
-104.847
-104.285
-104.006
-104.014
-104.286
-104.787
-105.488
-106.364
-107.4
-108.57
-109.836
-111.145
-112.44
-113.66
-114.726
-115.547
-116.011
-116.003
-115.446
-114.28
-112.46
-109.952
-106.717
-102.709
-97.889
-92.22
-85.659
-78.186
-69.8
-60.528
-50.445
-39.652
-28.281
-16.473
-4.347
7.979
20.378
32.727
44.903
56.764
68.17
78.963
88.951
97.973
105.898
112.632
118.13
122.377
125.376
127.154
127.741
127.178
125.53
122.858
119.226
114.728
109.464
103.572
97.231
90.592
83.779
76.894
70.005
63.17
56.439
49.841
43.392
37.098
30.962
24.985
19.178
13.532
8.024
2.613
-2.767
-8.161
-13.593
-19.078
-24.615
-30.197
-35.817
-41.452
-47.065
-52.62
-58.086
-63.432
-68.637
-73.672
-78.501
-83.085
-87.38
-91.354
-94.984
-98.252
-101.145
-103.654
-105.775
-107.509
-108.869
-109.863
-110.5
-110.787
-110.731
-110.342
-109.634
-108.624
-107.327
-105.756
-103.928
-101.856
-99.556
-97.042
-94.329
-91.429
-88.353
-85.116
-81.735
-78.225
-74.602
-70.884
-67.087
-63.228
-59.323
-55.386
-51.428
-47.461
-43.493
-39.533
-35.591
-31.672
-27.783
-23.93
-20.12
-16.362
-12.66
-9.016
-5.431
-1.898
1.585
5.016
8.395
11.722
14.989
18.188
21.305
24.313
27.197
29.95
32.572
35.075
37.469
39.764
41.972
44.107
46.179
48.202
50.18
52.111
54.013
55.912
57.853
59.904
62.118
64.525
67.145
69.98
73.012
76.216
79.536
82.901
86.247
89.527
92.711
95.788
98.722
101.457
103.917
105.999
107.605
108.659
109.081
108.809
107.83
106.167
103.898
101.146
98.024
94.617
90.991
87.194
83.284
79.34
75.449
71.716
68.273
65.258
62.833
61.157
60.322
60.356
61.232
62.859
65.14
68.003
71.359
75.126
79.234
83.605
88.16
92.807
97.386
101.693
105.502
108.584
110.783
111.999
112.154
111.214
109.169
106.02
101.853
96.757
90.754
83.95
76.523
68.771
61.222
54.445
48.884
44.937
42.918
42.836
44.548
47.632
51.219
54.432
56.515
57.006
55.972
54.07
52.248
51.827
54.733
62.974
78.582
103.044
136.629
178.568
227.477
281.138
336.178
388.579
433.644
466.741
484.677
485.294
467.031
429.861
375.617
307.439
230.073
149.224
69.798
-3.489
-65.774
-113.912
-146.577
-163.666
-166.881
-159.152
-143.202
-122.338
-100.572
-80.573
-63.86
-51.314
-42.613
-36.882
-33.417
-30.947
-27.714
-22.811
-15.903
-6.956
3.457
14.756
26.529
38.105
48.693
57.856
65.356
71.127
75.35
78.146
79.6
79.883
79.179
77.651
75.462
72.724
69.516
65.941
62.1
58.095
54.032
49.979
46.001
42.182
38.598
35.319
32.397
29.858
27.721
26.007
24.726
23.876
23.449
23.419
23.776
24.52
25.657
27.211
29.183
31.542
34.248
37.259
40.531
44.027
47.697
51.469
55.284
59.103
62.899
66.66
70.361
73.959
77.405
80.644
83.638
86.367
88.822
90.989
92.863
94.447
95.758
96.837
97.71
98.383
98.851
99.102
99.127
98.929
98.51
97.869
97.004
95.908
94.575
93.005
91.19
89.117
86.765
84.105
81.116
77.792
74.127
70.125
65.789
61.123
56.137
50.845
45.264
39.408
33.292
26.929
20.337
13.538
6.557
-0.581
-7.848
-15.22
-22.669
-30.169
-37.693
-45.214
-52.706
-60.145
-67.505
-74.763
-81.892
-88.869
-95.669
-102.271
-108.654
-114.8
-120.691
-126.309
-131.638
-136.665
-141.377
-145.764
-149.816
-153.53
-156.898
-159.919
-162.598
-164.936
-166.94
-168.615
-169.96
-170.983
-171.696
-172.111
-172.249
-172.131
-171.779
-171.225
-170.509
-169.672
-168.753
-167.783
-166.782
-165.767
-164.762
-163.787
-162.869
-162.025
-161.257
-160.568
-159.964
-159.442
-158.995
-158.592
-158.173
-157.68
-157.06
-156.278
-155.325
-154.196
-152.881
-151.389
-149.732
-147.936
-146.056
-144.139
-142.216
-140.34
-138.574
-137.013
-135.796
-135.067
-134.949
-135.551
-136.949
-139.193
-142.323
-146.344
-151.226
-156.924
-163.352
-170.424
-178.06
-186.145
-194.534
-203.045
-211.445
-219.477
-226.894
-233.442
-238.883
-243.026
-245.7
-246.776
-246.166
-243.787
-239.593
-233.564
-225.689
-216.003
-204.58
-191.526
-177.006
-161.24
-144.469
-126.976
-109.055
-90.96
-72.936
-55.209
-37.992
-21.519
-6
8.38
21.448
33.057
43.081
51.404
57.969
62.786
65.905
67.43
67.488
66.188
63.651
60.007
55.395
49.98
43.924
37.368
30.462
23.355
16.211
9.198
2.443
-3.977
-10.017
-15.671
-20.947
-25.855
-30.426
-34.703
-38.734
-42.574
-46.269
-49.862
-53.403
-56.952
-60.592
-64.408
-68.47
-72.831
-77.52
-82.532
-87.832
-93.358
-99.042
-104.833
-110.695
-116.572
-122.368
-127.943
-133.183
-138.043
-142.415
-146.049
-148.515
-149.326
-148.186
-145.097
-140.18
-133.335
-124.422
-113.635
-101.672
-89.563
-78.144
-67.502
-57.133
-46.895
-36.92
-26.868
-15.627
-1.325
17.996
43.138
73.577
108.84
148.676
192.062
236.731
279.014
314.451
339.378
351.703
349.647
331.224
295.567
243.678
178.436
104.398
26.425
-51.601
-125.686
-190.927
-243.246
-280.294
-301.176
-306.903
-299.369
-279.978
-250.96
-216.171
-179.401
-143.704
-111.626
-84.284
-62.206
-46.458
-37.182
-33.062
-32.445
-33.528
-34.471
-34.418
-32.805
-28.596
-21.361
-11.437
0.555
13.532
26.287
38.282
49.216
58.612
66.295
72.275
76.643
79.843
82.405
84.54
86.328
87.842
89.053
90.004
90.785
91.355
91.643
91.632
91.323
90.776
90.083
89.278
88.367
87.349
86.225
85.029
83.791
82.5
81.114
79.575
77.828
75.855
73.658
71.231
68.566
65.646
62.456
59.005
55.313
51.399
47.286
43.001
38.601
34.2
29.954
26.026
22.573
19.711
17.53
16.121
15.559
15.913
17.244
19.593
23.003
27.526
33.201
40.045
48.031
57.059
66.98
77.623
88.809
100.391
112.238
124.22
136.218
148.12
159.82
171.226
182.219
192.641
202.336
211.149
218.965
225.735
231.444
236.108
239.759
242.419
244.11
244.869
244.72
243.682
241.766
238.973
235.346
230.994
226.044
220.649
214.945
209.026
202.982
196.897
190.83
184.835
178.951
173.193
167.594
162.203
157.08
152.303
147.912
143.891
140.204
136.789
133.581
130.531
127.575
124.632
121.647
118.586
115.432
112.197
108.875
105.443
101.872
98.119
94.16
90
85.651
81.137
76.49
71.747
66.959
62.199
57.519
52.952
48.517
44.214
40.048
36.037
32.194
28.534
25.068
21.799
18.731
15.868
13.205
10.73
8.42
6.242
4.171
2.192
0.29
-1.54
-3.305
-5.016
-6.678
-8.296
-9.873
-11.417
-12.935
-14.438
-15.931
-17.417
-18.897
-20.37
-21.835
-23.295
-24.749
-26.199
-27.648
-29.097
-30.551
-32.012
-33.48
-34.956
-36.435
-37.916
-39.395
-40.866
-42.324
-43.764
-45.183
-46.579
-47.948
-49.284
-50.577
-51.821
-53.012
-54.151
-55.239
-56.277
-57.269
-58.223
-59.159
-60.095
-61.046
-62.021
-63.014
-64.023
-65.051
-66.098
-67.169
-68.257
-69.34
-70.405
-71.442
-72.439
-73.384
-74.244
-74.968
-75.516
-75.858
-75.984
-75.909
-75.643
-75.197
-74.598
-73.878
-73.088
-72.302
-71.572
-70.938
-70.445
-70.14
-70.095
-70.408
-71.15
-72.374
-74.109
-76.353
-79.101
-82.343
-86.03
-90.094
-94.45
-98.986
-103.621
-108.285
-112.899
-117.378
-121.622
-125.516
-128.968
-131.918
-134.334
-136.204
-137.532
-138.332
-138.641
-138.532
-138.116
-137.519
-136.861
-136.256
-135.798
-135.632
-135.961
-136.864
-138.304
-140.11
-141.922
-143.436
-144.512
-144.869
-144.108
-142.185
-139.311
-136.062
-133.513
-132.397
-132.913
-135.427
-140.356
-147.428
-155.856
-164.046
-169.477
-170.24
-165.174
-152.756
-131.401
-100.361
-59.585
-10.424
44.313
102.28
161.29
217.935
268.177
308.16
334.218
344.181
337.289
312.421
269.228
209.58
136.862
55.557
-29.034
-112.312
-190.114
-257.446
-310.103
-346.061
-365.006
-368.262
-358.352
-337.802
-309.468
-277.344
-245.272
-215.756
-190.188
-168.833
-151.192
-136.784
-124.949
-114.338
-103.527
-91.773
-78.884
-65.201
-51.424
-38.101
-25.7
-14.851
-6.156
0.078
3.795
5.176
4.572
2.299
-1.343
-6.012
-11.366
-17.08
-22.883
-28.535
-33.811
-38.512
-42.475
-45.574
-47.742
-48.944
-49.168
-48.442
-46.821
-44.39
-41.267
-37.57
-33.411
-28.935
-24.285
-19.62
-15.127
-10.949
-7.194
-3.956
-1.297
0.738
2.118
2.853
2.987
2.572
1.687
0.409
-1.183
-2.967
-4.807
-6.554
-8.038
-9.113
-9.653
-9.526
-8.602
-6.779
-3.981
-0.179
4.612
10.372
17.06
24.62
32.976
41.994
51.515
61.372
71.376
81.336
91.057
100.317
108.873
116.516
123.07
128.4
132.417
135.036
136.188
135.829
133.954
130.614
125.893
119.891
112.726
104.552
95.546
85.925
75.944
65.832
55.794
46.019
36.664
27.876
19.802
12.568
6.259
0.923
-3.419
-6.766
-9.137
-10.586
-11.201
-11.107
-10.455
-9.388
-8.039
-6.537
-4.995
-3.51
-2.178
-1.084
-0.281
0.197
0.339
0.152
-0.343
-1.107
-2.08
-3.176
-4.299
-5.362
-6.279
-6.969
-7.364
-7.412
-7.068
-6.305
-5.12
-3.538
-1.61
0.597
2.995
5.503
8.037
10.486
12.745
14.715
16.3
17.415
17.979
17.908
17.121
15.564
13.215
10.095
6.263
1.799
-3.196
-8.626
-14.399
-20.39
-26.477
-32.547
-38.494
-44.214
-49.595
-54.487
-58.719
-62.151
-64.676
-66.23
-66.792
-66.349
-64.912
-62.5
-59.146
-54.911
-49.858
-44.038
-37.49
-30.253
-22.4
-14.061
-5.404
3.419
12.28
21.073
29.708
38.084
46.119
53.751
60.944
67.684
73.943
79.679
84.831
89.339
93.179
96.376
98.983
101.047
102.614
103.725
104.435
104.82
104.939
104.821
104.473
103.89
103.086
102.096
100.963
99.725
98.406
97.002
95.498
93.879
92.118
90.168
87.978
85.479
82.631
79.424
75.865
71.967
67.739
63.177
58.281
53.062
47.534
41.713
35.634
29.342
22.912
16.458
10.083
3.882
-2.071
-7.739
-13.099
-18.135
-22.85
-27.252
-31.347
-35.153
-38.68
-41.927
-44.931
-47.752
-50.488
-53.292
-56.293
-59.598
-63.307
-67.485
-72.168
-77.376
-83.088
-89.246
-95.82
-102.786
-110.114
-117.782
-125.699
-133.712
-141.659
-149.344
-156.593
-163.264
-169.149
-173.998
-177.649
-180.022
-181.035
-180.589
-178.345
-173.735
-166.429
-156.371
-143.665
-128.487
-110.992
-91.466
-70.774
-50.444
-31.753
-15.305
-1.001
11.693
23.151
33.954
45.467
60.045
80.141
107.066
140.656
179.845
223.438
269.564
315.381
356.742
388.614
407.138
410.108
396.176
364.768
316.678
253.978
180.416
101.395
21.85
-54.042
-122.07
-178.78
-222.157
-251.378
-267.158
-271.726
-267.407
-256.618
-242.502
-228.009
-215.114
-205.016
-198.01
-193.626
-191.382
-190.686
-190.4
-189.307
-186.753
-182.539
-176.894
-170.359
-163.353
-156.2
-149.372
-143.376
-138.483
-134.761
-132.086
-130.159
-128.715
-127.55
-126.443
-125.177
-123.555
-121.391
-118.524
-114.846
-110.274
-104.765
-98.328
-90.987
-82.795
-73.852
-64.281
-54.268
-44.04
-33.798
-23.714
-13.952
-4.662
3.973
11.748
18.492
24.074
28.41
31.462
33.194
33.587
32.677
30.546
27.347
23.298
18.586
13.377
7.848
2.179
-3.398
-8.606
-13.218
-17.041
-19.902
-21.658
-22.149
-21.226
-18.811
-14.886
-9.505
-2.784
5.174
14.269
24.364
35.3
46.854
58.748
70.743
82.615
94.131
105.064
115.147
124.124
131.811
138.074
142.83
146.042
147.668
147.673
146.069
142.882
138.195
132.146
124.862
116.487
107.201
97.197
86.71
75.983
65.208
54.548
44.156
34.153
24.678
15.865
7.823
0.666
-5.509
-10.66
-14.755
-17.795
-19.828
-20.915
-21.143
-20.619
-19.42
-17.615
-15.273
-12.449
-9.21
-5.631
-1.777
2.268
6.413
10.602
14.798
18.99
23.207
27.476
31.824
36.293
40.902
45.658
50.56
55.59
60.723
65.934
71.188
76.456
81.713
86.917
92.016
96.945
101.612
105.932
109.833
113.241
116.099
118.371
120.03
121.072
121.506
121.358
120.667
119.489
117.885
115.915
113.638
111.115
108.422
105.633
102.811
100.013
97.287
94.672
92.211
89.944
87.897
86.08
84.483
83.078
81.83
80.712
79.704
78.788
77.935
77.122
76.338
75.584
74.863
74.168
73.473
72.731
71.903
70.97
69.923
68.778
67.552
66.268
64.961
63.676
62.475
61.408
60.504
59.778
59.249
58.953
58.953
59.346
60.217
61.645
63.711
66.473
69.978
74.252
79.269
84.972
91.28
98.112
105.408
113.114
121.162
129.476
137.956
146.459
154.848
162.968
170.626
177.647
183.863
189.126
193.357
196.509
198.553
199.476
199.26
197.878
195.32
191.574
186.624
180.506
173.273
165.014
155.886
146.042
135.64
124.852
113.807
102.621
91.427
80.336
69.465
58.957
48.953
39.617
31.149
23.7
17.389
12.305
8.469
5.901
4.611
4.558
5.709
8.012
11.364
15.681
20.865
26.772
33.264
40.156
47.201
54.185
60.908
67.179
72.889
77.916
82.111
85.483
88.133
90.251
92.209
94.346
96.903
100.155
104.342
109.394
115.08
121.062
126.692
131.38
134.703
136.302
136.102
134.771
133.42
133.094
135.225
141.323
152.778
171.095
197.277
230.9
270.615
315.115
362.36
409.586
453.523
489.916
514.589
524.905
519.226
495.939
454.487
395.853
322.439
238.62
149.699
60.311
-25.193
-102.043
-166.144
-215.008
-247.713
-265.255
-269.961
-264.25
-250.839
-233.269
-214.997
-198.404
-184.879
-174.745
-167.48
-162.499
-159.038
-155.752
-151.258
-144.819
-136.223
-125.734
-113.973
-101.469
-88.718
-76.434
-65.336
-55.858
-48.186
-42.276
-37.928
-34.992
-33.355
-32.842
-33.229
-34.296
-35.851
-37.758
-39.93
-42.279
-44.693
-47.039
-49.192
-51.062
-52.602
-53.782
-54.582
-54.981
-54.959
-54.529
-53.748
-52.681
-51.388
-49.907
-48.244
-46.396
-44.372
-42.208
-39.944
-37.615
-35.229
-32.798
-30.336
-27.862
-25.412
-22.982
-20.528
-18.004
-15.373
-12.631
-9.812
-6.966
-4.127
-1.309
1.484
4.251
6.983
9.675
12.329
14.966
17.618
20.282
22.912
25.455
27.855
30.094
32.196
34.19
36.096
37.913
39.625
41.213
42.665
43.953
45.048
45.896
46.431
46.627
46.494
46.056
45.35
44.375
43.095
41.488
39.548
37.281
34.724
31.91
28.875
25.685
22.406
19.117
15.915
12.855
9.968
7.283
4.813
2.596
0.701
-0.833
-1.983
-2.731
-3.088
-3.068
-2.695
-2.031
-1.138
-0.078
1.077
2.275
3.477
4.642
5.742
6.745
7.603
8.292
8.796
9.102
9.211
9.136
8.894
8.528
8.077
7.579
7.077
6.62
6.258
6.029
5.957
6.051
6.316
6.755
7.355
8.087
8.921
9.82
10.749
11.679
12.586
13.436
14.183
14.756
15.072
15.071
14.702
13.921
12.696
10.99
8.79
6.127
3.037
-0.449
-4.303
-8.523
-13.11
-18.032
-23.233
-28.634
-34.127
-39.619
-45.002
-50.145
-54.914
-59.167
-62.79
-65.719
-67.903
-69.272
-69.758
-69.278
-67.749
-65.146
-61.463
-56.71
-50.929
-44.175
-36.536
-28.16
-19.213
-9.865
-0.279
9.404
19.043
28.459
37.49
45.982
53.786
60.812
66.974
72.188
76.398
79.573
81.715
82.888
83.169
82.627
81.356
79.466
77.092
74.42
71.608
68.778
66.049
63.5
61.209
59.269
57.749
56.685
56.106
56.007
56.382
57.249
58.579
60.305
62.323
64.482
66.661
68.782
70.77
72.573
74.148
75.441
76.422
77.094
77.452
77.5
77.243
76.665
75.784
74.664
73.397
72.108
70.908
69.874
69.076
68.568
68.377
68.525
69.011
69.796
70.839
72.093
73.483
74.946
76.405
77.745
78.822
79.475
79.523
78.8
77.164
74.475
70.614
65.491
59.039
51.258
42.191
31.884
20.412
7.865
-5.66
-19.994
-34.893
-50.156
-65.593
-80.907
-95.715
-109.472
-121.575
-131.652
-139.579
-145.242
-148.455
-149.251
-148.012
-145.643
-143.312
-141.688
-140.784
-140.418
-140.485
-140.489
-139.541
-136.082
-127.7
-112.675
-90.797
-62.219
-28.584
6.109
39.619
69.879
94.808
116.349
132.134
135.055
118.342
72.348
-6.826
-113.223
-236.228
-358.912
-463.201
-537.493
-577.452
-588.415
-582.943
-571.773
-561.249
-551.97
-539.955
-524.014
-505.612
-487.136
-472.155
-461.856
-455.12
-450.864
-447.43
-442.991
-436.884
-428.85
-418.808
-407.326
-395.026
-382.372
-370.061
-358.85
-349.13
-341.085
-334.731
-329.829
-326.177
-323.635
-321.982
-320.978
-320.412
-320.088
-319.84
-319.561
-319.128
-318.38
-317.169
-315.377
-312.927
-309.79
-305.975
-301.492
-296.363
-290.631
-284.35
-277.599
-270.474
-263.075
-255.497
-247.839
-240.203
-232.703
-225.46
-218.571
-212.107
-206.111
-200.595
-195.564
-191.016
-186.938
-183.304
-180.071
-177.167
-174.505
-172.009
-169.604
-167.216
-164.768
-162.161
-159.305
-156.128
-152.575
-148.615
-144.223
-139.363
-133.998
-128.106
-121.694
-114.813
-107.545
-99.96
-92.117
-84.075
-75.894
-67.666
-59.489
-51.44
-43.58
-35.965
-28.672
-21.808
-15.51
-9.899
-5.058
-1.028
2.184
4.556
6.055
6.662
6.374
5.213
3.207
0.359
-3.351
-7.92
-13.301
-19.396
-26.06
-33.159
-40.582
-48.233
-56.027
-63.859
-71.625
-79.247
-86.675
-93.867
-100.774
-107.318
-113.394
-118.928
-123.886
-128.279
-132.155
-135.555
-138.517
-141.088
-143.333
-145.333
-147.157
-148.84
-150.389
-151.808
-153.116
-154.351
-155.569
-156.802
-158.057
-159.327
-160.588
-161.827
-163.023
-164.136
-165.105
-165.857
-166.334
-166.508
-166.371
-165.917
-165.133
-164.007
-162.526
-160.704
-158.564
-156.125
-153.399
-150.392
-147.111
-143.577
-139.825
-135.888
-131.792
-127.556
-123.188
-118.706
-114.13
-109.462
-104.692
-99.789
-94.703
-89.404
-83.883
-78.131
-72.157
-65.977
-59.613
-53.107
-46.514
-39.876
-33.23
-26.601
-20.014
-13.519
-7.181
-1.086
4.655
9.947
14.705
18.84
22.298
25.058
27.127
28.554
29.41
29.744
29.595
29.004
28.005
26.664
25.053
23.251
21.373
19.544
17.908
16.623
15.812
15.547
15.864
16.758
18.201
20.189
22.723
25.787
29.377
33.478
38.087
43.216
48.842
54.899
61.271
67.819
74.426
81.02
87.548
93.976
100.273
106.393
112.29
117.943
123.306
128.306
132.827
136.717
139.839
142.122
143.544
144.107
143.804
142.607
140.488
137.444
133.484
128.618
122.846
116.148
108.539
100.105
90.999
81.42
71.572
61.609
51.653
41.831
32.281
23.138
14.522
6.503
-0.868
-7.515
-13.342
-18.244
-22.153
-25.091
-27.163
-28.495
-29.216
-29.427
-29.205
-28.664
-27.952
-27.2
-26.526
-26.002
-25.639
-25.504
-25.728
-26.34
-27.265
-28.248
-28.808
-28.503
-27.032
-24.155
-19.698
-13.728
-6.48
1.543
9.42
16.236
21.278
24.199
25.158
24.916
24.561
25.447
29.517
38.849
55.459
80.831
115.31
158.124
207.899
262.679
319.419
374.379
423.163
461.348
485.77
494.368
485.587
458.873
415.368
357.676
290.031
217.7
145.407
77.542
18.699
-27.346
-58.467
-74.12
-75.566
-65.414
-46.361
-21.36
5.929
32.127
54.932
73.041
86.261
95.236
100.687
103.524
105.174
107.006
109.8
113.882
119.109
125.014
131.197
137.248
142.578
146.658
149.23
150.249
149.871
148.375
145.99
142.947
139.517
135.956
132.484
129.243
126.305
123.712
121.519
119.794
118.61
118.012
118.002
118.563
119.671
121.279
123.319
125.692
128.267
130.918
133.535
136.023
138.305
140.316
141.995
143.296
144.189
144.651
144.686
144.309
143.541
142.424
141.029
139.444
137.781
136.169
134.714
133.524
132.715
132.375
132.578
133.387
134.836
136.948
139.738
143.197
147.301
152.017
157.28
163.012
169.124
175.498
182.026
188.603
195.115
201.473
207.609
213.458
218.973
224.124
228.88
233.236
237.198
240.77
243.961
246.796
249.299
251.524
253.527
255.347
257.03
258.602
260.065
261.433
262.712
263.894
264.966
265.909
266.685
267.29
267.737
268.03
268.173
268.15
267.935
267.517
266.891
266.06
265.039
263.835
262.446
260.895
259.211
257.425
255.579
253.681
251.697
249.609
247.396
245.049
242.573
239.96
237.192
234.261
231.157
227.877
224.426
220.792
216.945
212.86
208.51
203.893
199.043
193.983
188.736
183.329
177.779
172.116
166.376
160.581
154.743
148.87
142.967
137.046
131.134
125.246
119.389
113.556
107.721
101.861
95.959
89.99
83.928
77.746
71.415
64.921
58.268
51.46
44.515
37.453
30.289
23.062
15.838
8.697
1.743
-4.922
-11.211
-17.034
-22.299
-26.928
-30.842
-33.975
-36.285
-37.728
-38.277
-37.912
-36.61
-34.382
-31.283
-27.392
-22.831
-17.728
-12.185
-6.301
-0.173
6.119
12.492
18.874
25.211
31.44
37.502
43.336
48.863
54.031
58.825
63.261
67.398
71.312
75.05
78.654
82.165
85.608
89.004
92.377
95.734
99.093
102.485
105.949
109.543
113.322
117.316
121.531
125.94
130.494
135.15
139.868
144.594
149.286
153.897
158.373
162.662
166.702
170.414
173.715
176.516
178.728
180.265
181.062
181.072
180.269
178.644
176.196
172.944
168.914
164.145
158.7
152.657
146.115
139.188
131.988
124.614
117.17
109.764
102.496
95.464
88.753
82.428
76.544
71.147
66.269
61.915
58.046
54.599
51.474
48.572
45.828
43.165
40.496
37.729
34.751
31.449
27.757
23.575
18.771
13.337
7.352
1.028
-5.204
-10.973
-16.001
-19.9
-22.384
-23.505
-23.506
-22.984
-22.896
-23.827
-26.171
-30.423
-36.602
-44.13
-51.988
-58.418
-61.378
-59.373
-50.85
-34.261
-8.886
25.618
68.523
117.734
171.377
226.176
277.851
323.973
361.253
388.808
407.435
412.177
399.242
364.427
304.276
226.404
138.87
49.538
-32.574
-106.208
-169.449
-218.891
-254.472
-274.803
-279.911
-272.862
-256.308
-233.497
-208.852
-185.871
-166.756
-152.843
-144.217
-140.111
-139.75
-142.112
-145.578
-148.691
-150.656
-151.12
-150.266
-148.58
-146.43
-144.186
-142.36
-141.391
-141.455
-142.522
-144.36
-146.628
-149.062
-151.432
-153.508
-155.076
-155.955
-156.042
-155.306
-153.762
-151.443
-148.397
-144.688
-140.401
-135.668
-130.625
-125.409
-120.178
-115.074
-110.236
-105.796
-101.879
-98.598
-96.046
-94.289
-93.358
-93.258
-93.959
-95.408
-97.535
-100.226
-103.365
-106.84
-110.517
-114.267
-117.967
-121.483
-124.679
-127.439
-129.65
-131.209
-132.05
-132.126
-131.412
-129.918
-127.665
-124.704
-121.097
-116.91
-112.214
-107.095
-101.639
-95.947
-90.14
-84.32
-78.587
-73.045
-67.767
-62.816
-58.249
-54.094
-50.37
-47.086
-44.235
-41.811
-39.814
-38.233
-37.055
-36.252
-35.772
-35.573
-35.617
-35.862
-36.284
-36.858
-37.553
-38.363
-39.296
-40.368
-41.61
-43.042
-44.665
-46.484
-48.498
-50.721
-53.185
-55.92
-58.954
-62.318
-66.046
-70.18
-74.771
-79.844
-85.384
-91.354
-97.691
-104.345
-111.285
-118.479
-125.893
-133.478
-141.18
-148.945
-156.716
-164.421
-171.964
-179.232
-186.1
-192.476
-198.317
-203.623
-208.433
-212.784
-216.711
-220.263
-223.497
-226.488
-229.292
-231.965
-234.567
-237.176
-239.907
-242.899
-246.3
-250.236
-254.805
-260.046
-265.954
-272.509
-279.66
-287.338
-295.454
-303.905
-312.612
-321.5
-330.494
-339.5
-348.392
-357.01
-365.182
-372.734
-379.484
-385.298
-390.081
-393.762
-396.312
-397.717
-397.982
-397.123
-395.145
-392.041
-387.811
-382.47
-376.066
-368.682
-360.433
-351.453
-341.914
-331.971
-321.759
-311.406
-301.016
-290.687
-280.52
-270.613
-261.077
-252.028
-243.582
-235.84
-228.876
-222.732
-217.421
-212.929
-209.209
-206.206
-203.862
-202.116
-200.916
-200.197
-199.889
-199.906
-200.148
-200.518
-200.917
-201.26
-201.484
-201.537
-201.388
-201.022
-200.443
-199.663
-198.704
-197.584
-196.321
-194.942
-193.481
-191.985
-190.511
-189.111
-187.828
-186.701
-185.753
-185.001
-184.456
-184.115
-183.966
-183.999
-184.199
-184.557
-185.064
-185.699
-186.436
-187.247
-188.09
-188.926
-189.711
-190.397
-190.942
-191.311
-191.47
-191.397
-191.068
-190.452
-189.517
-188.229
-186.561
-184.498
-182.026
-179.135
-175.832
-172.136
-168.092
-163.769
-159.234
-154.544
-149.756
-144.923
-140.104
-135.376
-130.82
-126.497
-122.457
-118.714
-115.269
-112.138
-109.333
-106.84
-104.581
-102.407
-100.124
-97.596
-94.761
-91.475
-87.437
-82.172
-75.179
-66.169
-55.145
-42.147
-26.941
-9.4
10.179
30.967
51.789
71.828
91.082
109.906
128.144
145.704
163.227
182.155
204.578
232.214
265.551
304.086
347.62
395.851
445.706
493.142
535.3
567.636
589.425
601.651
597.75
574.76
531.857
465.875
384.142
293.608
196.373
102.424
20.57
-42.216
-75.985
-81.273
-66.688
-40.475
-12.947
10.782
31.711
49.86
65.811
79.119
87.437
90.644
89.803
86.491
83.258
81.4
81.126
82.53
85.227
88.717
92.63
96.338
99.108
100.635
100.882
99.965
98.198
95.822
93.01
89.998
87.012
84.238
81.827
79.871
78.396
77.427
76.992
77.102
77.767
78.966
80.655
82.78
85.293
88.148
91.308
94.732
98.38
102.208
106.171
110.231
114.365
118.556
122.792
127.064
131.366
135.699
140.073
144.498
148.981
153.523
158.123
162.777
167.483
172.239
177.04
181.88
186.75
191.642
196.544
201.445
206.329
211.179
215.976
220.699
225.329
229.845
234.228
238.456
242.509
246.367
250.012
253.421
256.572
259.437
261.995
264.23
266.127
267.675
268.87
269.705
270.187
270.329
270.14
269.634
268.816
267.687
266.255
264.532
262.532
260.278
257.78
255.036
252.041
248.791
245.267
241.449
237.297
232.754
227.784
222.363
216.48
210.143
203.355
196.114
188.425
180.295
171.744
162.821
153.583
144.097
134.464
124.8
115.247
105.981
97.14
88.833
81.165
74.21
68.043
62.746
58.383
55.014
52.698
51.458
51.299
52.202
54.094
56.865
60.377
64.454
68.952
73.75
78.724
83.767
88.773
93.626
98.224
102.459
106.193
109.301
111.68
113.247
113.978
113.884
112.99
111.35
108.998
105.951
102.247
97.917
92.987
87.491
81.457
74.93
68.007
60.8
53.415
45.947
38.459
30.994
23.602
16.333
9.246
2.414
-4.113
-10.285
-16.044
-21.331
-26.078
-30.237
-33.805
-36.806
-39.268
-41.22
-42.68
-43.662
-44.206
-44.363
-44.193
-43.769
-43.142
-42.36
-41.479
-40.556
-39.659
-38.846
-38.145
-37.567
-37.118
-36.802
-36.629
-36.602
-36.704
-36.909
-37.185
-37.489
-37.797
-38.092
-38.354
-38.565
-38.702
-38.748
-38.701
-38.567
-38.352
-38.064
-37.707
-37.286
-36.819
-36.328
-35.835
-35.367
-34.938
-34.56
-34.243
-33.995
-33.824
-33.735
-33.729
-33.802
-33.954
-34.184
-34.492
-34.876
-35.326
-35.832
-36.385
-36.979
-37.617
-38.298
-39.02
-39.778
-40.571
-41.391
-42.228
-43.061
-43.856
-44.582
-45.212
-45.728
-46.122
-46.385
-46.498
-46.438
-46.177
-45.691
-44.969
-44
-42.776
-41.298
-39.597
-37.742
-35.831
-33.96
-32.203
-30.597
-29.182
-28.016
-27.18
-26.775
-26.898
-27.61
-28.97
-31.055
-33.853
-37.241
-40.962
-44.6
-47.711
-49.957
-51.086
-50.886
-49.453
-47.151
-44.424
-41.866
-39.993
-39.072
-39.196
-40.378
-41.981
-42.73
-41.395
-36.783
-27.832
-13.746
6.235
32.979
66.466
105.435
148.499
194.273
241.116
287.057
329.423
364.678
389.693
402.653
402.047
386.361
354.745
307.554
246.758
176.078
99.933
22.239
-53.058
-121.479
-178.892
-222.567
-251.44
-266.2
-268.753
-261.173
-245.862
-226.174
-205.651
-186.844
-171.279
-159.461
-151.057
-145.635
-142.602
-140.693
-138.426
-134.911
-129.788
-123.184
-115.618
-107.546
-99.397
-91.834
-85.587
-81.12
-78.659
-78.185
-79.49
-82.385
-86.7
-92.218
-98.688
-105.887
-113.627
-121.757
-130.174
-138.773
-147.431
-156.018
-164.406
-172.463
-180.066
-187.129
-193.587
-199.404
-204.58
-209.114
-213.01
-216.28
-218.933
-220.979
-222.422
-223.239
-223.392
-222.858
-221.628
-219.724
-217.199
-214.09
-210.424
-206.216
-201.472
-196.205
-190.434
-184.178
-177.45
-170.264
-162.636
-154.614
-146.266
-137.652
-128.818
-119.766
-110.472
-100.929
-91.135
-81.107
-70.866
-60.422
-49.787
-38.989
-28.068
-17.088
-6.119
4.794
15.602
26.247
36.659
46.719
56.3
65.307
73.654
81.272
88.105
94.079
99.136
103.243
106.385
108.579
109.86
110.251
109.797
108.565
106.634
104.119
101.137
97.763
94.076
90.146
86.041
81.85
77.656
73.524
69.523
65.699
62.085
58.718
55.616
52.775
50.193
47.85
45.732
43.863
42.256
40.916
39.854
39.053
38.491
38.15
37.991
37.982
38.104
38.336
38.672
39.119
39.673
40.334
41.099
41.939
42.834
43.775
44.745
45.748
46.796
47.903
49.105
50.438
51.921
53.571
55.396
57.393
59.565
61.917
64.447
67.164
70.073
73.175
76.478
79.978
83.667
87.528
91.535
95.659
99.881
104.183
108.549
112.968
117.428
121.92
126.441
130.986
135.547
140.116
144.677
149.216
153.722
158.189
162.612
166.987
171.313
175.593
179.835
184.053
188.255
192.438
196.595
200.71
204.769
208.756
212.659
216.461
220.153
223.72
227.152
230.439
233.557
236.471
239.129
241.46
243.407
244.927
245.986
246.575
246.697
246.367
245.613
244.474
242.977
241.146
239.009
236.587
233.924
231.078
228.131
225.197
222.387
219.8
217.517
215.583
214.009
212.782
211.859
211.176
210.68
210.316
210.021
209.742
209.409
208.94
208.232
207.14
205.495
203.134
199.917
195.739
190.539
184.278
176.949
168.583
159.211
148.885
137.669
125.614
112.775
99.218
85.031
70.352
55.365
40.252
25.185
10.316
-4.224
-18.303
-31.81
-44.673
-56.838
-68.282
-78.988
-88.922
-98.047
-106.346
-113.821
-120.528
-126.576
-132.06
-137.078
-141.722
-146.064
-150.218
-154.3
-158.394
-162.577
-166.895
-171.351
-175.988
-180.888
-186.005
-191.194
-196.164
-200.437
-203.598
-205.364
-205.503
-203.843
-200.46
-195.627
-189.906
-184.244
-179.539
-176.464
-175.324
-175.992
-177.798
-179.691
-180.36
-178.022
-170.683
-156.453
-134.119
-103.33
-64.816
-20.12
28.994
80.003
129.311
172.721
206.277
226.599
231.565
220.048
190.897
144.098
81.713
7.325
-74.547
-158.912
-241.433
-318.139
-384.389
-436.438
-472.64
-492.976
-498.964
-493.141
-477.973
-456.207
-431.568
-407.474
-386.055
-368.427
-354.618
-344.008
-336.026
-329.871
-324.185
-317.67
-309.651
-299.981
-288.997
-277.268
-265.25
-253.386
-242.251
-232.406
-224.151
-217.54
-212.437
-208.594
-205.819
-203.975
-202.889
-202.353
-202.184
-202.235
-202.409
-202.663
-202.932
-203.117
-203.137
-202.93
-202.466
-201.753
-200.804
-199.625
-198.237
-196.67
-194.96
-193.158
-191.311
-189.449
-187.59
-185.743
-183.92
-182.151
-180.456
-178.833
-177.267
-175.731
-174.195
-172.637
-171.01
-169.243
-167.259
-164.986
-162.369
-159.382
-156.006
-152.228
-148.035
-143.405
-138.322
-132.794
-126.823
-120.407
-113.542
-106.217
-98.454
-90.327
-81.919
-73.307
-64.556
-55.706
-46.793
-37.858
-28.937
-20.072
-11.307
-2.686
5.727
13.83
21.513
28.64
35.101
40.847
45.842
50.052
53.45
55.987
57.618
58.312
58.022
56.696
54.301
50.817
46.263
40.718
34.286
27.108
19.329
11.049
2.358
-6.662
-15.939
-25.383
-34.896
-44.385
-53.723
-62.759
-71.349
-79.354
-86.678
-93.276
-99.121
-104.221
-108.6
-112.255
-115.176
-117.343
-118.716
-119.28
-119.041
-118.014
-116.267
-113.902
-111.027
-107.773
-104.24
-100.502
-96.643
-92.729
-88.819
-85.004
-81.376
-78.055
-75.201
-72.941
-71.379
-70.612
-70.686
-71.622
-73.439
-76.121
-79.655
-84.043
-89.252
-95.247
-101.992
-109.407
-117.398
-125.84
-134.553
-143.376
-152.172
-160.793
-169.121
-177.045
-184.43
-191.183
-197.221
-202.448
-206.805
-210.243
-212.714
-214.217
-214.768
-214.409
-213.229
-211.309
-208.717
-205.539
-201.854
-197.749
-193.34
-188.716
-183.947
-179.117
-174.288
-169.512
-164.846
-160.315
-155.927
-151.686
-147.569
-143.556
-139.637
-135.79
-131.985
-128.192
-124.359
-120.451
-116.451
-112.335
-108.09
-103.709
-99.184
-94.518
-89.732
-84.84
-79.863
-74.824
-69.738
-64.629
-59.527
-54.46
-49.466
-44.576
-39.81
-35.191
-30.737
-26.462
-22.38
-18.498
-14.815
-11.334
-8.059
-4.993
-2.14
0.497
2.917
5.12
7.108
8.883
10.448
11.809
12.969
13.928
14.686
15.238
15.579
15.711
15.635
15.354
14.879
14.228
13.43
12.526
11.555
10.547
9.536
8.548
7.618
6.787
6.091
5.566
5.243
5.136
5.261
5.634
6.239
7.04
7.973
8.927
9.808
10.549
11.07
11.31
11.176
10.532
9.284
7.369
4.756
1.5
-2.388
-6.982
-12.153
-17.623
-23.076
-28.04
-32.249
-35.752
-38.355
-39.643
-39.455
-37.707
-34.508
-30.404
-25.48
-19.283
-11.728
-2.878
7.372
18.972
32.349
48.699
68.718
92.643
120.877
153.405
189.956
230.41
273.636
317.169
358.354
394.261
421.821
438.809
443.292
433.219
407.854
368.305
316.906
257.279
193.659
129.797
69.55
17.289
-23.422
-50.677
-64.072
-64.724
-54.64
-35.835
-10.709
17.509
45.67
71.617
94.149
113.007
128.531
141.077
151.157
159.825
168.234
177.028
186.416
196.215
205.957
215.271
223.835
231.18
236.842
240.624
242.527
242.735
241.573
239.332
236.296
232.81
229.217
225.805
222.781
220.274
218.37
217.148
216.665
216.944
217.965
219.657
221.947
224.76
227.999
231.549
235.261
238.938
242.379
245.401
247.841
249.575
250.507
250.557
249.689
247.91
245.263
241.832
237.695
232.918
227.578
221.757
215.558
209.138
202.678
196.366
190.402
184.974
180.249
176.391
173.532
171.763
171.134
171.653
173.326
176.165
180.191
185.429
191.892
199.544
208.319
218.122
228.829
240.298
252.381
264.905
277.691
290.585
303.454
316.201
328.734
340.951
352.737
363.945
374.434
384.078
392.762
400.386
406.867
412.135
416.144
418.888
420.387
420.667
419.748
417.625
414.295
409.758
404.026
397.145
389.18
380.198
370.294
359.58
348.182
336.246
323.914
311.294
298.481
285.563
272.629
259.798
247.196
234.953
223.22
212.121
201.777
192.304
183.782
176.256
169.741
164.213
159.63
155.967
153.195
151.282
150.195
149.862
150.202
151.13
152.528
154.289
156.296
158.419
160.558
162.646
164.637
166.53
168.344
170.082
171.756
173.385
174.986
176.608
178.296
180.077
181.995
184.081
186.364
188.89
191.677
194.716
197.971
201.373
204.827
208.261
211.592
214.732
217.594
220.067
222.056
223.492
224.313
224.477
223.95
222.693
220.687
217.946
214.501
210.414
205.769
200.628
195.056
189.127
182.912
176.5
169.973
163.387
156.79
150.221
143.71
137.294
131
124.832
118.784
112.841
106.97
101.162
95.411
89.713
84.068
78.47
72.918
67.422
62.005
56.684
51.478
46.404
41.474
36.715
32.156
27.828
23.77
20.007
16.551
13.413
10.594
8.087
5.887
3.98
2.343
0.96
-0.18
-1.083
-1.745
-2.163
-2.346
-2.309
-2.078
-1.676
-1.116
-0.404
0.452
1.46
2.618
3.932
5.415
7.071
8.883
10.824
12.842
14.881
16.905
18.893
20.843
22.755
24.62
26.425
28.157
29.793
31.314
32.693
33.895
34.894
35.691
36.299
36.758
37.11
37.37
37.525
37.53
37.331
36.878
36.124
35.027
33.551
31.656
29.319
26.525
23.254
19.482
15.18
10.315
4.876
-1.101
-7.537
-14.292
-21.206
-28.133
-34.899
-41.323
-47.205
-52.302
-56.385
-59.24
-60.62
-60.224
-57.823
-53.322
-46.816
-38.65
-29.243
-18.952
-8.176
2.582
13.019
23.24
33.788
45.749
60.258
77.95
99.197
124.31
152.985
183.939
214.911
242.525
263.096
273.711
271.945
255.478
222.927
174.526
112.131
39.367
-39.156
-119.124
-196.303
-265.989
-323.99
-367.698
-396.115
-409.941
-411.121
-401.801
-384.472
-362.574
-339.701
-318.423
-300.318
-285.985
-275.194
-267.597
-262.665
-259.206
-255.792
-251.594
-246.291
-240.002
-233.25
-226.504
-220.176
-214.88
-211.271
-209.695
-210.247
-212.808
-217.07
-222.761
-229.637
-237.388
-245.684
-254.228
-262.774
-271.126
-279.112
-286.546
-293.244
-299.066
-303.913
-307.738
-310.525
-312.274
-313.015
-312.806
-311.727
-309.877
-307.367
-304.31
-300.818
-297.014
-293.033
-289.01
-285.074
-281.322
-277.827
-274.641
-271.802
-269.341
-267.264
-265.547
-264.154
-263.027
-262.086
-261.25
-260.427
-259.501
-258.357
-256.874
-254.915
-252.379
-249.168
-245.192
-240.371
-234.616
-227.862
-220.086
-211.295
-201.528
-190.86
-179.378
-167.191
-154.442
-141.271
-127.835
-114.313
-100.857
-87.624
-74.787
-62.519
-51.017
-40.477
-31.038
-22.799
-15.826
-10.139
-5.743
-2.617
-0.694
0.101
-0.148
-1.341
-3.398
-6.241
-9.759
-13.826
-18.287
-22.968
-27.74
-32.515
-37.227
-41.841
-46.341
-50.731
-55.065
-59.424
-63.875
-68.475
-73.249
-78.207
-83.376
-88.798
-94.524
-100.615
-107.097
-113.965
-121.202
-128.772
-136.61
-144.616
-152.635
-160.474
-167.948
-174.912
-181.249
-186.865
-191.662
-195.543
-198.429
-200.253
-200.975
-200.567
-198.998
-196.258
-192.374
-187.426
-181.557
-174.945
-167.772
-160.201
-152.373
-144.429
-136.518
-128.771
-121.289
-114.156
-107.44
-101.225
-95.614
-90.691
-86.508
-83.076
-80.356
-78.29
-76.813
-75.856
-75.347
-75.203
-75.328
-75.655
-76.144
-76.762
-77.481
-78.254
-79.006
-79.678
-80.226
-80.619
-80.851
-80.92
-80.827
-80.598
-80.268
-79.884
-79.502
-79.153
-78.854
-78.626
-78.491
-78.478
-78.636
-78.998
-79.596
-80.47
-81.645
-83.139
-84.957
-87.08
-89.471
-92.089
-94.88
-97.802
-100.806
-103.834
-106.827
-109.713
-112.421
-114.885
-117.029
-118.765
-120.02
-120.739
-120.887
-120.451
-119.426
-117.817
-115.634
-112.891
-109.616
-105.836
-101.579
-96.888
-91.808
-86.389
-80.706
-74.843
-68.879
-62.886
-56.916
-51.016
-45.233
-39.619
-34.221
-29.097
-24.302
-19.904
-15.992
-12.639
-9.918
-7.886
-6.567
-5.97
-6.094
-6.928
-8.457
-10.667
-13.532
-17.012
-21.065
-25.623
-30.608
-35.919
-41.426
-47
-52.509
-57.84
-62.906
-67.646
-72.02
-76.014
-79.635
-82.888
-85.793
-88.38
-90.695
-92.811
-94.808
-96.775
-98.809
-100.985
-103.395
-106.133
-109.28
-112.885
-116.952
-121.398
-126.127
-131.102
-136.189
-141.152
-145.645
-149.114
-151.056
-151.243
-149.49
-145.586
-139.56
-131.532
-121.874
-111.57
-101.558
-92.212
-83.693
-75.87
-68.138
-59.881
-50.057
-36.764
-18.255
6.866
39.724
80.276
127.867
180.385
233.371
283.815
329.426
369.014
404.937
433.31
445.958
436.836
396.299
324.331
230.771
121.957
11.794
-86.919
-169.566
-226.985
-258.664
-272.599
-272.918
-267.409
-260.591
-249.764
-235.696
-219.89
-203.697
-190.833
-182.915
-179.323
-179.175
-181.017
-183.152
-184.283
-183.763
-181.335
-177.184
-171.895
-166.012
-160.025
-154.601
-150.41
-147.798
-146.893
-147.615
-149.691
-152.916
-157.129
-162.108
-167.603
-173.378
-179.206
-184.901
-190.345
-195.395
-199.89
-203.689
-206.651
-208.686
-209.761
-209.862
-208.984
-207.137
-204.336
-200.616
-196.05
-190.713
-184.687
-178.065
-170.931
-163.387
-155.548
-147.506
-139.344
-131.116
-122.845
-114.548
-106.241
-97.927
-89.613
-81.301
-72.977
-64.636
-56.277
-47.878
-39.415
-30.846
-22.11
-13.179
-4.045
5.287
14.779
24.392
34.073
43.751
53.364
62.858
72.178
81.285
90.145
98.705
106.908
114.681
121.936
128.616
134.681
140.104
144.889
149.051
152.621
155.661
158.227
160.355
162.083
163.429
164.409
165.056
165.405
165.499
165.399
165.145
164.765
164.286
163.717
163.057
162.302
161.417
160.374
159.162
157.779
156.236
154.55
152.72
150.737
148.595
146.287
143.814
141.192
138.432
135.546
132.545
129.442
126.266
123.05
119.808
116.545
113.249
109.925
106.601
103.323
100.135
97.066
94.135
91.35
88.725
86.282
84.045
82.032
80.251
78.71
77.428
76.444
75.801
75.518
75.577
75.934
76.545
77.385
78.436
79.685
81.106
82.67
84.349
86.127
87.991
89.924
91.892
93.846
95.733
97.521
99.203
100.793
102.299
103.714
105.032
106.243
107.348
108.347
109.233
109.987
110.594
111.043
111.332
111.468
111.452
111.279
110.938
110.417
109.708
108.815
107.743
106.496
105.084
103.515
101.797
99.939
97.939
95.788
93.487
91.038
88.452
85.746
82.927
79.999
76.971
73.837
70.591
67.22
63.693
59.987
56.1
52.045
47.854
43.581
39.263
34.936
30.64
26.406
22.272
18.276
14.434
10.779
7.354
4.214
1.436
-0.906
-2.779
-4.165
-5.065
-5.516
-5.555
-5.223
-4.587
-3.715
-2.658
-1.464
-0.155
1.244
2.686
4.112
5.452
6.63
7.601
8.327
8.773
8.94
8.848
8.53
8.052
7.485
6.874
6.25
5.636
5.038
4.482
4.011
3.66
3.476
3.506
3.794
4.395
5.346
6.656
8.322
10.324
12.634
15.245
18.164
21.391
24.933
28.784
32.904
37.262
41.808
46.484
51.247
56.025
60.729
65.285
69.604
73.596
77.215
80.363
82.883
84.769
86.1
87.084
88.16
89.668
91.814
94.935
99.278
104.718
110.928
117.177
122.311
125.558
126.408
124.235
118.949
111.213
102.182
93.768
88.394
88.038
94.547
109.96
135.45
170.957
215.428
266.728
321.952
377.882
430.65
475.564
508.234
525.488
525.24
506.252
468.295
412.553
341.812
260.595
174.332
87.993
6.161
-66.44
-125.746
-169.353
-196.552
-208.48
-207.674
-196.793
-178.729
-157.196
-135.819
-117.087
-102.434
-92.157
-85.658
-82.266
-81.149
-80.88
-79.986
-77.629
-73.52
-67.87
-61.258
-54.205
-47.191
-40.874
-35.902
-32.629
-31.156
-31.374
-33.019
-35.867
-39.727
-44.35
-49.466
-54.833
-60.24
-65.528
-70.579
-75.238
-79.351
-82.795
-85.476
-87.353
-88.421
-88.68
-88.146
-86.856
-84.863
-82.24
-79.063
-75.407
-71.352
-66.976
-62.361
-57.601
-52.778
-47.95
-43.165
-38.444
-33.799
-29.24
-24.766
-20.366
-16.024
-11.72
-7.435
-3.158
1.127
5.441
9.804
14.245
18.782
23.424
28.177
33.042
38.013
43.089
48.26
53.513
58.834
64.211
69.636
75.099
80.593
86.106
91.625
97.139
102.636
108.106
113.541
118.929
124.262
129.529
134.722
139.834
144.856
149.779
154.592
159.285
163.849
168.273
172.55
176.669
180.623
184.404
188.005
191.421
194.647
197.679
200.513
203.145
205.574
207.797
209.812
211.62
213.218
214.607
215.786
216.757
217.521
218.078
218.43
218.579
218.526
218.275
217.828
217.188
216.359
215.345
214.148
212.773
211.223
209.502
207.613
205.559
203.342
200.965
198.429
195.735
192.881
189.87
186.699
183.37
179.882
176.234
172.426
168.459
164.335
160.053
155.613
151.015
146.259
141.345
136.273
131.044
125.658
120.115
114.418
108.568
102.569
96.423
90.129
83.684
77.092
70.36
63.497
56.516
49.435
42.27
35.045
27.793
20.54
13.316
6.142
-0.967
-7.988
-14.896
-21.662
-28.252
-34.641
-40.82
-46.783
-52.524
-58.052
-63.377
-68.53
-73.554
-78.484
-83.338
-88.127
-92.843
-97.489
-102.077
-106.62
-111.136
-115.63
-120.079
-124.459
-128.735
-132.849
-136.729
-140.277
-143.366
-145.893
-147.78
-148.958
-149.383
-148.997
-147.733
-145.522
-142.293
-137.987
-132.577
-126.054
-118.434
-109.777
-100.174
-89.753
-78.686
-67.127
-55.219
-43.108
-30.93
-18.84
-7.011
4.37
15.101
24.978
33.812
41.446
47.754
52.659
56.122
58.139
58.752
58.01
55.963
52.675
48.212
42.662
36.138
28.786
20.773
12.29
3.531
-5.33
-14.138
-22.764
-31.107
-39.087
-46.662
-53.801
-60.481
-66.675
-72.356
-77.504
-82.13
-86.272
-89.984
-93.341
-96.434
-99.351
-102.195
-105.066
-108.048
-111.219
-114.624
-118.286
-122.218
-126.429
-130.951
-135.834
-141.114
-146.784
-152.793
-159.037
-165.42
-171.899
-178.343
-184.462
-189.817
-193.926
-196.489
-197.484
-196.98
-194.807
-190.743
-184.881
-177.807
-170.44
-163.52
-157.082
-150.626
-144.006
-137.357
-130.395
-122.095
-110.681
-94.161
-71.575
-43.225
-9.368
29.736
72.989
118.24
161.981
199.552
226.858
241.195
240.096
221.658
185.498
132.709
66.254
-8.832
-86.967
-163.113
-232.079
-289.216
-331.563
-357.611
-367.483
-363.26
-348.045
-325.149
-298.502
-271.94
-248
-228.254
-213.427
-203.214
-196.792
-193.167
-190.809
-188.093
-184.212
-178.901
-172.235
-164.665
-156.634
-148.511
-140.913
-134.518
-129.656
-126.42
-124.69
-124.133
-124.502
-125.613
-127.221
-129.078
-130.941
-132.562
-133.806
-134.639
-135.035
-135.007
-134.536
-133.563
-132.083
-130.127
-127.762
-125.108
-122.268
-119.322
-116.381
-113.562
-111.011
-108.912
-107.378
-106.46
-106.174
-106.482
-107.363
-108.83
-110.86
-113.412
-116.43
-119.805
-123.432
-127.225
-131.053
-134.768
-138.197
-141.118
-143.352
-144.773
-145.281
-144.819
-143.342
-140.772
-137.058
-132.157
-126.024
-118.664
-110.103
-100.372
-89.555
-77.768
-65.156
-51.918
-38.251
-24.32
-10.286
3.714
17.561
31.107
44.207
56.714
68.456
79.302
89.156
97.934
105.596
112.137
117.568
121.946
125.353
127.855
129.528
130.436
130.628
130.184
129.195
127.764
126.026
124.09
122.037
119.94
117.848
115.793
113.803
111.879
110
108.151
106.32
104.498
102.691
100.886
99.061
97.184
95.207
93.098
90.844
88.437
85.88
83.185
80.362
77.439
74.455
71.444
68.437
65.459
62.527
59.667
56.908
54.281
51.824
49.564
47.524
45.721
44.169
42.876
41.85
41.088
40.578
40.311
40.279
40.477
40.904
41.555
42.419
43.48
44.721
46.119
47.652
49.291
50.994
52.721
54.434
56.102
57.714
59.255
60.712
62.071
63.31
64.419
65.402
66.266
67.013
67.651
68.193
68.677
69.169
69.742
70.458
71.356
72.444
73.722
75.19
76.832
78.627
80.525
82.446
84.314
86.069
87.647
88.972
89.929
90.352
90.077
88.962
86.902
83.834
79.706
74.48
68.159
60.786
52.461
43.33
33.534
23.2
12.468
1.509
-9.457
-20.155
-30.313
-39.691
-48.077
-55.282
-61.128
-65.462
-68.193
-69.301
-68.829
-66.87
-63.525
-58.894
-53.111
-46.356
-38.856
-30.88
-22.693
-14.537
-6.649
0.728
7.353
13.022
17.584
20.959
23.113
24.043
23.761
22.297
19.724
16.156
11.741
6.645
1.027
-4.959
-11.15
-17.365
-23.424
-29.176
-34.509
-39.34
-43.608
-47.255
-50.226
-52.493
-54.058
-54.946
-55.195
-54.844
-53.923
-52.465
-50.512
-48.12
-45.346
-42.232
-38.816
-35.152
-31.299
-27.336
-23.344
-19.376
-15.483
-11.735
-8.195
-4.948
-2.093
0.312
2.173
3.355
3.866
3.801
3.37
2.99
2.996
3.619
5.253
8.212
12.434
17.665
23.258
28.189
31.893
33.997
33.901
31.484
27.241
22.115
17.932
16.872
20.432
30.191
48.028
75.011
111.511
156.893
209.038
265.528
324.006
380.932
431.871
472.617
499.131
508.638
499.872
471.545
423.161
356.604
275.559
184.754
89.782
-4.47
-93.816
-173.163
-237.874
-285.605
-315.805
-329.326
-328.389
-315.108
-291.418
-260.797
-227.349
-193.982
-162.874
-135.658
-112.807
-94.828
-82.637
-75.841
-73.057
-73.289
-75.304
-77.675
-79.882
-81.381
-81.158
-78.988
-75.219
-70.096
-64.378
-59.07
-54.509
-50.948
-48.786
-47.973
-48.323
-49.656
-51.434
-53.045
-54.186
-54.62
-54.172
-52.852
-50.636
-47.517
-43.63
-39.114
-34.074
-28.61
-22.777
-16.629
-10.269
-3.821
2.601
8.89
14.974
20.775
26.207
31.208
35.74
39.802
43.437
46.675
49.54
52.063
54.263
56.181
57.882
59.416
60.83
62.174
63.481
64.806
66.236
67.823
69.612
71.622
73.818
76.175
78.679
81.291
83.978
86.69
89.349
91.907
94.333
96.584
98.632
100.427
101.885
102.945
103.555
103.665
103.277
102.396
101.02
99.184
96.931
94.321
91.441
88.358
85.11
81.741
78.287
74.789
71.315
67.92
64.653
61.575
58.719
56.114
53.791
51.755
49.994
48.487
47.192
46.078
45.134
44.352
43.73
43.269
42.958
42.794
42.775
42.891
43.132
43.491
43.956
44.528
45.212
46.019
46.967
48.069
49.328
50.744
52.313
54.023
55.866
57.828
59.892
62.045
64.277
66.574
68.927
71.323
73.745
76.176
78.597
80.986
83.326
85.598
87.786
89.876
91.856
93.716
95.444
97.032
98.47
99.756
100.887
101.864
102.692
103.379
103.936
104.382
104.732
105.006
105.219
105.384
105.515
105.621
105.714
105.811
105.919
106.036
106.157
106.268
106.357
106.41
106.41
106.335
106.163
105.876
105.463
104.923
104.259
103.479
102.588
101.587
100.495
99.35
98.207
97.136
96.199
95.452
94.952
94.768
94.968
95.617
96.768
98.456
100.718
103.587
107.108
111.327
116.253
121.865
128.106
134.893
142.151
149.811
157.796
166.007
174.334
182.662
190.886
198.911
206.627
213.905
220.594
226.542
231.638
235.811
239.025
241.275
242.546
242.829
242.135
240.501
237.982
234.64
230.532
225.72
220.291
214.364
208.087
201.61
195.046
188.483
181.986
175.606
169.403
163.426
157.697
152.223
147.001
142.025
137.301
132.83
128.589
124.547
120.648
116.854
113.155
109.546
106.031
102.615
99.295
96.082
93.014
90.133
87.484
85.103
83.01
81.225
79.765
78.626
77.799
77.249
76.918
76.77
76.758
76.817
76.89
76.885
76.692
76.229
75.365
73.955
71.991
69.555
66.842
64.216
61.953
60.25
59.456
59.853
