Name,Criss Capps
Date of Birth,"Feb 5, 1952"
Recorded Date,2025-03-07 14:24:21 -0400
Classification,Inconclusive
Symptoms,
Software Version,1.90
Device,"Watch5,4"
Sample Rate,512.844 hertz


Lead,Lead I
Unit,µV

-23.751
-24.039
-24.356
-24.71
-25.007
-25.158
-25.093
-24.73
-23.997
-22.85
-21.257
-19.214
-16.75
-13.928
-10.838
-7.569
-4.21
-0.822
2.559
5.861
9.002
11.9
14.469
16.647
18.398
19.681
20.466
20.768
20.629
20.138
19.418
18.565
17.659
16.758
15.898
15.137
14.539
14.142
13.978
14.069
14.429
15.085
16.048
17.269
18.658
20.101
21.475
22.697
23.71
24.467
24.928
25.051
24.794
24.141
23.086
21.612
19.69
17.284
14.384
11.043
7.364
3.464
-0.547
-4.587
-8.588
-12.485
-16.208
-19.691
-22.876
-25.711
-28.146
-30.124
-31.571
-32.421
-32.647
-32.271
-31.37
-30.046
-28.404
-26.557
-24.62
-22.719
-20.993
-19.554
-18.522
-18.049
-18.237
-19.138
-20.748
-22.918
-25.431
-28.091
-30.599
-32.57
-33.72
-33.837
-32.889
-31.209
-29.258
-27.409
-26.034
-25.55
-26.276
-28.404
-31.813
-35.136
-35.987
-32.251
-22.614
-7.926
9.814
30.586
57.323
96.641
154.341
230.462
319.543
410.589
494.466
568.93
634.515
692.743
739.936
764.912
755.145
701.362
602.212
463.523
297.443
120.522
-51.036
-199.465
-311.521
-384.814
-423.611
-438.534
-441.134
-434.676
-417.198
-387.741
-347.082
-301.017
-259.368
-226.602
-202.542
-185.852
-172.637
-161.86
-155.732
-154.523
-157.963
-164.715
-171.491
-176.023
-177.145
-174.282
-167.882
-158.745
-147.656
-135.534
-123.386
-112.175
-102.721
-95.473
-90.489
-87.558
-86.318
-86.369
-87.299
-88.696
-90.181
-91.514
-92.557
-93.211
-93.428
-93.141
-92.305
-90.921
-89.011
-86.596
-83.704
-80.376
-76.666
-72.657
-68.438
-64.076
-59.629
-55.141
-50.672
-46.296
-42.094
-38.149
-34.518
-31.237
-28.336
-25.83
-23.723
-22.001
-20.64
-19.601
-18.854
-18.371
-18.131
-18.117
-18.306
-18.668
-19.17
-19.772
-20.442
-21.156
-21.887
-22.614
-23.321
-23.993
-24.621
-25.202
-25.73
-26.194
-26.585
-26.89
-27.098
-27.201
-27.191
-27.061
-26.807
-26.421
-25.899
-25.237
-24.432
-23.48
-22.379
-21.123
-19.711
-18.142
-16.417
-14.539
-12.51
-10.333
-8.013
-5.555
-2.966
-0.252
2.579
5.522
8.567
11.704
14.926
18.221
21.577
24.984
28.43
31.902
35.387
38.871
42.34
45.781
49.178
52.519
55.788
58.971
62.054
65.023
67.864
70.565
73.111
75.49
77.691
79.7
81.509
83.105
84.48
85.624
86.53
87.191
87.601
87.755
87.648
87.277
86.641
85.74
84.572
83.142
81.451
79.504
77.306
74.864
72.185
69.28
66.156
62.826
59.3
55.592
51.714
47.68
43.504
39.202
34.789
30.28
25.69
21.036
16.334
11.599
6.847
2.093
-2.647
-7.359
-12.027
-16.637
-21.177
-25.631
-29.988
-34.236
-38.363
-42.359
-46.214
-49.918
-53.464
-56.844
-60.051
-63.08
-65.924
-68.58
-71.044
-73.313
-75.385
-77.259
-78.934
-80.409
-81.686
-82.765
-83.648
-84.337
-84.833
-85.141
-85.263
-85.203
-84.967
-84.558
-83.984
-83.249
-82.361
-81.328
-80.158
-78.861
-77.446
-75.922
-74.3
-72.591
-70.804
-68.948
-67.035
-65.073
-63.072
-61.045
-59.001
-56.952
-54.908
-52.883
-50.885
-48.925
-47.012
-45.15
-43.344
-41.6
-39.925
-38.329
-36.822
-35.406
-34.087
-32.866
-31.74
-30.701
-29.732
-28.804
-27.89
-26.963
-26.002
-24.993
-23.918
-22.753
-21.475
-20.053
-18.458
-16.674
-14.68
-12.458
-10.009
-7.347
-4.52
-1.612
1.3
4.146
6.873
9.435
11.764
13.779
15.388
16.503
17.064
16.992
16.164
14.519
12.087
9.039
5.743
2.603
-0.064
-1.92
-2.599
-1.874
0.308
3.637
7.361
10.709
13.099
14.077
13.318
10.743
6.628
2.002
-1.303
-1.261
3.977
16.08
36.562
66.64
107.183
157.209
213.647
273.3
332.768
390.952
449.166
505.768
556.899
594.801
607.879
590.487
542.831
471.085
388.201
303.346
221.201
143.539
68.045
-5.33
-74.182
-136.257
-189.366
-233.242
-269.299
-299.075
-324.039
-345.611
-365.095
-383.648
-401.82
-419.444
-435.943
-450.594
-462.749
-471.771
-476.902
-477.407
-472.926
-463.535
-449.612
-431.719
-410.419
-386.244
-359.809
-331.807
-302.833
-273.369
-243.795
-214.368
-185.321
-156.921
-129.439
-103.125
-78.217
-54.918
-33.387
-13.769
3.819
19.298
32.648
43.925
53.237
60.732
66.555
70.834
73.698
75.301
75.838
75.52
74.549
73.106
71.364
69.496
67.689
66.115
64.889
64.06
63.641
63.611
63.949
64.635
65.634
66.887
68.316
69.836
71.368
72.847
74.196
75.327
76.147
76.563
76.527
76.028
75.075
73.7
71.936
69.824
67.418
64.787
61.999
59.119
56.207
53.314
50.5
47.833
45.379
43.207
41.368
39.897
38.824
38.172
37.959
38.201
38.902
40.062
41.681
43.762
46.312
49.338
52.846
56.837
61.301
66.229
71.608
77.421
83.648
90.263
97.229
104.514
112.087
119.921
127.992
136.274
144.739
153.36
162.104
170.95
179.889
188.916
198.032
207.245
216.564
226.006
235.601
245.367
255.308
265.415
275.664
286.018
296.434
306.86
317.242
327.508
337.569
347.321
356.647
365.431
373.557
380.906
387.35
392.78
397.11
400.282
402.27
403.073
402.708
401.199
398.577
394.895
390.214
384.618
378.21
371.081
363.327
355.05
346.353
337.341
328.095
318.669
309.087
299.347
289.43
279.336
269.072
258.638
248.054
237.33
226.476
215.536
204.548
193.54
182.544
171.578
160.668
149.876
139.278
128.97
119.064
109.641
100.76
92.479
84.819
77.791
71.388
65.558
60.254
55.445
51.098
47.196
43.725
40.639
37.889
35.416
33.142
31.012
28.982
27.005
25.062
23.149
21.276
19.485
17.812
16.273
14.879
13.626
12.501
11.506
10.636
9.886
9.26
8.757
8.374
8.112
7.961
7.9
7.904
7.933
7.951
7.933
7.861
7.723
7.513
7.225
6.858
6.418
5.908
5.329
4.684
3.97
3.191
2.354
1.467
0.54
-0.413
-1.382
-2.356
-3.326
-4.283
-5.218
-6.125
-6.999
-7.834
-8.626
-9.366
-10.048
-10.664
-11.209
-11.676
-12.059
-12.354
-12.555
-12.662
-12.672
-12.585
-12.402
-12.124
-11.753
-11.292
-10.744
-10.114
-9.407
-8.628
-7.784
-6.882
-5.93
-4.935
-3.906
-2.853
-1.784
-0.709
0.362
1.421
2.458
3.464
4.43
5.347
6.206
6.999
7.716
8.35
8.893
9.338
9.678
9.908
10.022
10.018
9.89
9.637
9.257
8.748
8.112
7.347
6.455
5.438
4.3
3.043
1.673
0.193
-1.39
-3.069
-4.838
-6.69
-8.617
-10.611
-12.663
-14.764
-16.907
-19.082
-21.279
-23.49
-25.705
-27.914
-30.108
-32.278
-34.414
-36.509
-38.554
-40.54
-42.459
-44.305
-46.071
-47.75
-49.335
-50.822
-52.204
-53.479
-54.641
-55.686
-56.613
-57.419
-58.101
-58.658
-59.09
-59.395
-59.575
-59.629
-59.558
-59.364
-59.047
-58.612
-58.058
-57.391
-56.612
-55.726
-54.736
-53.648
-52.465
-51.192
-49.835
-48.397
-46.886
-45.306
-43.663
-41.963
-40.211
-38.415
-36.581
-34.714
-32.822
-30.911
-28.989
-27.061
-25.135
-23.218
-21.317
-19.438
-17.588
-15.775
-14.006
-12.287
-10.625
-9.026
-7.497
-6.044
-4.672
-3.387
-2.194
-1.098
-0.103
0.787
1.566
2.232
2.781
3.209
3.514
3.694
3.747
3.673
3.47
3.14
2.682
2.099
1.392
0.565
-0.38
-1.439
-2.608
-3.882
-5.254
-6.72
-8.272
-9.904
-11.607
-13.374
-15.198
-17.069
-18.98
-20.922
-22.885
-24.862
-26.841
-28.813
-30.767
-32.692
-34.575
-36.405
-38.171
-39.86
-41.462
-42.966
-44.363
-45.643
-46.8
-47.824
-48.708
-49.445
-50.025
-50.44
-50.684
-50.747
-50.623
-50.306
-49.787
-49.061
-48.126
-46.981
-45.622
-44.045
-42.242
-40.21
-37.954
-35.479
-32.794
-29.914
-26.854
-23.633
-20.285
-16.839
-13.324
-9.765
-6.172
-2.557
1.067
4.684
8.277
11.836
15.37
18.889
22.402
25.918
29.448
33.013
36.658
40.418
44.316
48.36
52.532
56.801
61.141
65.518
69.884
74.177
78.305
82.166
85.679
88.767
91.356
93.365
94.68
95.205
94.87
93.626
91.464
88.392
84.419
79.574
73.923
67.557
60.616
53.252
45.588
37.739
29.813
21.922
14.211
6.808
-0.177
-6.663
-12.596
-17.929
-22.617
-26.642
-30.026
-32.835
-35.199
-37.257
-39.123
-40.9
-42.658
-44.485
-46.495
-48.782
-51.447
-54.562
-58.149
-62.252
-66.951
-72.244
-78.048
-84.134
-90.039
-95.272
-99.443
-102.15
-102.987
-101.648
-97.954
-92.085
-84.699
-76.64
-68.581
-60.972
-54.382
-49.308
-45.794
-43.403
-40.297
-33.353
-20.941
-2.399
22.344
51.412
86.321
130.594
185.571
253.192
330.092
408.881
485.224
554.171
612.678
658.336
683.319
678.35
635.567
551.699
431.408
285.603
127.834
-28.477
-170.803
-289.456
-377.723
-433.888
-462.618
-470.54
-464.778
-448.969
-421.737
-383.681
-337.846
-289.723
-248.222
-217.703
-197.131
-184.544
-175.713
-168.671
-165.221
-165.718
-169.784
-176.065
-181.335
-183.43
-181.776
-176.455
-168.233
-158.025
-146.619
-134.895
-123.9
-114.605
-107.475
-102.576
-99.753
-98.638
-98.862
-100.083
-101.88
-103.814
-105.626
-107.163
-108.311
-109.041
-109.294
-108.98
-108.071
-106.578
-104.505
-101.88
-98.746
-95.138
-91.122
-86.781
-82.172
-77.358
-72.392
-67.322
-62.22
-57.161
-52.217
-47.472
-42.989
-38.812
-34.974
-31.487
-28.345
-25.541
-23.057
-20.864
-18.947
-17.288
-15.871
-14.69
-13.728
-12.964
-12.373
-11.921
-11.582
-11.334
-11.158
-11.043
-10.977
-10.953
-10.966
-11.016
-11.1
-11.211
-11.342
-11.48
-11.615
-11.737
-11.838
-11.911
-11.948
-11.941
-11.88
-11.758
-11.566
-11.297
-10.94
-10.485
-9.922
-9.245
-8.448
-7.524
-6.47
-5.281
-3.955
-2.49
-0.887
0.856
2.737
4.754
6.906
9.189
11.598
14.128
16.772
19.524
22.374
25.315
28.334
31.423
34.569
37.761
40.986
44.231
47.484
50.73
53.957
57.15
60.295
63.378
66.385
69.302
72.117
74.815
77.385
79.814
82.092
84.208
86.153
87.919
89.498
90.883
92.071
93.056
93.835
94.408
94.773
94.931
94.885
94.638
94.193
93.556
92.733
91.729
90.554
89.215
87.72
86.08
84.305
82.405
80.393
78.279
76.074
73.788
71.43
69.012
66.549
64.051
61.523
58.978
56.438
53.922
51.45
49.033
46.659
44.333
42.081
39.897
37.743
35.594
33.418
31.212
29.032
26.897
24.755
22.658
20.809
19.26
17.947
16.896
15.9
15.325
16.432
19.008
21.872
23.171
19.332
10.406
0.017
-8.279
-9.427
-2.881
6.523
15.031
18.658
16.522
12.218
8.005
5.36
4.802
4.866
4.84
4.778
4.618
4.571
4.697
4.789
4.776
4.686
4.508
4.222
3.829
3.329
2.734
2.075
1.358
0.561
-0.328
-1.319
-2.422
-3.635
-4.965
-6.416
-7.984
-9.659
-11.422
-13.238
-15.078
-16.912
-18.716
-20.471
-22.155
-23.74
-25.198
-26.496
-27.605
-28.51
-29.193
-29.636
-29.846
-29.84
-29.669
-29.423
-29.19
-29.053
-29.09
-29.355
-29.91
-30.835
-32.206
-34.104
-36.597
-39.713
-43.509
-48.074
-53.406
-59.42
-65.895
-72.436
-78.673
-84.313
-89.013
-92.387
-94.153
-94.167
-92.625
-90.057
-86.973
-83.758
-80.757
-78.333
-76.778
-76.06
-75.457
-73.694
-69.416
-61.227
-47.719
-27.437
1.225
38.707
83.211
132.401
183.945
237.004
293.597
353.977
414.607
468.498
504.433
512.548
488.994
434.464
356.056
265.19
171.741
85.603
12.938
-46.639
-95.499
-139.166
-182.884
-227.308
-271.081
-311.162
-344.732
-371.561
-393.196
-411.696
-428.489
-444.173
-458.499
-470.811
-480.903
-488.681
-493.824
-496.118
-495.222
-490.622
-482.257
-470.35
-455.135
-437.027
-416.455
-393.754
-369.371
-343.832
-317.527
-290.78
-263.865
-236.917
-210.078
-183.522
-157.393
-131.873
-107.165
-83.443
-60.883
-39.656
-19.905
-1.763
14.656
29.283
42.082
53.049
62.209
69.562
75.097
78.815
80.72
80.884
79.419
76.459
72.165
66.708
60.277
53.075
45.312
37.177
28.836
20.428
12.066
3.877
-3.996
-11.398
-18.157
-24.137
-29.255
-33.462
-36.745
-39.122
-40.629
-41.328
-41.305
-40.652
-39.447
-37.759
-35.636
-33.132
-30.332
-27.34
-24.292
-21.321
-18.518
-15.947
-13.648
-11.636
-9.914
-8.465
-7.245
-6.193
-5.262
-4.406
-3.592
-2.79
-1.943
-0.98
0.187
1.65
3.481
5.733
8.452
11.672
15.416
19.688
24.469
29.727
35.431
41.547
48.04
54.866
61.973
69.305
76.808
84.436
92.142
99.886
107.625
115.314
122.924
130.45
137.893
145.263
152.584
159.881
167.202
174.623
182.198
189.965
197.946
206.126
214.496
223.045
231.75
240.587
249.513
258.453
267.332
276.075
284.578
292.728
300.379
307.333
313.433
318.554
322.592
325.495
327.215
327.697
326.925
324.891
321.601
317.091
311.393
304.525
296.549
287.543
277.611
266.931
255.653
243.895
231.775
219.375
206.778
194.085
181.371
168.695
156.135
143.762
131.658
119.948
108.72
98.046
87.991
78.556
69.75
61.6
54.113
47.307
41.197
35.767
31.013
26.939
23.517
20.707
18.448
16.628
15.159
13.964
12.96
12.101
11.346
10.645
9.969
9.296
8.601
7.879
7.124
6.316
5.46
4.572
3.682
2.847
2.113
1.512
1.079
0.832
0.778
0.929
1.28
1.813
2.514
3.367
4.35
5.452
6.654
7.93
9.252
10.58
11.883
13.136
14.317
15.409
16.398
17.273
18.03
18.671
19.197
19.607
19.903
20.081
20.139
20.081
19.906
19.618
19.219
18.708
18.087
17.357
16.518
15.571
14.517
13.355
12.085
10.71
9.233
7.659
5.992
4.238
2.404
0.497
-1.476
-3.506
-5.585
-7.706
-9.86
-12.038
-14.231
-16.43
-18.626
-20.809
-22.969
-25.097
-27.181
-29.213
-31.182
-33.078
-34.89
-36.608
-38.223
-39.725
-41.106
-42.356
-43.468
-44.435
-45.248
-45.904
-46.396
-46.722
-46.877
-46.861
-46.672
-46.312
-45.783
-45.087
-44.229
-43.213
-42.045
-40.734
-39.286
-37.712
-36.02
-34.222
-32.33
-30.355
-28.312
-26.215
-24.076
-21.912
-19.736
-17.564
-15.413
-13.295
-11.228
-9.226
-7.304
-5.477
-3.758
-2.161
-0.699
0.616
1.775
2.766
3.582
4.216
4.66
4.912
4.968
4.825
4.484
3.946
3.212
2.287
1.176
-0.115
-1.577
-3.201
-4.978
-6.895
-8.94
-11.1
-13.36
-15.706
-18.122
-20.591
-23.097
-25.623
-28.15
-30.662
-33.14
-35.567
-37.925
-40.197
-42.367
-44.418
-46.336
-48.106
-49.713
-51.147
-52.396
-53.449
-54.297
-54.934
-55.353
-55.549
-55.519
-55.261
-54.775
-54.062
-53.124
-51.966
-50.592
-49.01
-47.227
-45.253
-43.098
-40.774
-38.294
-35.671
-32.921
-30.058
-27.099
-24.062
-20.962
-17.818
-14.647
-11.469
-8.301
-5.161
-2.066
0.965
3.917
6.772
9.515
12.131
14.607
16.929
19.084
21.062
22.853
24.447
25.836
27.015
27.976
28.718
29.236
29.531
29.602
29.453
29.086
28.505
27.718
26.73
25.55
24.187
22.652
20.955
19.109
17.127
15.024
12.813
10.511
8.132
5.693
3.209
0.697
-1.827
-4.348
-6.848
-9.31
-11.719
-14.057
-16.307
-18.453
-20.478
-22.366
-24.103
-25.676
-27.073
-28.283
-29.297
-30.108
-30.711
-31.1
-31.269
-31.214
-30.93
-30.411
-29.656
-28.662
-27.427
-25.954
-24.244
-22.303
-20.141
-17.765
-15.182
-12.398
-9.416
-6.245
-2.899
0.609
4.258
8.025
11.88
15.783
19.69
23.569
27.393
31.141
34.806
38.376
41.841
45.196
48.425
51.515
54.458
57.235
59.834
62.26
64.522
66.653
68.694
70.661
72.558
74.376
76.082
77.639
79.001
80.098
80.879
81.305
81.335
80.951
80.135
78.846
77.046
74.683
71.686
68.02
63.667
58.616
52.897
46.56
39.673
32.345
24.677
16.752
8.659
0.477
-7.723
-15.85
-23.817
-31.542
-38.914
-45.84
-52.24
-58.022
-63.14
-67.579
-71.328
-74.419
-76.904
-78.827
-80.256
-81.281
-81.954
-82.344
-82.532
-82.583
-82.612
-82.739
-83.031
-83.588
-84.514
-85.837
-87.571
-89.624
-91.687
-93.457
-94.677
-95
-94.116
-91.825
-87.944
-82.612
-76.447
-70.041
-63.84
-58.417
-54.304
-51.895
-51.657
-52.67
-52.222
-48.044
-38.309
-23.712
-7.896
8.173
26.487
53.065
97.127
162.148
245.127
337.821
427.786
506.804
571.484
618.387
644.587
644.648
610.304
539.409
434.999
303.841
158.984
11.021
-130.405
-254.942
-357.011
-430.444
-473.069
-486.911
-473.237
-438.97
-391.047
-337.311
-289.471
-252.62
-228.429
-214.862
-203.934
-192.068
-179.045
-166.128
-157.654
-154.948
-156.227
-159.271
-160.952
-159.284
-154.119
-145.805
-134.994
-122.497
-109.089
-95.584
-82.924
-71.997
-63.22
-56.652
-52.18
-49.484
-48.222
-48.086
-48.692
-49.642
-50.705
-51.744
-52.675
-53.484
-54.129
-54.536
-54.653
-54.461
-53.951
-53.132
-52.035
-50.684
-49.124
-47.413
-45.609
-43.767
-41.931
-40.139
-38.424
-36.824
-35.382
-34.143
-33.165
-32.484
-32.118
-32.068
-32.315
-32.833
-33.598
-34.573
-35.715
-36.985
-38.347
-39.771
-41.234
-42.708
-44.159
-45.547
-46.828
-47.965
-48.927
-49.691
-50.238
-50.553
-50.622
-50.438
-50.003
-49.313
-48.367
-47.16
-45.687
-43.945
-41.936
-39.663
-37.134
-34.355
-31.334
-28.081
-24.606
-20.921
-17.039
-12.973
-8.733
-4.334
0.209
4.878
9.655
14.522
19.46
24.449
29.471
34.503
39.528
44.525
49.476
54.363
59.167
63.87
68.454
72.901
77.195
81.32
85.259
88.997
92.52
95.813
98.864
101.66
104.193
106.45
108.426
110.111
111.501
112.59
113.377
113.857
114.032
113.901
113.467
112.734
111.705
110.387
108.787
106.913
104.774
102.379
99.742
96.872
93.784
90.491
87.008
83.351
79.537
75.583
71.507
67.329
63.066
58.739
54.368
49.972
45.572
41.187
36.835
32.537
28.311
24.172
20.139
16.227
12.449
8.82
5.351
2.053
-1.064
-3.992
-6.723
-9.252
-11.572
-13.682
-15.579
-17.261
-18.73
-19.988
-21.037
-21.882
-22.529
-22.985
-23.259
-23.359
-23.295
-23.081
-22.728
-22.25
-21.661
-20.975
-20.207
-19.373
-18.487
-17.566
-16.624
-15.676
-14.736
-13.819
-12.937
-12.105
-11.334
-10.637
-10.027
-9.515
-9.112
-8.829
-8.676
-8.662
-8.794
-9.08
-9.524
-10.128
-10.896
-11.828
-12.924
-14.184
-15.607
-17.188
-18.925
-20.81
-22.838
-24.997
-27.277
-29.662
-32.137
-34.69
-37.312
-39.994
-42.722
-45.482
-48.255
-51.022
-53.759
-56.437
-59.013
-61.446
-63.695
-65.726
-67.509
-69.016
-70.216
-71.072
-71.539
-71.582
-71.175
-70.302
-68.952
-67.124
-64.838
-62.146
-59.135
-55.896
-52.507
-49.037
-45.556
-42.156
-38.936
-36.003
-33.438
-31.324
-29.783
-28.898
-28.685
-29.057
-29.786
-30.582
-31.175
-31.267
-30.459
-28.434
-25.086
-20.619
-15.542
-10.403
-5.705
-1.934
0.272
0.218
-1.585
-3.284
-3.073
1.137
9.206
18.401
29.02
42.469
62.344
96.316
147.009
213.8
294.604
380.573
462.718
532.959
580.839
599.893
588.558
546.889
479.461
394.974
300.683
205.363
118.537
42.964
-21.169
-77.042
-132.296
-189.742
-248.777
-306.85
-358.701
-402.15
-437.679
-466.527
-490.96
-512.177
-530.501
-546.461
-560.177
-571.641
-580.995
-588.075
-592.614
-594.466
-593.261
-588.553
-580.277
-568.588
-553.768
-536.286
-516.575
-494.999
-472.049
-448.261
-424.027
-399.64
-375.272
-350.987
-326.894
-303.124
-279.804
-257.04
-234.901
-213.457
-192.793
-172.993
-154.136
-136.289
-119.486
-103.756
-89.142
-75.662
-63.348
-52.225
-42.284
-33.505
-25.839
-19.222
-13.601
-8.914
-5.079
-2.013
0.375
2.188
3.512
4.446
5.105
5.573
5.918
6.201
6.448
6.678
6.903
7.113
7.3
7.449
7.537
7.539
7.436
7.197
6.794
6.189
5.332
4.203
2.802
1.14
-0.748
-2.826
-5.054
-7.378
-9.738
-12.075
-14.334
-16.461
-18.411
-20.136
-21.58
-22.691
-23.407
-23.683
-23.486
-22.789
-21.574
-19.825
-17.531
-14.69
-11.305
-7.383
-2.929
2.054
7.567
13.607
20.165
27.223
34.759
42.751
51.17
59.988
69.168
78.665
88.432
98.429
108.615
118.961
129.435
140.004
150.631
161.277
171.915
182.531
193.119
203.665
214.162
224.602
234.983
245.333
255.663
265.976
276.266
286.5
296.637
306.64
316.466
326.059
335.35
344.242
352.623
360.403
367.497
373.819
379.285
383.779
387.202
389.489
390.586
390.474
389.152
386.618
382.883
377.993
372.013
365.042
357.203
348.592
339.3
329.421
319.051
308.31
297.307
286.127
274.837
263.496
252.149
240.849
229.642
218.543
207.556
196.668
185.848
175.088
164.391
153.757
143.19
132.686
122.244
111.879
101.619
91.489
81.512
71.707
62.093
52.7
43.564
34.723
26.219
18.081
10.329
2.983
-3.942
-10.436
-16.492
-22.11
-27.302
-32.072
-36.429
-40.378
-43.927
-47.087
-49.873
-52.3
-54.384
-56.142
-57.589
-58.742
-59.616
-60.227
-60.59
-60.719
-60.626
-60.324
-59.829
-59.154
-58.314
-57.324
-56.196
-54.946
-53.585
-52.127
-50.582
-48.961
-47.274
-45.53
-43.736
-41.9
-40.031
-38.134
-36.215
-34.282
-32.339
-30.392
-28.446
-26.505
-24.573
-22.655
-20.754
-18.873
-17.016
-15.186
-13.385
-11.618
-9.886
-8.193
-6.542
-4.934
-3.372
-1.86
-0.399
1.008
2.359
3.651
4.882
6.047
7.145
8.171
9.123
9.998
10.791
11.5
12.123
12.656
13.097
13.445
13.697
13.853
13.911
13.87
13.729
13.489
13.149
12.71
12.173
11.538
10.808
9.983
9.066
8.059
6.966
5.788
4.53
3.194
1.785
0.307
-1.235
-2.835
-4.487
-6.186
-7.924
-9.695
-11.492
-13.306
-15.13
-16.957
-18.78
-20.589
-22.378
-24.138
-25.863
-27.544
-29.174
-30.746
-32.253
-33.687
-35.043
-36.312
-37.489
-38.568
-39.542
-40.407
-41.156
-41.785
-42.288
-42.661
-42.901
-43.005
-42.969
-42.792
-42.473
-42.011
-41.408
-40.664
-39.78
-38.761
-37.609
-36.328
-34.923
-33.398
-31.76
-30.015
-28.17
-26.232
-24.209
-22.108
-19.94
-17.713
-15.435
-13.118
-10.771
-8.404
-6.028
-3.654
-1.294
1.042
3.341
5.593
7.787
9.911
11.955
13.909
15.763
17.508
19.136
20.639
22.01
23.243
24.333
25.274
26.062
26.695
27.169
27.483
27.636
27.627
27.457
27.127
26.639
25.994
25.196
24.25
23.158
21.927
20.562
19.07
17.458
15.734
13.906
11.982
9.972
7.886
5.732
3.519
1.258
-1.042
-3.373
-5.724
-8.088
-10.456
-12.819
-15.17
-17.5
-19.803
-22.071
-24.299
-26.479
-28.606
-30.675
-32.679
-34.615
-36.477
-38.261
-39.964
-41.581
-43.11
-44.548
-45.893
-47.145
-48.302
-49.365
-50.332
-51.205
-51.985
-52.672
-53.268
-53.774
-54.19
-54.518
-54.759
-54.916
-54.991
-54.985
-54.899
-54.737
-54.5
-54.19
-53.809
-53.358
-52.84
-52.257
-51.61
-50.904
-50.14
-49.322
-48.452
-47.534
-46.569
-45.56
-44.51
-43.419
-42.289
-41.121
-39.916
-38.673
-37.393
-36.078
-34.728
-33.344
-31.93
-30.487
-29.016
-27.52
-26.001
-24.458
-22.892
-21.301
-19.683
-18.036
-16.361
-14.656
-12.922
-11.16
-9.371
-7.556
-5.719
-3.858
-1.971
-0.052
1.906
3.897
5.916
7.952
9.985
12.001
13.986
15.915
17.773
19.551
21.249
22.879
24.456
25.983
27.455
28.854
30.162
31.38
32.51
33.556
34.537
35.468
36.37
37.285
38.238
39.225
40.225
41.184
42.033
42.727
43.232
43.527
43.598
43.419
42.962
42.214
41.142
39.712
37.874
35.553
32.697
29.296
25.368
20.976
16.217
11.166
5.903
0.509
-4.956
-10.425
-15.84
-21.163
-26.34
-31.304
-35.973
-40.241
-44.021
-47.266
-49.945
-52.078
-53.734
-54.991
-55.954
-56.738
-57.424
-58.089
-58.82
-59.686
-60.771
-62.174
-63.973
-66.276
-69.213
-72.838
-77.136
-81.942
-86.889
-91.534
-95.441
-98.153
-99.242
-98.409
-95.541
-90.921
-85.258
-79.438
-74.346
-70.613
-68.621
-68.683
-70.756
-73.9
-76.603
-76.13
-68.83
-53.083
-28.045
6.071
46.591
94.238
151.124
217.142
293.347
375.427
455.177
528.182
589.281
635.374
664.44
669.289
642.206
577.748
475.276
340.909
185.66
22.766
-134.639
-273.467
-381.844
-451.484
-479.972
-470.461
-431.931
-377.131
-317.036
-262.29
-220.338
-191.653
-174.33
-162.887
-150.595
-135.979
-119.944
-105.18
-95.56
-91.578
-91.917
-94.647
-97.115
-97.939
-96.64
-93.169
-88.111
-82.018
-75.283
-68.448
-62.04
-56.611
-52.827
-50.979
-50.99
-52.644
-55.592
-59.494
-64.079
-69.012
-73.86
-78.281
-82.083
-85.172
-87.57
-89.312
-90.395
-90.835
-90.692
-90.034
-88.941
-87.494
-85.747
-83.75
-81.569
-79.28
-76.976
-74.772
-72.744
-70.939
-69.385
-68.088
-67.057
-66.296
-65.791
-65.504
-65.398
-65.434
-65.579
-65.812
-66.101
-66.406
-66.684
-66.884
-66.969
-66.914
-66.696
-66.299
-65.705
-64.9
-63.878
-62.643
-61.193
-59.527
-57.641
-55.528
-53.186
-50.617
-47.824
-44.809
-41.575
-38.126
-34.465
-30.599
-26.533
-22.276
-17.832
-13.21
-8.417
-3.465
1.632
6.862
12.21
17.66
23.196
28.8
34.455
40.144
45.849
51.553
57.24
62.892
68.492
74.024
79.472
84.82
90.053
95.156
100.115
104.916
109.546
113.993
118.245
122.291
126.12
129.722
133.088
136.211
139.082
141.694
144.042
146.121
147.927
149.456
150.706
151.677
152.367
152.778
152.912
152.769
152.354
151.668
150.718
149.507
148.04
146.324
144.365
142.169
139.744
137.097
134.236
131.171
127.908
124.458
120.83
117.033
113.079
108.977
104.74
100.377
95.902
91.326
86.662
81.922
77.117
72.262
67.368
62.447
57.513
52.578
47.653
42.752
37.886
33.068
28.31
23.623
19.019
14.509
10.104
5.815
1.653
-2.372
-6.248
-9.966
-13.515
-16.886
-20.071
-23.059
-25.844
-28.418
-30.775
-32.909
-34.816
-36.491
-37.931
-39.134
-40.097
-40.821
-41.307
-41.555
-41.568
-41.351
-40.908
-40.246
-39.372
-38.296
-37.028
-35.576
-33.954
-32.173
-30.248
-28.19
-26.014
-23.735
-21.368
-18.929
-16.438
-13.91
-11.364
-8.819
-6.293
-3.805
-1.374
0.984
3.256
5.429
7.487
9.417
11.2
12.822
14.276
15.553
16.648
17.562
18.297
18.868
19.302
19.625
19.862
20.037
20.164
20.266
20.369
20.5
20.693
20.977
21.368
21.883
22.542
23.343
24.278
25.31
26.358
27.343
28.189
28.828
29.216
29.302
29.009
28.258
26.976
25.108
22.645
19.551
15.733
11.168
5.939
0.267
-5.452
-10.849
-15.688
-19.669
-22.359
-23.454
-22.873
-20.868
-18.111
-15.146
-12.27
-9.944
-8.792
-9.221
-10.467
-10.527
-7.226
0.779
12.223
24.692
38.379
55.801
81.858
122.01
176.992
243.908
318.295
393.32
462.149
518.114
552.787
559.283
535.315
481.939
405.49
316.433
224.013
137.656
63.698
2.261
-48.813
-94.895
-140.977
-187.65
-233.345
-274.666
-308.96
-336.21
-358.041
-376.803
-394.116
-410.703
-426.584
-441.287
-454.535
-466.156
-475.754
-482.97
-487.408
-488.503
-486.052
-480.175
-471.052
-459.04
-444.556
-427.939
-409.602
-390.057
-369.671
-348.73
-327.497
-306.085
-284.592
-263.156
-241.869
-220.85
-200.293
-180.354
-161.176
-142.919
-125.688
-109.589
-94.735
-81.168
-68.889
-57.872
-48.053
-39.397
-31.902
-25.536
-20.252
-15.962
-12.521
-9.799
-7.681
-6.029
-4.708
-3.571
-2.456
-1.266
0.044
1.5
3.096
4.839
6.749
8.82
11.029
13.333
15.668
17.977
20.214
22.31
24.191
25.775
26.976
27.749
28.086
27.997
27.504
26.636
25.42
23.9
22.137
20.184
18.101
15.938
13.744
11.578
9.505
7.592
5.907
4.503
3.417
2.684
2.329
2.377
2.844
3.739
5.065
6.831
9.046
11.726
14.881
18.51
22.608
27.165
32.167
37.596
43.424
49.616
56.141
62.967
70.066
77.418
84.994
92.764
100.701
108.771
116.95
125.229
133.597
142.048
150.595
159.246
168.023
176.964
186.085
195.391
204.88
214.53
224.322
234.228
244.2
254.185
264.119
273.911
283.468
292.68
301.408
309.524
316.895
323.377
328.857
333.237
336.44
338.427
339.169
338.651
336.885
333.879
329.666
324.338
317.963
310.602
302.366
293.352
283.682
273.554
263.094
252.345
241.463
230.723
220.224
209.963
199.998
190.13
180.796
173.262
167.237
161.546
154.223
141.63
124.005
104.93
88.007
78.359
76.262
76.899
76.565
71.236
60.272
47.318
34.606
23.686
15.035
7.211
-0.405
-7.734
-14.803
-21.37
-27.368
-32.991
-38.293
-43.241
-47.852
-52.144
-56.117
-59.773
-63.1
-66.075
-68.699
-71.003
-73.005
-74.718
-76.155
-77.327
-78.248
-78.934
-79.398
-79.649
-79.696
-79.549
-79.218
-78.716
-78.055
-77.245
-76.299
-75.226
-74.036
-72.74
-71.346
-69.861
-68.293
-66.647
-64.931
-63.149
-61.306
-59.409
-57.461
-55.466
-53.431
-51.358
-49.252
-47.117
-44.956
-42.773
-40.573
-38.359
-36.136
-33.906
-31.675
-29.446
-27.224
-25.012
-22.815
-20.637
-18.482
-16.353
-14.256
-12.194
-10.172
-8.195
-6.268
-4.396
-2.585
-0.839
0.835
2.432
3.946
5.373
6.707
7.944
9.078
10.106
11.024
11.829
12.516
13.084
13.53
13.852
14.05
14.121
14.066
13.886
13.581
13.151
12.6
11.928
11.139
10.235
9.22
8.097
6.872
5.549
4.133
2.632
1.05
-0.605
-2.325
-4.104
-5.934
-7.807
-9.715
-11.65
-13.605
-15.571
-17.541
-19.506
-21.46
-23.395
-25.304
-27.18
-29.018
-30.811
-32.553
-34.24
-35.867
-37.43
-38.925
-40.349
-41.698
-42.969
-44.162
-45.274
-46.304
-47.253
-48.12
-48.905
-49.611
-50.238
-50.789
-51.266
-51.672
-52.01
-52.284
-52.497
-52.653
-52.756
-52.811
-52.821
-52.792
-52.726
-52.629
-52.505
-52.357
-52.19
-52.006
-51.81
-51.605
-51.393
-51.179
-50.964
-50.751
-50.543
-50.342
-50.148
-49.965
-49.793
-49.632
-49.485
-49.35
-49.228
-49.12
-49.024
-48.942
-48.871
-48.812
-48.764
-48.725
-48.696
-48.674
-48.66
-48.651
-48.648
-48.648
-48.652
-48.659
-48.668
-48.679
-48.691
-48.705
-48.72
-48.735
-48.751
-48.769
-48.787
-48.807
-48.829
-48.852
-48.879
-48.908
-48.94
-48.977
-49.017
-49.062
-49.111
-49.165
-49.222
-49.284
-49.349
-49.418
-49.488
-49.56
-49.632
-49.703
-49.772
-49.836
-49.895
-49.946
-49.987
-50.015
-50.027
-50.021
-49.995
-49.943
-49.865
-49.755
-49.611
-49.43
-49.207
-48.939
-48.623
-48.255
-47.831
-47.349
-46.806
-46.199
-45.525
-44.782
-43.969
-43.084
-42.126
-41.093
-39.987
-38.806
-37.55
-36.22
-34.817
-33.342
-31.796
-30.181
-28.498
-26.752
-24.943
-23.074
-21.15
-19.173
-17.147
-15.076
-12.963
-10.814
-8.632
-6.423
-4.19
-1.939
0.326
2.6
4.878
7.156
9.429
11.693
13.943
16.175
18.386
20.571
22.726
24.849
26.936
28.983
30.987
32.944
34.851
36.704
38.501
40.236
41.906
43.507
45.036
46.489
47.86
49.145
50.34
51.44
52.439
53.333
54.113
54.773
55.307
55.707
55.966
56.077
56.032
55.825
55.451
54.905
54.182
53.276
52.183
50.895
49.41
47.723
45.832
43.736
41.434
38.927
36.223
33.328
30.249
26.991
23.553
19.936
16.147
12.196
8.092
3.855
-0.499
-4.943
-9.442
-13.959
-18.458
-22.907
-27.282
-31.556
-35.696
-39.665
-43.417
-46.905
-50.097
-52.967
-55.49
-57.664
-59.497
-61.019
-62.291
-63.37
-64.319
-65.209
-66.103
-67.079
-68.226
-69.63
-71.392
-73.64
-76.426
-79.74
-83.503
-87.498
-91.471
-95.173
-98.263
-100.365
-101.258
-100.833
-99.206
-96.827
-94.168
-91.677
-89.841
-88.988
-89.309
-90.91
-93.464
-96.096
-97.04
-93.692
-83.917
-66.577
-42.722
-14.871
16.296
52.405
97.764
156.938
229.866
312.037
395.599
472.65
538.519
589.248
620.598
625.815
595.915
526.058
416.489
275.283
118.237
-37.869
-176.168
-285.017
-361.471
-407.711
-430.862
-437.229
-428.245
-404.302
-366.285
-319.194
-273.185
-236.562
-212.668
-198.92
-187.994
-175.133
-159.565
-143.49
-131.168
-124.116
-121.606
-122.004
-122.609
-121.933
-119.512
-115.22
-109.613
-103.27
-96.452
-89.54
-83.011
-77.314
-73.018
-70.403
-69.319
-69.493
-70.564
-72.151
-73.982
-75.77
-77.149
-77.873
-77.826
-76.96
-75.334
-73.022
-70.051
-66.483
-62.408
-57.909
-53.1
-48.099
-43.011
-37.961
-33.051
-28.354
-23.945
-19.885
-16.217
-12.973
-10.162
-7.771
-5.795
-4.228
-3.057
-2.266
-1.822
-1.683
-1.806
-2.145
-2.661
-3.324
-4.103
-4.974
-5.916
-6.912
-7.952
-9.03
-10.136
-11.255
-12.373
-13.475
-14.549
-15.584
-16.571
-17.499
-18.358
-19.138
-19.829
-20.422
-20.906
-21.271
-21.506
-21.601
-21.547
-21.339
-20.969
-20.436
-19.736
-18.868
-17.831
-16.625
-15.252
-13.715
-12.015
-10.155
-8.142
-5.978
-3.672
-1.229
1.341
4.032
6.832
9.733
12.722
15.791
18.926
22.116
25.349
28.615
31.899
35.191
38.478
41.748
44.988
48.187
51.332
54.412
57.415
60.329
63.142
65.845
68.426
70.876
73.184
75.341
77.338
79.167
80.82
82.29
83.571
84.656
85.542
86.224
86.7
86.966
87.024
86.87
86.508
85.936
85.158
84.176
82.993
81.613
80.04
78.28
76.339
74.223
71.94
69.498
66.905
64.17
61.302
58.312
55.211
52.008
48.715
45.344
41.906
38.414
34.879
31.314
27.731
24.142
20.561
16.999
13.467
9.978
6.541
3.168
-0.13
-3.343
-6.462
-9.477
-12.378
-15.156
-17.803
-20.31
-22.67
-24.876
-26.922
-28.802
-30.51
-32.043
-33.396
-34.566
-35.551
-36.348
-36.957
-37.378
-37.612
-37.66
-37.526
-37.213
-36.726
-36.071
-35.257
-34.29
-33.179
-31.933
-30.562
-29.076
-27.486
-25.802
-24.033
-22.191
-20.286
-18.331
-16.338
-14.32
-12.29
-10.26
-8.242
-6.247
-4.286
-2.366
-0.493
1.326
3.084
4.767
6.363
7.866
9.27
10.57
11.768
12.87
13.889
14.851
15.779
16.698
17.628
18.585
19.584
20.645
21.79
23.052
24.461
26.037
27.802
29.771
31.942
34.294
36.785
39.334
41.868
44.323
46.631
48.73
50.548
51.994
52.985
53.445
53.279
52.361
50.602
47.977
44.595
40.725
36.687
32.814
29.463
27.041
25.898
26.181
27.653
29.691
31.527
32.459
31.924
29.372
24.39
17.038
8.23
-0.361
-6.655
-8.419
-3.635
9.763
33.923
69.374
114.395
166.766
223.487
283.706
349.624
419.534
488.413
546.972
581.596
585.048
556.775
500.609
425.146
337.494
242.467
146.904
58.55
-17.315
-77.9
-126.021
-169.729
-214.031
-260.3
-306.855
-348.705
-383.416
-411.567
-434.566
-454.614
-472.855
-489.311
-503.758
-515.811
-525.298
-532.065
-535.898
-536.69
-534.225
-528.25
-518.838
-506.217
-490.704
-472.774
-452.849
-431.279
-408.51
-385.014
-361.15
-337.205
-313.354
-289.677
-266.287
-243.316
-220.899
-199.155
-178.164
-157.999
-138.739
-120.464
-103.251
-87.166
-72.242
-58.503
-45.976
-34.668
-24.598
-15.78
-8.191
-1.797
3.472
7.699
10.954
13.318
14.885
15.757
16.038
15.844
15.273
14.428
13.425
12.349
11.273
10.255
9.325
8.5
7.786
7.172
6.646
6.191
5.779
5.386
4.989
4.556
4.061
3.47
2.742
1.862
0.834
-0.325
-1.583
-2.9
-4.235
-5.535
-6.739
-7.795
-8.646
-9.242
-9.538
-9.484
-9.028
-8.122
-6.712
-4.759
-2.236
0.881
4.603
8.936
13.884
19.444
25.611
32.383
39.752
47.701
56.214
65.268
74.832
84.873
95.347
106.203
117.392
128.87
140.601
152.553
164.685
176.949
189.291
201.658
214.01
226.319
238.56
250.713
262.769
274.732
286.637
298.525
310.422
322.33
334.226
346.078
357.871
369.589
381.218
392.737
404.095
415.241
426.119
436.648
446.732
456.236
464.974
472.764
479.437
484.859
488.95
491.642
492.867
492.591
490.748
487.282
482.254
475.696
467.646
458.217
447.422
435.296
422.101
408.087
393.323
377.943
361.939
345.243
328.193
311.129
294.131
277.345
261.002
245.256
230.487
217.066
204.764
193.305
182.56
172.308
162.395
152.722
142.984
132.887
122.577
112.224
101.903
91.747
81.746
71.833
62.076
52.563
43.216
33.984
24.876
15.869
7.049
-1.465
-9.631
-17.42
-24.789
-31.728
-38.233
-44.284
-49.896
-55.081
-59.829
-64.14
-68.017
-71.452
-74.462
-77.071
-79.308
-81.22
-82.851
-84.232
-85.39
-86.347
-87.115
-87.71
-88.144
-88.424
-88.563
-88.572
-88.467
-88.267
-87.986
-87.635
-87.225
-86.764
-86.254
-85.703
-85.112
-84.486
-83.837
-83.169
-82.475
-81.756
-81.008
-80.234
-79.456
-78.68
-77.89
-77.099
-76.349
-75.672
-75.104
-74.65
-74.262
-73.922
-73.686
-73.504
-73.177
-72.656
-72.002
-71.19
-70.422
-69.343
-66.707
-62.71
-58.52
-55.951
-58.524
-66.222
-75.46
-82.737
-83.07
-75.87
-65.907
-56.887
-52.725
-54.324
-58.133
-61.907
-64.19
-64.449
-64.122
-63.916
-63.769
-63.739
-63.613
-63.323
-63.065
-62.903
-62.8
-62.762
-62.795
-62.893
-63.044
-63.232
-63.42
-63.597
-63.777
-63.963
-64.152
-64.342
-64.53
-64.715
-64.899
-65.081
-65.256
-65.422
-65.574
-65.711
-65.83
-65.929
-66.004
-66.053
-66.075
-66.065
-66.023
-65.947
-65.833
-65.682
-65.49
-65.257
-64.98
-64.659
-64.292
-63.877
-63.414
-62.9
-62.335
-61.718
-61.046
-60.32
-59.538
-58.7
-57.805
-56.853
-55.844
-54.779
-53.659
-52.484
-51.257
-49.979
-48.652
-47.278
-45.86
-44.4
-42.901
-41.366
-39.798
-38.202
-36.579
-34.936
-33.275
-31.601
-29.918
-28.232
-26.549
-24.872
-23.209
-21.565
-19.945
-18.358
-16.808
-15.303
-13.848
-12.451
-11.116
-9.851
-8.66
-7.548
-6.522
-5.584
-4.739
-3.991
-3.343
-2.798
-2.358
-2.025
-1.801
-1.688
-1.685
-1.793
-2.012
-2.342
-2.78
-3.326
-3.976
-4.729
-5.58
-6.526
-7.562
-8.683
-9.883
-11.157
-12.497
-13.897
-15.349
-16.847
-18.384
-19.951
-21.541
-23.147
-24.763
-26.381
-27.994
-29.597
-31.182
-32.743
-34.276
-35.773
-37.231
-38.644
-40.007
-41.315
-42.566
-43.756
-44.881
-45.938
-46.926
-47.842
-48.686
-49.457
-50.154
-50.778
-51.331
-51.814
-52.23
-52.581
-52.87
-53.102
-53.278
-53.405
-53.485
-53.522
-53.522
-53.488
-53.425
-53.337
-53.229
-53.106
-52.971
-52.829
-52.685
-52.541
-52.404
-52.275
-52.16
-52.061
-51.983
-51.928
-51.899
-51.898
-51.928
-51.989
-52.082
-52.207
-52.364
-52.552
-52.768
-53.01
-53.276
-53.562
-53.863
-54.176
-54.496
-54.817
-55.133
-55.439
-55.728
-55.994
-56.228
-56.424
-56.575
-56.672
-56.71
-56.68
-56.574
-56.384
-56.103
-55.724
-55.239
-54.641
-53.923
-53.078
-52.103
-50.992
-49.74
-48.346
-46.806
-45.12
-43.288
-41.31
-39.189
-36.927
-34.53
-32.002
-29.351
-26.584
-23.711
-20.742
-17.69
-14.569
-11.393
-8.178
-4.941
-1.698
1.534
4.736
7.893
10.989
14.005
16.927
19.734
22.408
24.932
27.29
29.466
31.447
33.218
34.77
36.097
37.195
38.059
38.683
39.054
39.16
39.001
38.575
37.887
36.948
35.773
34.382
32.812
31.099
29.277
27.377
25.419
23.423
21.424
19.458
17.576
15.829
14.243
12.844
11.654
10.668
9.87
9.219
8.636
8.05
7.405
6.63
5.671
4.464
2.915
0.956
-1.512
-4.633
-8.458
-12.977
-18.092
-23.508
-28.891
-33.927
-38.176
-41.165
-42.599
-42.299
-40.442
-37.691
-34.698
-32.106
-30.607
-30.73
-32.842
-37.062
-42.765
-48.497
-52.578
-52.993
-47.668
-34.902
-12.811
20.244
64.872
120.936
186.547
257.336
328.873
396.772
458.443
515.638
568.568
614.282
645.841
649.031
612.03
530.356
406.076
252.554
86.829
-75.451
-218.613
-333.051
-413.299
-458.297
-472.093
-459.631
-429.533
-389.472
-347.263
-312.671
-288.125
-273.384
-264.815
-253.55
-236.892
-215.838
-192.693
-173.216
-159.8
-151.483
-147.318
-145.358
-144.17
-143.539
-143.123
-142.382
-140.835
-138.233
-134.459
-129.577
-123.945
-117.919
-111.879
-106.386
-101.919
-98.643
-96.575
-95.619
-95.567
-96.263
-97.529
-99.063
-100.563
-101.86
-102.866
-103.565
-103.965
-104.016
-103.68
-102.976
-101.956
-100.681
-99.196
-97.516
-95.644
-93.598
-91.412
-89.134
-86.8
-84.428
-82.038
-79.659
-77.339
-75.145
-73.12
-71.28
-69.628
-68.157
-66.858
-65.732
-64.764
-63.931
-63.212
-62.588
-62.042
-61.569
-61.153
-60.774
-60.402
-60.001
-59.542
-59.009
-58.386
-57.662
-56.828
-55.874
-54.798
-53.606
-52.298
-50.873
-49.328
-47.657
-45.858
-43.932
-41.881
-39.707
-37.413
-35.002
-32.476
-29.839
-27.094
-24.244
-21.29
-18.234
-15.077
-11.823
-8.477
-5.043
-1.528
2.063
5.722
9.443
13.217
17.038
20.897
24.787
28.7
32.628
36.563
40.496
44.419
48.322
52.197
56.034
59.824
63.556
67.223
70.813
74.318
77.728
81.034
84.227
87.299
90.239
93.04
95.694
98.191
100.525
102.688
104.673
106.474
108.085
109.503
110.721
111.739
112.553
113.161
113.562
113.757
113.746
113.531
113.113
112.497
111.687
110.687
109.503
108.144
106.615
104.927
103.086
101.103
98.989
96.752
94.405
91.958
89.423
86.812
84.137
81.411
78.646
75.856
73.053
70.251
67.461
64.697
61.969
59.289
56.668
54.117
51.645
49.261
46.974
44.792
42.723
40.772
38.946
37.249
35.684
34.254
32.962
31.808
30.793
29.917
29.177
28.573
28.102
27.76
27.544
27.449
27.467
27.593
27.818
28.134
28.529
28.994
29.515
30.082
30.683
31.304
31.933
32.557
33.166
33.749
34.295
34.791
35.225
35.585
35.859
36.036
36.106
36.06
35.889
35.586
35.15
34.577
33.866
33.012
32.004
30.835
29.502
28.007
26.356
24.559
22.633
20.603
18.506
16.379
14.258
12.174
10.151
8.213
6.391
4.721
3.248
2.01
1.039
0.358
-0.021
-0.1
0.093
0.507
1.057
1.66
2.244
2.738
3.07
3.167
2.939
2.298
1.172
-0.529
-2.91
-6.013
-9.815
-14.177
-18.823
-23.469
-27.84
-31.639
-34.558
-36.34
-36.846
-36.276
-35.108
-33.751
-32.564
-31.69
-31.1
-31.037
-31.639
-32.168
-31.547
-28.084
-19.241
-4.316
16.604
43.286
72.865
104.43
139.737
180.107
230.4
293.363
363.672
433.989
491.981
524.7
529.791
507.952
463.912
406.879
339.291
264.49
187.675
110.467
38.102
-26.971
-87.247
-143.171
-196.939
-249.065
-296.284
-337.434
-371.644
-398.76
-421.143
-440.281
-456.921
-472.027
-485.548
-497.129
-506.883
-514.699
-520.204
-523.221
-523.372
-520.065
-513.205
-502.978
-489.603
-473.541
-455.251
-435.077
-413.506
-391.088
-368.208
-345.185
-322.219
-299.36
-276.704
-254.354
-232.395
-210.949
-190.11
-169.943
-150.532
-131.942
-114.22
-97.429
-81.593
-66.722
-52.833
-39.911
-27.958
-17.001
-7.037
1.939
9.954
17.078
23.369
28.873
33.657
37.783
41.308
44.323
46.897
49.099
51.018
52.709
54.217
55.595
56.863
58.041
59.139
60.145
61.042
61.821
62.464
62.953
63.28
63.419
63.347
63.04
62.459
61.591
60.444
59.033
57.389
55.551
53.556
51.454
49.307
47.168
45.087
43.115
41.29
39.663
38.286
37.211
36.496
36.186
36.315
36.91
37.994
39.581
41.683
44.304
47.439
51.088
55.253
59.939
65.146
70.863
77.076
83.763
90.895
98.444
106.368
114.62
123.157
131.935
140.918
150.075
159.368
168.761
178.217
187.696
197.167
206.613
216.015
225.361
234.652
243.889
253.087
262.277
271.467
280.657
289.838
298.984
308.078
317.095
325.987
334.705
343.182
351.328
359.064
366.299
372.913
378.807
383.87
387.98
391.061
393.046
393.874
393.506
391.895
389.006
384.848
379.448
372.858
365.156
356.417
346.732
336.233
325.024
313.213
300.915
288.193
275.116
261.777
248.26
234.674
221.136
207.721
194.484
181.473
168.709
156.218
144.02
132.098
120.461
109.129
98.129
87.532
77.398
67.743
58.575
49.87
41.576
33.67
26.142
18.974
12.166
5.719
-0.371
-6.08
-11.399
-16.34
-20.929
-25.223
-29.276
-33.105
-36.719
-40.106
-43.23
-46.073
-48.627
-50.872
-52.807
-54.437
-55.768
-56.825
-57.634
-58.211
-58.559
-58.675
-58.551
-58.197
-57.633
-56.883
-55.985
-54.969
-53.863
-52.703
-51.513
-50.313
-49.12
-47.943
-46.783
-45.648
-44.547
-43.488
-42.486
-41.547
-40.675
-39.874
-39.144
-38.487
-37.902
-37.385
-36.934
-36.548
-36.226
-35.969
-35.778
-35.653
-35.593
-35.597
-35.663
-35.787
-35.966
-36.196
-36.472
-36.79
-37.144
-37.531
-37.948
-38.39
-38.854
-39.335
-39.832
-40.34
-40.857
-41.38
-41.906
-42.431
-42.955
-43.474
-43.986
-44.489
-44.98
-45.459
-45.922
-46.369
-46.797
-47.205
-47.591
-47.954
-48.292
-48.605
-48.891
-49.15
-49.381
-49.583
-49.758
-49.904
-50.021
-50.11
-50.171
-50.203
-50.207
-50.183
-50.13
-50.048
-49.939
-49.802
-49.637
-49.446
-49.228
-48.984
-48.715
-48.422
-48.105
-47.764
-47.402
-47.018
-46.614
-46.189
-45.746
-45.284
-44.805
-44.308
-43.794
-43.264
-42.716
-42.153
-41.573
-40.976
-40.363
-39.733
-39.086
-38.422
-37.74
-37.04
-36.322
-35.584
-34.826
-34.047
-33.247
-32.424
-31.578
-30.709
-29.814
-28.895
-27.949
-26.977
-25.978
-24.953
-23.901
-22.822
-21.717
-20.588
-19.434
-18.258
-17.061
-15.846
-14.615
-13.369
-12.114
-10.85
-9.583
-8.315
-7.049
-5.791
-4.545
-3.314
-2.104
-0.919
0.234
1.352
2.428
3.457
4.434
5.353
6.209
6.996
7.711
8.346
8.899
9.365
9.74
10.02
10.203
10.285
10.265
10.141
9.913
9.58
9.143
8.602
7.958
7.213
6.369
5.428
4.393
3.267
2.053
0.757
-0.618
-2.066
-3.582
-5.161
-6.795
-8.479
-10.207
-11.971
-13.765
-15.582
-17.415
-19.257
-21.101
-22.941
-24.769
-26.58
-28.367
-30.126
-31.852
-33.541
-35.188
-36.792
-38.349
-39.858
-41.317
-42.725
-44.081
-45.384
-46.633
-47.828
-48.969
-50.057
-51.093
-52.078
-53.014
-53.903
-54.749
-55.553
-56.318
-57.048
-57.745
-58.414
-59.058
-59.68
-60.285
-60.876
-61.458
-62.035
-62.61
-63.185
-63.761
-64.341
-64.925
-65.512
-66.1
-66.688
-67.271
-67.849
-68.42
-68.979
-69.526
-70.057
-70.571
-71.067
-71.543
-71.994
-72.416
-72.801
-73.145
-73.439
-73.677
-73.85
-73.949
-73.967
-73.897
-73.737
-73.481
-73.122
-72.65
-72.053
-71.322
-70.458
-69.458
-68.323
-67.059
-65.676
-64.194
-62.645
-61.052
-59.426
-57.774
-56.092
-54.378
-52.632
-50.855
-49.042
-47.191
-45.297
-43.358
-41.385
-39.37
-37.297
-35.135
-32.828
-30.344
-27.678
-24.837
-21.848
-18.748
-15.577
-12.395
-9.28
-6.299
-3.513
-0.969
1.306
3.265
4.854
6
6.605
6.598
5.934
4.585
2.549
-0.151
-3.481
-7.367
-11.698
-16.377
-21.304
-26.399
-31.604
-36.848
-42.056
-47.141
-51.992
-56.51
-60.605
-64.197
-67.235
-69.694
-71.566
-72.893
-73.756
-74.243
-74.454
-74.489
-74.431
-74.374
-74.411
-74.638
-75.163
-76.11
-77.637
-79.84
-82.722
-86.192
-90.039
-94.006
-97.844
-101.199
-103.626
-104.836
-104.726
-103.417
-101.376
-99.066
-96.872
-95.328
-94.907
-95.722
-97.727
-100.555
-103.26
-104.785
-103.121
-95.216
-78.861
-53.06
-19.503
18.091
58.41
102.741
155.053
220.073
296.952
380.359
463.447
538.39
600.573
646.18
666.89
652.792
594.11
486.062
336.108
161.45
-14.65
-169.001
-286.586
-362.115
-400.488
-412.854
-410.493
-401.904
-389.491
-371.71
-346.747
-313.654
-275.014
-235.144
-197.653
-165.781
-140.909
-123.004
-111.794
-106.309
-105.177
-107.185
-111.176
-115.792
-119.926
-122.712
-123.383
-121.828
-118.446
-113.683
-108.062
-102.239
-96.742
-92.091
-88.859
-87.184
-86.895
-87.749
-89.367
-91.372
-93.5
-95.434
-96.814
-97.459
-97.296
-96.308
-94.584
-92.182
-89.129
-85.502
-81.394
-76.888
-72.086
-67.081
-61.953
-56.807
-51.726
-46.776
-42.026
-37.516
-33.269
-29.307
-25.63
-22.233
-19.116
-16.259
-13.637
-11.225
-8.982
-6.881
-4.895
-2.98
-1.1
0.771
2.676
4.601
6.522
8.506
10.593
12.826
15.28
17.879
20.516
23.233
26.056
28.856
31.57
34.037
36.049
37.807
39.539
41.241
42.972
44.874
46.998
49.597
52.963
56.836
60.949
65.245
69.579
73.864
78.093
82.026
85.409
88.422
91.229
93.887
96.523
99.127
101.65
104.202
106.885
109.618
112.336
114.992
117.508
119.909
122.225
124.425
126.492
128.431
130.239
131.925
133.503
134.957
136.273
137.445
138.465
139.332
140.05
140.615
141.027
141.283
141.382
141.324
141.107
140.732
140.199
139.506
138.653
137.64
136.467
135.135
133.647
132
130.196
128.234
126.115
123.841
121.414
118.835
116.108
113.234
110.217
107.06
103.769
100.348
96.802
93.136
89.358
85.473
81.49
77.415
73.256
69.023
64.722
60.364
55.957
51.512
47.039
42.549
38.052
33.561
29.085
24.636
20.225
15.863
11.56
7.327
3.173
-0.891
-4.857
-8.713
-12.451
-16.063
-19.542
-22.881
-26.074
-29.115
-31.997
-34.718
-37.277
-39.667
-41.878
-43.907
-45.746
-47.399
-48.881
-50.183
-51.299
-52.256
-53.077
-53.78
-54.395
-54.913
-55.311
-55.617
-55.878
-56.012
-55.922
-55.685
-55.308
-54.782
-54.35
-53.397
-51.323
-49.016
-46.753
-46.15
-49.135
-53.595
-58.122
-60.617
-58.194
-53.418
-48.465
-44.826
-44.96
-47.118
-49.528
-51.796
-52.835
-53.27
-53.898
-54.551
-55.315
-56.108
-56.74
-57.29
-57.816
-58.268
-58.611
-58.834
-58.917
-58.823
-58.528
-57.991
-57.148
-55.99
-54.534
-52.794
-50.834
-48.711
-46.414
-44.037
-41.757
-39.718
-38.12
-37.041
-36.352
-36.091
-36.462
-37.425
-38.804
-40.303
-41.309
-41.596
-41.418
-40.679
-39.121
-36.791
-33.759
-30.499
-28.157
-27.224
-27.546
-29.315
-32.511
-36.733
-41.91
-47.377
-51.25
-52.295
-48.972
-38.419
-19.89
6.264
39.382
75.411
112.488
152.946
198.824
254.795
323.09
397.981
471.615
533.949
574.512
588.199
573.457
530.049
461.724
375.888
280.95
187.967
105.761
36.177
-23.03
-78.044
-134.262
-192.516
-250.429
-303.084
-347.241
-382.274
-409.1
-430.315
-447.694
-461.887
-473.579
-483.109
-490.551
-496.191
-500.102
-501.987
-501.65
-498.867
-493.226
-484.425
-472.469
-457.535
-439.975
-420.271
-398.833
-376.049
-352.378
-328.273
-304.069
-279.963
-256.035
-232.311
-208.834
-185.693
-162.997
-140.812
-119.185
-98.175
-77.827
-58.213
-39.414
-21.494
-4.51
11.476
26.402
40.194
52.765
64.047
73.997
82.604
89.908
95.947
100.742
104.327
106.725
107.979
108.171
107.406
105.798
103.477
100.593
97.29
93.714
90.014
86.302
82.659
79.135
75.765
72.596
69.689
67.116
64.929
63.15
61.767
60.752
60.066
59.642
59.415
59.308
59.232
59.132
58.986
58.792
58.563
58.303
57.998
57.621
57.165
56.638
56.066
55.487
54.94
54.488
54.201
54.168
54.485
55.222
56.422
58.117
60.328
63.076
66.389
70.286
74.77
79.837
85.476
91.665
98.378
105.565
113.171
121.129
129.373
137.85
146.513
155.312
164.203
173.143
182.097
191.048
199.988
208.907
217.808
226.706
235.624
244.604
253.669
262.824
272.067
281.378
290.738
300.133
309.532
318.887
328.137
337.204
345.996
354.422
362.357
369.653
376.159
381.715
386.195
389.516
391.606
392.411
391.892
390.017
386.78
382.211
376.346
369.237
360.959
351.597
341.282
330.18
318.455
306.27
293.765
281.044
268.208
255.349
242.541
229.849
217.32
204.98
192.858
180.984
169.368
158.014
146.896
135.964
125.177
114.506
103.93
93.448
83.062
72.775
62.605
52.576
42.719
33.066
23.643
14.468
5.566
-3.037
-11.306
-19.201
-26.691
-33.755
-40.379
-46.553
-52.275
-57.543
-62.365
-66.758
-70.735
-74.314
-77.508
-80.327
-82.788
-84.907
-86.702
-88.194
-89.4
-90.336
-91.021
-91.472
-91.705
-91.737
-91.582
-91.254
-90.767
-90.136
-89.375
-88.5
-87.524
-86.461
-85.324
-84.125
-82.876
-81.587
-80.267
-78.923
-77.563
-76.193
-74.82
-73.447
-72.078
-70.718
-69.368
-68.032
-66.712
-65.409
-64.124
-62.859
-61.614
-60.391
-59.189
-58.01
-56.852
-55.715
-54.6
-53.504
-52.427
-51.37
-50.329
-49.305
-48.297
-47.305
-46.327
-45.363
-44.414
-43.478
-42.557
-41.65
-40.759
-39.885
-39.029
-38.194
-37.38
-36.59
-35.826
-35.09
-34.384
-33.709
-33.069
-32.465
-31.898
-31.371
-30.885
-30.442
-30.044
-29.692
-29.389
-29.136
-28.934
-28.784
-28.687
-28.645
-28.659
-28.727
-28.852
-29.033
-29.27
-29.563
-29.911
-30.312
-30.766
-31.271
-31.825
-32.425
-33.068
-33.752
-34.472
-35.227
-36.012
-36.823
-37.656
-38.508
-39.374
-40.249
-41.129
-42.009
-42.884
-43.748
-44.596
-45.423
-46.223
-46.991
-47.722
-48.408
-49.046
-49.63
-50.153
-50.611
-50.998
-51.309
-51.54
-51.686
-51.742
-51.706
-51.573
-51.34
-51.006
-50.568
-50.023
-49.372
-48.612
-47.743
-46.766
-45.68
-44.488
-43.19
-41.789
-40.288
-38.689
-36.998
-35.219
-33.356
-31.417
-29.406
-27.331
-25.199
-23.018
-20.797
-18.544
-16.268
-13.98
-11.688
-9.403
-7.135
-4.893
-2.689
-0.532
1.568
3.601
5.557
7.426
9.2
10.868
12.422
13.854
15.157
16.322
17.342
18.213
18.929
19.484
19.875
20.099
20.154
20.038
19.75
19.291
18.663
17.867
16.907
15.786
14.509
13.083
11.512
9.804
7.967
6.009
3.938
1.763
-0.507
-2.86
-5.288
-7.781
-10.326
-12.915
-15.535
-18.177
-20.829
-23.482
-26.125
-28.749
-31.343
-33.9
-36.409
-38.864
-41.257
-43.581
-45.83
-47.998
-50.083
-52.079
-53.985
-55.798
-57.517
-59.142
-60.673
-62.111
-63.458
-64.716
-65.887
-66.975
-67.983
-68.915
-69.776
-70.571
-71.304
-71.98
-72.604
-73.181
-73.716
-74.213
-74.678
-75.114
-75.526
-75.917
-76.29
-76.648
-76.994
-77.328
-77.653
-77.967
-78.271
-78.564
-78.843
-79.105
-79.348
-79.566
-79.756
-79.914
-80.032
-80.107
-80.132
-80.101
-80.007
-79.845
-79.607
-79.288
-78.88
-78.379
-77.779
-77.076
-76.265
-75.342
-74.305
-73.152
-71.882
-70.494
-68.989
-67.369
-65.636
-63.794
-61.85
-59.809
-57.679
-55.47
-53.195
-50.865
-48.495
-46.1
-43.695
-41.295
-38.918
-36.581
-34.297
-32.083
-29.955
-27.927
-26.019
-24.247
-22.625
-21.17
-19.894
-18.809
-17.926
-17.253
-16.792
-16.546
-16.516
-16.707
-17.129
-17.788
-18.684
-19.813
-21.167
-22.731
-24.489
-26.415
-28.471
-30.619
-32.823
-35.047
-37.271
-39.469
-41.604
-43.64
-45.525
-47.21
-48.667
-49.869
-50.793
-51.447
-51.843
-52.019
-52.047
-51.993
-51.915
-51.895
-51.996
-52.286
-52.858
-53.773
-55.123
-57.042
-59.554
-62.62
-66.125
-69.78
-73.296
-76.435
-78.827
-80.074
-79.976
-78.422
-75.575
-72.038
-68.304
-64.798
-62.02
-60.226
-59.554
-60.085
-61.378
-62.444
-61.612
-56.254
-43.978
-22.979
5.959
39.116
73.737
107.94
144.89
192.759
256.481
338.203
432.335
525.167
603.922
655.943
673.182
653.104
594.3
499.32
372.117
220.455
57.315
-102.631
-242.823
-351.69
-424.59
-463.235
-474.457
-463.844
-437.011
-398.049
-351.87
-307.249
-269.434
-241.26
-221.342
-202.816
-182.544
-160.408
-138.381
-121.355
-110.97
-106.078
-105.102
-105.144
-104.324
-102.012
-97.491
-90.708
-82.082
-71.977
-60.912
-49.577
-38.567
-28.511
-20.121
-13.713
-9.247
-6.557
-5.317
-5.179
-5.876
-7.087
-8.41
-9.568
-10.378
-10.709
-10.553
-9.914
-8.774
-7.162
-5.127
-2.712
0.016
2.99
6.16
9.461
12.834
16.23
19.574
22.782
25.771
28.454
30.773
32.699
34.208
35.29
35.95
36.198
36.068
35.599
34.828
33.788
32.51
31.018
29.349
27.544
25.646
23.702
21.749
19.816
17.931
16.118
14.394
12.777
11.274
9.889
8.629
7.505
6.526
5.704
5.047
4.561
4.254
4.127
4.186
4.434
4.872
5.501
6.323
7.336
8.54
9.935
11.52
13.29
15.24
17.362
19.649
22.093
24.684
27.411
30.263
33.231
36.301
39.463
42.705
46.014
49.379
52.786
56.221
59.673
63.127
66.57
69.988
73.367
76.693
79.953
83.132
86.217
89.196
92.055
94.783
97.367
99.797
102.062
104.15
106.053
107.762
109.268
110.564
111.643
112.499
113.127
113.523
113.684
113.607
113.29
112.733
111.936
110.898
109.623
108.113
106.372
104.404
102.216
99.814
97.205
94.4
91.405
88.233
84.892
81.396
77.755
73.982
70.09
66.093
62.004
57.836
53.605
49.323
45.005
40.664
36.314
31.969
27.642
23.345
19.091
14.892
10.761
6.708
2.744
-1.121
-4.876
-8.515
-12.028
-15.409
-18.651
-21.748
-24.695
-27.488
-30.124
-32.6
-34.913
-37.064
-39.051
-40.875
-42.538
-44.04
-45.384
-46.573
-47.611
-48.5
-49.244
-49.849
-50.319
-50.659
-50.876
-50.976
-50.966
-50.853
-50.646
-50.355
-49.988
-49.554
-49.063
-48.524
-47.947
-47.341
-46.713
-46.071
-45.423
-44.778
-44.143
-43.526
-42.935
-42.378
-41.862
-41.395
-40.981
-40.626
-40.331
-40.097
-39.927
-39.824
-39.797
-39.85
-39.984
-40.201
-40.494
-40.858
-41.279
-41.735
-42.192
-42.617
-42.975
-43.24
-43.389
-43.396
-43.236
-42.877
-42.282
-41.423
-40.279
-38.834
-37.08
-35.024
-32.69
-30.137
-27.456
-24.744
-22.092
-19.579
-17.268
-15.24
-13.583
-12.39
-11.75
-11.709
-12.315
-13.647
-15.729
-18.518
-21.865
-25.445
-28.895
-31.943
-34.275
-35.504
-35.351
-33.663
-30.551
-26.515
-22.05
-17.387
-12.86
-9.042
-6.331
-4.797
-3.328
0.453
8.592
21.978
39.356
58.679
78.942
100.979
129.805
170.833
228.002
303.017
388.431
472.616
542.355
583.119
590.407
566.161
515.639
449.631
375.361
297.954
223.46
154.383
92.115
36.604
-15.557
-66.824
-117.719
-167.078
-211.595
-249.185
-279.516
-303.303
-322.717
-339.241
-353.535
-366.331
-377.674
-387.381
-395.565
-402.108
-406.638
-408.942
-408.628
-405.093
-398.192
-388.04
-374.807
-358.905
-340.751
-320.659
-299.071
-276.508
-253.345
-229.899
-206.422
-183.011
-159.793
-136.917
-114.506
-92.723
-71.733
-51.665
-32.649
-14.802
1.774
16.972
30.698
42.896
53.545
62.669
70.303
76.452
81.123
84.334
86.131
86.614
85.882
84.017
81.106
77.244
72.555
67.194
61.323
55.097
48.633
42.017
35.337
28.693
22.193
15.947
10.034
4.499
-0.606
-5.213
-9.268
-12.731
-15.602
-17.915
-19.718
-21.07
-22.011
-22.567
-22.777
-22.688
-22.359
-21.861
-21.24
-20.52
-19.738
-18.939
-18.16
-17.43
-16.751
-16.095
-15.429
-14.713
-13.907
-12.977
-11.874
-10.546
-8.93
-6.958
-4.577
-1.756
1.541
5.349
9.696
14.606
20.091
26.138
32.728
39.84
47.448
55.516
64.002
72.848
81.989
91.355
100.886
110.534
120.255
130.006
139.748
149.443
159.055
168.564
177.96
187.235
196.388
205.423
214.345
223.172
231.934
240.652
249.335
257.98
266.568
275.075
283.465
291.698
299.73
307.498
314.921
321.908
328.356
334.166
339.248
343.499
346.81
349.091
350.27
350.294
349.137
346.789
343.252
338.546
332.704
325.784
317.868
309.055
299.469
289.226
278.432
267.205
255.666
243.925
232.082
220.217
208.39
196.656
185.061
173.645
162.436
151.448
140.679
130.114
119.727
109.497
99.416
89.472
79.653
69.956
60.38
50.936
41.646
32.532
23.611
14.903
6.428
-1.791
-9.726
-17.346
-24.621
-31.525
-38.043
-44.161
-49.871
-55.17
-60.058
-64.543
-68.638
-72.357
-75.712
-78.717
-81.383
-83.726
-85.764
-87.515
-88.996
-90.226
-91.222
-92.001
-92.578
-92.97
-93.19
-93.252
-93.168
-92.951
-92.613
-92.168
-91.628
-91.007
-90.316
-89.566
-88.768
-87.931
-87.066
-86.178
-85.275
-84.363
-83.448
-82.533
-81.623
-80.722
-79.833
-78.959
-78.101
-77.262
-76.443
-75.646
-74.87
-74.118
-73.389
-72.684
-72.004
-71.348
-70.717
-70.111
-69.531
-68.977
-68.447
-67.943
-67.464
-67.01
-66.581
-66.175
-65.794
-65.437
-65.104
-64.794
-64.509
-64.248
-64.011
-63.799
-63.611
-63.447
-63.306
-63.19
-63.097
-63.026
-62.978
-62.951
-62.946
-62.961
-62.996
-63.05
-63.121
-63.208
-63.31
-63.425
-63.552
-63.689
-63.834
-63.986
-64.141
-64.3
-64.459
-64.616
-64.769
-64.917
-65.056
-65.185
-65.301
-65.403
-65.488
-65.555
-65.603
-65.629
-65.633
-65.613
-65.568
-65.497
-65.399
-65.273
-65.118
-64.933
-64.717
-64.47
-64.191
-63.879
-63.533
-63.154
-62.741
-62.294
-61.812
-61.294
-60.742
-60.155
-59.532
-58.875
-58.182
-57.456
-56.696
-55.902
-55.075
-54.214
-53.321
-52.395
-51.436
-50.445
-49.421
-48.364
-47.275
-46.154
-45
-43.815
-42.599
-41.351
-40.074
-38.767
-37.432
-36.069
-34.68
-33.267
-31.83
-30.373
-28.896
-27.401
-25.89
-24.365
-22.828
-21.281
-19.725
-18.163
-16.596
-15.027
-13.457
-11.889
-10.326
-8.77
-7.222
-5.687
-4.166
-2.661
-1.176
0.289
1.729
3.144
4.531
5.889
7.216
8.51
9.77
10.995
12.186
13.342
14.462
15.547
16.596
17.609
18.587
19.528
20.432
21.298
22.126
22.915
23.666
24.377
25.048
25.68
26.271
26.822
27.333
27.803
28.232
28.618
28.961
29.261
29.516
29.725
29.887
30
30.064
30.077
30.036
29.94
29.786
29.57
29.291
28.946
28.532
28.048
27.494
26.868
26.173
25.412
24.587
23.699
22.748
21.734
20.659
19.523
18.324
17.064
15.744
14.367
12.941
11.476
9.981
8.464
6.934
5.396
3.862
2.343
0.85
-0.604
-2.003
-3.332
-4.568
-5.692
-6.692
-7.561
-8.299
-8.915
-9.414
-9.812
-10.126
-10.365
-10.548
-10.686
-10.787
-10.877
-10.971
-11.062
-11.15
-11.206
-11.198
-11.128
-10.967
-10.643
-10.141
-9.453
-8.628
-7.84
-7.129
-6.402
-5.588
-4.57
-3.195
-1.358
1.25
5.137
10.438
16.984
24.437
32.179
39.673
46.527
52.034
55.302
55.887
53.695
49.015
42.683
35.371
27.344
19.15
11.51
4.655
-0.531
-3.544
-5.803
-7.893
-11.567
-18.921
-27.805
-36.765
-43.576
-45.037
-43.533
-41.159
-39.446
-41.002
-44.073
-46.896
-49.135
-49.76
-49.599
-49.633
-49.814
-50.364
-51.281
-52.498
-54.295
-56.855
-60.172
-64.154
-68.587
-73.264
-78.04
-82.666
-86.769
-90.08
-92.473
-94.072
-95.25
-96.256
-97.127
-97.888
-98.682
-99.475
-99.941
-99.603
-97.754
-93.762
-87.296
-77.168
-61.148
-38.001
-7.792
26.817
61.094
93.539
126.512
166.02
219.005
286.455
363.718
441.907
511.149
566.154
603.135
618.836
610.497
572.514
502.944
404.296
280.546
141.798
-0.912
-136.47
-250.755
-334.718
-385.794
-407.168
-408.665
-399.072
-380.585
-351.842
-310.494
-257.466
-201.501
-153.138
-119.413
-102.226
-96.135
-94.147
-92.318
-89.703
-88.686
-91.129
-96.4
-102.498
-106.623
-107.349
-104.913
-100.029
-93.692
-86.673
-79.545
-73.114
-68.21
-65.233
-64.184
-64.811
-66.681
-69.39
-72.595
-75.898
-78.878
-81.267
-82.914
-83.76
-83.849
-83.221
-81.899
-79.938
-77.407
-74.366
-70.892
-67.069
-62.981
-58.735
-54.44
-50.176
-46.011
-42
-38.192
-34.626
-31.323
-28.286
-25.507
-22.984
-20.711
-18.678
-16.865
-15.238
-13.761
-12.393
-11.091
-9.825
-8.565
-7.288
-5.978
-4.623
-3.214
-1.75
-0.23
1.349
2.99
4.699
6.479
8.333
10.259
12.258
14.328
16.466
18.671
20.941
23.276
25.676
28.141
30.669
33.263
35.921
38.641
41.418
44.249
47.127
50.048
53.006
55.993
59.003
62.03
65.068
68.111
71.153
74.188
77.209
80.211
83.186
86.129
89.033
91.891
94.699
97.448
100.134
102.75
105.29
107.749
110.12
112.398
114.576
116.649
118.61
120.454
122.174
123.764
125.218
126.531
127.697
128.711
129.567
130.26
130.786
131.139
131.315
131.309
131.117
130.735
130.16
129.389
128.419
127.248
125.876
124.301
122.523
120.543
118.362
115.982
113.404
110.633
107.672
104.526
101.2
97.701
94.037
90.214
86.241
82.128
77.883
73.519
69.044
64.472
59.812
55.079
50.283
45.439
40.557
35.653
30.737
25.823
20.923
16.05
11.216
6.432
1.711
-2.937
-7.501
-11.971
-16.336
-20.589
-24.719
-28.721
-32.586
-36.308
-39.882
-43.302
-46.564
-49.664
-52.6
-55.37
-57.971
-60.405
-62.671
-64.771
-66.705
-68.477
-70.088
-71.544
-72.847
-74.002
-75.015
-75.89
-76.634
-77.253
-77.755
-78.147
-78.437
-78.635
-78.75
-78.791
-78.768
-78.691
-78.571
-78.417
-78.239
-78.045
-77.845
-77.648
-77.462
-77.298
-77.163
-77.066
-77.017
-77.022
-77.09
-77.226
-77.435
-77.717
-78.075
-78.509
-79.021
-79.617
-80.299
-81.065
-81.911
-82.833
-83.817
-84.854
-85.919
-86.981
-88.009
-88.975
-89.854
-90.628
-91.275
-91.769
-92.086
-92.188
-92.047
-91.645
-90.962
-89.987
-88.724
-87.182
-85.403
-83.462
-81.431
-79.378
-77.358
-75.407
-73.578
-71.946
-70.593
-69.602
-69.022
-68.898
-69.315
-70.327
-71.927
-73.998
-76.248
-78.336
-80.002
-80.984
-80.972
-79.713
-77.046
-73.127
-68.531
-63.868
-59.551
-55.981
-53.642
-52.994
-54.325
-56.433
-56.75
-53.25
-44.713
-32.239
-18.265
-2.2
18.846
49.362
94.279
153.643
223.517
298.745
372.479
438.329
490.929
523.508
529.301
505.541
451.796
371.635
275.265
172.168
73.106
-10.642
-76.658
-125.695
-162.664
-197.921
-235.737
-276.445
-318.434
-355.995
-386.671
-411.69
-432.467
-451.344
-469.649
-486.759
-501.898
-514.684
-524.802
-531.969
-535.973
-536.372
-532.634
-524.731
-512.908
-497.416
-478.669
-457.092
-433.034
-406.994
-379.567
-351.213
-322.322
-293.219
-264.108
-235.211
-206.798
-179.143
-152.513
-127.161
-103.297
-81.101
-60.75
-42.395
-26.141
-12.041
-0.078
9.811
17.71
23.689
27.819
30.174
30.855
30.035
27.914
24.692
20.576
15.763
10.464
4.914
-0.669
-6.124
-11.32
-16.163
-20.574
-24.445
-27.682
-30.207
-31.952
-32.908
-33.092
-32.526
-31.258
-29.352
-26.892
-23.994
-20.779
-17.327
-13.714
-10.002
-6.25
-2.554
1.011
4.392
7.532
10.408
13.011
15.332
17.388
19.214
20.856
22.382
23.869
25.373
26.954
28.676
30.602
32.819
35.398
38.391
41.846
45.799
50.277
55.308
60.908
67.08
73.821
81.113
88.931
97.254
106.049
115.277
124.888
134.811
144.99
155.376
165.928
176.62
187.417
198.28
209.168
220.042
230.869
241.635
252.323
262.919
273.423
283.842
294.208
304.577
314.984
325.442
335.945
346.462
356.968
367.442
377.858
388.189
398.386
408.378
418.092
427.458
436.374
444.725
452.36
459.084
464.746
469.232
472.453
474.363
474.914
474.06
471.777
468.063
462.936
456.442
448.63
439.55
429.293
417.979
405.768
392.87
379.457
365.665
351.613
337.393
323.093
308.807
294.603
280.525
266.617
252.91
239.44
226.251
213.354
200.743
188.385
176.221
164.213
152.35
140.626
129.05
117.633
106.383
95.327
84.504
73.946
63.681
53.73
44.104
34.824
25.918
17.417
9.358
1.767
-5.343
-11.965
-18.094
-23.734
-28.893
-33.585
-37.836
-41.668
-45.1
-48.152
-50.84
-53.184
-55.207
-56.934
-58.387
-59.59
-60.564
-61.333
-61.919
-62.343
-62.624
-62.781
-62.829
-62.784
-62.663
-62.482
-62.257
-62.001
-61.728
-61.45
-61.179
-60.925
-60.696
-60.5
-60.342
-60.228
-60.16
-60.141
-60.173
-60.256
-60.39
-60.574
-60.807
-61.087
-61.412
-61.779
-62.184
-62.625
-63.098
-63.599
-64.123
-64.667
-65.227
-65.799
-66.377
-66.959
-67.54
-68.116
-68.684
-69.241
-69.782
-70.304
-70.805
-71.281
-71.731
-72.152
-72.542
-72.9
-73.226
-73.517
-73.775
-73.998
-74.186
-74.34
-74.46
-74.546
-74.599
-74.619
-74.608
-74.565
-74.493
-74.39
-74.259
-74.101
-73.915
-73.703
-73.466
-73.205
-72.92
-72.613
-72.284
-71.935
-71.567
-71.18
-70.776
-70.357
-69.923
-69.475
-69.016
-68.545
-68.065
-67.577
-67.082
-66.581
-66.075
-65.566
-65.054
-64.541
-64.028
-63.515
-63.004
-62.496
-61.992
-61.491
-60.996
-60.508
-60.025
-59.551
-59.084
-58.626
-58.176
-57.736
-57.305
-56.884
-56.471
-56.068
-55.673
-55.286
-54.906
-54.533
-54.166
-53.803
-53.443
-53.085
-52.728
-52.371
-52.011
-51.647
-51.278
-50.902
-50.518
-50.124
-49.72
-49.304
-48.874
-48.43
-47.971
-47.496
-47.003
-46.493
-45.965
-45.418
-44.851
-44.265
-43.66
-43.035
-42.389
-41.725
-41.04
-40.337
-39.615
-38.874
-38.116
-37.34
-36.549
-35.741
-34.919
-34.083
-33.234
-32.374
-31.503
-30.622
-29.732
-28.835
-27.931
-27.021
-26.105
-25.184
-24.258
-23.327
-22.392
-21.453
-20.511
-19.564
-18.615
-17.662
-16.706
-15.747
-14.786
-13.823
-12.859
-11.895
-10.93
-9.968
-9.009
-8.055
-7.108
-6.171
-5.245
-4.333
-3.437
-2.561
-1.706
-0.875
-0.071
0.704
1.446
2.151
2.817
3.438
4.012
4.534
5
5.406
5.748
6.023
6.226
6.354
6.404
6.372
6.256
6.052
5.759
5.376
4.902
4.337
3.682
2.939
2.113
1.205
0.221
-0.833
-1.953
-3.132
-4.365
-5.645
-6.969
-8.328
-9.716
-11.127
-12.553
-13.983
-15.408
-16.815
-18.191
-19.525
-20.803
-22.015
-23.151
-24.199
-25.149
-25.994
-26.727
-27.338
-27.816
-28.146
-28.315
-28.322
-28.167
-27.857
-27.407
-26.829
-26.135
-25.348
-24.482
-23.546
-22.542
-21.458
-20.28
-19.008
-17.651
-16.228
-14.763
-13.26
-11.722
-10.151
-8.535
-6.865
-5.127
-3.287
-1.328
0.737
2.881
5.038
7.131
9.108
10.929
12.564
13.992
15.178
16.091
16.709
16.991
16.896
16.368
15.321
13.701
11.495
8.718
5.435
1.736
-2.307
-6.616
-11.116
-15.747
-20.443
-25.15
-29.829
-34.421
-38.854
-43.034
-46.84
-50.188
-53.033
-55.352
-57.178
-58.576
-59.617
-60.411
-61.066
-61.672
-62.328
-63.112
-64.095
-65.377
-67.039
-69.19
-71.985
-75.465
-79.613
-84.343
-89.375
-94.394
-99.129
-103.177
-106.118
-107.731
-107.816
-106.417
-104.049
-101.173
-98.168
-95.445
-93.283
-91.868
-91.454
-91.987
-91.888
-88.632
-80.066
-64.145
-41.83
-17.103
8.722
35.852
68.198
115.072
180.255
262.806
357.732
452.188
536.926
605.261
649.566
666.637
650.5
595.813
503.611
376.858
226.258
67.004
-86.809
-219.726
-322.908
-394.475
-436.285
-455.163
-455.946
-440.605
-411.158
-370.507
-325.343
-283.681
-250.94
-227.741
-209.854
-192.886
-174.988
-157.374
-143.64
-135.743
-133.227
-134.532
-136.98
-138.729
-139.07
-137.404
-133.777
-128.617
-122.284
-115.257
-108.149
-101.465
-95.746
-91.636
-89.393
-88.92
-90.001
-92.276
-95.374
-99.009
-102.829
-106.38
-109.354
-111.587
-113
-113.64
-113.546
-112.719
-111.198
-109.058
-106.378
-103.255
-99.771
-95.984
-91.968
-87.809
-83.601
-79.466
-75.503
-71.777
-68.333
-65.193
-62.369
-59.873
-57.705
-55.842
-54.255
-52.91
-51.777
-50.834
-50.053
-49.4
-48.834
-48.308
-47.784
-47.237
-46.646
-45.996
-45.273
-44.462
-43.558
-42.56
-41.467
-40.275
-38.98
-37.573
-36.047
-34.4
-32.63
-30.735
-28.712
-26.559
-24.271
-21.847
-19.286
-16.587
-13.747
-10.764
-7.638
-4.371
-0.968
2.569
6.234
10.021
13.924
17.936
22.049
26.255
30.547
34.917
39.355
43.854
48.404
52.996
57.621
62.267
66.926
71.586
76.238
80.87
85.471
90.031
94.538
98.981
103.348
107.628
111.811
115.885
119.84
123.665
127.35
130.886
134.262
137.472
140.505
143.355
146.013
148.475
150.733
152.781
154.616
156.233
157.628
158.799
159.743
160.458
160.945
161.204
161.236
161.043
160.628
159.997
159.152
158.101
156.849
155.404
153.775
151.969
149.998
147.87
145.597
143.19
140.661
138.021
135.284
132.46
129.563
126.605
123.598
120.555
117.486
114.406
111.324
108.253
105.203
102.184
99.209
96.284
93.42
90.625
87.906
85.269
82.722
80.268
77.913
75.659
73.512
71.471
69.541
67.72
66.009
64.408
62.914
61.527
60.243
59.059
57.972
56.979
56.074
55.252
54.51
53.842
53.243
52.705
52.222
51.788
51.395
51.035
50.7
50.38
50.067
49.752
49.427
49.084
48.714
48.31
47.865
47.37
46.82
46.207
45.523
44.764
43.92
42.987
41.96
40.838
39.618
38.301
36.888
35.378
33.772
32.072
30.278
28.39
26.415
24.356
22.224
20.032
17.802
15.558
13.329
11.144
9.026
7
5.084
3.304
1.69
0.267
-0.941
-1.912
-2.638
-3.098
-3.259
-3.124
-2.71
-2.056
-1.255
-0.358
0.649
1.691
2.633
3.345
3.631
3.418
2.821
1.817
0.226
-1.918
-4.443
-7.034
-9.082
-10.289
-10.793
-10.495
-9.11
-6.612
-3.106
0.902
4.273
6.333
7.034
6.145
3.441
-1.098
-7.412
-14.664
-20.945
-24.475
-23.849
-17.641
-4.47
17.117
48.485
90.195
140.426
195.69
252.838
308.66
362.593
416.579
469.709
519.273
557.658
572.173
554.015
498.368
410.163
304.497
197.052
103.637
31.211
-23.46
-66.85
-109.203
-156.146
-207.016
-258.879
-306.203
-345.911
-378.158
-404.237
-426.528
-446.297
-463.766
-479.2
-492.402
-503.329
-512.205
-518.925
-523.354
-525.425
-524.823
-521.164
-514.388
-504.583
-491.957
-476.896
-459.728
-440.732
-420.314
-398.93
-376.941
-354.636
-332.184
-309.644
-287.106
-264.675
-242.463
-220.6
-199.205
-178.399
-158.323
-139.115
-120.925
-103.895
-88.134
-73.734
-60.743
-49.173
-39.063
-30.457
-23.385
-17.88
-13.929
-11.477
-10.473
-10.839
-12.465
-15.232
-18.973
-23.506
-28.651
-34.224
-40.078
-46.102
-52.164
-58.139
-63.904
-69.317
-74.273
-78.691
-82.476
-85.574
-87.955
-89.603
-90.554
-90.861
-90.589
-89.829
-88.648
-87.09
-85.216
-83.081
-80.745
-78.301
-75.816
-73.336
-70.929
-68.633
-66.471
-64.465
-62.599
-60.836
-59.134
-57.432
-55.672
-53.816
-51.81
-49.598
-47.125
-44.311
-41.099
-37.45
-33.311
-28.643
-23.415
-17.599
-11.194
-4.22
3.304
11.344
19.862
28.816
38.147
47.794
57.699
67.802
78.057
88.425
98.856
109.301
119.713
130.061
140.331
150.518
160.616
170.628
180.573
190.49
200.436
210.454
220.563
230.763
241.04
251.384
261.782
272.216
282.645
293
303.203
313.177
322.841
332.099
340.826
348.855
356.021
362.195
367.278
371.197
373.885
375.265
375.283
373.918
371.187
367.147
361.852
355.348
347.699
338.997
329.366
318.982
308.002
296.529
284.671
272.528
260.221
247.9
235.683
223.639
211.814
200.231
188.921
177.942
167.323
157.069
147.171
137.59
128.323
119.417
110.895
102.755
94.968
87.464
80.205
73.196
66.443
59.957
53.738
47.768
42.051
36.612
31.469
26.639
22.106
17.819
13.754
9.909
6.303
2.983
-0.03
-2.74
-5.145
-7.242
-9.031
-10.506
-11.683
-12.597
-13.269
-13.714
-13.935
-13.92
-13.671
-13.208
-12.556
-11.75
-10.821
-9.788
-8.676
-7.514
-6.325
-5.13
-3.94
-2.755
-1.582
-0.432
0.682
1.747
2.751
3.689
4.555
5.346
6.058
6.689
7.237
7.704
8.092
8.397
8.619
8.755
8.802
8.759
8.628
8.408
8.101
7.708
7.233
6.677
6.046
5.342
4.569
3.729
2.825
1.861
0.84
-0.235
-1.361
-2.535
-3.753
-5.013
-6.311
-7.643
-9.007
-10.399
-11.815
-13.253
-14.707
-16.176
-17.654
-19.14
-20.628
-22.115
-23.598
-25.074
-26.538
-27.989
-29.423
-30.836
-32.228
-33.595
-34.935
-36.247
-37.528
-38.776
-39.99
-41.168
-42.309
-43.41
-44.47
-45.489
-46.464
-47.395
-48.281
-49.123
-49.918
-50.669
-51.375
-52.037
-52.657
-53.235
-53.773
-54.274
-54.738
-55.169
-55.567
-55.937
-56.279
-56.596
-56.89
-57.165
-57.421
-57.662
-57.889
-58.105
-58.311
-58.51
-58.703
-58.893
-59.081
-59.27
-59.461
-59.656
-59.858
-60.067
-60.286
-60.516
-60.758
-61.013
-61.281
-61.564
-61.862
-62.174
-62.5
-62.841
-63.194
-63.561
-63.939
-64.329
-64.73
-65.139
-65.557
-65.983
-66.415
-66.852
-67.295
-67.741
-68.19
-68.642
-69.095
-69.549
-70.003
-70.455
-70.906
-71.355
-71.799
-72.238
-72.671
-73.097
-73.514
-73.923
-74.323
-74.712
-75.091
-75.459
-75.816
-76.161
-76.496
-76.819
-77.13
-77.431
-77.72
-77.997
-78.264
-78.519
-78.763
-78.996
-79.218
-79.429
-79.629
-79.817
-79.993
-80.157
-80.308
-80.447
-80.574
-80.688
-80.79
-80.88
-80.959
-81.026
-81.082
-81.128
-81.164
-81.189
-81.205
-81.212
-81.209
-81.198
-81.178
-81.151
-81.118
-81.08
-81.036
-80.99
-80.941
-80.89
-80.839
-80.788
-80.738
-80.691
-80.647
-80.608
-80.575
-80.55
-80.535
-80.53
-80.537
-80.557
-80.591
-80.64
-80.704
-80.784
-80.88
-80.992
-81.121
-81.268
-81.431
-81.611
-81.807
-82.018
-82.241
-82.475
-82.716
-82.961
-83.207
-83.447
-83.678
-83.896
-84.096
-84.274
-84.427
-84.551
-84.641
-84.693
-84.702
-84.663
-84.569
-84.411
-84.18
-83.868
-83.469
-82.975
-82.381
-81.681
-80.869
-79.944
-78.901
-77.736
-76.443
-75.009
-73.427
-71.697
-69.824
-67.817
-65.693
-63.465
-61.148
-58.765
-56.333
-53.861
-51.35
-48.791
-46.169
-43.488
-40.754
-37.988
-35.21
-32.425
-29.633
-26.835
-24.015
-21.161
-18.255
-15.261
-12.161
-8.964
-5.697
-2.417
0.803
3.917
6.888
9.692
12.313
14.727
16.904
18.823
20.446
21.723
22.604
23.013
22.897
22.249
21.089
19.477
17.511
15.271
12.827
10.25
7.59
4.893
2.214
-0.402
-2.898
-5.194
-7.205
-8.839
-10.017
-10.707
-10.906
-10.653
-10.028
-9.124
-8.037
-6.868
-5.711
-4.65
-3.776
-3.166
-2.923
-3.196
-4.078
-5.598
-7.706
-10.211
-12.891
-15.521
-17.751
-19.165
-19.495
-18.596
-16.569
-13.878
-10.987
-8.34
-6.549
-6.087
-7.073
-9.565
-13.218
-16.913
-19.511
-19.019
-12.38
1.844
24.213
54.315
89.347
129.746
178.033
235.127
303.137
378.648
454.15
525.343
586.646
634.845
668.041
679.492
662.564
612.049
525.931
407.869
266.256
112.952
-38.727
-174.096
-281.522
-355.396
-395.707
-408.427
-400.516
-376.98
-341.739
-298.697
-253.918
-214.094
-183.472
-161.89
-144.8
-127.613
-108.519
-88.819
-72.2
-60.849
-54.466
-51.595
-49.701
-47.115
-43.337
-37.92
-30.961
-22.874
-13.947
-4.603
4.57
13.149
20.674
26.555
30.597
32.896
33.627
33.123
31.686
29.517
26.915
24.267
21.812
19.705
18.035
16.796
16.039
15.827
16.157
16.991
18.264
19.903
21.855
24.076
26.516
29.121
31.83
34.575
37.311
39.987
42.559
44.976
47.17
49.089
50.707
52.017
53.029
53.76
54.223
54.441
54.445
54.261
53.917
53.437
52.836
52.132
51.351
50.518
49.673
48.844
48.053
47.314
46.641
46.043
45.529
45.104
44.766
44.514
44.352
44.285
44.321
44.464
44.719
45.087
45.569
46.165
46.878
47.709
48.659
49.726
50.912
52.218
53.646
55.195
56.865
58.652
60.553
62.565
64.683
66.902
69.215
71.616
74.099
76.655
79.279
81.962
84.696
87.473
90.282
93.115
95.962
98.813
101.657
104.482
107.278
110.032
112.733
115.369
117.927
120.395
122.761
125.015
127.143
129.135
130.979
132.665
134.183
135.523
136.676
137.633
138.386
138.928
139.253
139.355
139.23
138.874
138.283
137.455
136.389
135.085
133.544
131.766
129.756
127.516
125.051
122.368
119.474
116.375
113.082
109.603
105.95
102.132
98.164
94.055
89.82
85.471
81.022
76.486
71.879
67.212
62.502
57.761
53.004
48.245
43.498
38.777
34.094
29.464
24.898
20.41
16.011
11.711
7.523
3.455
-0.483
-4.282
-7.934
-11.432
-14.77
-17.942
-20.943
-23.769
-26.417
-28.884
-31.17
-33.274
-35.194
-36.933
-38.491
-39.87
-41.073
-42.102
-42.962
-43.658
-44.194
-44.578
-44.817
-44.917
-44.89
-44.745
-44.493
-44.144
-43.71
-43.203
-42.634
-42.015
-41.356
-40.669
-39.964
-39.253
-38.548
-37.862
-37.206
-36.592
-36.03
-35.53
-35.103
-34.755
-34.488
-34.308
-34.216
-34.22
-34.33
-34.554
-34.894
-35.351
-35.92
-36.595
-37.361
-38.198
-39.073
-39.955
-40.814
-41.625
-42.37
-43.03
-43.579
-43.988
-44.218
-44.235
-44.017
-43.545
-42.807
-41.808
-40.569
-39.14
-37.601
-36.029
-34.491
-33.049
-31.76
-30.69
-29.922
-29.545
-29.627
-30.242
-31.484
-33.394
-35.964
-39.093
-42.529
-45.981
-49.185
-51.854
-53.669
-54.397
-53.906
-52.323
-50.143
-47.868
-45.856
-44.34
-43.591
-43.986
-45.712
-48.362
-50.199
-48.719
-42.026
-29.276
-11.785
8.311
30.231
54.794
86.437
130.246
189.257
263.771
345.797
423.753
485.614
519.398
522.475
497.087
447.364
381.73
305.372
223.216
142.406
66.953
-0.297
-59.23
-114.368
-169.29
-225.503
-282.215
-335.377
-381.887
-420.708
-452.128
-477.965
-499.317
-516.386
-529.384
-538.517
-544.424
-547.856
-549.176
-548.517
-545.975
-541.533
-535.133
-526.604
-515.558
-501.853
-485.634
-467.126
-446.672
-424.619
-401.28
-377.086
-352.561
-328.042
-303.734
-279.779
-256.23
-233.21
-210.878
-189.324
-168.619
-148.842
-130.066
-112.412
-96.013
-80.959
-67.311
-55.082
-44.258
-34.861
-26.911
-20.413
-15.358
-11.685
-9.326
-8.228
-8.315
-9.493
-11.647
-14.62
-18.243
-22.352
-26.779
-31.396
-36.091
-40.736
-45.212
-49.401
-53.199
-56.542
-59.366
-61.593
-63.172
-64.071
-64.282
-63.843
-62.81
-61.246
-59.232
-56.832
-54.103
-51.114
-47.934
-44.635
-41.281
-37.909
-34.553
-31.263
-28.074
-25.009
-22.076
-19.252
-16.501
-13.783
-11.043
-8.231
-5.294
-2.172
1.199
4.887
8.948
13.42
18.336
23.726
29.621
36.039
42.993
50.477
58.478
66.976
75.941
85.342
95.132
105.262
115.669
126.284
137.047
147.907
158.817
169.741
180.641
191.483
202.235
212.867
223.354
233.685
243.851
253.85
263.686
273.364
282.898
292.318
301.642
310.877
320.015
329.032
337.895
346.565
355.006
363.18
371.032
378.491
385.48
391.915
397.729
402.856
407.215
410.703
413.226
414.712
415.109
414.389
412.537
409.536
405.377
400.069
393.652
386.184
377.736
368.377
358.15
347.101
335.311
322.893
309.965
296.631
282.989
269.126
255.146
241.17
227.31
213.649
200.241
187.129
174.354
161.974
150.077
138.735
127.988
117.848
108.317
99.397
91.084
83.364
76.183
69.458
63.123
57.137
51.483
46.147
41.104
36.311
31.707
27.248
22.905
18.661
14.504
10.415
6.389
2.437
-1.399
-5.059
-8.5
-11.705
-14.669
-17.393
-19.873
-22.097
-24.056
-25.754
-27.201
-28.406
-29.379
-30.124
-30.656
-31.002
-31.203
-31.306
-31.347
-31.351
-31.338
-31.325
-31.327
-31.362
-31.437
-31.555
-31.717
-31.929
-32.197
-32.527
-32.923
-33.382
-33.901
-34.474
-35.096
-35.765
-36.478
-37.229
-38.017
-38.837
-39.689
-40.573
-41.488
-42.428
-43.392
-44.373
-45.367
-46.369
-47.375
-48.379
-49.376
-50.362
-51.334
-52.288
-53.223
-54.135
-55.021
-55.88
-56.71
-57.509
-58.276
-59.01
-59.711
-60.377
-61.008
-61.605
-62.169
-62.699
-63.197
-63.663
-64.098
-64.505
-64.884
-65.237
-65.565
-65.87
-66.155
-66.423
-66.674
-66.913
-67.14
-67.359
-67.573
-67.782
-67.989
-68.195
-68.402
-68.611
-68.824
-69.042
-69.265
-69.494
-69.732
-69.978
-70.233
-70.498
-70.773
-71.059
-71.356
-71.665
-71.985
-72.317
-72.662
-73.018
-73.387
-73.767
-74.159
-74.563
-74.976
-75.4
-75.832
-76.273
-76.721
-77.175
-77.635
-78.1
-78.569
-79.041
-79.516
-79.991
-80.468
-80.943
-81.417
-81.889
-82.357
-82.82
-83.278
-83.73
-84.174
-84.61
-85.036
-85.451
-85.854
-86.243
-86.618
-86.976
-87.317
-87.638
-87.94
-88.219
-88.476
-88.709
-88.916
-89.098
-89.252
-89.379
-89.477
-89.546
-89.585
-89.593
-89.572
-89.519
-89.437
-89.324
-89.181
-89.009
-88.807
-88.577
-88.319
-88.033
-87.721
-87.382
-87.019
-86.631
-86.22
-85.787
-85.334
-84.864
-84.377
-83.875
-83.362
-82.839
-82.308
-81.772
-81.232
-80.691
-80.151
-79.614
-79.083
-78.558
-78.042
-77.536
-77.041
-76.559
-76.09
-75.635
-75.194
-74.768
-74.357
-73.963
-73.585
-73.224
-72.881
-72.558
-72.254
-71.972
-71.711
-71.471
-71.254
-71.057
-70.882
-70.728
-70.593
-70.478
-70.38
-70.299
-70.234
-70.185
-70.151
-70.13
-70.121
-70.124
-70.137
-70.161
-70.194
-70.237
-70.29
-70.352
-70.424
-70.507
-70.6
-70.702
-70.811
-70.927
-71.046
-71.164
-71.277
-71.382
-71.474
-71.55
-71.608
-71.643
-71.654
-71.639
-71.596
-71.523
-71.417
-71.271
-71.081
-70.841
-70.545
-70.186
-69.758
-69.253
-68.663
-67.987
-67.218
-66.353
-65.382
-64.292
-63.074
-61.726
-60.247
-58.639
-56.907
-55.054
-53.097
-51.062
-48.97
-46.846
-44.7
-42.53
-40.336
-38.121
-35.887
-33.643
-31.38
-29.076
-26.717
-24.295
-21.798
-19.217
-16.522
-13.657
-10.583
-7.271
-3.716
0.058
4.029
8.174
12.453
16.816
21.188
25.468
29.576
33.452
37.033
40.259
43.048
45.291
46.903
47.824
48.012
47.455
46.145
44.081
41.298
37.857
33.853
29.409
24.632
19.614
14.451
9.235
4.07
-0.923
-5.644
-10.011
-13.945
-17.373
-20.23
-22.466
-24.069
-25.06
-25.491
-25.446
-25.008
-24.271
-23.338
-22.312
-21.303
-20.423
-19.773
-19.446
-19.565
-20.284
-21.693
-23.807
-26.538
-29.655
-32.903
-36.031
-38.667
-40.378
-40.886
-40.044
-37.978
-35.181
-32.123
-29.238
-27.136
-26.281
-26.762
-28.604
-31.393
-33.932
-35.076
-32.933
-24.437
-8.059
16.583
49.038
86.5
128.985
179.721
240.402
312.164
391.321
468.435
536.957
594.271
639.877
675.296
697.475
695.431
658.445
580.109
459.813
309.026
145.076
-14.873
-152.903
-257.844
-326.749
-362.739
-373.879
-368.55
-352.129
-324.745
-287.373
-243.421
-196.865
-155.729
-123.786
-99.288
-81.189
-66.076
-52.805
-44.183
-40.79
-42.613
-48.881
-56.485
-63.312
-68.351
-70.674
-70.414
-68.124
-64.161
-59.069
-53.603
-48.397
-44.081
-41.318
-40.307
-40.89
-42.82
-45.691
-49.101
-52.76
-56.337
-59.475
-61.961
-63.701
-64.676
-64.965
-64.628
-63.697
-62.23
-60.298
-57.979
-55.37
-52.563
-49.648
-46.719
-43.853
-41.111
-38.554
-36.231
-34.176
-32.408
-30.926
-29.72
-28.786
-28.116
-27.696
-27.504
-27.505
-27.661
-27.93
-28.268
-28.641
-29.018
-29.372
-29.681
-29.928
-30.101
-30.193
-30.202
-30.119
-29.937
-29.645
-29.237
-28.705
-28.046
-27.255
-26.33
-25.267
-24.064
-22.719
-21.227
-19.586
-17.791
-15.841
-13.731
-11.46
-9.027
-6.436
-3.688
-0.788
2.26
5.45
8.775
12.229
15.805
19.495
23.294
27.192
31.183
35.258
39.407
43.622
47.894
52.211
56.565
60.945
65.34
69.738
74.129
78.503
82.846
87.15
91.401
95.588
99.7
103.725
107.652
111.47
115.167
118.735
122.161
125.437
128.553
131.5
134.27
136.855
139.245
141.435
143.417
145.184
146.729
148.049
149.137
149.989
150.603
150.976
151.106
150.993
150.638
150.041
149.206
148.134
146.83
145.299
143.546
141.579
139.405
137.031
134.469
131.726
128.813
125.742
122.523
119.168
115.69
112.1
108.411
104.636
100.788
96.881
92.928
88.942
84.938
80.928
76.927
72.948
69.003
65.106
61.267
57.499
53.813
50.218
46.725
43.342
40.079
36.942
33.938
31.075
28.357
25.789
23.375
21.117
19.018
17.08
15.303
13.688
12.234
10.941
9.807
8.83
8.006
7.333
6.805
6.416
6.16
6.03
6.016
6.11
6.3
6.577
6.931
7.35
7.822
8.338
8.888
9.46
10.045
10.631
11.207
11.763
12.287
12.768
13.197
13.563
13.858
14.075
14.21
14.259
14.218
14.081
13.838
13.481
13.01
12.424
11.727
10.926
10.035
9.078
8.089
7.101
6.147
5.255
4.445
3.743
3.177
2.775
2.579
2.618
2.912
3.486
4.348
5.493
6.903
8.521
10.257
12.025
13.737
15.322
16.721
17.856
18.643
18.993
18.818
18.075
16.712
14.653
11.868
8.385
4.356
0.104
-4.022
-7.756
-10.808
-12.865
-13.661
-12.981
-10.952
-8.083
-4.841
-1.519
1.622
4.293
6.131
6.717
7.147
9.966
17.076
30.058
47.636
65.637
83.29
101.706
124.775
160.978
213.41
281.044
360.818
442.384
516.179
574.481
607.593
610.262
581.061
519.884
432.764
330.208
222.413
121.425
35.808
-33.804
-90.341
-140.916
-192.208
-245.325
-297.926
-345.374
-384.24
-414.193
-436.934
-455.238
-470.768
-484.148
-495.798
-505.551
-513.31
-519.204
-522.977
-524.315
-523.038
-518.756
-511.075
-499.972
-485.619
-468.319
-448.54
-426.71
-403.204
-378.506
-353.164
-327.598
-302.088
-276.803
-251.825
-227.264
-203.293
-180.061
-157.672
-136.223
-115.798
-96.486
-78.41
-61.682
-46.37
-32.527
-20.151
-9.203
0.316
8.404
15.065
20.318
24.225
26.866
28.305
28.604
27.837
26.093
23.505
20.223
16.397
12.184
7.701
3.035
-1.707
-6.42
-10.999
-15.333
-19.35
-22.997
-26.207
-28.904
-31.032
-32.553
-33.471
-33.822
-33.654
-33.032
-32.007
-30.611
-28.894
-26.909
-24.718
-22.396
-19.994
-17.541
-15.08
-12.664
-10.333
-8.118
-6.018
-4.004
-2.038
-0.076
1.928
4.013
6.234
8.651
11.329
14.339
17.736
21.558
25.851
30.662
36.027
41.97
48.493
55.578
63.203
71.341
79.952
88.987
98.388
108.099
118.067
128.241
138.571
149.008
159.501
169.996
180.46
190.871
201.216
211.493
221.707
231.874
242.033
252.237
262.522
272.905
283.383
293.937
304.552
315.214
325.904
336.587
347.203
357.677
367.931
377.876
387.403
396.375
404.62
411.959
418.249
423.385
427.29
429.911
431.197
431.107
429.621
426.75
422.529
417.007
410.237
402.29
393.271
383.321
372.625
361.368
349.699
337.739
325.589
313.335
301.064
288.85
276.741
264.77
252.961
241.336
229.922
218.734
207.76
196.967
186.295
175.693
165.136
154.609
144.113
133.651
123.227
112.86
102.581
92.425
82.423
72.601
62.975
53.568
44.411
35.538
26.993
18.808
11.001
3.589
-3.42
-10.02
-16.21
-21.997
-27.397
-32.424
-37.091
-41.409
-45.388
-49.039
-52.377
-55.419
-58.181
-60.678
-62.926
-64.939
-66.733
-68.324
-69.724
-70.947
-72.003
-72.905
-73.667
-74.3
-74.819
-75.235
-75.561
-75.808
-75.989
-76.112
-76.189
-76.227
-76.233
-76.215
-76.179
-76.13
-76.074
-76.015
-75.958
-75.905
-75.86
-75.826
-75.805
-75.8
-75.812
-75.844
-75.895
-75.967
-76.061
-76.177
-76.314
-76.473
-76.653
-76.854
-77.074
-77.312
-77.569
-77.842
-78.13
-78.433
-78.748
-79.075
-79.413
-79.761
-80.118
-80.484
-80.859
-81.241
-81.632
-82.031
-82.437
-82.851
-83.273
-83.701
-84.137
-84.579
-85.029
-85.486
-85.95
-86.422
-86.901
-87.387
-87.882
-88.384
-88.895
-89.415
-89.943
-90.482
-91.03
-91.588
-92.157
-92.737
-93.329
-93.932
-94.547
-95.172
-95.809
-96.456
-97.113
-97.78
-98.455
-99.137
-99.827
-100.521
-101.22
-101.923
-102.627
-103.332
-104.035
-104.737
-105.434
-106.126
-106.81
-107.486
-108.15
-108.802
-109.44
-110.061
-110.664
-111.247
-111.806
-112.341
-112.849
-113.328
-113.775
-114.19
-114.57
-114.913
-115.219
-115.485
-115.711
-115.896
-116.039
-116.139
-116.196
-116.209
-116.179
-116.106
-115.989
-115.829
-115.628
-115.384
-115.1
-114.776
-114.414
-114.013
-113.576
-113.104
-112.599
-112.062
-111.494
-110.899
-110.278
-109.634
-108.969
-108.285
-107.585
-106.871
-106.146
-105.413
-104.673
-103.93
-103.184
-102.439
-101.696
-100.958
-100.225
-99.5
-98.784
-98.078
-97.384
-96.702
-96.033
-95.377
-94.736
-94.109
-93.498
-92.901
-92.32
-91.755
-91.204
-90.668
-90.147
-89.638
-89.142
-88.658
-88.183
-87.718
-87.259
-86.806
-86.358
-85.912
-85.467
-85.021
-84.572
-84.12
-83.662
-83.197
-82.724
-82.241
-81.749
-81.245
-80.73
-80.203
-79.665
-79.114
-78.551
-77.977
-77.391
-76.795
-76.188
-75.571
-74.946
-74.314
-73.675
-73.032
-72.385
-71.737
-71.089
-70.444
-69.803
-69.168
-68.542
-67.925
-67.322
-66.732
-66.159
-65.604
-65.069
-64.554
-64.061
-63.591
-63.143
-62.718
-62.313
-61.93
-61.564
-61.216
-60.882
-60.559
-60.246
-59.937
-59.629
-59.318
-58.998
-58.665
-58.313
-57.936
-57.527
-57.081
-56.589
-56.047
-55.446
-54.781
-54.043
-53.226
-52.323
-51.328
-50.233
-49.032
-47.719
-46.29
-44.739
-43.062
-41.257
-39.322
-37.254
-35.054
-32.723
-30.261
-27.673
-24.962
-22.132
-19.191
-16.145
-13.002
-9.774
-6.47
-3.104
0.31
3.756
7.219
10.682
14.127
17.535
20.889
24.17
27.36
30.443
33.401
36.215
38.867
41.339
43.612
45.673
47.505
49.096
50.434
51.51
52.321
52.864
53.136
53.135
52.852
52.283
51.43
50.297
48.893
47.231
45.33
43.213
40.918
38.481
35.937
33.32
30.653
27.966
25.292
22.673
20.154
17.782
15.59
13.608
11.861
10.358
9.093
8.038
7.14
6.35
5.615
4.877
4.079
3.152
2.018
0.609
-1.171
-3.437
-6.241
-9.58
-13.376
-17.412
-21.45
-25.248
-28.439
-30.629
-31.566
-31.1
-29.32
-26.648
-23.504
-20.311
-17.687
-16.144
-15.876
-17.031
-19.36
-21.871
-23.559
-22.643
-16.183
-2.605
18.672
47.445
81.326
120.554
168.235
226.014
294.917
371.224
445.654
511.284
564.906
605.832
635.833
653.02
647.627
608.972
529.607
407.032
251.701
81.654
-84.493
-226.927
-334.601
-406.289
-445.258
-459.522
-454.952
-433.38
-396.539
-347.954
-295.191
-247.168
-209.937
-184.108
-164.816
-147.088
-128.805
-111.009
-97.55
-90.66
-89.73
-92.652
-96.028
-97.388
-95.8
-91.106
-83.85
-74.745
-64.427
-53.64
-43.256
-34.13
-27.007
-22.257
-19.829
-19.472
-20.797
-23.379
-26.838
-30.775
-34.755
-38.462
-41.695
-44.31
-46.274
-47.582
-48.206
-48.165
-47.498
-46.243
-44.465
-42.24
-39.635
-36.732
-33.607
-30.324
-26.966
-23.628
-20.402
-17.389
-14.653
-12.23
-10.15
-8.428
-7.069
-6.066
-5.391
-5.003
-4.865
-4.942
-5.206
-5.632
-6.185
-6.828
-7.521
-8.221
-8.896
-9.524
-10.082
-10.551
-10.919
-11.174
-11.311
-11.332
-11.233
-11.01
-10.655
-10.16
-9.519
-8.729
-7.786
-6.687
-5.431
-4.014
-2.436
-0.697
1.205
3.268
5.492
7.879
10.426
13.129
15.984
18.984
22.124
25.396
28.792
32.304
35.922
39.638
43.443
47.327
51.28
55.292
59.352
63.449
67.57
71.704
75.837
79.957
84.051
88.104
92.103
96.036
99.887
103.644
107.293
110.822
114.218
117.469
120.564
123.491
126.24
128.8
131.163
133.32
135.263
136.984
138.477
139.736
140.754
141.528
142.054
142.327
142.346
142.109
141.615
140.865
139.86
138.602
137.095
135.344
133.354
131.132
128.685
126.023
123.154
120.088
116.837
113.412
109.826
106.091
102.22
98.225
94.122
89.922
85.64
81.289
76.883
72.436
67.962
63.473
58.984
54.508
50.058
45.648
41.29
36.996
32.778
28.649
24.618
20.696
16.892
13.215
9.675
6.277
3.028
-0.065
-2.997
-5.766
-8.367
-10.798
-13.057
-15.144
-17.058
-18.799
-20.367
-21.765
-22.993
-24.054
-24.951
-25.688
-26.269
-26.699
-26.985
-27.131
-27.147
-27.04
-26.82
-26.497
-26.082
-25.585
-25.017
-24.391
-23.716
-23.003
-22.262
-21.504
-20.737
-19.974
-19.224
-18.499
-17.808
-17.161
-16.567
-16.033
-15.566
-15.169
-14.844
-14.593
-14.422
-14.342
-14.36
-14.48
-14.703
-15.026
-15.44
-15.933
-16.483
-17.058
-17.627
-18.158
-18.628
-19.017
-19.308
-19.478
-19.494
-19.317
-18.913
-18.255
-17.329
-16.126
-14.65
-12.93
-11.021
-9.011
-6.983
-5.003
-3.127
-1.407
0.088
1.274
2.061
2.376
2.134
1.217
-0.423
-2.766
-5.678
-8.85
-11.936
-14.625
-16.572
-17.41
-16.922
-15.067
-12.124
-8.756
-5.624
-3.236
-1.998
-2.259
-4.167
-7.478
-11.248
-13.82
-13.374
-8.315
2.77
21.385
48.852
85.852
131.337
182.454
236.162
290.041
343.724
397.568
449.418
494.699
525.921
534.713
517.014
473.504
408.998
332.903
254.374
179.041
110.849
49.137
-9.852
-67.254
-123.969
-179.15
-228.956
-271.689
-306.948
-334.755
-356.968
-375.326
-390.719
-404.064
-416.022
-426.689
-436.042
-444.141
-450.775
-455.536
-458.111
-457.975
-454.537
-447.704
-437.617
-424.49
-408.741
-390.754
-370.853
-349.515
-327.261
-304.479
-281.481
-258.458
-235.5
-212.737
-190.321
-168.427
-147.244
-126.923
-107.607
-89.441
-72.561
-57.114
-43.241
-31.006
-20.425
-11.469
-4.061
1.837
6.259
9.266
10.928
11.378
10.789
9.305
7.059
4.205
0.888
-2.693
-6.301
-9.78
-13.021
-15.957
-18.575
-20.84
-22.715
-24.188
-25.262
-25.974
-26.385
-26.532
-26.429
-26.116
-25.625
-25.046
-24.518
-24.123
-23.903
-23.875
-24.014
-24.306
-24.748
-25.305
-25.927
-26.562
-27.147
-27.646
-28.048
-28.326
-28.459
-28.387
-28.015
-27.279
-26.133
-24.544
-22.495
-19.969
-16.939
-13.405
-9.384
-4.885
0.079
5.517
11.444
17.861
24.766
32.14
39.943
48.14
56.691
65.547
74.663
83.997
93.509
103.172
112.966
122.859
132.815
142.794
152.762
162.701
172.597
182.439
192.23
201.985
211.74
221.549
231.446
241.448
251.552
261.738
271.988
282.287
292.614
302.933
313.187
323.301
333.201
342.802
351.998
360.66
368.622
375.706
381.775
386.723
390.476
392.979
394.179
394.037
392.536
389.685
385.523
380.1
373.47
365.704
356.908
347.219
336.818
325.885
314.567
302.985
291.236
279.407
267.586
255.845
244.234
232.785
221.521
210.463
199.64
189.062
178.722
168.588
158.601
148.716
138.908
129.167
119.492
109.889
100.364
90.934
81.63
72.489
63.54
54.809
46.312
38.072
30.119
22.487
15.216
8.337
1.867
-4.181
-9.798
-14.983
-19.735
-24.064
-27.988
-31.524
-34.688
-37.493
-39.952
-42.08
-43.897
-45.42
-46.672
-47.671
-48.436
-48.986
-49.339
-49.516
-49.533
-49.407
-49.152
-48.783
-48.316
-47.767
-47.151
-46.482
-45.774
-45.041
-44.295
-43.548
-42.81
-42.09
-41.396
-40.735
-40.112
-39.534
-39.003
-38.524
-38.098
-37.728
-37.415
-37.16
-36.962
-36.822
-36.737
-36.708
-36.73
-36.803
-36.923
-37.087
-37.292
-37.534
-37.811
-38.118
-38.454
-38.814
-39.196
-39.596
-40.011
-40.439
-40.876
-41.32
-41.768
-42.217
-42.667
-43.115
-43.56
-44
-44.435
-44.863
-45.284
-45.697
-46.101
-46.496
-46.882
-47.258
-47.625
-47.983
-48.332
-48.673
-49.006
-49.333
-49.653
-49.966
-50.274
-50.575
-50.871
-51.159
-51.442
-51.717
-51.985
-52.246
-52.498
-52.743
-52.98
-53.208
-53.427
-53.636
-53.837
-54.028
-54.209
-54.38
-54.543
-54.696
-54.84
-54.976
-55.103
-55.223
-55.335
-55.439
-55.536
-55.625
-55.706
-55.78
-55.847
-55.907
-55.961
-56.009
-56.052
-56.091
-56.128
-56.161
-56.194
-56.225
-56.257
-56.289
-56.323
-56.359
-56.397
-56.438
-56.481
-56.528
-56.576
-56.627
-56.679
-56.731
-56.783
-56.833
-56.88
-56.924
-56.963
-56.996
-57.023
-57.044
-57.057
-57.062
-57.057
-57.044
-57.02
-56.985
-56.938
-56.879
-56.807
-56.721
-56.621
-56.506
-56.377
-56.232
-56.072
-55.897
-55.705
-55.499
-55.277
-55.04
-54.791
-54.528
-54.255
-53.972
-53.681
-53.384
-53.082
-52.778
-52.472
-52.166
-51.861
-51.558
-51.259
-50.965
-50.675
-50.391
-50.114
-49.844
-49.582
-49.328
-49.082
-48.845
-48.616
-48.396
-48.185
-47.983
-47.789
-47.606
-47.432
-47.269
-47.115
-46.972
-46.839
-46.716
-46.602
-46.496
-46.399
-46.308
-46.224
-46.145
-46.072
-46.005
-45.943
-45.886
-45.835
-45.79
-45.752
-45.721
-45.697
-45.682
-45.675
-45.679
-45.695
-45.722
-45.763
-45.818
-45.888
-45.972
-46.071
-46.184
-46.309
-46.445
-46.591
-46.744
-46.903
-47.063
-47.223
-47.381
-47.536
-47.684
-47.823
-47.949
-48.059
-48.15
-48.219
-48.257
-48.26
-48.22
-48.131
-47.989
-47.788
-47.522
-47.184
-46.769
-46.271
-45.69
-45.019
-44.25
-43.374
-42.381
-41.269
-40.048
-38.721
-37.29
-35.76
-34.136
-32.428
-30.653
-28.813
-26.904
-24.92
-22.853
-20.708
-18.503
-16.253
-13.976
-11.68
-9.36
-7.02
-4.677
-2.334
0.007
2.35
4.712
7.08
9.405
11.647
13.76
15.716
17.507
19.119
20.531
21.72
22.655
23.315
23.699
23.791
23.563
22.984
22.004
20.613
18.851
16.754
14.36
11.696
8.773
5.618
2.279
-1.191
-4.739
-8.325
-11.921
-15.491
-18.98
-22.32
-25.429
-28.255
-30.782
-33.005
-34.921
-36.514
-37.779
-38.738
-39.449
-39.993
-40.438
-40.834
-41.235
-41.706
-42.326
-43.204
-44.434
-46.097
-48.286
-51.026
-54.294
-58.025
-62.013
-65.978
-69.62
-72.564
-74.422
-74.957
-73.997
-71.557
-68.027
-63.842
-59.524
-55.643
-52.485
-50.362
-49.631
-50.003
-50.655
-49.958
-45.021
-34.271
-17.446
5.136
31.423
62.51
102.375
153.683
218.695
294.023
370.448
440.917
500.823
549.266
589.416
619.468
630.667
611.991
552.067
447.242
306.643
145.783
-16.713
-163.633
-286.418
-380.122
-441.524
-470.817
-466.37
-431.509
-376.635
-313.906
-258.854
-220.557
-198.331
-186.848
-176.176
-160.929
-142.342
-123.875
-111.1
-106.276
-107.834
-113.365
-119.492
-123.942
-125.847
-124.876
-121.396
-115.956
-109.081
-101.414
-93.648
-86.559
-80.941
-77.214
-75.421
-75.385
-76.724
-79.054
-82.019
-85.189
-88.136
-90.576
-92.333
-93.344
-93.64
-93.241
-92.166
-90.465
-88.198
-85.433
-82.24
-78.682
-74.828
-70.767
-66.599
-62.437
-58.371
-54.47
-50.798
-47.395
-44.289
-41.499
-39.023
-36.853
-34.98
-33.387
-32.051
-30.951
-30.054
-29.325
-28.725
-28.209
-27.738
-27.285
-26.822
-26.332
-25.8
-25.215
-24.567
-23.857
-23.077
-22.222
-21.287
-20.264
-19.146
-17.931
-16.615
-15.197
-13.675
-12.047
-10.309
-8.46
-6.498
-4.419
-2.223
0.095
2.534
5.095
7.775
10.57
13.477
16.492
19.609
22.821
26.122
29.506
32.965
36.494
40.085
43.731
47.424
51.156
54.919
58.705
62.505
66.309
70.109
73.895
77.659
81.39
85.08
88.719
92.298
95.808
99.239
102.582
105.829
108.969
111.993
114.895
117.663
120.292
122.772
125.096
127.257
129.248
131.064
132.696
134.139
135.388
136.437
137.282
137.917
138.339
138.545
138.533
138.303
137.852
137.181
136.292
135.186
133.864
132.331
130.59
128.645
126.502
124.167
121.647
118.948
116.08
113.052
109.871
106.549
103.094
99.519
95.833
92.048
88.175
84.227
80.216
76.153
72.053
67.928
63.79
59.653
55.528
51.429
47.367
43.352
39.397
35.511
31.704
27.986
24.365
20.85
17.449
14.169
11.015
7.995
5.113
2.372
-0.223
-2.67
-4.967
-7.11
-9.1
-10.936
-12.617
-14.145
-15.521
-16.747
-17.827
-18.764
-19.565
-20.233
-20.777
-21.203
-21.521
-21.737
-21.862
-21.905
-21.875
-21.783
-21.637
-21.446
-21.219
-20.965
-20.693
-20.412
-20.131
-19.859
-19.606
-19.378
-19.185
-19.035
-18.931
-18.879
-18.881
-18.939
-19.059
-19.248
-19.509
-19.845
-20.254
-20.733
-21.272
-21.863
-22.483
-23.1
-23.686
-24.208
-24.641
-24.968
-25.165
-25.209
-25.075
-24.727
-24.138
-23.29
-22.165
-20.753
-19.061
-17.102
-14.923
-12.607
-10.236
-7.89
-5.631
-3.502
-1.559
0.117
1.45
2.363
2.807
2.732
2.041
0.663
-1.387
-3.97
-6.796
-9.519
-11.861
-13.518
-14.111
-13.329
-11.04
-7.489
-3.237
1.16
5.18
8.295
9.913
9.464
7.437
5.743
6.304
10.401
17.375
25.283
34.539
48.809
73.922
114.416
170.673
237.743
308.433
378.62
444.388
502.388
548.362
572.624
568.385
534.867
475.601
401.348
323.582
247.973
177.735
112.698
49.279
-12.9
-73.284
-131.867
-185.939
-234.159
-276.796
-313.601
-345.682
-374.225
-399.542
-421.984
-441.754
-458.972
-473.652
-485.672
-494.899
-501.094
-504.05
-503.669
-499.705
-491.87
-480.213
-464.972
-446.489
-425.241
-401.66
-376.162
-349.306
-321.727
-293.94
-266.327
-239.165
-212.653
-187.035
-162.578
-139.499
-117.948
-98.027
-79.824
-63.433
-48.957
-36.46
-25.919
-17.248
-10.313
-4.979
-1.155
1.249
2.354
2.314
1.298
-0.539
-3.088
-6.247
-9.89
-13.865
-17.991
-22.108
-26.121
-29.969
-33.615
-37.018
-40.102
-42.814
-45.147
-47.112
-48.731
-50
-50.875
-51.327
-51.369
-51.047
-50.437
-49.613
-48.604
-47.44
-46.158
-44.805
-43.453
-42.143
-40.87
-39.625
-38.398
-37.2
-36.074
-35.043
-34.096
-33.205
-32.329
-31.424
-30.468
-29.421
-28.224
-26.811
-25.101
-23.038
-20.601
-17.767
-14.517
-10.826
-6.657
-1.99
3.178
8.85
15.021
21.681
28.821
36.418
44.427
52.798
61.469
70.383
79.494
88.76
98.141
107.603
117.11
126.633
136.149
145.628
155.046
164.391
173.656
182.841
191.956
201.012
210.027
219.032
228.043
237.068
246.104
255.132
264.124
273.045
281.852
290.502
298.934
307.068
314.815
322.071
328.737
334.719
339.918
344.223
347.543
349.805
350.954
350.962
349.815
347.513
344.07
339.512
333.894
327.289
319.795
311.527
302.596
293.107
283.169
272.901
262.408
251.783
241.104
230.429
219.808
209.288
198.908
188.697
178.671
168.829
159.159
149.636
140.242
130.968
121.804
112.743
103.782
94.922
86.178
77.574
69.134
60.877
52.824
44.997
37.421
30.123
23.134
16.488
10.209
4.314
-1.181
-6.269
-10.945
-15.207
-19.064
-22.53
-25.617
-28.338
-30.708
-32.741
-34.452
-35.861
-36.989
-37.855
-38.48
-38.883
-39.085
-39.104
-38.959
-38.668
-38.249
-37.718
-37.089
-36.38
-35.608
-34.788
-33.937
-33.069
-32.197
-31.334
-30.494
-29.685
-28.919
-28.202
-27.542
-26.946
-26.419
-25.965
-25.588
-25.29
-25.072
-24.936
-24.881
-24.907
-25.012
-25.194
-25.451
-25.779
-26.176
-26.637
-27.159
-27.737
-28.365
-29.04
-29.755
-30.506
-31.286
-32.091
-32.915
-33.753
-34.601
-35.453
-36.305
-37.154
-37.994
-38.823
-39.636
-40.432
-41.207
-41.959
-42.685
-43.385
-44.056
-44.697
-45.307
-45.886
-46.433
-46.948
-47.43
-47.88
-48.297
-48.683
-49.037
-49.362
-49.657
-49.924
-50.165
-50.38
-50.572
-50.74
-50.887
-51.014
-51.121
-51.21
-51.282
-51.337
-51.377
-51.403
-51.415
-51.414
-51.402
-51.379
-51.346
-51.304
-51.253
-51.194
-51.128
-51.056
-50.978
-50.895
-50.809
-50.719
-50.628
-50.536
-50.444
-50.352
-50.262
-50.173
-50.087
-50.004
-49.926
-49.852
-49.784
-49.723
-49.671
-49.627
-49.593
-49.57
-49.56
-49.562
-49.577
-49.606
-49.65
-49.708
-49.783
-49.872
-49.978
-50.099
-50.236
-50.388
-50.554
-50.733
-50.925
-51.128
-51.341
-51.562
-51.791
-52.024
-52.262
-52.503
-52.744
-52.984
-53.221
-53.453
-53.677
-53.892
-54.095
-54.284
-54.457
-54.611
-54.745
-54.857
-54.944
-55.006
-55.041
-55.046
-55.022
-54.966
-54.879
-54.759
-54.606
-54.42
-54.202
-53.952
-53.671
-53.359
-53.019
-52.65
-52.256
-51.836
-51.393
-50.929
-50.445
-49.945
-49.43
-48.903
-48.367
-47.825
-47.279
-46.732
-46.187
-45.647
-45.115
-44.594
-44.087
-43.596
-43.124
-42.673
-42.246
-41.846
-41.472
-41.128
-40.815
-40.533
-40.284
-40.068
-39.884
-39.734
-39.617
-39.532
-39.479
-39.456
-39.463
-39.496
-39.554
-39.635
-39.736
-39.854
-39.985
-40.126
-40.273
-40.421
-40.565
-40.701
-40.824
-40.927
-41.004
-41.051
-41.06
-41.025
-40.941
-40.802
-40.6
-40.332
-39.99
-39.569
-39.065
-38.471
-37.784
-36.999
-36.111
-35.117
-34.014
-32.799
-31.471
-30.029
-28.471
-26.798
-25.012
-23.113
-21.104
-18.988
-16.771
-14.458
-12.056
-9.573
-7.018
-4.402
-1.736
0.965
3.687
6.416
9.137
11.833
14.487
17.085
19.611
22.05
24.386
26.605
28.69
30.624
32.393
33.979
35.369
36.551
37.512
38.243
38.74
38.999
39.016
38.786
38.299
37.547
36.529
35.246
33.702
31.909
29.885
27.658
25.267
22.752
20.151
17.498
14.817
12.137
9.489
6.913
4.453
2.154
0.051
-1.827
-3.451
-4.816
-5.942
-6.874
-7.692
-8.471
-9.269
-10.145
-11.162
-12.389
-13.907
-15.799
-18.126
-20.97
-24.438
-28.55
-33.263
-38.408
-43.628
-48.535
-52.765
-55.902
-57.544
-57.506
-55.739
-52.493
-48.457
-44.309
-40.646
-38.053
-36.813
-36.895
-38.159
-39.964
-40.922
-38.897
-30.96
-14.399
11.893
46.021
84.535
124.766
166.675
215.289
275.902
350.564
436.986
525.348
605.24
667.687
704.24
712.176
688.052
628.79
536.207
411.011
260.585
99.544
-57.354
-191.179
-288.682
-348.382
-373.862
-374.929
-361.766
-338.384
-308.167
-275.313
-243.051
-215.479
-194.049
-175.463
-157.079
-137.971
-119.184
-104.319
-95.424
-92.093
-92.833
-95.175
-97.206
-97.934
-96.542
-92.795
-86.912
-79.266
-70.463
-61.139
-51.898
-43.426
-36.461
-31.436
-28.436
-27.327
-27.807
-29.543
-32.243
-35.583
-39.18
-42.756
-46.126
-49.129
-51.677
-53.716
-55.189
-56.086
-56.439
-56.258
-55.563
-54.4
-52.813
-50.864
-48.628
-46.154
-43.483
-40.675
-37.796
-34.936
-32.192
-29.627
-27.276
-25.17
-23.322
-21.742
-20.433
-19.37
-18.517
-17.844
-17.322
-16.934
-16.665
-16.489
-16.379
-16.298
-16.207
-16.078
-15.89
-15.624
-15.262
-14.796
-14.215
-13.521
-12.72
-11.814
-10.798
-9.673
-8.437
-7.083
-5.606
-4.002
-2.264
-0.4
1.579
3.681
5.914
8.255
10.684
13.19
15.75
18.382
21.117
23.932
26.788
29.771
32.982
36.352
39.88
43.58
47.213
51.395
56.723
62.327
67.936
71.957
72.485
71.61
70.726
71.909
78.013
86.496
95.199
102.64
106.376
108.134
109.664
111.348
114.247
117.725
120.969
124.119
127.059
129.833
132.59
135.212
137.603
139.78
141.739
143.459
144.935
146.163
147.14
147.874
148.377
148.637
148.642
148.391
147.882
147.112
146.082
144.792
143.239
141.428
139.363
137.05
134.493
131.701
128.68
125.44
121.991
118.343
114.509
110.5
106.33
102.013
97.563
92.995
88.324
83.567
78.737
73.852
68.925
63.974
59.011
54.053
49.113
44.206
39.345
34.544
29.815
25.172
20.625
16.186
11.865
7.673
3.617
-0.294
-4.053
-7.654
-11.09
-14.356
-17.45
-20.366
-23.104
-25.661
-28.037
-30.233
-32.249
-34.088
-35.751
-37.243
-38.566
-39.726
-40.726
-41.571
-42.269
-42.824
-43.242
-43.533
-43.702
-43.761
-43.719
-43.585
-43.371
-43.087
-42.743
-42.351
-41.921
-41.462
-40.984
-40.494
-40.005
-39.526
-39.069
-38.644
-38.262
-37.931
-37.662
-37.462
-37.337
-37.289
-37.323
-37.439
-37.644
-37.946
-38.354
-38.871
-39.499
-40.232
-41.062
-41.975
-42.951
-43.956
-44.959
-45.929
-46.838
-47.667
-48.395
-48.997
-49.445
-49.697
-49.719
-49.486
-48.977
-48.183
-47.116
-45.796
-44.27
-42.623
-40.932
-39.264
-37.695
-36.28
-35.086
-34.204
-33.722
-33.721
-34.295
-35.551
-37.539
-40.248
-43.56
-47.221
-50.953
-54.49
-57.522
-59.711
-60.834
-60.774
-59.65
-57.932
-56.032
-54.228
-52.823
-52.004
-51.819
-52.26
-52.852
-52.411
-49.691
-43.494
-32.674
-16.322
6.534
36.927
75.404
120.774
170.41
221.76
272.142
321.213
370.812
419.746
465.518
502.222
519.039
509.577
470.243
401.995
315.307
220.916
129.732
50.742
-15.535
-72.299
-125.219
-179.426
-235.686
-291.618
-342.559
-385.349
-419.217
-444.879
-464.691
-480.238
-492.045
-500.755
-506.79
-510.395
-512.001
-511.762
-509.475
-505.006
-498.193
-488.751
-476.439
-461.276
-443.473
-423.378
-401.508
-378.363
-354.423
-330.223
-306.281
-282.957
-260.499
-239.114
-218.934
-200.086
-182.699
-166.835
-152.513
-139.769
-128.626
-119.07
-111.059
-104.491
-99.225
-95.133
-92.105
-90.033
-88.806
-88.276
-88.282
-88.681
-89.349
-90.163
-91
-91.726
-92.207
-92.364
-92.166
-91.61
-90.72
-89.515
-88.011
-86.233
-84.226
-82.049
-79.764
-77.426
-75.079
-72.777
-70.584
-68.576
-66.831
-65.389
-64.258
-63.431
-62.886
-62.598
-62.54
-62.67
-62.933
-63.276
-63.65
-64.01
-64.319
-64.53
-64.59
-64.444
-64.038
-63.331
-62.295
-60.907
-59.148
-57.006
-54.47
-51.541
-48.223
-44.516
-40.418
-35.928
-31.044
-25.769
-20.104
-14.049
-7.602
-0.767
6.449
14.032
21.966
30.234
38.812
47.672
56.774
66.08
75.556
85.175
94.914
104.745
114.635
124.543
134.433
144.281
154.075
163.804
173.459
183.044
192.573
202.082
211.623
221.226
230.901
240.638
250.417
260.223
270.041
279.849
289.61
299.26
308.725
317.937
326.814
335.259
343.151
350.338
356.669
362.034
366.345
369.54
371.569
372.372
371.903
370.138
367.073
362.74
357.18
350.429
342.554
333.645
323.815
313.214
301.969
290.166
277.89
265.221
252.24
239.056
225.767
212.459
199.222
186.124
173.226
160.597
148.272
136.264
124.586
113.232
102.221
91.618
81.461
71.782
62.607
53.923
45.719
37.98
30.658
23.712
17.116
10.835
4.865
-0.788
-6.132
-11.169
-15.921
-20.44
-24.759
-28.901
-32.896
-36.743
-40.438
-43.97
-47.295
-50.372
-53.182
-55.707
-57.946
-59.912
-61.606
-63.033
-64.199
-65.1
-65.735
-66.11
-66.223
-66.087
-65.721
-65.15
-64.412
-63.549
-62.588
-61.552
-60.461
-59.326
-58.159
-56.97
-55.763
-54.544
-53.318
-52.094
-50.881
-49.685
-48.509
-47.354
-46.219
-45.101
-43.999
-42.912
-41.841
-40.784
-39.745
-38.724
-37.726
-36.754
-35.81
-34.894
-34.005
-33.143
-32.307
-31.495
-30.705
-29.936
-29.185
-28.453
-27.737
-27.037
-26.352
-25.681
-25.023
-24.377
-23.742
-23.118
-22.502
-21.895
-21.295
-20.702
-20.115
-19.534
-18.957
-18.384
-17.814
-17.247
-16.681
-16.117
-15.552
-14.987
-14.42
-13.85
-13.279
-12.704
-12.127
-11.548
-10.968
-10.386
-9.804
-9.221
-8.638
-8.057
-7.476
-6.897
-6.322
-5.75
-5.183
-4.623
-4.071
-3.528
-2.997
-2.478
-1.974
-1.486
-1.016
-0.566
-0.137
0.269
0.651
1.006
1.334
1.634
1.904
2.143
2.352
2.53
2.676
2.792
2.876
2.931
2.955
2.951
2.918
2.859
2.773
2.664
2.533
2.382
2.214
2.031
1.836
1.632
1.423
1.211
1.001
0.795
0.597
0.411
0.24
0.088
-0.041
-0.145
-0.22
-0.264
-0.273
-0.247
-0.182
-0.078
0.068
0.257
0.489
0.766
1.088
1.456
1.868
2.325
2.826
3.369
3.953
4.575
5.235
5.928
6.653
7.405
8.182
8.978
9.791
10.616
11.447
12.279
13.107
13.926
14.73
15.515
16.273
17.001
17.694
18.348
18.957
19.517
20.023
20.472
20.858
21.179
21.431
21.609
21.712
21.736
21.68
21.543
21.323
21.019
20.631
20.159
19.603
18.964
18.245
17.448
16.574
15.63
14.619
13.546
12.419
11.242
10.022
8.769
7.489
6.188
4.875
3.555
2.236
0.928
-0.362
-1.627
-2.859
-4.047
-5.18
-6.248
-7.24
-8.148
-8.964
-9.679
-10.286
-10.778
-11.147
-11.393
-11.51
-11.493
-11.332
-11.016
-10.542
-9.916
-9.149
-8.25
-7.228
-6.09
-4.851
-3.531
-2.144
-0.694
0.828
2.432
4.116
5.866
7.657
9.464
11.273
13.083
14.897
16.706
18.502
20.286
22.073
23.885
25.725
27.562
29.334
30.984
32.473
33.781
34.902
35.824
36.522
36.972
37.155
37.062
36.68
35.975
34.892
33.373
31.394
28.979
26.198
23.115
19.779
16.24
12.538
8.729
4.871
1.01
-2.822
-6.59
-10.247
-13.717
-16.901
-19.712
-22.097
-24.041
-25.582
-26.762
-27.632
-28.266
-28.733
-29.11
-29.49
-29.948
-30.554
-31.4
-32.564
-34.168
-36.394
-39.339
-43.012
-47.306
-51.909
-56.471
-60.687
-64.144
-66.382
-67.125
-66.25
-63.975
-61.011
-58.098
-55.879
-55.02
-56.042
-59.148
-64.216
-70.484
-76.342
-79.905
-79.134
-71.905
-56.408
-31.077
5.284
52.998
111.538
178.782
250.536
322.291
389.4
449.067
502.557
550.106
589.601
615.932
616.791
580.819
503.041
382.801
230.831
65.129
-97.598
-238.161
-343.354
-411.436
-445.002
-454.248
-451.83
-442.666
-428.387
-407.678
-376.992
-337.783
-294.369
-251.012
-212.55
-181.712
-159.093
-144.552
-137.034
-134.97
-136.699
-140.57
-144.844
-147.848
-148.243
-145.255
-138.811
-129.535
-118.308
-106.006
-93.743
-81.895
-70.772
-61.733
-55.15
-52.42
-55.034
-60.526
-67.147
-72.401
-73.026
-71.237
-68.961
-67.544
-69.357
-72.61
-75.503
-77.642
-77.976
-77.152
-76.001
-74.406
-72.509
-70.32
-67.743
-64.947
-62.074
-59.142
-56.213
-53.365
-50.665
-48.189
-45.984
-44.069
-42.45
-41.139
-40.131
-39.408
-38.943
-38.699
-38.641
-38.744
-38.981
-39.332
-39.77
-40.263
-40.778
-41.273
-41.717
-42.085
-42.355
-42.511
-42.541
-42.436
-42.192
-41.809
-41.287
-40.622
-39.81
-38.841
-37.712
-36.418
-34.957
-33.33
-31.535
-29.572
-27.441
-25.142
-22.678
-20.05
-17.258
-14.302
-11.186
-7.914
-4.491
-0.925
2.776
6.604
10.55
14.603
18.752
22.987
27.297
31.671
36.097
40.564
45.06
49.571
54.085
58.589
63.07
67.513
71.905
76.232
80.482
84.639
88.687
92.612
96.397
100.03
103.499
106.791
109.887
112.778
115.463
117.942
120.215
122.274
124.092
125.662
126.995
128.074
128.855
129.304
129.385
129.093
128.48
127.562
126.287
124.713
123.044
121.327
119.509
117.625
115.471
113.449
112.8
113.274
113.751
112.387
105.689
93.875
80.481
69.025
64.498
67.248
72.58
76.871
76.208
69.91
61.511
53.189
46.433
41.707
37.589
33.437
29.313
25.176
21.253
17.609
14.058
10.551
7.127
3.789
0.535
-2.623
-5.672
-8.589
-11.339
-13.908
-16.311
-18.55
-20.625
-22.536
-24.283
-25.867
-27.296
-28.574
-29.701
-30.68
-31.515
-32.211
-32.772
-33.203
-33.508
-33.694
-33.764
-33.723
-33.577
-33.33
-32.987
-32.554
-32.037
-31.441
-30.774
-30.041
-29.251
-28.413
-27.533
-26.62
-25.683
-24.73
-23.768
-22.807
-21.851
-20.909
-19.987
-19.092
-18.232
-17.415
-16.648
-15.94
-15.297
-14.727
-14.236
-13.828
-13.504
-13.268
-13.121
-13.068
-13.118
-13.276
-13.546
-13.928
-14.421
-15.017
-15.706
-16.465
-17.263
-18.071
-18.859
-19.602
-20.285
-20.886
-21.381
-21.745
-21.945
-21.952
-21.748
-21.31
-20.625
-19.697
-18.542
-17.213
-15.792
-14.355
-12.97
-11.696
-10.579
-9.684
-9.088
-8.868
-9.104
-9.839
-11.138
-13.104
-15.772
-19.103
-22.933
-26.928
-30.752
-34.158
-36.862
-38.561
-39.032
-38.132
-36.076
-33.441
-30.692
-28.174
-26.095
-24.55
-23.726
-23.673
-23.692
-22.467
-18.688
-11.141
1.084
18.837
43.429
76.137
116.308
161.303
208.615
255.677
303.089
354.404
408.815
463.099
509.624
534.937
532.01
497.931
433.752
351.076
259.841
169.406
90.967
26.178
-25.925
-68.233
-109.223
-152.367
-197.568
-243.325
-284.59
-318.646
-345.696
-366.975
-384.803
-400.532
-414.447
-426.424
-436.06
-443.316
-448.223
-450.527
-450.065
-446.585
-439.741
-429.631
-416.543
-400.785
-382.838
-363.206
-342.344
-320.815
-299.205
-277.909
-257.21
-237.335
-218.44
-200.704
-184.299
-169.332
-155.862
-143.928
-133.559
-124.753
-117.472
-111.617
-107.041
-103.582
-101.076
-99.388
-98.401
-97.981
-97.978
-98.241
-98.639
-99.049
-99.364
-99.471
-99.25
-98.624
-97.564
-96.076
-94.2
-91.985
-89.476
-86.72
-83.767
-80.675
-77.511
-74.336
-71.199
-68.156
-65.261
-62.581
-60.191
-58.138
-56.433
-55.073
-54.035
-53.288
-52.806
-52.547
-52.459
-52.493
-52.6
-52.735
-52.864
-52.941
-52.92
-52.75
-52.374
-51.751
-50.851
-49.649
-48.126
-46.266
-44.053
-41.48
-38.55
-35.258
-31.601
-27.572
-23.164
-18.372
-13.2
-7.646
-1.712
4.605
11.311
18.407
25.884
33.732
41.935
50.475
59.332
68.473
77.858
87.45
97.21
107.109
117.128
127.24
137.414
147.611
157.785
167.902
177.946
187.902
197.755
207.507
217.163
226.754
236.34
245.962
255.64
265.376
275.138
284.9
294.645
304.353
314.006
323.563
332.957
342.128
351.021
359.563
367.663
375.181
381.923
387.724
392.46
396.035
398.394
399.481
399.227
397.584
394.532
390.078
384.257
377.094
368.593
358.777
347.711
335.525
322.427
308.603
294.202
279.368
264.225
248.912
233.601
218.427
203.484
188.844
174.57
160.743
147.482
134.9
123.064
111.986
101.619
91.925
82.887
74.478
66.657
59.352
52.456
45.9
39.656
33.713
28.057
22.653
17.429
12.315
7.267
2.272
-2.662
-7.53
-12.343
-17.097
-21.765
-26.29
-30.59
-34.612
-38.336
-41.761
-44.894
-47.727
-50.229
-52.364
-54.098
-55.425
-56.362
-56.928
-57.148
-57.039
-56.596
-55.877
-54.993
-54.002
-52.931
-51.686
-50.034
-47.892
-45.341
-42.497
-39.546
-36.672
-33.997
-31.945
-31.229
-32.281
-35.287
-40.041
-45.861
-52.141
-58.405
-63.815
-67.321
-68.104
-65.393
-59.181
-50.504
-40.308
-29.449
-19.167
-9.8
-1.703
3.242
4.596
1.425
-7.378
-18.682
-30.228
-39.355
-42.485
-41.456
-38.199
-34.424
-33.051
-32.99
-32.886
-32.479
-30.888
-29.001
-27.773
-27.091
-26.943
-26.992
-26.926
-26.849
-26.845
-26.915
-27.054
-27.236
-27.468
-27.792
-28.228
-28.768
-29.377
-30.024
-30.693
-31.378
-32.077
-32.792
-33.517
-34.245
-34.97
-35.684
-36.384
-37.073
-37.748
-38.408
-39.05
-39.673
-40.277
-40.862
-41.43
-41.976
-42.497
-42.986
-43.439
-43.853
-44.227
-44.559
-44.846
-45.088
-45.283
-45.43
-45.53
-45.583
-45.589
-45.547
-45.458
-45.324
-45.145
-44.925
-44.664
-44.365
-44.031
-43.665
-43.268
-42.845
-42.399
-41.932
-41.45
-40.954
-40.45
-39.941
-39.43
-38.923
-38.423
-37.935
-37.461
-37.005
-36.572
-36.164
-35.784
-35.434
-35.116
-34.833
-34.584
-34.372
-34.197
-34.059
-33.96
-33.897
-33.872
-33.884
-33.932
-34.014
-34.128
-34.274
-34.45
-34.652
-34.879
-35.128
-35.396
-35.681
-35.979
-36.287
-36.603
-36.923
-37.244
-37.562
-37.876
-38.181
-38.476
-38.758
-39.026
-39.277
-39.51
-39.724
-39.919
-40.093
-40.247
-40.381
-40.494
-40.588
-40.662
-40.719
-40.76
-40.785
-40.797
-40.797
-40.787
-40.77
-40.747
-40.72
-40.693
-40.667
-40.644
-40.627
-40.617
-40.616
-40.627
-40.649
-40.684
-40.732
-40.793
-40.867
-40.952
-41.048
-41.151
-41.261
-41.374
-41.487
-41.597
-41.698
-41.787
-41.858
-41.905
-41.924
-41.908
-41.852
-41.749
-41.593
-41.377
-41.096
-40.743
-40.311
-39.795
-39.188
-38.485
-37.68
-36.769
-35.747
-34.611
-33.359
-31.988
-30.498
-28.888
-27.161
-25.318
-23.362
-21.298
-19.13
-16.866
-14.513
-12.08
-9.577
-7.016
-4.411
-1.776
0.873
3.52
6.15
8.743
11.284
13.756
16.142
18.427
20.596
22.63
24.512
26.225
27.754
29.083
30.199
31.09
31.745
32.156
32.321
32.238
31.905
31.317
30.462
29.335
27.936
26.269
24.343
22.17
19.765
17.154
14.375
11.467
8.466
5.408
2.315
-0.784
-3.852
-6.842
-9.699
-12.372
-14.827
-17.036
-18.976
-20.638
-22.027
-23.168
-24.119
-24.947
-25.724
-26.518
-27.402
-28.45
-29.741
-31.386
-33.52
-36.225
-39.5
-43.262
-47.324
-51.477
-55.535
-59.185
-62.037
-63.838
-64.47
-64.031
-62.939
-61.611
-60.34
-59.605
-59.808
-60.936
-62.955
-65.567
-67.82
-68.762
-66.657
-58.543
-42.499
-18.141
12.743
46.461
81.65
120.89
169.541
231.943
307.318
388.733
466.049
533.02
587.104
627.622
653.558
656.409
625.863
555.908
445.17
303.557
147.116
-8.618
-146.997
-257.223
-334.642
-377.954
-393.255
-388.321
-369.892
-345.12
-316.6
-285.632
-254.202
-221.735
-189.43
-159.28
-132.193
-111.178
-97.801
-91.605
-91.93
-96.397
-102.886
-110.028
-116.231
-120.34
-121.479
-119.213
-113.877
-106.173
-96.808
-86.581
-76.269
-66.644
-58.522
-52.328
-48.056
-45.492
-44.369
-44.489
-45.674
-47.635
-49.89
-51.964
-53.64
-54.993
-56.06
-56.542
-56.345
-55.664
-54.85
-54.89
-55.676
-55.259
-53.496
-51.54
-51.579
-58.816
-72.809
-86.85
-95.035
-88.955
-67.397
-40.016
-13.914
2.867
6.06
2.051
-5.047
-11.933
-14.954
-16.752
-19.202
-22.217
-26.567
-30.788
-33.283
-34.076
-33.386
-31.824
-30.035
-28.144
-26.074
-23.908
-21.956
-20.443
-19.349
-18.424
-17.227
-15.456
-13.159
-10.415
-7.096
-3.203
1.037
5.111
8
9.429
10.36
11.474
12.568
11.192
3.395
-11.975
-31.995
-48.882
-53.009
-40.046
-11.326
25.831
60.349
85.95
100.111
103.579
101.985
98.423
94.405
91.66
88.6
84.798
81.196
77.904
76.301
77.356
80.719
86.036
92.588
99.467
106.233
112.597
118.258
123.104
127.136
130.42
133.137
135.512
137.645
139.555
141.252
142.698
143.874
144.781
145.393
145.677
145.629
145.259
144.591
143.662
142.489
141.082
139.448
137.589
135.518
133.249
130.795
128.165
125.365
122.403
119.285
116.019
112.615
109.079
105.42
101.648
97.774
93.813
89.783
85.701
81.582
77.436
73.277
69.114
64.962
60.837
56.749
52.702
48.71
44.798
40.988
37.302
33.75
30.316
27.004
23.843
20.824
17.899
15.034
12.188
9.361
6.619
3.985
1.392
-1.091
-3.21
-4.907
-6.261
-7.241
-8.118
-8.404
-6.518
-2.779
1.346
3.484
-0.869
-11.515
-23.926
-33.613
-34.2
-25.185
-12.629
-1.226
3.988
2.05
-2.526
-6.942
-9.322
-9.067
-8.027
-7.064
-6.117
-5.263
-4.234
-2.964
-1.709
-0.555
0.534
1.546
2.462
3.285
4.018
4.678
5.302
5.896
6.434
6.905
7.306
7.634
7.888
8.068
8.165
8.178
8.102
7.936
7.681
7.336
6.907
6.402
5.83
5.213
4.58
3.957
3.375
2.86
2.429
2.108
1.922
1.896
2.066
2.46
3.096
3.998
5.174
6.619
8.322
10.24
12.3
14.429
16.555
18.608
20.533
22.258
23.699
24.772
25.382
25.467
24.965
23.787
21.906
19.356
16.254
12.864
9.505
6.439
3.951
2.354
1.863
2.629
4.552
7.21
10.097
12.797
15.074
16.689
17.37
16.982
15.827
15.428
18.345
26.778
42.277
63.816
88.056
113.052
137.445
164.355
201.432
253.498
324.023
409.027
494.569
566.796
611.228
618.029
589.001
528.525
443.556
345.285
240.446
137.213
46.173
-29.618
-88.933
-134.61
-176.047
-217.472
-259.677
-301.601
-337.929
-366.325
-387.988
-404.533
-418.701
-432.174
-444.696
-455.731
-464.808
-471.521
-475.493
-476.373
-473.717
-467.036
-456.357
-442.013
-424.363
-403.92
-381.214
-356.727
-331.074
-304.923
-278.742
-252.865
-227.542
-202.923
-179.229
-156.704
-135.525
-115.831
-97.731
-81.306
-66.651
-53.853
-42.927
-33.821
-26.429
-20.599
-16.194
-13.101
-11.203
-10.367
-10.421
-11.177
-12.464
-14.129
-16.022
-17.991
-19.87
-21.496
-22.766
-23.632
-24.079
-24.127
-23.792
-23.085
-22.033
-20.684
-19.102
-17.358
-15.516
-13.628
-11.756
-9.976
-8.372
-7.033
-6.004
-5.297
-4.905
-4.805
-4.972
-5.374
-5.966
-6.688
-7.485
-8.3
-9.083
-9.79
-10.368
-10.758
-10.901
-10.735
-10.216
-9.317
-8.015
-6.296
-4.148
-1.565
1.452
4.894
8.757
13.039
17.738
22.856
28.387
34.324
40.655
47.371
54.464
61.925
69.752
77.934
86.455
95.299
104.446
113.871
123.546
133.433
143.483
153.654
163.903
174.193
184.496
194.772
204.987
215.109
225.103
234.946
244.628
254.139
263.474
272.644
281.661
290.547
299.345
308.07
316.733
325.331
333.849
342.276
350.591
358.755
366.72
374.423
381.781
388.716
395.145
400.953
406.037
410.285
413.574
415.825
416.97
416.947
415.712
413.213
409.426
404.366
398.07
390.601
382.036
372.45
361.936
350.623
338.628
326.071
313.071
299.694
286.023
272.157
258.198
244.271
230.476
216.869
203.491
190.372
177.531
164.997
152.782
140.861
129.232
117.901
106.892
96.276
86.089
76.335
66.997
58.026
49.391
41.089
33.122
25.487
18.188
11.217
4.585
-1.676
-7.554
-13.057
-18.213
-23.085
-27.708
-32.09
-36.222
-40.073
-43.624
-46.877
-49.827
-52.468
-54.802
-56.83
-58.571
-60.06
-61.32
-62.363
-63.191
-63.792
-64.169
-64.337
-64.32
-64.151
-63.859
-63.465
-62.994
-62.477
-61.934
-61.385
-60.839
-60.297
-59.763
-59.246
-58.755
-58.302
-57.896
-57.541
-57.24
-56.995
-56.807
-56.677
-56.603
-56.583
-56.612
-56.691
-56.82
-57
-57.231
-57.514
-57.845
-58.225
-58.651
-59.119
-59.628
-60.172
-60.748
-61.351
-61.98
-62.63
-63.299
-63.984
-64.682
-65.39
-66.108
-66.832
-67.56
-68.29
-69.022
-69.753
-70.482
-71.209
-71.932
-72.65
-73.363
-74.071
-74.772
-75.468
-76.156
-76.838
-77.513
-78.181
-78.842
-79.497
-80.145
-80.786
-81.423
-82.055
-82.683
-83.307
-83.929
-84.549
-85.167
-85.783
-86.399
-87.013
-87.626
-88.238
-88.85
-89.46
-90.07
-90.679
-91.286
-91.892
-92.496
-93.098
-93.698
-94.294
-94.887
-95.477
-96.063
-96.644
-97.22
-97.79
-98.355
-98.913
-99.464
-100.007
-100.542
-101.068
-101.585
-102.093
-102.59
-103.078
-103.555
-104.021
-104.477
-104.922
-105.356
-105.779
-106.192
-106.595
-106.989
-107.373
-107.748
-108.116
-108.475
-108.828
-109.174
-109.514
-109.849
-110.179
-110.505
-110.828
-111.148
-111.466
-111.783
-112.099
-112.415
-112.732
-113.05
-113.369
-113.691
-114.015
-114.342
-114.672
-115.007
-115.346
-115.689
-116.037
-116.39
-116.748
-117.11
-117.477
-117.847
-118.221
-118.598
-118.978
-119.36
-119.744
-120.13
-120.517
-120.906
-121.296
-121.685
-122.075
-122.465
-122.854
-123.243
-123.631
-124.018
-124.404
-124.789
-125.172
-125.554
-125.934
-126.312
-126.686
-127.057
-127.424
-127.787
-128.147
-128.504
-128.857
-129.209
-129.56
-129.912
-130.264
-130.618
-130.976
-131.336
-131.701
-132.071
-132.447
-132.83
-133.22
-133.618
-134.026
-134.445
-134.874
-135.314
-135.765
-136.229
-136.705
-137.195
-137.7
-138.219
-138.754
-139.308
-139.881
-140.475
-141.089
-141.725
-142.382
-143.058
-143.754
-144.465
-145.188
-145.921
-146.662
-147.407
-148.153
-148.899
-149.64
-150.378
-151.109
-151.83
-152.536
-153.223
-153.884
-154.513
-155.103
-155.648
-156.139
-156.567
-156.928
-157.217
-157.431
-157.563
-157.604
-157.538
-157.359
-157.062
-156.646
-156.109
-155.454
-154.686
-153.819
-152.881
-151.897
-150.882
-149.842
-148.771
-147.667
-146.53
-145.361
-144.159
-142.911
-141.602
-140.223
-138.769
-137.237
-135.611
-133.855
-131.91
-129.728
-127.287
-124.592
-121.666
-118.535
-115.232
-111.805
-108.32
-104.871
-101.544
-98.406
-95.505
-92.887
-90.615
-88.779
-87.492
-86.848
-86.903
-87.686
-89.201
-91.453
-94.417
-98.041
-102.226
-106.832
-111.739
-116.855
-122.106
-127.431
-132.75
-137.958
-142.941
-147.6
-151.866
-155.687
-159.02
-161.822
-164.083
-165.828
-167.142
-168.172
-169.039
-169.845
-170.671
-171.558
-172.578
-173.826
-175.388
-177.357
-179.798
-182.74
-186.252
-190.445
-195.333
-200.83
-206.663
-212.326
-217.338
-221.317
-223.845
-224.504
-223.007
-219.268
-213.66
-207.055
-200.384
-194.413
-189.787
-187.072
-186.585
-188.221
-191.084
-193.401
-193.018
-187.87
-176.026
-155.497
-124.592
-82.092
-28.192
34.714
103.008
172.548
240.424
305.81
368.559
427.612
477.872
510.068
512.422
473.898
390.145
263.793
105.462
-67.77
-238.101
-388.173
-505.708
-585.211
-627.6
-638.5
-623.833
-591.347
-547.104
-497.797
-453.085
-417.114
-391.426
-373.59
-355.765
-335.009
-311.758
-288.333
-270.052
-258.579
-252.587
-250.499
-249.462
-247.736
-244.918
-240.434
-234.309
-226.996
-218.81
-210.173
-201.656
-193.726
-186.908
-181.844
-178.767
-177.553
-177.958
-179.606
-182.152
-185.33
-188.782
-192.047
-194.792
-196.831
-198.085
-198.593
-198.385
-197.453
-195.83
-193.587
-190.817
-187.619
-184.088
-180.291
-176.288
-172.155
-167.981
-163.877
-159.955
-156.292
-152.931
-149.893
-147.191
-144.835
-142.827
-141.147
-139.754
-138.608
-137.669
-136.906
-136.296
-135.805
-135.393
-135.015
-134.624
-134.184
-133.673
-133.073
-132.366
-131.537
-130.576
-129.477
-128.245
-126.88
-125.378
-123.735
-121.943
-120
-117.904
-115.655
-113.254
-110.698
-107.988
-105.122
-102.103
-98.93
-95.605
-92.129
-88.501
-84.725
-80.803
-76.742
-72.547
-68.224
-63.781
-59.226
-54.567
-49.812
-44.97
-40.049
-35.058
-30.004
-24.898
-19.748
-14.563
-9.353
-4.127
1.104
6.33
11.54
16.725
21.872
26.971
32.01
36.979
41.866
46.659
51.349
55.924
60.374
64.688
68.858
72.872
76.724
80.403
83.903
87.215
90.334
93.254
95.968
98.473
100.764
102.837
104.69
106.319
107.724
108.902
109.855
110.582
111.085
111.367
111.433
111.286
110.932
110.378
109.632
108.702
107.597
106.328
104.904
103.337
101.639
99.823
97.901
95.886
93.792
91.631
89.417
87.163
84.882
82.587
80.29
78.003
75.74
73.511
71.33
69.207
67.153
65.181
63.3
61.522
59.855
58.308
56.891
55.609
54.472
53.484
52.651
51.979
51.47
51.13
50.959
50.961
51.137
51.486
52.009
52.705
53.573
54.611
55.817
57.189
58.725
60.421
62.275
64.282
66.439
68.739
71.179
73.751
76.449
79.264
82.189
85.214
88.329
91.525
94.791
98.115
101.487
104.897
108.335
111.79
115.253
118.713
122.161
125.587
128.98
132.331
135.629
138.867
142.035
145.129
148.144
151.076
153.922
156.68
159.339
161.895
164.345
166.686
168.92
171.052
173.092
175.06
176.987
178.899
180.827
182.796
184.823
186.93
189.141
191.478
193.978
196.673
199.585
202.743
206.165
209.85
213.795
217.958
222.266
226.649
231.045
235.401
239.684
243.843
247.807
251.51
254.877
257.847
260.355
262.279
263.561
264.269
264.57
264.812
265.406
266.643
268.841
272.425
277.588
284.244
292.046
300.15
307.697
314.189
319.14
322.057
322.879
322.11
320.857
321.074
324.927
334.192
350.6
375.965
410.965
454.543
505.052
560.004
618.14
680.964
747.97
815.568
876.529
919.458
936.053
923.381
883.353
823.505
751.153
672.911
595.652
523.15
458.957
404.313
356.491
313.845
274.385
237.656
206.112
180.638
161.383
147.258
135.419
123.957
111.731
98.251
83.971
69.297
54.448
39.905
26.154
13.705
3.167
