Name,Criss Capps
Date of Birth,"Feb 5, 1952"
Recorded Date,2025-04-20 08:35:01 -0400
Classification,Inconclusive
Symptoms,
Software Version,1.90
Device,"Watch5,4"
Sample Rate,512.844 hertz


Lead,Lead I
Unit,µV

4.623
14.387
23.06
30.78
37.699
43.921
49.516
54.546
59.057
63.106
66.744
69.992
72.865
75.377
77.537
79.361
80.852
81.981
82.691
82.899
82.511
81.469
79.747
77.331
74.229
70.454
66.029
61.001
55.43
49.371
42.875
35.989
28.761
21.252
13.536
5.695
-2.185
-10.03
-17.778
-25.373
-32.769
-39.925
-46.806
-53.389
-59.662
-65.605
-71.199
-76.425
-81.262
-85.694
-89.711
-93.306
-96.475
-99.214
-101.522
-103.399
-104.851
-105.881
-106.494
-106.697
-106.496
-105.899
-104.92
-103.573
-101.874
-99.842
-97.494
-94.851
-91.933
-88.763
-85.361
-81.747
-77.943
-73.966
-69.839
-65.579
-61.206
-56.739
-52.196
-47.595
-42.955
-38.291
-33.62
-28.958
-24.32
-19.72
-15.17
-10.683
-6.268
-1.936
2.304
6.444
10.476
14.394
18.193
21.867
25.411
28.823
32.1
35.238
38.236
41.093
43.805
46.373
48.792
51.063
53.183
55.149
56.961
58.616
60.111
61.447
62.62
63.629
64.473
65.151
65.66
66
66.17
66.169
65.995
65.65
65.132
64.441
63.579
62.547
61.345
59.975
58.44
56.742
54.884
52.87
50.704
48.391
45.936
43.347
40.629
37.792
34.844
31.795
28.654
25.432
22.141
18.793
15.4
11.975
8.53
5.078
1.634
-1.79
-5.18
-8.523
-11.805
-15.015
-18.138
-21.164
-24.079
-26.874
-29.536
-32.057
-34.425
-36.631
-38.668
-40.526
-42.199
-43.678
-44.959
-46.036
-46.906
-47.565
-48.011
-48.244
-48.263
-48.069
-47.664
-47.051
-46.234
-45.216
-44.003
-42.601
-41.017
-39.257
-37.331
-35.246
-33.011
-30.636
-28.13
-25.503
-22.765
-19.927
-16.999
-13.993
-10.921
-7.795
-4.628
-1.432
1.776
4.983
8.173
11.333
14.445
17.497
20.474
23.362
26.149
28.825
31.378
33.796
36.07
38.188
40.14
41.917
43.509
44.91
46.111
47.109
47.903
48.491
48.874
49.047
49.004
48.74
48.258
47.56
46.655
45.555
44.278
42.856
41.33
39.744
38.137
36.548
35.003
33.536
32.181
30.978
29.977
29.217
28.725
28.524
28.624
29.024
29.706
30.605
31.625
32.671
33.655
34.519
35.211
35.654
35.763
35.449
34.626
33.243
31.243
28.527
25.086
21.012
16.507
11.962
7.796
4.316
1.901
0.98
1.751
4.217
8.106
12.727
17.46
21.922
25.633
28.123
29.345
29.765
30.415
32.94
39.028
50.287
68.467
95.225
130.9
174.025
222.537
274.585
330.321
390.664
453.746
513.63
559.512
581.79
576.332
544.193
493.909
433.177
365.936
296.995
226.692
156.47
90.912
29.84
-25.797
-75.629
-122.3
-164.76
-202.367
-235.531
-263.654
-288.332
-311.362
-333.453
-355.118
-375.995
-395.406
-413.101
-428.822
-442.192
-452.809
-460.154
-463.989
-464.445
-461.777
-456.306
-448.363
-438.268
-426.417
-413.296
-399.296
-384.686
-369.691
-354.45
-339.073
-323.672
-308.299
-292.956
-277.686
-262.573
-247.72
-233.284
-219.402
-206.174
-193.714
-182.124
-171.466
-161.773
-153.044
-145.233
-138.33
-132.345
-127.286
-123.177
-120.003
-117.707
-116.212
-115.411
-115.172
-115.363
-115.826
-116.388
-116.925
-117.354
-117.624
-117.73
-117.655
-117.368
-116.853
-116.096
-115.095
-113.875
-112.46
-110.883
-109.202
-107.487
-105.823
-104.316
-103.032
-102.003
-101.243
-100.733
-100.454
-100.392
-100.511
-100.77
-101.128
-101.54
-101.969
-102.38
-102.725
-102.947
-102.984
-102.764
-102.233
-101.351
-100.085
-98.412
-96.316
-93.781
-90.804
-87.388
-83.535
-79.243
-74.511
-69.332
-63.709
-57.647
-51.156
-44.248
-36.934
-29.229
-21.145
-12.7
-3.912
5.202
14.623
24.332
34.307
44.521
54.947
65.553
76.309
87.179
98.13
109.123
120.122
131.09
141.987
152.777
163.422
173.883
184.122
194.101
203.785
213.135
222.117
230.696
238.837
246.509
253.683
260.329
266.422
271.937
276.854
281.154
284.819
287.838
290.198
291.892
292.916
293.267
292.948
291.963
290.32
288.031
285.11
281.575
277.445
272.744
267.496
261.731
255.477
248.768
241.638
234.122
226.258
218.084
209.641
200.968
192.107
183.099
173.985
164.807
155.604
146.417
137.284
128.245
119.335
110.59
102.044
93.728
85.673
77.905
70.451
63.334
56.574
50.19
44.196
38.608
33.434
28.682
24.359
20.467
17.006
13.973
11.365
9.175
7.394
6.012
5.017
4.395
4.131
4.208
4.609
5.317
6.311
7.572
9.08
10.814
12.753
14.877
17.166
19.598
22.154
24.814
27.56
30.373
33.235
36.13
39.042
41.956
44.858
47.735
50.576
53.37
56.108
58.781
61.383
63.907
66.349
68.704
70.969
73.141
75.22
77.203
79.092
80.885
82.584
84.191
85.706
87.132
88.471
89.725
90.898
91.99
93.006
93.947
94.817
95.617
96.351
97.021
97.629
98.177
98.667
99.101
99.481
99.807
100.08
100.301
100.471
100.589
100.655
100.67
100.633
100.544
100.403
100.21
99.964
99.665
99.313
98.908
98.449
97.938
97.374
96.758
96.091
95.374
94.609
93.797
92.941
92.043
91.105
90.13
89.122
88.082
87.015
85.924
84.814
83.687
82.55
81.406
80.261
79.119
77.984
76.861
75.754
74.668
73.604
72.568
71.562
70.589
69.651
68.751
67.893
67.077
66.306
65.581
64.903
64.272
63.69
63.153
62.663
62.216
61.811
61.447
61.121
60.829
60.569
60.336
60.127
59.938
59.762
59.597
59.435
59.272
59.105
58.93
58.743
58.542
58.326
58.096
57.852
57.595
57.324
57.039
56.743
56.434
56.113
55.779
55.433
55.074
54.707
54.338
53.973
53.618
53.282
52.973
52.702
52.48
52.317
52.218
52.19
52.242
52.389
52.647
53.03
53.543
54.188
54.964
55.867
56.891
58.017
59.213
60.448
61.696
62.941
64.189
65.442
66.697
67.955
69.209
70.471
71.772
73.133
74.567
76.093
77.728
79.515
81.53
83.833
86.468
89.45
92.754
96.351
100.215
104.294
108.526
112.819
117.045
121.101
124.914
128.404
131.504
134.112
136.087
137.314
137.705
137.202
135.795
133.482
130.268
126.2
121.363
115.877
109.918
103.634
97.134
90.534
83.93
77.443
71.237
65.444
60.176
55.531
51.572
48.352
45.921
44.274
43.362
43.1
43.355
43.998
44.917
45.994
47.114
48.149
48.961
49.423
49.378
48.725
47.435
45.552
43.268
40.857
38.596
36.812
35.926
36.242
37.917
40.845
44.462
48.098
51.054
52.699
52.555
50.097
45.159
38.354
30.865
25.136
24.005
28.746
40.987
60.978
88.287
125.973
175.435
237.311
310.81
388.595
463.793
531.38
588.49
636.324
673.269
693.28
687.072
645.237
565.634
453.061
317.688
172.594
27.407
-108.497
-225.139
-314.622
-369.054
-386.798
-373.881
-339.537
-295.721
-250.606
-206.946
-165.612
-125.852
-88.752
-57.657
-35.124
-22.467
-19.058
-22.696
-30.762
-40.812
-50.673
-58.112
-61.75
-61.224
-56.722
-49.121
-39.622
-29.266
-19.214
-10.791
-4.743
-1.315
-0.502
-1.882
-4.93
-9.198
-14.105
-19.037
-23.632
-27.684
-31.073
-33.795
-35.829
-37.134
-37.738
-37.692
-37.027
-35.778
-33.978
-31.664
-28.928
-25.889
-22.675
-19.412
-16.19
-13.075
-10.13
-7.41
-4.96
-2.806
-0.955
0.598
1.859
2.834
3.537
3.993
4.24
4.323
4.291
4.195
4.076
3.964
3.886
3.863
3.912
4.046
4.274
4.596
5.019
5.551
6.201
6.976
7.883
8.924
10.1
11.414
12.866
14.459
16.194
18.075
20.103
22.281
24.611
27.094
29.731
32.518
35.451
38.523
41.725
45.05
48.486
52.021
55.645
59.343
63.102
66.91
70.751
74.612
78.476
82.327
86.15
89.927
93.642
97.277
100.816
104.242
107.538
110.687
113.675
116.484
119.1
121.508
123.695
125.647
127.352
128.798
129.977
130.879
131.497
131.825
131.859
131.595
131.032
130.17
129.009
127.552
125.804
123.767
121.45
118.858
116.002
112.89
109.533
105.943
102.133
98.118
93.911
89.528
84.985
80.299
75.486
70.564
65.551
60.464
55.322
50.143
44.944
39.744
34.559
29.405
24.3
19.259
14.297
9.427
4.663
0.017
-4.499
-8.876
-13.102
-17.171
-21.074
-24.806
-28.36
-31.731
-34.917
-37.915
-40.722
-43.339
-45.764
-47.998
-50.043
-51.901
-53.575
-55.067
-56.383
-57.525
-58.499
-59.311
-59.966
-60.47
-60.83
-61.051
-61.142
-61.108
-60.958
-60.698
-60.335
-59.876
-59.328
-58.699
-57.995
-57.221
-56.385
-55.492
-54.547
-53.557
-52.527
-51.461
-50.365
-49.243
-48.1
-46.939
-45.766
-44.584
-43.395
-42.204
-41.014
-39.827
-38.647
-37.474
-36.312
-35.162
-34.025
-32.904
-31.798
-30.709
-29.636
-28.579
-27.538
-26.512
-25.501
-24.504
-23.521
-22.554
-21.604
-20.673
-19.762
-18.873
-18.006
-17.163
-16.342
-15.54
-14.757
-13.988
-13.233
-12.492
-11.763
-11.045
-10.335
-9.631
-8.932
-8.238
-7.543
-6.84
-6.124
-5.395
-4.658
-3.925
-3.204
-2.496
-1.802
-1.122
-0.452
0.211
0.883
1.594
2.37
3.24
4.222
5.326
6.574
7.999
9.638
11.533
13.712
16.17
18.899
21.899
25.146
28.609
32.233
35.912
39.546
43.038
46.282
49.179
51.621
53.456
54.495
54.614
53.787
52.131
49.89
47.279
44.469
41.676
39.243
37.453
36.309
35.478
34.246
31.912
28.157
22.797
15.552
6.377
-4.245
-15.186
-24.43
-29.775
-29.78
-23.125
-8.245
15.975
50.005
92.357
139.173
186.908
233.591
279.802
327.255
374.146
414.838
440.308
441.803
417.329
371.372
313.53
254.216
198.965
148.39
99.52
49.418
-2.338
-54.05
-103.064
-147.969
-188.775
-226.055
-260.237
-291.082
-318.078
-341.186
-360.876
-377.743
-392.391
-405.02
-415.646
-424.513
-431.93
-438.053
-442.813
-445.907
-446.831
-445.384
-441.686
-435.847
-428.05
-418.501
-407.404
-395.132
-382.201
-368.993
-355.701
-342.424
-329.141
-315.865
-302.674
-289.596
-276.651
-263.885
-251.361
-239.209
-227.596
-216.627
-206.346
-196.755
-187.801
-179.444
-171.686
-164.533
-158
-152.094
-146.799
-142.112
-138.021
-134.486
-131.419
-128.677
-126.092
-123.545
-120.961
-118.302
-115.56
-112.729
-109.792
-106.755
-103.628
-100.418
-97.138
-93.785
-90.357
-86.875
-83.392
-79.992
-76.776
-73.813
-71.142
-68.783
-66.739
-65.006
-63.574
-62.409
-61.465
-60.704
-60.091
-59.597
-59.2
-58.863
-58.539
-58.17
-57.693
-57.058
-56.223
-55.152
-53.817
-52.192
-50.258
-48.007
-45.44
-42.552
-39.338
-35.79
-31.899
-27.66
-23.074
-18.141
-12.864
-7.247
-1.294
4.987
11.588
18.499
25.712
33.215
40.997
49.045
57.341
65.867
74.601
83.52
92.599
101.814
111.134
120.533
129.981
139.447
148.903
158.316
167.656
176.892
185.991
194.923
203.655
212.158
220.399
228.349
235.978
243.257
250.157
256.652
262.717
268.327
273.46
278.095
282.215
285.801
288.839
291.318
293.226
294.557
295.305
295.469
295.047
294.043
292.463
290.314
287.607
284.354
280.571
276.275
271.484
266.221
260.509
254.373
247.839
240.936
233.693
226.142
218.313
210.239
201.953
193.489
184.881
176.162
167.366
158.528
149.68
140.856
132.087
123.404
114.838
106.416
98.166
90.114
82.283
74.696
67.372
60.331
53.587
47.155
41.048
35.274
29.841
24.755
20.02
15.636
11.603
7.919
4.58
1.58
-1.087
-3.431
-5.461
-7.189
-8.627
-9.789
-10.688
-11.341
-11.764
-11.972
-11.984
-11.817
-11.49
-11.019
-10.423
-9.721
-8.929
-8.065
-7.146
-6.188
-5.205
-4.212
-3.223
-2.249
-1.303
-0.394
0.468
1.277
2.024
2.703
3.311
3.842
4.295
4.666
4.955
5.161
5.285
5.327
5.29
5.176
4.989
4.733
4.412
4.032
3.599
3.118
2.598
2.044
1.463
0.864
0.254
-0.361
-0.973
-1.576
-2.163
-2.728
-3.266
-3.771
-4.241
-4.67
-5.056
-5.396
-5.688
-5.93
-6.121
-6.26
-6.347
-6.383
-6.366
-6.299
-6.183
-6.018
-5.808
-5.554
-5.26
-4.928
-4.563
-4.167
-3.747
-3.305
-2.847
-2.377
-1.902
-1.425
-0.951
-0.487
-0.036
0.397
0.808
1.193
1.548
1.871
2.159
2.409
2.62
2.789
2.915
2.997
3.035
3.026
2.971
2.869
2.72
2.524
2.28
1.989
1.653
1.27
0.843
0.373
-0.14
-0.694
-1.287
-1.917
-2.582
-3.281
-4.011
-4.77
-5.555
-6.365
-7.198
-8.051
-8.923
-9.813
-10.718
-11.637
-12.57
-13.514
-14.469
-15.433
-16.404
-17.382
-18.363
-19.347
-20.33
-21.311
-22.287
-23.256
-24.214
-25.158
-26.086
-26.994
-27.877
-28.734
-29.558
-30.347
-31.097
-31.802
-32.458
-33.063
-33.61
-34.097
-34.518
-34.87
-35.148
-35.349
-35.468
-35.501
-35.444
-35.293
-35.046
-34.699
-34.251
-33.7
-33.045
-32.285
-31.422
-30.458
-29.394
-28.233
-26.979
-25.637
-24.212
-22.712
-21.144
-19.517
-17.839
-16.121
-14.377
-12.62
-10.863
-9.118
-7.4
-5.724
-4.104
-2.553
-1.082
0.296
1.57
2.727
3.752
4.633
5.357
5.914
6.294
6.487
6.486
6.287
5.893
5.305
4.525
3.549
2.368
0.98
-0.613
-2.405
-4.386
-6.541
-8.849
-11.282
-13.797
-16.357
-18.925
-21.477
-23.995
-26.455
-28.834
-31.093
-33.194
-35.104
-36.801
-38.261
-39.477
-40.466
-41.254
-41.902
-42.487
-43.065
-43.697
-44.446
-45.363
-46.517
-47.965
-49.757
-51.965
-54.693
-57.978
-61.765
-65.876
-69.97
-73.704
-76.786
-78.884
-79.59
-78.645
-76.103
-72.343
-68.131
-64.268
-61.215
-59.354
-59.199
-60.944
-64.179
-67.955
-70.589
-70.133
-65.147
-54.334
-36.208
-9.633
25.825
69.896
121.368
177.263
233.665
286.782
332.162
368.474
397.831
420.178
434.732
435.181
408.83
348.008
248.916
117.047
-29.441
-172.849
-294.941
-382.354
-435.805
-460.084
-463.45
-457.01
-442.943
-420.513
-391.891
-356.083
-316.957
-281.557
-250.204
-224.405
-204.593
-187.684
-174.863
-166.888
-162.697
-162.239
-163.612
-164.328
-163.092
-159.17
-152.623
-144.053
-134.076
-123.302
-112.333
-101.989
-93.162
-86.319
-81.627
-78.994
-78.083
-78.58
-80.205
-82.595
-85.329
-88.11
-90.697
-92.885
-94.601
-95.792
-96.41
-96.463
-95.972
-94.943
-93.404
-91.406
-88.996
-86.243
-83.218
-79.961
-76.535
-73.013
-69.486
-66.076
-62.872
-59.925
-57.269
-54.926
-52.912
-51.244
-49.912
-48.879
-48.111
-47.577
-47.249
-47.116
-47.15
-47.315
-47.568
-47.861
-48.156
-48.427
-48.65
-48.804
-48.87
-48.833
-48.685
-48.429
-48.064
-47.583
-46.979
-46.241
-45.361
-44.338
-43.165
-41.841
-40.36
-38.717
-36.911
-34.938
-32.795
-30.48
-27.99
-25.321
-22.471
-19.441
-16.234
-12.855
-9.307
-5.598
-1.735
2.272
6.414
10.681
15.062
19.546
24.12
28.773
33.491
38.259
43.065
47.892
52.725
57.548
62.346
67.101
71.798
76.418
80.945
85.362
89.651
93.797
97.781
101.588
105.201
108.607
111.789
114.735
117.431
119.867
122.032
123.916
125.512
126.814
127.815
128.511
128.901
128.981
128.751
128.212
127.367
126.218
124.77
123.029
121.002
118.698
116.126
113.296
110.222
106.915
103.389
99.66
95.744
91.657
87.417
83.04
78.547
73.954
69.282
64.547
59.769
54.966
50.154
45.352
40.576
35.841
31.163
26.556
22.034
17.61
13.295
9.1
5.036
1.111
-2.665
-6.286
-9.744
-13.035
-16.154
-19.098
-21.862
-24.447
-26.852
-29.077
-31.123
-32.993
-34.691
-36.22
-37.585
-38.791
-39.844
-40.749
-41.512
-42.14
-42.638
-43.014
-43.272
-43.421
-43.465
-43.41
-43.263
-43.029
-42.714
-42.321
-41.858
-41.328
-40.736
-40.087
-39.387
-38.639
-37.85
-37.022
-36.16
-35.269
-34.352
-33.413
-32.456
-31.482
-30.496
-29.5
-28.498
-27.493
-26.487
-25.485
-24.491
-23.512
-22.552
-21.617
-20.714
-19.849
-19.027
-18.256
-17.539
-16.882
-16.288
-15.764
-15.316
-14.948
-14.668
-14.481
-14.392
-14.404
-14.521
-14.745
-15.074
-15.504
-16.033
-16.663
-17.402
-18.252
-19.217
-20.292
-21.473
-22.749
-24.106
-25.515
-26.941
-28.344
-29.688
-30.941
-32.083
-33.085
-33.92
-34.55
-34.925
-35.013
-34.783
-34.216
-33.299
-32.035
-30.451
-28.609
-26.602
-24.516
-22.425
-20.392
-18.483
-16.78
-15.368
-14.35
-13.806
-13.823
-14.53
-15.951
-18.019
-20.588
-23.322
-25.852
-27.885
-29.019
-28.809
-27.189
-24.264
-20.364
-16.304
-12.683
-9.834
-8.353
-8.619
-10.233
-12.486
-14.106
-12.927
-7.165
4.723
24.713
53.501
90.011
132.969
180.898
233.673
292.77
356.998
420.619
473.448
504.974
510.128
491.281
457.282
416.899
375.127
333.178
289.017
241.904
192.884
143.344
95.487
50.545
8.5
-30.735
-67.97
-104.501
-140.738
-176.508
-211.543
-245.278
-277.312
-307.605
-335.654
-360.498
-381.568
-398.594
-411.513
-420.612
-426.058
-427.778
-425.947
-420.95
-413.142
-402.948
-390.747
-376.768
-361.319
-344.784
-327.483
-309.735
-291.835
-273.962
-256.273
-238.941
-222.098
-205.906
-190.554
-176.178
-162.89
-150.776
-139.855
-130.126
-121.568
-114.102
-107.631
-102.042
-97.205
-93.043
-89.505
-86.52
-84.023
-81.92
-80.072
-78.356
-76.657
-74.836
-72.806
-70.507
-67.894
-64.978
-61.792
-58.37
-54.766
-51.022
-47.162
-43.224
-39.243
-35.254
-31.324
-27.519
-23.905
-20.575
-17.59
-14.986
-12.787
-10.985
-9.555
-8.472
-7.696
-7.176
-6.87
-6.732
-6.717
-6.791
-6.905
-7.007
-7.041
-6.942
-6.656
-6.143
-5.367
-4.301
-2.92
-1.203
0.866
3.292
6.086
9.259
12.824
16.796
21.184
25.988
31.206
36.837
42.884
49.353
56.24
63.536
71.225
79.292
87.72
96.485
105.55
114.861
124.367
134.023
143.798
153.675
163.628
173.63
183.65
193.662
203.655
213.625
223.559
233.435
243.235
252.953
262.61
272.251
281.908
291.582
301.245
310.849
320.349
329.692
338.811
347.62
356.003
363.849
371.077
377.622
383.424
388.404
392.455
395.445
397.274
397.881
397.243
395.359
392.231
387.885
382.38
375.818
368.339
360.065
351.089
341.484
331.325
320.705
309.744
298.576
287.308
276.021
264.783
253.651
242.688
231.933
221.394
211.045
200.837
190.744
180.763
170.906
161.189
151.616
142.18
132.877
123.72
114.726
105.909
97.281
88.848
80.628
72.651
64.963
57.613
50.636
44.052
37.873
32.108
26.761
21.837
17.33
13.225
9.508
6.168
3.193
0.575
-1.701
-3.655
-5.312
-6.696
-7.829
-8.731
-9.425
-9.93
-10.266
-10.451
-10.5
-10.426
-10.244
-9.969
-9.616
-9.202
-8.742
-8.249
-7.738
-7.22
-6.709
-6.215
-5.746
-5.309
-4.912
-4.559
-4.256
-4.006
-3.811
-3.675
-3.598
-3.581
-3.623
-3.723
-3.88
-4.092
-4.355
-4.667
-5.025
-5.425
-5.864
-6.339
-6.846
-7.383
-7.947
-8.533
-9.138
-9.76
-10.395
-11.039
-11.69
-12.343
-12.998
-13.651
-14.301
-14.945
-15.584
-16.215
-16.839
-17.453
-18.059
-18.655
-19.242
-19.82
-20.388
-20.948
-21.501
-22.047
-22.586
-23.121
-23.652
-24.179
-24.703
-25.225
-25.746
-26.266
-26.785
-27.305
-27.824
-28.345
-28.867
-29.391
-29.915
-30.442
-30.97
-31.499
-32.028
-32.558
-33.088
-33.616
-34.144
-34.669
-35.192
-35.712
-36.228
-36.739
-37.246
-37.746
-38.24
-38.726
-39.205
-39.674
-40.135
-40.586
-41.026
-41.456
-41.876
-42.284
-42.68
-43.064
-43.436
-43.795
-44.14
-44.471
-44.789
-45.093
-45.382
-45.657
-45.918
-46.165
-46.397
-46.615
-46.818
-47.008
-47.183
-47.344
-47.493
-47.628
-47.751
-47.863
-47.965
-48.056
-48.138
-48.213
-48.28
-48.342
-48.399
-48.453
-48.505
-48.556
-48.61
-48.666
-48.728
-48.797
-48.875
-48.963
-49.064
-49.18
-49.311
-49.461
-49.629
-49.819
-50.032
-50.269
-50.53
-50.817
-51.13
-51.469
-51.834
-52.223
-52.636
-53.071
-53.525
-53.997
-54.483
-54.981
-55.485
-55.992
-56.496
-56.993
-57.476
-57.939
-58.374
-58.776
-59.136
-59.448
-59.705
-59.898
-60.021
-60.066
-60.026
-59.894
-59.662
-59.324
-58.873
-58.303
-57.609
-56.787
-55.832
-54.742
-53.514
-52.146
-50.638
-48.992
-47.209
-45.292
-43.245
-41.074
-38.786
-36.389
-33.894
-31.311
-28.652
-25.934
-23.172
-20.382
-17.582
-14.788
-12.019
-9.295
-6.632
-4.048
-1.56
0.816
3.062
5.16
7.091
8.839
10.388
11.724
12.832
13.698
14.314
14.676
14.78
14.623
14.2
13.499
12.516
11.254
9.717
7.915
5.863
3.581
1.102
-1.529
-4.27
-7.083
-9.933
-12.801
-15.659
-18.47
-21.199
-23.798
-26.232
-28.486
-30.535
-32.359
-33.965
-35.383
-36.668
-37.924
-39.224
-40.616
-42.155
-43.888
-45.869
-48.181
-50.893
-54.037
-57.647
-61.776
-66.433
-71.57
-77.014
-82.392
-87.268
-91.274
-94.077
-95.311
-94.746
-92.313
-88.203
-83.078
-77.782
-72.879
-68.71
-65.826
-64.647
-65.059
-66.647
-67.396
-63.74
-54.249
-38.783
-18.055
4.621
30.48
64.78
110.933
172.366
245.767
320.186
387.28
441.808
482.229
511.338
527.766
522.732
486.631
412.25
297.888
153.626
-4.471
-159.808
-294.277
-395.883
-460.14
-488.082
-488.233
-471.636
-447.3
-420.289
-391.547
-359.763
-323.855
-285.45
-247.472
-213.14
-185.331
-164.842
-151.219
-143.546
-140.331
-140.353
-142.727
-146.198
-149.62
-152.075
-152.718
-151.39
-148.44
-144.227
-139.149
-133.715
-128.376
-123.67
-120.205
-118.15
-117.332
-117.471
-118.234
-119.363
-120.677
-121.923
-122.751
-122.925
-122.358
-121.055
-119.111
-116.6
-113.551
-110.013
-106.094
-101.921
-97.636
-93.381
-89.232
-85.229
-81.418
-77.833
-74.522
-71.534
-68.885
-66.562
-64.559
-62.871
-61.495
-60.434
-59.66
-59.124
-58.772
-58.545
-58.4
-58.308
-58.241
-58.172
-58.075
-57.93
-57.724
-57.455
-57.115
-56.688
-56.161
-55.515
-54.739
-53.829
-52.78
-51.585
-50.239
-48.737
-47.073
-45.243
-43.243
-41.066
-38.704
-36.151
-33.401
-30.454
-27.309
-23.966
-20.428
-16.698
-12.781
-8.684
-4.411
0.028
4.628
9.38
14.276
19.305
24.458
29.723
35.091
40.547
46.08
51.676
57.323
63.006
68.711
74.425
80.132
85.817
91.468
97.067
102.6
108.052
113.406
118.647
123.761
128.732
133.545
138.186
142.641
146.897
150.941
154.76
158.343
161.679
164.757
167.566
170.098
172.345
174.298
175.952
177.3
178.337
179.061
179.468
179.557
179.327
178.78
177.916
176.74
175.255
173.467
171.382
169.009
166.356
163.434
160.252
156.824
153.161
149.278
145.188
140.908
136.452
131.836
127.078
122.194
117.201
112.116
106.957
101.741
96.485
91.207
85.923
80.652
75.408
70.209
65.069
60.005
55.03
50.158
45.401
40.771
36.28
31.938
27.754
23.736
19.892
16.229
12.752
9.467
6.377
3.485
0.792
-1.701
-3.994
-6.086
-7.98
-9.678
-11.181
-12.494
-13.619
-14.562
-15.327
-15.921
-16.35
-16.621
-16.74
-16.715
-16.555
-16.267
-15.86
-15.342
-14.722
-14.009
-13.212
-12.34
-11.403
-10.41
-9.372
-8.3
-7.205
-6.099
-4.993
-3.899
-2.827
-1.787
-0.789
0.16
1.052
1.881
2.639
3.317
3.907
4.402
4.794
5.08
5.254
5.312
5.253
5.082
4.8
4.412
3.914
3.295
2.549
1.674
0.671
-0.452
-1.683
-3.007
-4.398
-5.819
-7.233
-8.609
-9.916
-11.141
-12.268
-13.268
-14.107
-14.736
-15.108
-15.2
-14.996
-14.485
-13.682
-12.62
-11.355
-9.978
-8.566
-7.184
-5.898
-4.77
-3.872
-3.3
-3.132
-3.475
-4.493
-6.247
-8.692
-11.681
-14.856
-17.832
-20.328
-21.976
-22.342
-21.283
-18.929
-15.732
-12.708
-10.805
-10.527
-12.337
-16.548
-22.905
-30.663
-38.38
-43.542
-43.625
-36.826
-21.453
3.899
39.712
85.7
140.602
200.647
261.654
321.133
375.436
422.717
462.081
488.511
499.182
491.89
464.153
420.491
365.978
305.224
244.057
183.487
123.723
66.011
10.661
-40.718
-86.957
-128.312
-165.009
-197.454
-225.957
-250.604
-271.701
-289.485
-304.094
-315.668
-324.388
-330.709
-335.103
-337.842
-339.077
-338.924
-337.455
-334.746
-330.776
-325.319
-318.273
-309.766
-300.01
-289.321
-278.033
-266.37
-254.574
-242.952
-231.677
-220.821
-210.42
-200.425
-190.792
-181.559
-172.754
-164.383
-156.494
-149.088
-142.128
-135.588
-129.409
-123.542
-117.986
-112.738
-107.795
-103.173
-98.883
-94.931
-91.332
-88.046
-84.986
-82.066
-79.191
-76.302
-73.392
-70.453
-67.495
-64.523
-61.54
-58.553
-55.585
-52.641
-49.716
-46.813
-43.933
-41.113
-38.425
-35.93
-33.68
-31.708
-30.018
-28.612
-27.487
-26.624
-25.99
-25.55
-25.261
-25.089
-25.009
-24.99
-24.996
-24.981
-24.883
-24.649
-24.237
-23.606
-22.725
-21.566
-20.102
-18.317
-16.206
-13.76
-10.976
-7.846
-4.359
-0.507
3.717
8.314
13.283
18.621
24.326
30.396
36.823
43.599
50.714
58.153
65.907
73.966
82.32
90.958
99.856
108.979
118.295
127.777
137.391
147.101
156.871
166.654
176.417
186.143
195.811
205.409
214.906
224.258
233.425
242.365
251.051
259.474
267.615
275.441
282.933
290.081
296.879
303.344
309.45
315.132
320.335
325.003
329.102
332.627
335.564
337.893
339.593
340.631
340.99
340.678
339.678
337.959
335.49
332.221
328.162
323.382
317.937
311.884
305.267
298.104
290.431
282.303
273.764
264.86
255.626
246.084
236.285
226.3
216.201
206.072
195.955
185.845
175.751
165.69
155.679
145.756
135.94
126.236
116.666
107.263
98.058
89.09
80.378
71.923
63.726
55.787
48.117
40.749
33.703
26.992
20.63
14.624
8.982
3.719
-1.162
-5.674
-9.826
-13.633
-17.105
-20.245
-23.063
-25.569
-27.777
-29.705
-31.368
-32.783
-33.966
-34.936
-35.712
-36.313
-36.759
-37.061
-37.236
-37.298
-37.261
-37.141
-36.953
-36.707
-36.418
-36.097
-35.757
-35.409
-35.063
-34.728
-34.41
-34.119
-33.859
-33.636
-33.455
-33.319
-33.232
-33.194
-33.208
-33.274
-33.392
-33.562
-33.783
-34.054
-34.373
-34.738
-35.146
-35.596
-36.083
-36.606
-37.162
-37.747
-38.358
-38.992
-39.646
-40.317
-41.003
-41.701
-42.407
-43.118
-43.833
-44.548
-45.261
-45.969
-46.67
-47.362
-48.043
-48.71
-49.363
-50
-50.618
-51.218
-51.797
-52.354
-52.889
-53.401
-53.887
-54.349
-54.784
-55.192
-55.573
-55.927
-56.253
-56.55
-56.82
-57.06
-57.272
-57.455
-57.609
-57.735
-57.832
-57.902
-57.944
-57.959
-57.949
-57.914
-57.855
-57.773
-57.67
-57.547
-57.407
-57.253
-57.086
-56.907
-56.718
-56.519
-56.314
-56.105
-55.892
-55.678
-55.464
-55.254
-55.051
-54.86
-54.681
-54.517
-54.366
-54.228
-54.105
-54.004
-53.928
-53.88
-53.864
-53.881
-53.934
-54.027
-54.161
-54.333
-54.539
-54.77
-55.025
-55.305
-55.613
-55.957
-56.331
-56.718
-57.102
-57.459
-57.783
-58.091
-58.383
-58.653
-58.899
-59.096
-59.257
-59.457
-59.671
-59.793
-59.73
-59.349
-58.659
-57.87
-57.063
-56.168
-55.303
-54.682
-54.556
-55.331
-57.016
-59.13
-61.417
-63.816
-66.102
-68.056
-69.34
-69.343
-68.023
-65.962
-63.515
-60.895
-58.351
-55.974
-54.025
-53.04
-53.089
-53.771
-54.824
-56.028
-57.238
-58.505
-59.747
-60.712
-61.363
-61.851
-62.285
-62.792
-63.417
-64.088
-64.79
-65.566
-66.416
-67.325
-68.275
-69.226
-70.169
-71.125
-72.103
-73.106
-74.133
-75.167
-76.197
-77.215
-78.212
-79.182
-80.115
-81.002
-81.834
-82.6
-83.291
-83.9
-84.417
-84.832
-85.137
-85.321
-85.377
-85.301
-85.091
-84.743
-84.256
-83.627
-82.854
-81.939
-80.883
-79.688
-78.358
-76.897
-75.31
-73.605
-71.79
-69.874
-67.869
-65.783
-63.631
-61.426
-59.184
-56.922
-54.658
-52.408
-50.19
-48.023
-45.924
-43.911
-41.998
-40.2
-38.531
-37.01
-35.65
-34.469
-33.477
-32.686
-32.106
-31.747
-31.616
-31.714
-32.039
-32.587
-33.359
-34.357
-35.59
-37.059
-38.758
-40.679
-42.808
-45.128
-47.622
-50.259
-52.999
-55.802
-58.634
-61.469
-64.289
-67.065
-69.764
-72.343
-74.75
-76.95
-78.916
-80.624
-82.07
-83.258
-84.206
-84.955
-85.56
-86.072
-86.559
-87.077
-87.682
-88.442
-89.399
-90.644
-92.311
-94.443
-97.02
-99.91
-102.808
-105.441
-107.612
-109.015
-109.307
-108.276
-105.832
-102.325
-98.517
-95.016
-92.306
-90.773
-90.655
-92.174
-95.286
-99.059
-101.952
-102.47
-99.019
-90.319
-75.357
-52.867
-21.926
17.289
63.931
116.901
173.47
229.931
282.859
327.855
363.317
391.595
412.291
423.694
420.567
391.487
331.037
239.039
119.775
-13.148
-148.028
-273.871
-379.173
-458.654
-507.117
-523.096
-509.758
-470.721
-415.488
-354.576
-297.848
-254.363
-225.328
-207.417
-195.13
-182.793
-169.21
-156.274
-147.192
-143.958
-146.028
-151.176
-156.025
-158.213
-157.073
-152.713
-145.893
-137.497
-128.049
-118.168
-108.805
-100.806
-94.676
-90.572
-88.275
-87.349
-87.379
-88.006
-88.842
-89.536
-89.881
-89.752
-89.103
-87.949
-86.312
-84.208
-81.677
-78.767
-75.504
-71.939
-68.149
-64.239
-60.349
-56.586
-53.011
-49.667
-46.58
-43.776
-41.289
-39.141
-37.326
-35.838
-34.677
-33.841
-33.334
-33.136
-33.207
-33.488
-33.915
-34.437
-35.017
-35.625
-36.234
-36.822
-37.366
-37.854
-38.283
-38.642
-38.918
-39.092
-39.147
-39.068
-38.846
-38.477
-37.956
-37.276
-36.433
-35.42
-34.233
-32.867
-31.315
-29.57
-27.623
-25.469
-23.106
-20.533
-17.752
-14.764
-11.572
-8.181
-4.598
-0.83
3.117
7.235
11.516
15.951
20.529
25.241
30.074
35.018
40.059
45.185
50.381
55.632
60.925
66.244
71.573
76.896
82.196
87.458
92.665
97.8
102.846
107.786
112.603
117.281
121.804
126.156
130.322
134.288
138.039
141.564
144.85
147.886
150.661
153.167
155.396
157.34
158.993
160.352
161.413
162.172
162.628
162.781
162.633
162.184
161.44
160.403
159.082
157.483
155.615
153.487
151.111
148.497
145.659
142.609
139.36
135.928
132.328
128.575
124.684
120.673
116.558
112.355
108.081
103.751
99.38
94.981
90.568
86.151
81.742
77.349
72.984
68.655
64.37
60.138
55.965
51.859
47.828
43.876
40.007
36.224
32.526
28.914
25.388
21.948
18.592
15.32
12.128
9.018
5.991
3.046
0.183
-2.605
-5.326
-7.986
-10.582
-13.109
-15.559
-17.917
-20.168
-22.283
-24.224
-25.954
-27.442
-28.661
-29.593
-30.219
-30.508
-30.432
-29.949
-29.032
-27.666
-25.832
-23.512
-20.699
-17.39
-13.61
-9.421
-4.874
-0.007
5.153
10.601
16.329
22.316
28.55
35.024
41.75
48.757
56.06
63.656
71.544
79.737
88.291
97.32
106.928
117.197
128.199
139.989
152.624
166.186
180.726
196.258
212.773
230.254
248.709
268.184
288.734
310.382
333.094
356.782
381.355
406.745
432.873
459.633
486.909
514.565
542.432
570.369
598.168
625.458
651.828
676.857
700.002
720.798
739.108
754.802
767.976
779.378
789.577
798.931
808.252
817.059
824.153
829.761
832.781
832.847
830.309
821.034
801.604
768.636
718.977
656.464
585.559
511.365
439.877
372.053
309.447
253.259
202.839
160.673
127.593
103.712
89.777
81.4
74.367
64.863
48.805
28.388
6.151
-15.695
-33.89
-49.519
-63.419
-75.43
-86.543
-96.006
-103.235
-108.773
-112.808
-115.881
-118.734
-121.61
-124.613
-127.835
-131.194
-134.604
-138.041
-141.456
-144.796
-148.022
-151.093
-153.961
-156.605
-159.015
-161.157
-162.983
-164.428
-165.43
-165.972
-166.074
-165.773
-165.117
-164.155
-162.935
-161.521
-159.988
-158.407
-156.842
-155.351
-153.982
-152.79
-151.836
-151.183
-150.89
-150.996
-151.523
-152.484
-153.886
-155.729
-158.008
-160.706
-163.798
-167.261
-171.075
-175.218
-179.668
-184.397
-189.374
-194.566
-199.937
-205.453
-211.078
-216.779
-222.517
-228.257
-233.964
-239.603
-245.141
-250.544
-255.776
-260.801
-265.587
-270.097
-274.301
-278.167
-281.665
-284.767
-287.448
-289.686
-291.459
-292.751
-293.544
-293.827
-293.588
-292.82
-291.517
-289.675
-287.295
-284.379
-280.931
-276.96
-272.475
-267.488
-262.014
-256.071
-249.678
-242.855
-235.627
-228.017
-220.052
-211.76
-203.17
-194.312
-185.218
-175.919
-166.449
-156.841
-147.129
-137.347
-127.528
-117.705
-107.913
-98.182
-88.544
-79.031
-69.673
-60.497
-51.531
-42.802
-34.335
-26.151
-18.272
-10.719
-3.507
3.348
9.832
15.933
21.643
26.953
31.859
36.357
40.445
44.124
47.396
50.266
52.74
54.825
56.531
57.869
58.851
59.491
59.803
59.805
59.512
58.942
58.115
57.049
55.765
54.281
52.619
50.8
48.842
46.766
44.592
42.339
40.026
37.671
35.292
32.904
30.525
28.169
25.85
23.583
21.378
19.247
17.2
15.246
13.394
11.649
10.018
8.505
7.115
5.85
4.711
3.699
2.813
2.053
1.416
0.899
0.499
0.209
0.026
-0.056
-0.043
0.058
0.241
0.498
0.821
1.205
1.639
2.118
2.633
3.175
3.738
4.313
4.893
5.47
6.037
6.588
7.114
7.61
8.07
8.487
8.856
9.172
9.43
9.626
9.756
9.817
9.807
9.722
9.563
9.326
9.012
8.621
8.151
7.604
6.98
6.28
5.507
4.662
3.748
2.768
1.724
0.62
-0.541
-1.754
-3.017
-4.324
-5.672
-7.056
-8.472
-9.914
-11.38
-12.863
-14.359
-15.863
-17.372
-18.881
-20.386
-21.883
-23.369
-24.841
-26.296
-27.731
-29.144
-30.531
-31.893
-33.227
-34.532
-35.807
-37.052
-38.268
-39.453
-40.61
-41.739
-42.841
-43.917
-44.968
-45.997
-47.004
-47.992
-48.962
-49.916
-50.856
-51.785
-52.704
-53.616
-54.52
-55.42
-56.317
-57.211
-58.103
-58.994
-59.885
-60.774
-61.663
-62.551
-63.437
-64.321
-65.199
-66.071
-66.935
-67.788
-68.626
-69.448
-70.249
-71.026
-71.776
-72.495
-73.18
-73.827
-74.433
-74.994
-75.506
-75.967
-76.374
-76.722
-77.011
-77.238
-77.401
-77.498
-77.529
-77.493
-77.389
-77.218
-76.98
-76.675
-76.305
-75.871
-75.375
-74.82
-74.209
-73.544
-72.831
-72.073
-71.275
-70.442
-69.578
-68.689
-67.779
-66.855
-65.921
-64.983
-64.047
-63.116
-62.198
-61.295
-60.414
-59.559
-58.732
-57.939
-57.181
-56.461
-55.783
-55.147
-54.556
-54.01
-53.51
-53.057
-52.651
-52.289
-51.973
-51.698
-51.464
-51.268
-51.106
-50.975
-50.871
-50.789
-50.726
-50.675
-50.634
-50.595
-50.554
-50.506
-50.444
-50.363
-50.258
-50.122
-49.951
-49.739
-49.482
-49.175
-48.813
-48.393
-47.91
-47.362
-46.744
-46.055
-45.293
-44.454
-43.539
-42.546
-41.475
-40.328
-39.104
-37.806
-36.436
-34.996
-33.49
-31.921
-30.293
-28.611
-26.88
-25.105
-23.292
-21.447
-19.577
-17.688
-15.787
-13.882
-11.98
-10.087
-8.211
-6.359
-4.538
-2.755
-1.017
0.669
2.298
3.863
5.359
6.782
8.126
9.39
10.57
11.663
12.671
13.591
14.425
15.173
15.839
16.423
16.931
17.366
17.733
18.038
18.287
18.488
18.647
18.775
18.879
18.968
19.052
19.142
19.246
19.375
19.539
19.748
20.012
20.34
20.743
21.229
21.807
22.484
23.267
24.162
25.173
26.304
27.557
28.933
30.431
32.049
33.784
35.634
37.591
39.649
41.8
44.034
46.343
48.713
51.131
53.579
56.041
58.501
60.94
63.34
65.68
67.943
70.112
72.172
74.106
75.898
77.53
78.984
80.247
81.306
82.146
82.757
83.128
83.252
83.127
82.756
82.14
81.276
80.159
78.784
77.147
75.256
73.119
70.744
68.145
65.341
62.364
59.256
56.058
52.803
49.523
46.249
43.017
39.871
36.857
34.016
31.388
29.002
26.872
25.009
23.402
22.032
20.875
19.869
18.939
18.008
16.983
15.777
14.326
12.526
10.24
7.411
4.045
0.253
-3.682
-7.503
-11.022
-13.954
-15.972
-16.879
-16.588
-15.339
-13.803
-12.52
-11.866
-12.28
-14.079
-17.414
-22.245
-27.828
-32.659
-35.345
-34.467
-28.439
-15.933
4.339
33.554
71.947
118.753
173.105
232.713
293.546
351.616
402.26
442.799
474.737
499.448
516.976
523.213
506.874
456.207
363.405
229.191
68.314
-96.649
-240.943
-344.776
-403.295
-423.221
-418.773
-405.961
-391.825
-376.592
-357.331
-329.582
-293.827
-254.057
-214.102
-178.072
-148.399
-125.494
-109.271
-98.991
-93.424
-91.471
-92.334
-94.989
-98.111
-100.523
-101.22
-99.821
-96.67
-92.243
-86.886
-81.03
-75.223
-70.084
-66.32
-64.236
-63.651
-64.238
-65.636
-67.553
-69.771
-72.013
-73.901
-75.164
-75.704
-75.524
-74.712
-73.343
-71.437
-69.036
-66.221
-63.104
-59.808
-56.462
-53.167
-49.986
-46.975
-44.184
-41.661
-39.46
-37.606
-36.098
-34.922
-34.071
-33.539
-33.323
-33.409
-33.754
-34.31
-35.025
-35.844
-36.727
-37.645
-38.563
-39.455
-40.3
-41.078
-41.785
-42.416
-42.963
-43.413
-43.754
-43.973
-44.064
-44.023
-43.846
-43.53
-43.072
-42.468
-41.716
-40.813
-39.753
-38.533
-37.147
-35.59
-33.859
-31.953
-29.871
-27.616
-25.19
-22.597
-19.841
-16.928
-13.861
-10.648
-7.294
-3.804
-0.184
3.56
7.421
11.393
15.468
19.639
23.899
28.24
32.654
37.134
41.67
46.256
50.883
55.543
60.228
64.928
69.634
74.338
79.029
83.699
88.337
92.933
97.478
101.963
106.377
110.71
114.954
119.1
123.136
127.054
130.844
134.497
138.002
141.35
144.531
147.536
150.357
152.982
155.405
157.618
159.611
161.377
162.91
164.202
165.248
166.043
166.583
166.862
166.879
166.631
166.117
165.338
164.293
162.984
161.414
159.586
157.503
155.171
152.596
149.783
146.741
143.478
140.002
136.323
132.451
128.397
124.173
119.791
115.263
110.604
105.826
100.943
95.972
90.926
85.821
80.672
75.495
70.306
65.119
59.95
54.813
49.723
44.695
39.741
34.875
30.108
25.454
20.922
16.525
12.269
8.166
4.222
0.445
-3.158
-6.582
-9.822
-12.875
-15.737
-18.407
-20.883
-23.167
-25.259
-27.161
-28.878
-30.414
-31.775
-32.971
-34.009
-34.898
-35.65
-36.274
-36.783
-37.186
-37.495
-37.719
-37.869
-37.956
-37.993
-37.991
-37.962
-37.918
-37.871
-37.833
-37.815
-37.827
-37.874
-37.96
-38.093
-38.28
-38.535
-38.868
-39.281
-39.774
-40.347
-40.993
-41.703
-42.456
-43.215
-43.946
-44.618
-45.204
-45.692
-46.061
-46.284
-46.332
-46.166
-45.759
-45.105
-44.203
-43.049
-41.651
-40.035
-38.269
-36.462
-34.712
-33.093
-31.647
-30.408
-29.441
-28.827
-28.635
-28.943
-29.783
-31.179
-33.21
-35.876
-39.073
-42.605
-46.109
-49.167
-51.467
-52.645
-52.294
-50.339
-46.888
-42.259
-37.101
-31.944
-27.337
-24.032
-22.528
-22.749
-23.326
-22.518
-19.43
-12.638
-2.351
11.509
32.331
60.494
97.078
144.25
199.25
261.055
326.41
385.942
431.543
456.487
457.287
436.864
400.081
349.882
289.362
222.833
156.206
96.869
49.217
11.753
-21.685
-57.503
-98.709
-143.908
-188.251
-227.713
-260.756
-287.574
-309.919
-329.097
-345.445
-359.227
-370.384
-378.945
-385.294
-389.741
-392.382
-393.147
-391.753
-387.743
-380.964
-371.576
-359.795
-345.936
-330.353
-313.367
-295.425
-277.103
-258.814
-240.788
-223.181
-206.053
-189.504
-173.714
-158.854
-145.046
-132.401
-121
-110.884
-102.095
-94.616
-88.369
-83.255
-79.143
-75.931
-73.564
-71.996
-71.16
-70.978
-71.336
-72.075
-73.052
-74.111
-75.082
-75.842
-76.301
-76.399
-76.131
-75.514
-74.572
-73.329
-71.805
-70.008
-67.965
-65.704
-63.261
-60.703
-58.098
-55.533
-53.111
-50.909
-48.971
-47.325
-45.968
-44.88
-44.043
-43.426
-42.984
-42.684
-42.489
-42.365
-42.283
-42.201
-42.072
-41.841
-41.443
-40.829
-39.96
-38.806
-37.344
-35.559
-33.439
-30.979
-28.184
-25.054
-21.588
-17.783
-13.632
-9.134
-4.292
0.889
6.404
12.244
18.403
24.874
31.645
38.708
46.051
53.664
61.536
69.654
77.999
86.552
95.293
104.196
113.239
122.394
131.635
140.932
150.256
159.578
168.869
178.097
187.232
196.243
205.097
213.764
222.212
230.409
238.325
245.928
253.189
260.078
266.569
272.633
278.245
283.381
288.019
292.138
295.719
298.746
301.205
303.083
304.371
305.062
305.152
304.639
303.526
301.815
299.514
296.632
293.181
289.175
284.631
279.567
274.005
267.968
261.481
254.573
247.271
239.606
231.61
223.317
214.758
205.97
196.987
187.844
178.578
169.223
159.816
150.391
140.983
131.624
122.348
113.186
104.167
95.32
86.671
78.244
70.063
62.149
54.521
47.194
40.185
33.505
27.165
21.173
15.534
10.252
5.329
0.763
-3.447
-7.306
-10.821
-13.998
-16.847
-19.378
-21.604
-23.536
-25.191
-26.581
-27.723
-28.634
-29.329
-29.826
-30.142
-30.293
-30.296
-30.17
-29.929
-29.59
-29.168
-28.68
-28.14
-27.561
-26.957
-26.34
-25.722
-25.112
-24.521
-23.957
-23.427
-22.937
-22.494
-22.102
-21.765
-21.485
-21.264
-21.103
-21.003
-20.963
-20.983
-21.059
-21.192
-21.377
-21.613
-21.896
-22.224
-22.593
-22.999
-23.439
-23.91
-24.407
-24.927
-25.466
-26.021
-26.587
-27.161
-27.74
-28.321
-28.899
-29.473
-30.039
-30.595
-31.139
-31.669
-32.183
-32.679
-33.157
-33.616
-34.055
-34.474
-34.873
-35.253
-35.613
-35.953
-36.276
-36.579
-36.865
-37.133
-37.384
-37.618
-37.836
-38.037
-38.222
-38.391
-38.546
-38.685
-38.81
-38.921
-39.019
-39.105
-39.18
-39.244
-39.299
-39.347
-39.387
-39.423
-39.455
-39.485
-39.514
-39.543
-39.573
-39.605
-39.64
-39.679
-39.723
-39.772
-39.828
-39.891
-39.963
-40.043
-40.133
-40.234
-40.347
-40.471
-40.609
-40.761
-40.928
-41.109
-41.305
-41.517
-41.744
-41.986
-42.242
-42.51
-42.789
-43.078
-43.374
-43.675
-43.978
-44.28
-44.58
-44.873
-45.158
-45.431
-45.689
-45.931
-46.152
-46.351
-46.525
-46.672
-46.789
-46.873
-46.924
-46.938
-46.915
-46.852
-46.747
-46.599
-46.407
-46.17
-45.886
-45.555
-45.178
-44.753
-44.282
-43.767
-43.207
-42.607
-41.967
-41.292
-40.584
-39.846
-39.083
-38.299
-37.497
-36.681
-35.857
-35.028
-34.198
-33.371
-32.553
-31.746
-30.954
-30.181
-29.432
-28.708
-28.014
-27.352
-26.726
-26.14
-25.595
-25.095
-24.642
-24.24
-23.89
-23.595
-23.354
-23.17
-23.043
-22.974
-22.96
-23.003
-23.101
-23.251
-23.452
-23.703
-23.999
-24.339
-24.719
-25.135
-25.585
-26.063
-26.568
-27.094
-27.637
-28.194
-28.76
-29.332
-29.905
-30.475
-31.035
-31.582
-32.11
-32.612
-33.084
-33.518
-33.909
-34.251
-34.537
-34.762
-34.921
-35.007
-35.016
-34.944
-34.786
-34.538
-34.196
-33.758
-33.22
-32.581
-31.84
-30.995
-30.046
-28.993
-27.837
-26.579
-25.221
-23.765
-22.215
-20.572
-18.843
-17.033
-15.148
-13.195
-11.183
-9.123
-7.027
-4.908
-2.78
-0.656
1.448
3.519
5.541
7.501
9.384
11.18
12.874
14.453
15.901
17.203
18.346
19.318
20.108
20.704
21.097
21.278
21.245
20.998
20.532
19.84
18.911
17.733
16.31
14.646
12.75
10.639
8.332
5.856
3.256
0.575
-2.147
-4.875
-7.584
-10.25
-12.834
-15.293
-17.58
-19.652
-21.492
-23.088
-24.429
-25.53
-26.421
-27.156
-27.823
-28.506
-29.275
-30.215
-31.399
-32.901
-34.806
-37.173
-40.077
-43.616
-47.772
-52.466
-57.573
-62.835
-68.028
-72.986
-77.373
-80.841
-83.262
-84.503
-84.585
-83.852
-82.367
-80.061
-77.178
-73.73
-69.419
-64.381
-58.588
-51.317
-42.439
-30.998
-14.489
7.168
32.905
61.137
87.603
112.846
142.202
179.557
229.185
289.077
349.237
403.264
447.596
480.094
503.44
513.979
500.267
455.893
375.961
261.878
129.52
-6.889
-133.577
-234.783
-308.023
-355.649
-381.156
-394.402
-398.505
-390.44
-370.597
-340.076
-303.423
-270.073
-243.805
-222.643
-204.181
-184.412
-163.042
-143.835
-128.596
-118.306
-112.499
-108.848
-106.11
-103.416
-99.841
-95.355
-90.105
-84.252
-78.246
-72.393
-66.911
-62.286
-59.081
-57.578
-57.791
-59.489
-62.28
-65.812
-69.797
-73.899
-77.724
-80.963
-83.44
-85.08
-85.908
-85.968
-85.276
-83.87
-81.833
-79.25
-76.212
-72.829
-69.196
-65.424
-61.647
-57.966
-54.463
-51.219
-48.281
-45.679
-43.435
-41.546
-39.996
-38.777
-37.87
-37.248
-36.886
-36.747
-36.785
-36.957
-37.209
-37.498
-37.791
-38.06
-38.282
-38.445
-38.536
-38.551
-38.491
-38.353
-38.131
-37.822
-37.417
-36.913
-36.308
-35.597
-34.782
-33.861
-32.83
-31.686
-30.427
-29.048
-27.545
-25.914
-24.15
-22.248
-20.206
-18.026
-15.708
-13.253
-10.663
-7.941
-5.09
-2.115
0.981
4.195
7.524
10.961
14.504
18.147
21.884
25.708
29.614
33.593
37.639
41.741
45.892
50.081
54.299
58.534
62.777
67.015
71.236
75.428
79.578
83.673
87.701
91.648
95.502
99.248
102.875
106.368
109.717
112.908
115.929
118.768
121.415
123.857
126.084
128.087
129.855
131.38
132.655
133.672
134.425
134.91
135.123
135.062
134.725
134.113
133.226
132.068
130.642
128.955
127.011
124.82
122.39
119.731
116.854
113.771
110.495
107.04
103.42
99.651
95.75
91.731
87.613
83.411
79.145
74.83
70.485
66.127
61.773
57.44
53.145
48.904
44.734
40.649
36.666
32.797
29.057
25.457
22.009
18.724
15.61
12.676
9.93
7.377
5.024
2.874
0.931
-0.803
-2.326
-3.639
-4.742
-5.638
-6.33
-6.82
-7.114
-7.216
-7.134
-6.873
-6.44
-5.843
-5.091
-4.192
-3.158
-1.997
-0.722
0.657
2.124
3.668
5.274
6.928
8.618
10.33
12.049
13.763
15.462
17.134
18.767
20.349
21.868
23.313
24.671
25.932
27.084
28.119
29.028
29.803
30.442
30.943
31.301
31.512
31.562
31.447
31.165
30.718
30.113
29.358
28.47
27.477
26.42
25.338
24.267
23.237
22.267
21.383
20.616
19.998
19.573
19.371
19.411
19.704
20.255
21.059
22.088
23.272
24.505
25.691
26.742
27.606
28.234
28.55
28.47
27.906
26.779
25.053
22.683
19.587
15.758
11.287
6.379
1.43
-3.152
-7.074
-9.995
-11.524
-11.466
-9.79
-6.75
-3.007
0.852
4.499
7.533
9.556
10.528
10.828
11.487
14.181
20.394
31.452
48.907
74.167
108.203
150.233
197.419
246.914
296.727
347.021
399.103
450.877
496.087
525.749
530.978
507.766
459.77
395.038
322.159
249.721
180.969
116.4
57.673
2.869
-48.143
-94.745
-139.001
-179.655
-215.982
-248.562
-276.766
-302.158
-326.444
-349.728
-372.053
-392.844
-411.148
-426.603
-438.884
-447.307
-451.377
-450.915
-445.929
-436.747
-423.908
-407.88
-389.193
-368.521
-346.452
-323.486
-300.102
-276.654
-253.406
-230.631
-208.561
-187.397
-167.402
-148.816
-131.828
-116.617
-103.297
-91.905
-82.446
-74.866
-69.041
-64.834
-62.074
-60.574
-60.2
-60.813
-62.255
-64.362
-66.935
-69.761
-72.658
-75.443
-77.931
-79.987
-81.517
-82.465
-82.843
-82.678
-82.004
-80.877
-79.342
-77.445
-75.249
-72.817
-70.22
-67.549
-64.887
-62.326
-59.977
-57.915
-56.183
-54.804
-53.764
-53.039
-52.603
-52.414
-52.421
-52.578
-52.835
-53.143
-53.465
-53.748
-53.939
-53.98
-53.806
-53.366
-52.626
-51.559
-50.15
-48.388
-46.262
-43.768
-40.912
-37.694
-34.111
-30.16
-25.833
-21.127
-16.047
-10.599
-4.795
1.357
7.85
14.683
21.852
29.353
37.172
45.3
53.721
62.411
71.337
80.455
89.712
99.072
108.502
117.978
127.49
137.021
146.558
156.094
165.606
175.076
184.488
193.818
203.047
212.175
221.206
230.174
239.12
248.053
256.965
265.833
274.598
283.201
291.567
299.597
307.212
314.345
320.926
326.913
332.261
336.902
340.763
343.749
345.746
346.685
346.523
345.231
342.83
339.36
334.881
329.507
323.332
316.433
308.885
300.738
292.036
282.856
273.271
263.37
253.266
243.044
232.777
222.537
212.357
202.258
192.239
182.263
172.299
162.341
152.392
142.47
132.604
122.807
113.097
103.497
94.009
84.643
75.413
66.323
57.394
48.654
40.139
31.9
23.984
16.423
9.242
2.457
-3.925
-9.897
-15.458
-20.617
-25.38
-29.749
-33.732
-37.33
-40.551
-43.409
-45.917
-48.096
-49.966
-51.546
-52.855
-53.914
-54.739
-55.349
-55.759
-55.984
-56.038
-55.937
-55.698
-55.338
-54.874
-54.323
-53.7
-53.023
-52.307
-51.564
-50.809
-50.051
-49.302
-48.571
-47.866
-47.196
-46.566
-45.982
-45.45
-44.973
-44.555
-44.2
-43.908
-43.68
-43.519
-43.422
-43.39
-43.421
-43.513
-43.664
-43.872
-44.134
-44.448
-44.809
-45.215
-45.66
-46.143
-46.656
-47.197
-47.761
-48.342
-48.935
-49.537
-50.142
-50.748
-51.349
-51.942
-52.524
-53.091
-53.64
-54.168
-54.672
-55.149
-55.597
-56.013
-56.396
-56.742
-57.051
-57.321
-57.55
-57.739
-57.885
-57.99
-58.051
-58.069
-58.045
-57.977
-57.867
-57.716
-57.524
-57.293
-57.023
-56.718
-56.378
-56.006
-55.604
-55.174
-54.718
-54.239
-53.739
-53.22
-52.685
-52.136
-51.577
-51.01
-50.438
-49.864
-49.29
-48.72
-48.156
-47.6
-47.055
-46.523
-46.007
-45.507
-45.027
-44.567
-44.129
-43.715
-43.326
-42.963
-42.626
-42.316
-42.033
-41.776
-41.545
-41.34
-41.159
-41.003
-40.869
-40.757
-40.666
-40.594
-40.539
-40.499
-40.472
-40.455
-40.448
-40.446
-40.448
-40.451
-40.453
-40.451
-40.444
-40.428
-40.401
-40.362
-40.308
-40.237
-40.147
-40.036
-39.904
-39.748
-39.569
-39.366
-39.138
-38.885
-38.606
-38.303
-37.974
-37.621
-37.243
-36.842
-36.417
-35.97
-35.503
-35.016
-34.512
-33.991
-33.455
-32.906
-32.347
-31.778
-31.202
-30.621
-30.038
-29.455
-28.875
-28.301
-27.736
-27.182
-26.642
-26.118
-25.612
-25.125
-24.659
-24.214
-23.793
-23.395
-23.024
-22.678
-22.361
-22.072
-21.813
-21.585
-21.387
-21.22
-21.085
-20.981
-20.909
-20.868
-20.859
-20.881
-20.936
-21.021
-21.135
-21.277
-21.443
-21.632
-21.838
-22.057
-22.284
-22.514
-22.742
-22.964
-23.177
-23.377
-23.561
-23.727
-23.872
-23.994
-24.088
-24.148
-24.168
-24.138
-24.051
-23.899
-23.677
-23.376
-22.993
-22.522
-21.963
-21.312
-20.564
-19.71
-18.739
-17.643
-16.42
-15.072
-13.608
-12.043
-10.4
-8.702
-6.98
-5.253
-3.534
-1.826
-0.118
1.6
3.34
5.101
6.872
8.641
10.402
12.154
13.901
15.662
17.469
19.366
21.401
23.605
25.986
28.521
31.159
33.837
36.472
39.001
41.38
43.571
45.547
47.278
48.73
49.851
50.573
50.815
50.484
49.513
47.864
45.545
42.606
39.134
35.257
31.082
26.703
22.196
17.613
13.011
8.451
3.999
-0.262
-4.24
-7.839
-10.966
-13.555
-15.606
-17.151
-18.279
-19.13
-19.807
-20.41
-21.051
-21.809
-22.781
-24.065
-25.714
-27.82
-30.516
-33.861
-37.857
-42.388
-47.118
-51.699
-55.823
-59.07
-61.021
-61.431
-60.229
-57.748
-54.718
-51.892
-49.899
-49.305
-50.621
-54.046
-59.284
-65.34
-70.549
-72.938
-70.549
-61.643
-44.504
-17.724
19.312
66.361
122.358
184.362
248.062
309.615
364.343
409.9
447.275
474.39
488.789
485.987
456.511
396.841
307.335
190.195
55.885
-85.067
-221.272
-336.667
-420.348
-467.715
-480.732
-470.996
-451.32
-428.923
-406.802
-383.008
-354.006
-320.444
-284.719
-249.848
-219.532
-195.181
-176.627
-163.413
-154.318
-148.152
-144.427
-142.459
-141.221
-139.837
-137.436
-133.614
-128.661
-123.015
-116.951
-110.782
-104.915
-99.841
-96.217
-94.358
-94.086
-95.024
-96.798
-99.174
-102.011
-105.123
-108.079
-110.386
-111.838
-112.472
-112.263
-111.067
-108.66
-104.698
-99.276
-92.997
-86.258
-79.265
-72.374
-65.907
-60.288
-56.208
-53.776
-52.464
-51.953
-52.039
-52.458
-53.111
-53.728
-53.76
-53.126
-52.192
-51.171
-50.233
-49.466
-48.772
-48.201
-47.974
-48.095
-48.391
-48.735
-48.991
-49.113
-49.165
-49.147
-49.005
-48.72
-48.297
-47.746
-47.096
-46.347
-45.468
-44.44
-43.247
-41.882
-40.347
-38.642
-36.759
-34.692
-32.436
-29.99
-27.353
-24.529
-21.522
-18.335
-14.973
-11.443
-7.753
-3.912
0.071
4.189
8.435
12.803
17.285
21.873
26.555
31.321
36.16
41.059
46.008
50.993
56
61.017
66.03
71.025
75.99
80.91
85.771
90.559
95.259
99.856
104.338
108.689
112.897
116.946
120.826
124.521
128.021
131.313
134.385
137.226
139.826
142.173
144.258
146.073
147.609
148.86
149.818
150.48
150.841
150.898
150.65
150.098
149.241
148.082
146.624
144.872
142.831
140.508
137.911
135.05
131.933
128.573
124.981
121.171
117.156
112.951
108.572
104.035
99.356
94.552
89.641
84.64
79.567
74.441
69.28
64.1
58.921
53.76
48.634
43.56
38.554
33.632
28.808
24.097
19.511
15.063
10.765
6.625
2.654
-1.139
-4.749
-8.168
-11.392
-14.416
-17.237
-19.855
-22.268
-24.477
-26.484
-28.292
-29.904
-31.325
-32.559
-33.613
-34.494
-35.209
-35.767
-36.178
-36.452
-36.6
-36.633
-36.564
-36.406
-36.174
-35.879
-35.536
-35.159
-34.759
-34.352
-33.948
-33.558
-33.192
-32.862
-32.577
-32.348
-32.184
-32.093
-32.084
-32.165
-32.339
-32.611
-32.981
-33.446
-34.005
-34.656
-35.394
-36.223
-37.139
-38.133
-39.196
-40.312
-41.456
-42.601
-43.707
-44.724
-45.608
-46.315
-46.805
-47.047
-47.007
-46.646
-45.928
-44.799
-43.216
-41.144
-38.546
-35.402
-31.717
-27.507
-22.817
-17.725
-12.302
-6.613
-0.713
5.365
11.572
17.854
24.145
30.362
36.451
42.334
47.907
53.142
58.097
62.931
67.954
73.479
79.742
87.035
95.657
105.77
117.445
130.423
144.138
158.168
172.179
185.912
199.259
212.116
224.483
237.004
250.807
266.978
286.727
310.994
340.35
375.498
417.099
465.168
518.901
577.047
636.917
694.908
749.166
797.932
840.224
877.591
907.004
923.013
922.095
897.311
847.769
779.509
695.632
605.329
518.284
438.153
372.167
321.581
280.842
247.051
215.081
182.55
152.503
125.884
102.644
81.782
60.519
37.718
13.749
-10.689
-34.516
-56.961
-77.381
-95.012
-109.435
-120.538
-128.513
-133.801
-136.796
-137.873
-137.493
-136.15
-134.246
-132.086
-129.878
-127.711
-125.654
-123.763
-122.068
-120.591
-119.364
-118.458
-117.936
-117.86
-118.3
-119.281
-120.81
-122.869
-125.405
-128.339
-131.574
-135.028
-138.642
-142.376
-146.183
-150.009
-153.792
-157.443
-160.899
-164.102
-166.976
-169.473
-171.557
-173.211
-174.453
-175.322
-175.867
-176.141
-176.195
-176.07
-175.82
-175.503
-175.188
-174.959
-174.879
-175.002
-175.388
-176.08
-177.109
-178.5
-180.255
-182.358
-184.794
-187.542
-190.573
-193.867
-197.391
-201.109
-204.979
-208.95
-212.982
-217.039
-221.085
-225.089
-229.024
-232.862
-236.583
-240.176
-243.622
-246.905
-250.009
-252.914
-255.604
-258.065
-260.283
-262.245
-263.939
-265.351
-266.466
-267.272
-267.756
-267.904
-267.706
-267.148
-266.22
-264.916
-263.231
-261.162
-258.71
-255.874
-252.657
-249.065
-245.104
-240.781
-236.106
-231.089
-225.743
-220.08
-214.118
-207.873
-201.364
-194.61
-187.633
-180.454
-173.097
-165.584
-157.939
-150.188
-142.356
-134.468
-126.55
-118.629
-110.73
-102.878
-95.1
-87.42
-79.862
-72.448
-65.2
-58.14
-51.286
-44.656
-38.267
-32.133
-26.269
-20.685
-15.391
-10.396
-5.707
-1.326
2.742
6.498
9.943
13.078
15.909
18.442
20.684
22.643
24.33
25.756
26.933
27.874
28.592
29.103
29.421
29.562
29.541
29.376
29.081
28.673
28.167
27.579
26.924
26.216
25.468
24.695
23.908
23.119
22.339
21.576
20.84
20.138
19.476
18.859
18.292
17.778
17.319
16.917
16.571
16.281
16.047
15.866
15.737
15.655
15.619
15.625
15.667
15.742
15.845
15.972
16.117
16.277
16.446
16.62
16.794
16.965
17.128
17.28
17.417
17.536
17.635
17.712
17.765
17.792
17.794
17.769
17.718
17.641
17.54
17.415
17.268
17.1
16.915
16.712
16.496
16.268
16.031
15.787
15.539
15.289
15.039
14.792
14.551
14.316
14.09
13.876
13.674
13.486
13.313
13.158
13.019
12.899
12.798
12.715
12.652
12.608
12.583
12.576
12.586
12.613
12.655
12.712
12.782
12.864
12.957
13.06
13.17
13.288
13.412
13.54
13.672
13.806
13.941
14.076
14.211
14.344
14.475
14.602
14.725
14.842
14.954
15.06
15.158
15.249
15.331
15.404
15.467
15.521
15.563
15.595
15.615
15.623
15.619
15.601
15.57
15.525
15.466
15.391
15.301
15.194
15.07
14.929
14.769
14.591
14.394
14.177
13.939
13.682
13.404
13.106
12.787
12.448
12.088
11.708
11.309
10.89
10.453
9.999
9.528
9.042
8.541
8.028
7.503
6.968
6.424
5.874
5.32
4.763
4.205
3.65
3.098
2.553
2.017
1.492
0.98
0.483
0.005
-0.455
-0.892
-1.306
-1.695
-2.056
-2.389
-2.691
-2.961
-3.199
-3.402
-3.57
-3.701
-3.795
-3.852
-3.87
-3.849
-3.789
-3.689
-3.55
-3.372
-3.155
-2.901
-2.609
-2.281
-1.918
-1.522
-1.094
-0.634
-0.146
0.37
0.912
1.478
2.067
2.676
3.303
3.948
4.606
5.278
5.96
6.65
7.346
8.046
8.747
9.446
10.142
10.832
11.512
12.181
12.835
13.472
14.09
14.687
15.259
15.806
16.325
16.816
17.277
17.708
18.107
18.474
18.809
19.112
19.383
19.623
19.833
20.013
20.165
20.292
20.395
20.476
20.539
20.586
20.622
20.649
20.673
20.696
20.725
20.763
20.816
20.89
20.989
21.12
21.286
21.495
21.752
22.06
22.424
22.849
23.337
23.893
24.519
25.217
25.989
26.835
27.756
28.75
29.817
30.953
32.156
33.42
34.742
36.115
37.531
38.983
40.458
41.947
43.439
44.923
46.384
47.811
49.191
50.511
51.761
52.93
54.003
54.967
55.808
56.515
57.075
57.477
57.712
57.77
57.643
57.333
56.837
56.153
55.278
54.199
52.911
51.415
49.714
47.815
45.733
43.479
41.08
38.573
35.992
33.368
30.73
28.09
25.469
22.902
20.419
18.072
15.896
13.908
12.134
10.594
9.272
8.152
7.185
6.287
5.413
4.513
3.527
2.414
1.106
-0.479
-2.378
-4.68
-7.494
-10.845
-14.724
-19.006
-23.372
-27.508
-31.131
-33.852
-35.302
-35.239
-33.551
-30.523
-26.809
-23.072
-19.897
-17.792
-17.201
-18.402
-21.321
-25.163
-28.484
-29.557
-26.615
-18.075
-2.302
22.182
56.329
100.191
152.716
211.973
275.308
339.629
401.147
455.533
498.331
525.467
533.53
520.77
487.862
436.278
368.593
286.34
187.876
73.688
-51.336
-176.745
-284.858
-359.854
-395.61
-395.057
-370.696
-337.445
-303.621
-272.467
-242.713
-211.165
-178.085
-145.887
-117.78
-96.94
-83.951
-77.514
-75.918
-77.243
-80.22
-83.972
-87.134
-88.432
-87.287
-83.727
-78.329
-71.908
-65.044
-58.191
-52.034
-47.312
-44.43
-43.453
-44.129
-45.981
-48.577
-51.624
-54.803
-57.761
-60.271
-62.172
-63.364
-63.873
-63.736
-62.963
-61.603
-59.707
-57.311
-54.496
-51.368
-48.039
-44.654
-41.321
-38.099
-35.047
-32.205
-29.616
-27.331
-25.371
-23.728
-22.401
-21.389
-20.692
-20.318
-20.243
-20.421
-20.801
-21.326
-21.952
-22.652
-23.399
-24.168
-24.941
-25.699
-26.434
-27.149
-27.838
-28.487
-29.084
-29.613
-30.064
-30.433
-30.715
-30.905
-30.997
-30.986
-30.864
-30.628
-30.269
-29.779
-29.148
-28.365
-27.424
-26.319
-25.046
-23.603
-21.987
-20.199
-18.239
-16.11
-13.814
-11.354
-8.733
-5.955
-3.024
0.054
3.273
6.626
10.106
13.704
17.41
21.216
25.11
29.081
33.119
37.21
41.344
45.506
49.685
53.866
58.035
62.179
66.282
70.329
74.307
78.2
81.994
85.674
89.228
92.642
95.903
99
101.92
104.651
107.183
109.506
111.611
113.487
115.129
116.527
117.678
118.574
119.213
119.591
119.705
119.555
119.14
118.461
117.519
116.316
114.858
113.148
111.192
108.998
106.573
103.926
101.066
98.003
94.748
91.313
87.708
83.948
80.044
76.009
71.858
67.604
63.26
58.842
54.363
49.836
45.275
40.695
36.108
31.526
26.964
22.433
17.945
13.514
9.15
4.864
0.668
-3.428
-7.414
-11.282
-15.022
-18.626
-22.088
-25.4
-28.556
-31.55
-34.378
-37.034
-39.516
-41.819
-43.941
-45.88
-47.635
-49.206
-50.592
-51.795
-52.814
-53.652
-54.311
-54.794
-55.103
-55.242
-55.217
-55.031
-54.691
-54.203
-53.575
-52.814
-51.932
-50.939
-49.846
-48.664
-47.405
-46.083
-44.708
-43.293
-41.847
-40.381
-38.907
-37.435
-35.98
-34.554
-33.169
-31.835
-30.564
-29.365
-28.248
-27.219
-26.28
-25.433
-24.682
-24.037
-23.514
-23.126
-22.877
-22.769
-22.798
-22.957
-23.24
-23.625
-24.08
-24.572
-25.071
-25.552
-26.004
-26.407
-26.735
-26.947
-26.987
-26.815
-26.402
-25.732
-24.802
-23.615
-22.181
-20.55
-18.79
-16.982
-15.211
-13.545
-12.043
-10.793
-9.868
-9.397
-9.552
-10.425
-12.047
-14.333
-17.04
-19.951
-22.887
-25.554
-27.617
-28.837
-29.066
-28.584
-28.063
-28.047
-28.99
-31.194
-34.696
-39.494
-45.408
-51.469
-56.1
-57.619
-54.211
-44.528
-27.827
-3.332
29.595
70.801
119.25
173.226
229.525
284.318
335.617
381.703
421.764
457.3
485.608
501.336
500.236
476.142
429.166
366.753
295.514
223.128
153.896
86.141
19.306
-45.888
-107.92
-163.683
-211.273
-250.712
-282.795
-308.255
-327.702
-342.062
-352.324
-359.711
-365.604
-370.53
-374.467
-377.574
-379.798
-380.851
-380.497
-378.152
-373.094
-365.203
-354.687
-341.812
-327.067
-310.904
-293.713
-276.08
-258.598
-241.602
-225.275
-209.668
-194.745
-180.559
-167.206
-154.727
-143.139
-132.436
-122.609
-113.701
-105.719
-98.624
-92.333
-86.719
-81.687
-77.206
-73.266
-69.865
-66.986
-64.564
-62.524
-60.815
-59.375
-58.135
-57.014
-55.9
-54.72
-53.455
-52.111
-50.724
-49.313
-47.868
-46.377
-44.841
-43.266
-41.673
-40.086
-38.509
-36.963
-35.489
-34.14
-32.991
-32.086
-31.436
-31.031
-30.848
-30.866
-31.067
-31.423
-31.893
-32.437
-33.018
-33.603
-34.169
-34.678
-35.085
-35.339
-35.379
-35.158
-34.643
-33.807
-32.627
-31.085
-29.166
-26.862
-24.177
-21.108
-17.652
-13.804
-9.558
-4.912
0.13
5.562
11.377
17.567
24.123
31.035
38.291
45.878
53.783
61.992
70.491
79.262
88.285
97.537
106.991
116.619
126.394
136.286
146.264
156.297
166.353
176.403
186.415
196.36
206.205
215.916
225.458
234.796
243.893
252.712
261.216
269.371
277.142
284.498
291.409
297.848
303.789
309.203
314.062
318.335
321.996
325.024
327.408
329.14
330.224
330.672
330.499
329.726
328.368
326.436
323.931
320.846
317.174
312.905
308.045
302.613
296.628
290.107
283.066
275.513
267.448
258.858
249.725
240.024
229.749
218.915
207.567
195.778
183.638
171.252
158.711
146.085
133.444
120.848
108.363
96.053
83.998
72.286
61.018
50.313
40.262
30.931
22.347
14.495
7.333
0.79
-5.194
-10.665
-15.662
-20.213
-24.346
-28.086
-31.468
-34.532
-37.337
-39.965
-42.481
-44.942
-47.37
-49.765
-52.1
-54.328
-56.411
-58.317
-60.027
-61.535
-62.842
-63.957
-64.888
-65.649
-66.241
-66.652
-66.873
-66.896
-66.727
-66.385
-65.898
-65.304
-64.638
-63.935
-63.22
-62.512
-61.825
-61.164
-60.531
-59.922
-59.337
-58.78
-58.254
-57.766
-57.317
-56.906
-56.531
-56.187
-55.867
-55.565
-55.275
-54.99
-54.707
-54.424
-54.141
-53.859
-53.578
-53.299
-53.02
-52.741
-52.459
-52.173
-51.881
-51.58
-51.269
-50.946
-50.611
-50.264
-49.905
-49.534
-49.154
-48.765
-48.369
-47.967
-47.56
-47.151
-46.741
-46.332
-45.925
-45.522
-45.126
-44.738
-44.359
-43.991
-43.635
-43.293
-42.965
-42.651
-42.352
-42.067
-41.796
-41.54
-41.297
-41.068
-40.852
-40.65
-40.46
-40.283
-40.117
-39.962
-39.816
-39.678
-39.547
-39.423
-39.302
-39.185
-39.071
-38.958
-38.846
-38.733
-38.62
-38.506
-38.39
-38.272
-38.152
-38.03
-37.906
-37.781
-37.655
-37.53
-37.405
-37.282
-37.162
-37.047
-36.937
-36.833
-36.738
-36.652
-36.577
-36.513
-36.464
-36.429
-36.411
-36.41
-36.427
-36.464
-36.52
-36.598
-36.697
-36.817
-36.959
-37.123
-37.307
-37.513
-37.739
-37.985
-38.25
-38.533
-38.834
-39.15
-39.482
-39.828
-40.187
-40.559
-40.942
-41.335
-41.737
-42.149
-42.568
-42.994
-43.427
-43.866
-44.311
-44.762
-45.219
-45.681
-46.15
-46.626
-47.109
-47.6
-48.101
-48.612
-49.135
-49.671
-50.221
-50.788
-51.371
-51.974
-52.597
-53.242
-53.909
-54.6
-55.314
-56.054
-56.818
-57.605
-58.417
-59.251
-60.105
-60.979
-61.87
-62.774
-63.689
-64.611
-65.536
-66.458
-67.372
-68.273
-69.155
-70.009
-70.831
-71.611
-72.343
-73.018
-73.628
-74.164
-74.618
-74.98
-75.242
-75.394
-75.427
-75.334
-75.105
-74.733
-74.21
-73.53
-72.686
-71.673
-70.486
-69.122
-67.575
-65.845
-63.931
-61.831
-59.547
-57.081
-54.436
-51.616
-48.628
-45.478
-42.176
-38.73
-35.151
-31.451
-27.643
-23.741
-19.761
-15.717
-11.626
-7.509
-3.385
0.725
4.799
8.815
12.753
16.589
20.303
23.874
27.285
30.52
33.562
36.394
38.996
41.355
43.456
45.289
46.842
48.106
49.074
49.743
50.118
50.202
49.999
49.506
48.716
47.628
46.249
44.591
42.667
40.496
38.097
35.502
32.759
29.909
26.996
24.049
21.094
18.165
15.301
12.554
9.981
7.618
5.498
3.647
2.07
0.765
-0.286
-1.133
-1.83
-2.437
-3.026
-3.655
-4.393
-5.319
-6.491
-8.016
-10.037
-12.614
-15.742
-19.294
-22.961
-26.441
-29.491
-31.773
-32.905
-32.636
-30.864
-27.915
-24.55
-21.502
-19.362
-18.587
-19.548
-22.466
-27.21
-32.859
-37.761
-40.013
-37.717
-29.275
-13.151
12.04
47.037
91.718
145.063
205.171
269.509
334.432
394.973
446.44
485.273
511.01
525.141
527.454
515.767
483.578
424.043
335.264
219.568
86.958
-48.921
-175.394
-279.917
-356.021
-401.932
-418.702
-412.543
-388.974
-354.306
-316.597
-280.512
-250.391
-227.066
-206.39
-185.906
-163.758
-140.763
-121.165
-107.111
-99.275
-96.834
-97.424
-99.544
-102.111
-104.162
-105.123
-104.673
-102.848
-99.946
-96.234
-92.014
-87.679
-83.71
-80.711
-78.933
-78.259
-78.461
-79.233
-80.353
-81.668
-82.934
-83.816
-84.082
-83.652
-82.54
-80.852
-78.665
-76.025
-73.014
-69.759
-66.421
-63.135
-59.993
-57.054
-54.345
-51.897
-49.747
-47.925
-46.451
-45.333
-44.562
-44.127
-44.023
-44.236
-44.741
-45.495
-46.435
-47.504
-48.659
-49.866
-51.096
-52.327
-53.529
-54.683
-55.777
-56.796
-57.726
-58.552
-59.253
-59.811
-60.212
-60.447
-60.509
-60.394
-60.092
-59.596
-58.9
-57.999
-56.888
-55.561
-54.01
-52.232
-50.224
-47.986
-45.521
-42.832
-39.924
-36.803
-33.476
-29.952
-26.24
-22.348
-18.286
-14.064
-9.695
-5.19
-0.561
4.177
9.012
13.929
18.913
23.951
29.027
34.127
39.236
44.341
49.428
54.481
59.489
64.439
69.317
74.111
78.809
83.398
87.869
92.21
96.412
100.463
104.356
108.081
111.63
114.996
118.171
121.149
123.921
126.483
128.828
130.951
132.849
134.518
135.954
137.155
138.119
138.845
139.333
139.583
139.595
139.37
138.911
138.219
137.298
136.151
134.782
133.197
131.399
129.396
127.194
124.798
122.218
119.46
116.534
113.448
110.212
106.836
103.332
99.71
95.982
92.16
88.257
84.285
80.255
76.182
72.077
67.952
63.821
59.695
55.586
51.507
47.469
43.484
39.562
35.715
31.952
28.285
24.721
21.272
17.944
14.745
11.684
8.768
6.001
3.39
0.94
-1.345
-3.462
-5.409
-7.185
-8.789
-10.221
-11.483
-12.576
-13.503
-14.268
-14.874
-15.326
-15.628
-15.787
-15.809
-15.7
-15.469
-15.123
-14.672
-14.127
-13.498
-12.796
-12.033
-11.219
-10.369
-9.492
-8.601
-7.705
-6.816
-5.943
-5.1
-4.297
-3.546
-2.857
-2.242
-1.711
-1.275
-0.944
-0.725
-0.623
-0.644
-0.792
-1.073
-1.501
-2.081
-2.815
-3.701
-4.734
-5.905
-7.201
-8.598
-10.059
-11.542
-13.007
-14.418
-15.746
-16.96
-18.022
-18.894
-19.528
-19.889
-19.96
-19.725
-19.181
-18.341
-17.223
-15.877
-14.405
-12.917
-11.526
-10.338
-9.431
-8.873
-8.763
-9.207
-10.303
-12.119
-14.673
-17.951
-21.963
-26.741
-32.22
-38.218
-44.417
-50.408
-55.862
-60.5
-63.938
-65.711
-65.521
-63.262
-59.059
-53.246
-46.064
-37.834
-29.17
-20.738
-12.053
-1.608
11.924
29.246
48.308
65.727
81.115
97.107
119.66
155.679
207.204
272.264
345.765
419.375
485.905
536.705
562.477
559.289
525.482
466.479
393.519
313.833
235.161
160.993
90.203
25.235
-34.219
-88.207
-135.548
-178.1
-215.269
-246.753
-273.463
-295.456
-314.897
-333.544
-351.523
-368.951
-385.14
-399.081
-410.434
-418.686
-422.941
-422.849
-418.396
-409.741
-397.499
-382.33
-364.746
-345.42
-325.113
-304.404
-283.794
-263.641
-244.081
-225.278
-207.397
-190.56
-174.914
-160.568
-147.577
-136.004
-125.886
-117.201
-109.897
-103.859
-98.918
-94.909
-91.663
-89.048
-86.99
-85.401
-84.19
-83.26
-82.488
-81.764
-81.005
-80.106
-78.955
-77.482
-75.643
-73.441
-70.93
-68.162
-65.186
-62.043
-58.758
-55.359
-51.887
-48.377
-44.867
-41.406
-38.036
-34.821
-31.846
-29.165
-26.809
-24.784
-23.067
-21.633
-20.458
-19.51
-18.747
-18.133
-17.626
-17.194
-16.808
-16.433
-16.026
-15.54
-14.913
-14.102
-13.07
-11.793
-10.253
-8.437
-6.332
-3.933
-1.24
1.748
5.036
8.631
12.543
16.779
21.345
26.24
31.459
36.996
42.85
49.019
55.508
62.313
69.425
76.832
84.521
92.474
100.671
109.078
117.649
126.34
135.105
143.913
152.749
161.593
170.422
179.215
187.946
196.607
205.209
213.756
222.245
230.676
239.045
247.378
255.725
264.121
272.588
281.122
289.68
298.224
306.719
315.109
323.329
331.286
338.847
345.908
352.39
358.209
363.291
367.531
370.786
372.948
373.94
373.713
372.264
369.591
365.689
360.598
354.388
347.162
339.069
330.225
320.714
310.627
300.05
289.094
277.906
266.597
255.25
243.939
232.715
221.629
210.742
200.075
189.619
179.347
169.206
159.17
149.24
139.416
129.699
120.087
110.558
101.114
91.776
82.562
73.49
64.573
55.82
47.255
38.918
30.853
23.108
15.718
8.701
2.073
-4.152
-9.966
-15.363
-20.345
-24.928
-29.122
-32.937
-36.381
-39.463
-42.196
-44.602
-46.7
-48.51
-50.055
-51.35
-52.416
-53.271
-53.932
-54.415
-54.733
-54.9
-54.928
-54.834
-54.632
-54.337
-53.964
-53.527
-53.039
-52.514
-51.964
-51.4
-50.83
-50.264
-49.709
-49.171
-48.658
-48.172
-47.72
-47.305
-46.928
-46.593
-46.3
-46.05
-45.844
-45.68
-45.558
-45.477
-45.435
-45.431
-45.463
-45.53
-45.629
-45.759
-45.917
-46.1
-46.305
-46.53
-46.773
-47.029
-47.296
-47.571
-47.852
-48.135
-48.419
-48.702
-48.981
-49.254
-49.521
-49.78
-50.029
-50.267
-50.494
-50.709
-50.912
-51.101
-51.276
-51.438
-51.586
-51.72
-51.839
-51.944
-52.035
-52.111
-52.174
-52.221
-52.255
-52.275
-52.281
-52.275
-52.255
-52.223
-52.178
-52.123
-52.056
-51.979
-51.891
-51.795
-51.689
-51.575
-51.452
-51.322
-51.186
-51.042
-50.892
-50.736
-50.575
-50.409
-50.239
-50.065
-49.888
-49.708
-49.527
-49.344
-49.161
-48.979
-48.798
-48.619
-48.443
-48.271
-48.103
-47.94
-47.782
-47.631
-47.487
-47.349
-47.219
-47.097
-46.982
-46.875
-46.775
-46.684
-46.6
-46.523
-46.454
-46.392
-46.339
-46.292
-46.252
-46.219
-46.193
-46.172
-46.156
-46.144
-46.136
-46.13
-46.126
-46.123
-46.119
-46.114
-46.107
-46.095
-46.078
-46.055
-46.025
-45.987
-45.939
-45.882
-45.815
-45.738
-45.652
-45.557
-45.453
-45.342
-45.223
-45.098
-44.968
-44.832
-44.692
-44.548
-44.4
-44.252
-44.104
-43.957
-43.814
-43.676
-43.545
-43.425
-43.315
-43.22
-43.139
-43.077
-43.036
-43.018
-43.026
-43.062
-43.129
-43.229
-43.365
-43.535
-43.742
-43.985
-44.262
-44.572
-44.913
-45.282
-45.677
-46.093
-46.53
-46.986
-47.458
-47.945
-48.444
-48.953
-49.468
-49.985
-50.497
-50.996
-51.472
-51.918
-52.326
-52.689
-53.001
-53.254
-53.441
-53.56
-53.606
-53.571
-53.446
-53.215
-52.866
-52.397
-51.811
-51.117
-50.333
-49.472
-48.549
-47.589
-46.607
-45.61
-44.597
-43.547
-42.439
-41.266
-40.033
-38.76
-37.465
-36.146
-34.8
-33.418
-31.976
-30.452
-28.818
-27.021
-25.031
-22.854
-20.515
-18.084
-15.648
-13.263
-10.972
-8.805
-6.781
-4.933
-3.299
-1.904
-0.795
-0.03
0.323
0.162
-0.585
-1.931
-3.864
-6.313
-9.17
-12.352
-15.774
-19.355
-23.036
-26.76
-30.47
-34.125
-37.672
-41.032
-44.117
-46.818
-49.046
-50.769
-51.983
-52.732
-53.101
-53.176
-53.065
-52.895
-52.776
-52.807
-53.084
-53.664
-54.626
-56.114
-58.201
-60.91
-64.187
-67.817
-71.586
-75.332
-78.779
-81.563
-83.45
-84.275
-84.128
-83.51
-82.807
-82.285
-82.316
-83.183
-85.029
-87.875
-91.183
-93.763
-94.505
-92.262
-85.736
-73.782
-55.202
-29.094
4.773
45.992
93.751
146.766
202.358
256.628
305.614
346.129
377.604
401.132
415.732
417.94
401.094
358.032
286.619
188.963
72.485
-51.574
-172.208
-277.168
-357.277
-409.424
-435.568
-443.705
-441.958
-434.235
-420.939
-399.763
-369.803
-333.213
-293.683
-255.131
-220.092
-189.955
-165.531
-146.921
-133.885
-125.72
-121.324
-119.881
-120.466
-121.804
-122.723
-122.178
-119.662
-115.348
-109.591
-102.692
-95.078
-87.333
-80.146
-74.276
-70.083
-67.493
-66.306
-66.258
-67.1
-68.581
-70.328
-71.898
-72.994
-73.495
-73.389
-72.734
-71.559
-69.858
-67.665
-65.055
-62.116
-58.928
-55.545
-52.003
-48.342
-44.634
-40.98
-37.468
-34.169
-31.123
-28.345
-25.849
-23.654
-21.762
-20.166
-18.844
-17.764
-16.897
-16.226
-15.728
-15.375
-15.13
-14.946
-14.783
-14.615
-14.419
-14.183
-13.893
-13.534
-13.1
-12.591
-12.007
-11.347
-10.608
-9.781
-8.86
-7.845
-6.735
-5.529
-4.228
-2.827
-1.324
0.284
2
3.825
5.765
7.825
10.008
12.316
14.749
17.307
19.989
22.793
25.717
28.758
31.911
35.174
38.543
42.015
45.584
49.246
52.995
56.824
60.727
64.695
68.721
72.795
76.908
81.05
85.211
89.378
93.542
97.69
101.809
105.885
109.906
113.858
117.727
121.498
125.158
128.692
132.087
135.33
138.408
141.307
144.015
146.521
148.813
150.881
152.715
154.305
155.642
156.72
157.531
158.07
158.333
158.317
158.02
157.441
156.581
155.443
154.028
152.341
150.389
148.177
145.715
143.01
140.074
136.919
133.556
129.998
126.261
122.358
118.304
114.117
109.81
105.402
100.909
96.347
91.734
87.087
82.421
77.755
73.105
68.486
63.914
59.405
54.972
50.631
46.394
42.274
38.283
34.431
30.729
27.185
23.807
20.602
17.575
14.733
12.077
9.611
7.336
5.254
3.364
1.664
0.153
-1.174
-2.319
-3.288
-4.087
-4.722
-5.2
-5.528
-5.713
-5.766
-5.695
-5.51
-5.223
-4.844
-4.386
-3.861
-3.284
-2.669
-2.027
-1.373
-0.719
-0.078
0.539
1.118
1.652
2.131
2.543
2.879
3.128
3.281
3.334
3.277
3.107
2.818
2.406
1.872
1.22
0.453
-0.426
-1.414
-2.513
-3.715
-5.007
-6.37
-7.787
-9.232
-10.676
-12.082
-13.399
-14.578
-15.574
-16.346
-16.863
-17.088
-16.981
-16.498
-15.593
-14.226
-12.372
-10.008
-7.105
-3.657
0.332
4.835
9.795
15.15
20.845
26.828
33.057
39.503
46.137
52.924
59.82
66.776
73.75
80.712
87.642
94.523
101.329
108.113
115.043
122.378
130.479
139.662
150.124
162.06
175.73
191.257
208.549
227.267
246.727
266.308
285.739
304.765
323.03
340.377
356.952
373.369
390.933
410.947
434.139
461.297
493.411
531.301
575.64
625.485
677.827
729.868
779.312
826.401
874.157
922.375
967.729
1001.854
1011.401
989.246
935.028
856.011
767.546
680.529
600.211
528.097
460.147
394.989
335.71
284.294
244.238
217.491
199.627
186.96
174.973
158.395
138.695
117.717
97.038
79.495
63.349
47.013
30.566
13.428
-3.289
-18.83
-33.601
-47.422
-60.089
-71.648
-82.007
-91.201
-99.305
-106.044
-111.194
-114.94
-117.75
-120.007
-121.926
-123.576
-124.979
-126.352
-127.924
-129.722
-131.564
-133.239
-134.649
-135.832
-136.931
-138.043
-139.154
-140.207
-141.261
-142.494
-144.038
-145.945
-148.043
-149.927
-151.377
-152.473
-153.28
-153.689
-153.751
-153.665
-153.793
-155.205
-158.085
-160.937
-163.585
-166.74
-171.918
-183.012
-199.291
-214.882
-224.205
-220.634
-203.816
-181.1
-158.599
-142.207
-134.114
-131.275
-132.25
-135.954
-141.525
-149.618
-159.666
-170.643
-181.95
-192.474
-201.195
-207.713
-211.959
-214.443
-216.09
-217.465
-218.796
-220.265
-222.053
-224.324
-227.178
-230.469
-233.829
-237.018
-239.958
-242.644
-245.126
-247.407
-249.432
-251.188
-252.708
-254.012
-255.1
-255.945
-256.491
-256.697
-256.547
-256.034
-255.162
-253.93
-252.33
-250.355
-248.004
-245.281
-242.194
-238.757
-234.983
-230.883
-226.473
-221.771
-216.797
-211.575
-206.124
-200.461
-194.603
-188.569
-182.38
-176.059
-169.63
-163.117
-156.543
-149.931
-143.305
-136.69
-130.109
-123.585
-117.141
-110.797
-104.573
-98.491
-92.568
-86.824
-81.274
-75.932
-70.814
-65.93
-61.293
-56.91
-52.79
-48.938
-45.359
-42.057
-39.032
-36.284
-33.813
-31.615
-29.686
-28.02
-26.611
-25.451
-24.531
-23.839
-23.366
-23.099
-23.025
-23.13
-23.401
-23.824
-24.383
-25.066
-25.856
-26.74
-27.704
-28.733
-29.814
-30.933
-32.078
-33.235
-34.395
-35.546
-36.678
-37.782
-38.85
-39.874
-40.849
-41.768
-42.627
-43.422
-44.15
-44.808
-45.395
-45.91
-46.355
-46.73
-47.038
-47.28
-47.46
-47.581
-47.647
-47.663
-47.634
-47.563
-47.456
-47.318
-47.154
-46.97
-46.771
-46.561
-46.346
-46.129
-45.916
-45.709
-45.513
-45.331
-45.165
-45.017
-44.891
-44.787
-44.707
-44.653
-44.625
-44.624
-44.649
-44.7
-44.776
-44.877
-45
-45.145
-45.309
-45.49
-45.687
-45.897
-46.118
-46.348
-46.584
-46.825
-47.067
-47.309
-47.55
-47.786
-48.018
-48.244
-48.464
-48.676
-48.88
-49.076
-49.265
-49.446
-49.62
-49.787
-49.947
-50.101
-50.249
-50.392
-50.532
-50.668
-50.801
-50.934
-51.066
-51.2
-51.335
-51.473
-51.616
-51.763
-51.917
-52.079
-52.249
-52.428
-52.617
-52.817
-53.027
-53.249
-53.481
-53.723
-53.974
-54.234
-54.502
-54.776
-55.056
-55.34
-55.627
-55.917
-56.208
-56.5
-56.792
-57.082
-57.372
-57.659
-57.944
-58.227
-58.507
-58.784
-59.058
-59.329
-59.595
-59.858
-60.115
-60.368
-60.615
-60.855
-61.089
-61.316
-61.534
-61.745
-61.948
-62.142
-62.328
-62.505
-62.674
-62.835
-62.986
-63.129
-63.262
-63.384
-63.497
-63.597
-63.685
-63.758
-63.817
-63.858
-63.88
-63.882
-63.862
-63.817
-63.747
-63.65
-63.525
-63.37
-63.185
-62.97
-62.724
-62.449
-62.143
-61.808
-61.445
-61.055
-60.638
-60.198
-59.734
-59.249
-58.746
-58.225
-57.689
-57.142
-56.584
-56.02
-55.451
-54.882
-54.315
-53.752
-53.199
-52.657
-52.131
-51.622
-51.136
-50.674
-50.238
-49.831
-49.454
-49.108
-48.793
-48.51
-48.256
-48.031
-47.832
-47.657
-47.502
-47.363
-47.235
-47.115
-46.996
-46.873
-46.739
-46.587
-46.411
-46.203
-45.957
-45.665
-45.32
-44.915
-44.442
-43.896
-43.268
-42.554
-41.746
-40.839
-39.828
-38.707
-37.474
-36.125
-34.659
-33.074
-31.37
-29.55
-27.616
-25.572
-23.422
-21.172
-18.829
-16.403
-13.902
-11.337
-8.718
-6.06
-3.376
-0.683
2.001
4.661
7.279
9.838
12.321
14.709
16.99
19.151
21.179
23.06
24.781
26.329
27.691
28.859
29.824
30.576
31.11
31.423
31.515
31.391
31.055
30.509
29.749
28.769
27.567
26.15
24.528
22.712
20.719
18.573
16.305
13.962
11.589
9.22
6.891
4.625
2.454
0.421
-1.434
-3.062
-4.421
-5.485
-6.249
-6.704
-6.867
-6.767
-6.437
-5.959
-5.423
-4.903
-4.494
-4.268
-4.28
-4.632
-5.452
-6.807
-8.712
-11.058
-13.574
-15.992
-18.07
-19.495
-19.925
-19.096
-16.905
-13.618
-9.869
-6.361
-3.718
-2.458
-3.032
-5.665
-10.173
-15.72
-20.813
-23.581
-22.065
-14.543
0.586
24.722
58.715
102.636
155.763
215.401
277.178
337.247
391.333
437.903
478.928
513.022
537.682
546.861
528.435
476.984
391.661
276.016
145.371
13.238
-107.325
-201.446
-265.954
-301.253
-311.572
-308.73
-298.23
-282.234
-262.197
-235.121
-201.497
-165.272
-129.608
-98.577
-75.15
-59.592
-51.313
-49.335
-52.116
-58.002
-65.737
-73.791
-80.249
-84.094
-84.978
-82.833
-78.225
-71.903
-64.363
-56.372
-48.971
-42.706
-37.811
-34.345
-31.988
-30.411
-29.395
-28.607
-27.672
-26.401
-24.708
-22.58
-20.131
-17.443
-14.565
-11.576
-8.548
-5.524
-2.545
0.359
3.17
5.846
8.333
10.599
12.618
14.381
15.891
17.15
18.169
18.964
19.56
19.975
20.222
20.314
20.262
20.084
19.8
19.436
19.014
18.555
18.082
17.612
17.163
16.747
16.377
16.06
15.807
15.626
15.529
15.524
15.624
15.835
16.167
16.625
17.216
17.944
18.811
19.818
20.967
22.257
23.688
25.26
26.971
28.819
30.802
32.916
35.159
37.525
40.011
42.612
45.323
48.139
51.053
54.062
57.158
60.337
63.592
66.919
70.311
73.764
77.27
80.826
84.425
88.061
91.729
95.422
99.135
102.862
106.596
110.331
114.061
117.779
121.477
125.148
128.786
132.38
135.924
139.407
142.821
146.155
149.401
152.548
155.586
158.504
161.292
163.938
166.433
168.766
170.925
172.901
174.684
176.263
177.629
178.772
179.685
180.358
180.786
180.962
180.881
180.538
179.931
179.057
177.915
176.506
174.831
172.894
170.698
168.25
165.555
162.623
159.462
156.085
152.501
148.725
144.77
140.651
136.382
131.982
127.465
122.85
118.155
113.396
108.594
103.766
98.932
94.109
89.317
84.572
79.892
75.294
70.793
66.404
62.142
58.02
54.049
50.24
46.605
43.151
39.885
36.815
33.945
31.277
28.814
26.557
24.505
22.655
21.007
19.555
18.294
17.221
16.327
15.605
15.048
14.647
14.391
14.27
14.273
14.391
14.611
14.924
15.317
15.781
16.305
16.877
17.488
18.127
18.783
19.447
20.107
20.754
21.376
21.965
22.512
23.009
23.448
23.821
24.124
24.35
24.496
24.557
24.53
24.409
24.19
23.87
23.445
22.915
22.278
21.532
20.677
19.711
18.637
17.457
16.173
14.784
13.283
11.671
9.954
8.142
6.251
4.3
2.305
0.294
-1.696
-3.629
-5.467
-7.178
-8.746
-10.146
-11.355
-12.341
-13.063
-13.493
-13.623
-13.453
-12.998
-12.282
-11.325
-10.183
-8.947
-7.712
-6.581
-5.633
-4.91
-4.461
-4.334
-4.579
-5.252
-6.377
-7.949
-9.965
-12.403
-15.249
-18.491
-22.022
-25.66
-29.151
-32.126
-34.2
-34.98
-34.034
-31.104
-26.053
-18.763
-9.559
0.893
11.811
21.867
30.693
39.526
48.995
59.54
69.568
74.73
74.39
71.818
74.151
91.622
128.775
184.11
252.587
326.407
399.093
465.166
517.038
546.211
547.391
519.144
465.021
392.974
309.997
221.955
136.303
60.451
-0.493
-43.81
-73.232
-97.921
-123.66
-152.867
-184.403
-212.981
-236.565
-256.549
-274.493
-292.534
-311.297
-329.644
-346.633
-361.735
-374.419
-384.114
-390.529
-393.568
-393.347
-390.334
-384.991
-377.609
-368.549
-358.253
-347.053
-335.243
-323.089
-310.727
-298.255
-285.76
-273.252
-260.709
-248.157
-235.614
-223.096
-210.651
-198.318
-186.158
-174.305
-162.887
-151.979
-141.622
-131.799
-122.464
-113.631
-105.333
-97.601
-90.475
-83.972
-78.095
-72.867
-68.303
-64.368
-60.984
-58.007
-55.269
-52.666
-50.127
-47.617
-45.129
-42.633
-40.097
-37.515
-34.886
-32.209
-29.488
-26.708
-23.851
-20.94
-18.025
-15.19
-12.538
-10.131
-8.002
-6.172
-4.639
-3.4
-2.446
-1.742
-1.241
-0.903
-0.694
-0.585
-0.555
-0.563
-0.56
-0.486
-0.274
0.128
0.762
1.664
2.867
4.394
6.263
8.482
11.049
13.966
17.238
20.871
24.871
29.241
33.978
39.078
44.534
50.339
56.484
62.957
69.746
76.836
84.214
91.863
99.769
107.914
116.274
124.827
133.547
142.406
151.375
160.425
169.523
178.637
187.735
196.784
205.751
214.604
223.31
231.836
240.151
248.222
256.018
263.508
270.663
277.454
283.852
289.831
295.365
300.431
305.007
309.071
312.607
315.599
318.031
319.894
321.177
321.874
321.982
321.498
320.425
318.765
316.526
313.716
310.347
306.434
301.991
297.039
291.595
285.683
279.326
272.548
265.378
257.842
249.97
241.792
233.339
224.642
215.734
206.648
197.415
188.07
178.645
169.172
159.684
150.211
140.784
131.432
122.184
113.066
104.104
95.322
86.741
78.383
70.264
62.402
54.811
47.503
40.49
33.779
27.378
21.292
15.523
10.074
4.945
0.133
-4.364
-8.551
-12.434
-16.02
-19.318
-22.336
-25.086
-27.58
-29.828
-31.846
-33.645
-35.241
-36.649
-37.882
-38.957
-39.887
-40.688
-41.375
-41.961
-42.461
-42.887
-43.252
-43.567
-43.845
-44.095
-44.327
-44.549
-44.771
-44.999
-45.239
-45.499
-45.782
-46.094
-46.438
-46.818
-47.235
-47.692
-48.189
-48.727
-49.306
-49.924
-50.581
-51.275
-52.001
-52.759
-53.544
-54.353
-55.182
-56.027
-56.884
-57.749
-58.618
-59.486
-60.35
-61.207
-62.053
-62.884
-63.699
-64.494
-65.268
-66.018
-66.743
-67.441
-68.111
-68.752
-69.363
-69.943
-70.494
-71.013
-71.503
-71.962
-72.394
-72.798
-73.177
-73.532
-73.866
-74.181
-74.479
-74.763
-75.037
-75.303
-75.563
-75.822
-76.081
-76.343
-76.611
-76.888
-77.175
-77.474
-77.787
-78.115
-78.459
-78.82
-79.199
-79.595
-80.009
-80.441
-80.891
-81.357
-81.84
-82.339
-82.851
-83.376
-83.912
-84.455
-85.004
-85.556
-86.108
-86.656
-87.197
-87.728
-88.244
-88.742
-89.218
-89.67
-90.092
-90.482
-90.837
-91.152
-91.426
-91.655
-91.838
-91.972
-92.056
-92.088
-92.068
-91.995
-91.869
-91.689
-91.455
-91.168
-90.83
-90.44
-90.002
-89.516
-88.985
-88.414
-87.806
-87.165
-86.496
-85.805
-85.096
-84.375
-83.648
-82.921
-82.2
-81.49
-80.797
-80.128
-79.489
-78.885
-78.323
-77.807
-77.344
-76.939
-76.594
-76.315
-76.105
-75.966
-75.902
-75.915
-76.007
-76.179
-76.434
-76.77
-77.189
-77.688
-78.265
-78.917
-79.639
-80.426
-81.271
-82.166
-83.104
-84.076
-85.073
-86.087
-87.11
-88.134
-89.149
-90.145
-91.115
-92.048
-92.932
-93.755
-94.503
-95.162
-95.722
-96.172
-96.502
-96.703
-96.766
-96.683
-96.452
-96.065
-95.517
-94.797
-93.889
-92.786
-91.491
-90.012
-88.366
-86.568
-84.631
-82.573
-80.421
-78.193
-75.902
-73.546
-71.103
-68.568
-65.949
-63.265
-60.552
-57.831
-55.104
-52.372
-49.632
-46.877
-44.111
-41.316
-38.446
-35.49
-32.466
-29.422
-26.452
-23.623
-20.973
-18.533
-16.313
-14.339
-12.657
-11.298
-10.282
-9.64
-9.398
-9.619
-10.404
-11.797
-13.797
-16.36
-19.382
-22.783
-26.511
-30.503
-34.692
-39.008
-43.372
-47.731
-52.056
-56.295
-60.384
-64.227
-67.694
-70.706
-73.231
-75.263
-76.85
-78.047
-78.9
-79.496
-79.936
-80.294
-80.649
-81.067
-81.591
-82.308
-83.302
-84.629
-86.393
-88.702
-91.592
-95.044
-98.883
-102.726
-106.225
-109.108
-111.028
-111.627
-110.647
-107.938
-103.755
-98.85
-93.883
-89.188
-85.255
-82.679
-81.711
-82.543
-84
-83.075
-78.244
-69.189
-56.569
-43.082
-27.08
-3.02
33.916
88.712
158.601
233.714
305.289
365.525
414.109
455.677
490.917
516.417
520.569
489.837
418.016
305.796
165.489
14.925
-131.343
-259.276
-361.518
-436.478
-482.3
-501.763
-497.934
-471.737
-426.892
-367.547
-300.446
-237.173
-187.529
-156.941
-144.962
-143.91
-145.894
-146.867
-146.54
-148.234
-154.027
-162.745
-171.592
-177.376
-178.656
-175.802
-169.822
-161.988
-153.303
-144.685
-137.17
-131.333
-127.304
-124.98
-123.997
-123.967
-124.546
-125.312
-125.831
-125.877
-125.379
-124.338
-122.818
-120.827
-118.371
-115.511
-112.352
-109.008
-105.566
-102.09
-98.628
-95.236
-91.97
-88.861
-85.926
-83.173
-80.608
-78.237
-76.069
-74.115
-72.405
-71.009
-69.931
-69.055
-68.169
-67.068
-65.653
-63.985
-62.188
-60.268
-58.249
-56.362
-55.11
-55.003
-56.367
-59.2
-62.91
-66.945
-71.1
-74.811
-77.836
-80.708
-82.509
-82.022
-78.008
-67.252
-50.465
-32.031
-16.526
-10.478
-14.931
-24.531
-34.283
-39.009
-37.36
-33.526
-30.403
-28.574
-27.733
-24.5
-15.893
-2.991
12.154
25.129
30.051
25.033
12.578
-0.761
-7.115
-1.237
15.54
36.071
53.814
63.756
65.702
64.545
63.533
64.688
68.493
72.987
77.309
81.514
85.514
89.627
93.922
98.101
102.066
105.842
109.397
112.724
115.834
118.727
121.418
123.944
126.309
128.488
130.468
132.244
133.806
135.151
136.272
137.162
137.817
138.239
138.425
138.376
138.092
137.573
136.823
135.845
134.643
133.22
131.584
129.74
127.697
125.462
123.047
120.46
117.713
114.818
111.788
108.637
105.379
102.026
98.594
95.096
91.547
87.962
84.354
80.738
77.128
73.54
69.987
66.482
63.037
59.665
56.375
53.177
50.078
47.085
44.201
41.431
38.779
36.249
33.841
31.556
29.395
27.358
25.445
23.652
21.974
20.404
18.932
17.552
16.252
15.025
13.858
12.739
11.66
10.612
9.59
8.583
7.578
6.555
5.499
4.4
3.254
2.056
0.812
-0.47
-1.768
-3.048
-4.277
-5.423
-6.46
-7.371
-8.132
-8.719
-9.113
-9.28
-9.176
-8.776
-8.047
-6.963
-5.555
-3.849
-1.859
0.323
2.585
4.862
7.041
9.062
11.034
13.002
14.949
17.044
19.507
22.356
25.629
29.453
33.507
38.308
45.435
54.566
64.594
73.546
77.003
75.244
73.149
75.399
88.752
114.175
145.205
176.711
203.494
224.25
243.347
263.509
286.187
311.569
337.856
364.24
390.739
417.285
443.98
470.7
497.224
523.555
549.65
575.426
600.836
625.822
650.384
674.502
698.034
720.711
742.278
762.528
781.201
798.075
813.106
826.374
838.168
848.932
858.779
867.548
875.139
881.274
885.428
886.919
884.558
876.881
863.03
842.575
815.133
780.777
739.786
692.515
640.189
584.568
527.082
469.129
412.186
357.219
305.185
257.214
213.662
174.381
139.236
107.684
78.932
52.595
28.232
5.156
-16.887
-37.947
-58.069
-76.883
-93.839
-108.705
-121.304
-131.445
-139.22
-144.768
-148.261
-150.139
-150.909
-150.948
-150.604
-150.12
-149.609
-149.209
-149.019
-149.055
-149.348
-149.932
-150.836
-152.131
-153.91
-156.219
-159.068
-162.415
-166.155
-170.157
-174.321
-178.584
-182.737
-186.532
-189.98
-193.05
-195.692
-198.18
-199.758
-199.645
-198.853
-197.697
-198.087
-202.345
-208.006
-213.439
-216.233
-213.051
-207.03
-200.862
-196.39
-196.568
-199.35
-202.644
-206
-208.17
-209.918
-212.202
-214.837
-217.935
-221.417
-225.075
-229.003
-233.246
-237.713
-242.33
-247.056
-251.85
-256.668
-261.473
-266.218
-270.85
-275.354
-279.72
-283.921
-287.926
-291.705
-295.224
-298.456
-301.382
-303.981
-306.236
-308.13
-309.651
-310.781
-311.508
-311.811
-311.668
-311.061
-309.978
-308.41
-306.358
-303.831
-300.845
-297.432
-293.626
-289.453
-284.932
-280.076
-274.882
-269.353
-263.49
-257.29
-250.767
-243.933
-236.793
-229.366
-221.665
-213.686
-205.418
-196.825
-187.862
-178.514
-168.79
-158.711
-148.338
-137.734
-126.976
-116.171
-105.402
-94.742
-84.267
-74.027
-64.073
-54.483
-45.337
-36.742
-28.821
-21.656
-15.303
-9.804
-5.147
-1.308
1.766
4.175
6
7.306
8.15
8.567
8.587
8.269
7.67
6.862
5.94
4.976
4.024
3.139
2.339
1.623
0.973
0.33
-0.355
-1.105
-1.937
-2.85
-3.833
-4.887
-6.011
-7.197
-8.459
-9.8
-11.221
-12.731
-14.321
-15.971
-17.655
-19.33
-20.954
-22.501
-23.952
-25.293
-26.52
-27.63
-28.623
-29.507
-30.289
-30.97
-31.554
-32.04
-32.433
-32.741
-32.973
-33.143
-33.265
-33.351
-33.412
-33.459
-33.499
-33.54
-33.587
-33.642
-33.706
-33.783
-33.876
-33.99
-34.127
-34.292
-34.487
-34.714
-34.976
-35.274
-35.607
-35.973
-36.372
-36.799
-37.252
-37.728
-38.221
-38.727
-39.242
-39.759
-40.274
-40.782
-41.275
-41.748
-42.195
-42.611
-42.989
-43.326
-43.616
-43.857
-44.045
-44.178
-44.256
-44.278
-44.243
-44.152
-44.006
-43.806
-43.554
-43.251
-42.901
-42.505
-42.069
-41.595
-41.089
-40.555
-39.999
-39.425
-38.841
-38.25
-37.66
-37.076
-36.503
-35.948
-35.417
-34.914
-34.446
-34.017
-33.632
-33.295
-33.009
-32.776
-32.598
-32.476
-32.41
-32.398
-32.439
-32.532
-32.674
-32.862
-33.092
-33.36
-33.662
-33.994
-34.351
-34.726
-35.116
-35.513
-35.914
-36.311
-36.701
-37.076
-37.433
-37.765
-38.068
-38.336
-38.565
-38.751
-38.888
-38.974
-39.004
-38.977
-38.89
-38.743
-38.534
-38.264
-37.935
-37.547
-37.103
-36.606
-36.059
-35.465
-34.83
-34.156
-33.45
-32.716
-31.958
-31.183
-30.395
-29.599
-28.8
-28.003
-27.213
-26.433
-25.668
-24.922
-24.199
-23.502
-22.835
-22.2
-21.601
-21.04
-20.519
-20.039
-19.601
-19.206
-18.853
-18.541
-18.269
-18.036
-17.839
-17.675
-17.543
-17.438
-17.358
-17.299
-17.258
-17.23
-17.212
-17.202
-17.195
-17.188
-17.18
-17.167
-17.148
-17.121
-17.084
-17.036
-16.976
-16.903
-16.816
-16.715
-16.6
-16.471
-16.329
-16.174
-16.007
-15.83
-15.645
-15.452
-15.256
-15.056
-14.857
-14.661
-14.469
-14.286
-14.112
-13.952
-13.806
-13.676
-13.563
-13.47
-13.395
-13.339
-13.3
-13.278
-13.271
-13.275
-13.29
-13.31
-13.332
-13.351
-13.365
-13.366
-13.351
-13.312
-13.244
-13.141
-12.996
-12.804
-12.557
-12.249
-11.874
-11.425
-10.896
-10.282
-9.576
-8.773
-7.867
-6.854
-5.731
-4.496
-3.146
-1.681
-0.101
1.594
3.401
5.315
7.333
9.448
11.654
13.943
16.304
18.726
21.198
23.707
26.238
28.777
31.306
33.81
36.27
38.666
40.978
43.188
45.278
47.232
49.035
50.668
52.119
53.374
54.421
55.246
55.839
56.185
56.274
56.102
55.67
54.985
54.05
52.871
51.452
49.793
47.894
45.764
43.423
40.895
38.209
35.393
32.471
29.478
26.461
23.445
20.392
17.218
13.878
10.363
6.748
3.178
-0.311
-3.673
-6.632
-8.94
-10.583
-11.635
-12.46
-13.062
-12.395
-9.642
-5.538
-3.456
-7.983
-22.31
-44.637
-65.887
-76.994
-71.876
-50.84
-25.281
-5.242
2.969
-3.107
-15.376
-27.191
-35.271
-36.849
-35.693
-34.847
-34.766
-36.62
-39.199
-41.436
-43.752
-45.891
-47.354
-47.471
-44.875
-38.137
-25.966
-6.813
20.754
57.74
103.647
156.37
213.426
271.73
329.618
387.083
442.417
492.462
530.984
548.818
538.236
493.993
415.521
305.717
171.071
23.265
-124.686
-255.426
-353.736
-415.171
-440.417
-440.005
-427.706
-408.868
-388.542
-367.071
-342.013
-316.439
-290.294
-263.949
-239.391
-215.802
-195.144
-178.812
-166.152
-157.306
-150.773
-145.166
-140.147
-134.741
-128.271
-120.715
-112.155
-102.972
-93.73
-84.751
-76.292
-68.898
-63.189
-59.476
-57.775
-57.861
-59.327
-61.833
-65.139
-68.882
-72.61
-75.986
-78.754
-80.787
-82.099
-82.696
-82.556
-81.698
-80.166
-78.019
-75.358
-72.277
-68.851
-65.183
-61.367
-57.509
-53.743
-50.175
-46.887
-43.942
-41.365
-39.168
-37.366
-35.957
-34.926
-34.249
-33.885
-33.796
-33.951
-34.311
-34.834
-35.471
-36.162
-36.859
-37.528
-38.139
-38.675
-39.117
-39.45
-39.661
-39.75
-39.712
-39.543
-39.238
-38.786
-38.181
-37.419
-36.499
-35.42
-34.182
-32.78
-31.211
-29.474
-27.566
-25.487
-23.232
-20.8
-18.189
-15.402
-12.44
-9.309
-6.014
-2.56
1.046
4.795
8.679
12.689
16.818
21.056
25.394
29.822
34.329
38.905
43.539
48.221
52.937
57.676
62.426
67.175
71.909
76.618
81.286
85.903
90.453
94.926
99.306
103.583
107.742
111.77
115.657
119.389
122.955
126.344
129.545
132.549
135.345
137.926
140.283
142.408
144.295
145.936
147.326
148.46
149.334
149.945
150.29
150.367
150.176
149.719
148.995
148.01
146.765
145.266
143.519
141.529
139.306
136.859
134.196
131.329
128.269
125.027
121.619
118.055
114.351
110.521
106.579
102.54
98.419
94.232
89.993
85.719
81.424
77.125
72.836
68.572
64.348
60.177
56.073
52.049
48.116
44.287
40.57
36.976
33.512
30.187
27.006
23.976
21.1
18.381
15.821
13.421
11.182
9.102
7.179
5.412
3.795
2.326
0.998
-0.194
-1.256
-2.196
-3.022
-3.744
-4.371
-4.913
-5.381
-5.786
-6.137
-6.445
-6.718
-6.966
-7.196
-7.413
-7.627
-7.842
-8.065
-8.303
-8.559
-8.838
-9.143
-9.475
-9.835
-10.223
-10.634
-11.065
-11.513
-11.975
-12.453
-12.944
-13.437
-13.914
-14.357
-14.738
-15.028
-15.191
-15.179
-14.943
-14.439
-13.627
-12.477
-10.957
-9.026
-6.638
-3.742
-0.294
3.721
8.304
13.453
19.149
25.36
32.038
39.087
46.414
53.947
61.629
69.421
77.285
85.152
92.943
100.591
108.041
115.283
122.338
129.224
135.989
142.716
149.521
156.592
164.132
172.294
181.203
190.975
201.725
213.619
226.841
241.519
257.756
275.608
295.093
316.253
339.07
363.439
389.197
416.065
443.748
472.045
500.672
529.232
557.328
584.437
610.107
634.122
656.131
675.625
692.334
706.061
716.648
724.265
728.792
729.741
727.008
720.651
710.477
696.349
678.059
655.011
627.117
594.816
558.195
517.427
473.064
425.775
376.619
327.28
279.245
233.604
191.684
154.559
122.866
96.957
76.608
60.869
48.589
38.834
30.566
22.954
15.482
7.738
-0.38
-8.553
-16.311
-23.388
-29.611
-34.99
-39.745
-44.042
-48.081
-52.175
-56.643
-61.695
-67.432
-73.834
-80.767
-88.117
-95.776
-103.618
-111.515
-119.319
-126.89
-134.104
-140.85
-147.053
-152.659
-157.63
-161.951
-165.633
-168.705
-171.221
-173.25
-174.851
-176.083
-177.001
-177.658
-178.116
-178.443
-178.708
-178.981
-179.318
-179.759
-180.339
-181.084
-182.008
-183.12
-184.417
-185.889
-187.533
-189.344
-191.321
-193.464
-195.768
-198.226
-200.828
-203.565
-206.426
-209.401
-212.479
-215.648
-218.899
-222.219
-225.598
-229.026
-232.489
-235.971
-239.456
-242.923
-246.353
-249.727
-253.022
-256.218
-259.292
-262.225
-264.996
-267.584
-269.97
-272.135
-274.059
-275.724
-277.112
-278.206
-278.991
-279.452
-279.575
-279.346
-278.755
-277.792
-276.449
-274.719
-272.597
-270.079
-267.164
-263.852
-260.146
-256.049
-251.567
-246.708
-241.482
-235.9
-229.975
-223.724
-217.162
-210.309
-203.184
-195.809
-188.207
-180.4
-172.414
-164.274
-156.006
-147.637
-139.193
-130.703
-122.193
-113.692
-105.225
-96.822
-88.507
-80.307
-72.246
-64.349
-56.639
-49.136
-41.863
-34.837
-28.076
-21.595
-15.409
-9.53
-3.968
1.269
6.173
10.74
14.967
18.855
22.403
25.615
28.496
31.053
33.292
35.224
36.859
38.21
39.289
40.111
40.691
41.043
41.184
41.132
40.902
40.512
39.979
39.32
38.551
37.69
36.752
35.752
34.705
33.625
32.524
31.417
30.313
29.222
28.156
27.12
26.123
25.17
24.267
23.416
22.621
21.883
21.202
20.579
20.013
19.5
19.041
18.63
18.264
17.941
17.655
17.401
17.176
16.973
16.789
16.618
16.456
16.298
16.14
15.977
15.806
15.624
15.427
15.213
14.979
14.724
14.446
14.144
13.818
13.468
13.094
12.697
12.28
11.842
11.387
10.917
10.433
9.938
9.436
8.928
8.417
7.906
7.396
6.891
6.391
5.899
5.416
4.944
4.482
4.032
3.593
3.167
2.751
2.346
1.952
1.565
1.187
0.813
0.444
0.077
-0.291
-0.662
-1.039
-1.423
-1.819
-2.229
-2.655
-3.1
-3.567
-4.059
-4.577
-5.123
-5.699
-6.307
-6.947
-7.62
-8.326
-9.065
-9.835
-10.636
-11.467
-12.325
-13.209
-14.116
-15.043
-15.988
-16.947
-17.919
-18.898
-19.883
-20.869
-21.853
-22.832
-23.802
-24.76
-25.702
-26.625
-27.525
-28.401
-29.248
-30.065
-30.849
-31.598
-32.31
-32.984
-33.619
-34.214
-34.769
-35.285
-35.762
-36.2
-36.603
-36.971
-37.307
-37.613
-37.891
-38.144
-38.375
-38.587
-38.783
-38.966
-39.139
-39.304
-39.466
-39.627
-39.789
-39.956
-40.13
-40.313
-40.508
-40.717
-40.941
-41.182
-41.442
-41.721
-42.021
-42.343
-42.685
-43.049
-43.434
-43.839
-44.263
-44.704
-45.161
-45.632
-46.116
-46.609
-47.111
-47.618
-48.128
-48.639
-49.15
-49.657
-50.159
-50.652
-51.137
-51.61
-52.07
-52.515
-52.945
-53.358
-53.753
-54.13
-54.489
-54.83
-55.151
-55.455
-55.74
-56.009
-56.261
-56.499
-56.724
-56.937
-57.141
-57.337
-57.529
-57.718
-57.905
-58.094
-58.286
-58.482
-58.684
-58.894
-59.113
-59.341
-59.579
-59.829
-60.09
-60.362
-60.644
-60.936
-61.236
-61.542
-61.853
-62.166
-62.478
-62.786
-63.087
-63.379
-63.656
-63.916
-64.154
-64.367
-64.549
-64.697
-64.806
-64.871
-64.888
-64.855
-64.767
-64.622
-64.417
-64.15
-63.822
-63.43
-62.977
-62.462
-61.887
-61.253
-60.566
-59.829
-59.048
-58.227
-57.375
-56.5
-55.612
-54.723
-53.843
-52.984
-52.159
-51.379
-50.658
-50.008
-49.44
-48.964
-48.591
-48.333
-48.204
-48.215
-48.377
-48.699
-49.191
-49.861
-50.718
-51.763
-52.994
-54.412
-56.014
-57.803
-59.787
-61.968
-64.341
-66.901
-69.636
-72.532
-75.569
-78.717
-81.934
-85.181
-88.423
-91.63
-94.779
-97.843
-100.788
-103.578
-106.171
-108.537
-110.654
-112.498
-114.062
-115.359
-116.419
-117.302
-118.084
-118.822
-119.579
-120.419
-121.403
-122.607
-124.105
-125.945
-128.196
-130.943
-134.211
-137.971
-142.077
-146.219
-150.078
-153.363
-155.719
-156.779
-156.291
-154.153
-150.597
-146.228
-141.668
-137.428
-134.013
-131.901
-131.353
-132.345
-134.224
-135.621
-134.964
-130.751
-121.377
-105.167
-80.738
-46.865
-3.879
45.765
99.45
154.243
208.735
264.231
319.872
371.692
412.006
428.548
412.614
362.229
280.942
178.199
62.285
-61.294
-185.847
-304.174
-406.061
-480.77
-523.441
-533.732
-517.051
-483.187
-441.359
-401.935
-372.412
-354.357
-345.637
-339.339
-329.585
-315.401
-298.505
-283.405
-273.168
-267.382
-264.443
-261.82
-257.515
-250.861
-241.772
-230.535
-217.626
-203.71
-189.464
-175.586
-162.915
-152.046
-143.262
-136.726
-132.356
-129.87
-129.001
-129.38
-130.529
-132.149
-134.061
-136.095
-138.165
-140.143
-141.815
-143.064
-143.843
-144.092
-143.789
-142.907
-141.402
-139.296
-136.664
-133.586
-130.156
-126.439
-122.465
-118.294
-114.004
-109.691
-105.481
-101.457
-97.664
-94.145
-90.923
-88.013
-85.431
-83.157
-81.148
-79.365
-77.771
-76.339
-75.054
-73.889
-72.806
-71.762
-70.707
-69.603
-68.425
-67.15
-65.756
-64.228
-62.55
-60.718
-58.74
-56.615
-54.341
-51.912
-49.322
-46.565
-43.641
-40.549
-37.288
-33.858
-30.257
-26.485
-22.542
-18.428
-14.145
-9.692
-5.069
-0.281
4.67
9.778
15.038
20.443
25.987
31.659
37.452
43.356
49.363
55.461
61.637
67.878
74.17
80.501
86.863
93.243
99.628
106.001
112.342
118.631
124.852
130.987
137.018
142.927
148.698
154.315
159.767
165.046
170.143
175.047
179.74
184.193
188.395
192.357
196.113
199.702
203.135
206.382
209.408
212.212
214.793
217.124
219.121
220.652
221.677
222.311
222.766
223.199
223.689
224.303
225.05
225.923
226.803
227.245
227.263
227.683
228.898
230.361
229.335
221.323
204.472
181.577
160.115
148.854
151.723
165.57
181.937
192.811
194.699
189.117
180.738
172.87
166.46
161.088
155.564
149.506
143.257
137.077
131.235
125.905
121.048
116.575
112.323
108.095
103.811
99.507
95.285
91.225
87.38
83.799
80.542
77.678
75.259
73.31
71.835
70.845
70.372
70.449
71.104
72.362
74.237
76.727
79.816
83.45
87.544
92.021
96.814
101.87
107.16
112.649
118.308
124.123
130.089
136.218
142.531
149.036
155.735
162.651
169.844
177.425
185.561
194.398
204.074
214.708
226.398
239.254
253.359
268.754
285.441
303.404
322.63
343.136
364.958
388.097
412.498
438.046
464.586
491.98
520.085
548.758
577.826
607.1
636.463
665.777
694.866
723.485
751.214
777.596
802.253
824.772
844.732
862.029
876.729
889.117
899.932
909.764
918.904
927.741
936.37
944.171
950.217
953.052
950.461
940.671
922.344
894.08
855.289
806.421
748.459
683.379
614.186
543.59
474.24
409.028
349.938
298.073
254.05
217.504
187.234
162.103
140.683
121.146
102.324
83.554
64.403
45.004
25.809
7.18
-10.276
-25.711
-38.727
-49.257
-57.376
-63.463
-67.944
-71.156
-73.58
-75.777
-78.092
-80.717
-83.743
-87.1
-90.745
-94.671
-98.808
-103.075
-107.401
-111.691
-115.876
-119.919
-123.748
-127.281
-130.427
-133.077
-135.175
-136.717
-137.716
-138.214
-138.261
-137.905
-137.218
-136.285
-135.186
-134.002
-132.806
-131.66
-130.638
-129.818
-129.277
-129.094
-129.327
-130.009
-131.164
-132.805
-134.934
-137.551
-140.645
-144.189
-148.165
-152.551
-157.329
-162.481
-167.98
-173.797
-179.898
-186.248
-192.813
-199.56
-206.452
-213.452
-220.526
-227.635
-234.745
-241.821
-248.824
-255.716
-262.455
-269.003
-275.319
-281.364
-287.1
-292.491
-297.501
-302.098
-306.251
-309.933
-313.119
-315.785
-317.909
-319.474
-320.464
-320.864
-320.665
-319.859
-318.439
-316.404
-313.755
-310.494
-306.628
-302.166
-297.12
-291.504
-285.336
-278.636
-271.425
-263.729
-255.576
-246.993
-238.014
-228.671
-219
-209.036
-198.818
-188.384
-177.773
-167.025
-156.18
-145.275
-134.352
-123.449
-112.605
-101.856
-91.239
-80.791
-70.546
-60.536
-50.793
-41.347
-32.225
-23.453
-15.054
-7.051
0.539
7.697
14.411
20.668
26.459
31.779
36.623
40.991
44.884
48.307
51.265
53.769
55.828
57.457
58.67
59.484
59.916
59.987
59.718
59.129
58.244
57.085
55.677
54.044
52.21
50.199
48.036
45.744
43.347
40.868
38.33
35.753
33.158
30.565
27.992
25.457
22.976
20.562
18.228
15.987
13.847
11.816
9.903
8.11
6.443
4.903
3.491
2.208
1.05
0.017
-0.896
-1.693
-2.38
-2.963
-3.447
-3.841
-4.151
-4.386
-4.553
-4.66
-4.716
-4.729
-4.707
-4.659
-4.592
-4.514
-4.433
-4.356
-4.29
-4.242
-4.216
-4.218
-4.253
-4.325
-4.437
-4.592
-4.793
-5.039
-5.334
-5.676
-6.067
-6.504
-6.988
-7.517
-8.089
-8.702
-9.354
-10.043
-10.765
-11.519
-12.301
-13.109
-13.941
-14.793
-15.663
-16.547
-17.443
-18.348
-19.259
-20.172
-21.085
-21.996
-22.901
-23.799
-24.685
-25.559
-26.419
-27.261
-28.085
-28.889
-29.671
-30.431
-31.167
-31.88
-32.568
-33.231
-33.869
-34.483
-35.072
-35.635
-36.173
-36.687
-37.175
-37.637
-38.074
-38.485
-38.87
-39.229
-39.563
-39.872
-40.155
-40.414
-40.648
-40.858
-41.045
-41.209
-41.352
-41.473
-41.575
-41.658
-41.723
-41.771
-41.802
-41.819
-41.821
-41.81
-41.785
-41.747
-41.696
-41.634
-41.561
-41.476
-41.382
-41.278
-41.166
-41.045
-40.918
-40.785
-40.646
-40.503
-40.357
-40.207
-40.055
-39.902
-39.748
-39.594
-39.44
-39.286
-39.133
-38.982
-38.831
-38.681
-38.532
-38.384
-38.237
-38.091
-37.947
-37.804
-37.664
-37.526
-37.392
-37.262
-37.137
-37.016
-36.902
-36.793
-36.692
-36.598
-36.512
-36.435
-36.369
-36.313
-36.269
-36.237
-36.219
-36.216
-36.228
-36.258
-36.305
-36.372
-36.459
-36.568
-36.702
-36.86
-37.045
-37.258
-37.5
-37.772
-38.074
-38.408
-38.773
-39.17
-39.599
-40.059
-40.551
-41.075
-41.629
-42.213
-42.826
-43.467
-44.134
-44.825
-45.539
-46.273
-47.024
-47.791
-48.57
-49.358
-50.152
-50.949
-51.745
-52.537
-53.319
-54.089
-54.843
-55.575
-56.283
-56.962
-57.61
-58.222
-58.796
-59.329
-59.819
-60.263
-60.659
-61.005
-61.3
-61.542
-61.73
-61.864
-61.944
-61.969
-61.942
-61.862
-61.731
-61.552
-61.326
-61.056
-60.745
-60.396
-60.012
-59.599
-59.158
-58.696
-58.217
-57.725
-57.226
-56.723
-56.221
-55.724
-55.237
-54.761
-54.3
-53.857
-53.433
-53.031
-52.652
-52.298
-51.968
-51.662
-51.38
-51.121
-50.883
-50.663
-50.459
-50.265
-50.079
-49.894
-49.708
-49.514
-49.306
-49.078
-48.824
-48.538
-48.211
-47.836
-47.407
-46.914
-46.352
-45.713
-44.99
-44.179
-43.274
-42.27
-41.164
-39.953
-38.636
-37.211
-35.678
-34.036
-32.289
-30.439
-28.49
-26.448
-24.319
-22.112
-19.839
-17.511
-15.14
-12.741
-10.326
-7.911
-5.511
-3.139
-0.809
1.466
3.673
5.795
7.814
9.715
11.483
13.104
14.565
15.853
16.955
17.865
18.581
19.099
19.416
19.522
19.402
19.045
18.453
17.624
16.564
15.281
13.786
12.105
10.277
8.338
6.322
4.257
2.157
0.05
-2.029
-4.043
-5.941
-7.689
-9.272
-10.664
-11.851
-12.842
-13.655
-14.34
-14.98
-15.64
-16.392
-17.314
-18.473
-19.965
-21.868
-24.252
-27.234
-30.843
-35.053
-39.797
-44.84
-49.88
-54.676
-58.916
-62.214
-64.363
-65.211
-64.795
-63.636
-62.317
-61.287
-60.954
-61.704
-63.889
-67.79
-73.261
-78.472
-80.475
-77.048
-67.086
-52.173
-35.364
-16.717
7.514
43.96
98.449
171.187
255.345
340.003
417.451
483.585
536.193
573.975
588.941
570.562
514.339
419.706
293.953
151.017
1.196
-144.234
-272.822
-376.699
-446.667
-479.236
-479.628
-453.978
-414.002
-370.768
-329.602
-295.583
-267.582
-240.759
-213.652
-184.755
-156.089
-133.204
-118.167
-111.624
-112.928
-119.281
-129.153
-141.473
-154.576
-167.05
-177.804
-185.815
-190.316
-190.809
-186.703
-177.831
-164.804
-148.738
-130.749
-111.998
-93.678
-76.698
-62.022
-50.381
-41.918
-36.402
-33.427
-32.387
-32.61
-33.642
-35.035
-36.43
-37.714
-38.845
-39.861
-40.896
-42.072
-43.407
-44.865
-46.377
-47.832
-49.15
-50.253
-51.055
-51.482
-51.498
-51.11
-50.349
-49.258
-47.885
-46.274
-44.49
-42.621
-40.746
-38.931
-37.225
-35.656
-34.242
-33.002
-31.937
-31.036
-30.286
-29.66
-29.138
-28.707
-28.343
-28.018
-27.7
-27.343
-26.911
-26.379
-25.725
-24.935
-23.999
-22.907
-21.659
-20.262
-18.721
-17.041
-15.222
-13.264
-11.166
-8.932
-6.566
-4.073
-1.457
1.281
4.139
7.113
10.203
13.406
16.722
20.152
23.694
27.346
31.103
34.96
38.912
42.952
47.074
51.27
55.532
59.851
64.221
68.632
73.077
77.545
82.026
86.511
90.988
95.447
99.875
104.262
108.594
112.859
117.044
121.137
125.125
128.993
132.729
136.319
139.75
143.01
146.086
148.965
151.637
154.091
156.317
158.305
160.046
161.534
162.76
163.72
164.409
164.822
164.956
164.81
164.383
163.675
162.689
161.426
159.89
158.086
156.021
153.7
151.133
148.326
145.292
142.039
138.579
134.925
131.09
127.087
122.93
118.634
114.214
109.686
105.063
100.362
95.598
90.786
85.941
81.079
76.214
71.361
66.534
61.747
57.014
52.348
47.761
43.265
38.87
34.588
30.427
26.397
22.506
18.76
15.168
11.734
8.464
5.363
2.433
-0.322
-2.901
-5.304
-7.529
-9.576
-11.448
-13.145
-14.67
-16.025
-17.212
-18.236
-19.1
-19.809
-20.369
-20.784
-21.063
-21.215
-21.25
-21.176
-21.005
-20.749
-20.418
-20.024
-19.575
-19.082
-18.556
-18.006
-17.442
-16.874
-16.311
-15.767
-15.255
-14.778
-14.338
-13.941
-13.585
-13.279
-13.039
-12.859
-12.735
-12.711
-12.819
-13.083
-13.533
-14.153
-14.899
-15.784
-16.831
-17.903
-18.845
-19.694
-20.412
-20.952
-21.551
-21.48
-20.019
-18.092
-15.95
-15.353
-18.423
-22.787
-26.884
-28.395
-24.159
-17.134
-9.835
-4.03
-2.564
-3.573
-5.182
-7.059
-8.092
-9.097
-11.121
-14.053
-17.963
-22.654
-27.65
-32.743
-37.773
-42.391
-46.118
-48.654
-49.99
-50.343
-50.316
-50.563
-51.236
-52.353
-54.38
-57.543
-61.268
-64.708
-65.567
-60.384
-48.118
-28.603
-2.263
27.203
59.156
96.255
141.128
200.411
276.237
361.336
444.651
509.704
544.511
548.986
528.503
493.003
448.868
395.137
330.788
256.392
178.294
106.485
47.047
0.73
-37.87
-75.699
-115.84
-157.121
-195.355
-227.064
-251.358
-269.399
-283.368
-294.514
-303.325
-310.262
-315.363
-318.814
-320.961
-321.76
-321.152
-319.171
-315.578
-310.044
-302.569
-293.327
-282.604
-270.867
-258.507
-245.783
-233.037
-220.657
-208.877
-197.826
-187.546
-177.993
-169.18
-161.19
-154.089
-147.883
-142.53
-137.937
-134.006
-130.652
-127.779
-125.306
-123.158
-121.262
-119.579
-118.1
-116.806
-115.669
-114.626
-113.558
-112.345
-110.91
-109.203
-107.221
-104.977
-102.485
-99.777
-96.891
-93.866
-90.744
-87.545
-84.269
-80.927
-77.544
-74.167
-70.879
-67.758
-64.852
-62.196
-59.803
-57.676
-55.816
-54.207
-52.812
-51.593
-50.514
-49.549
-48.679
-47.883
-47.125
-46.365
-45.549
-44.629
-43.57
-42.338
-40.906
-39.248
-37.342
-35.174
-32.743
-30.044
-27.072
-23.82
-20.278
-16.437
-12.296
-7.853
-3.109
1.937
7.284
12.93
18.872
25.104
31.62
38.416
45.487
52.822
60.412
68.242
76.297
84.559
93.01
101.63
110.396
119.284
128.27
137.328
146.431
155.553
164.665
173.736
182.738
191.64
200.412
209.023
217.442
225.638
233.582
241.242
248.588
255.592
262.225
268.458
274.266
279.625
284.51
288.898
292.768
296.101
298.883
301.1
302.739
303.786
304.242
304.108
303.387
302.088
300.207
297.738
294.7
291.114
286.97
282.263
276.995
271.164
264.813
258.006
250.748
243.027
234.979
226.76
218.328
209.723
201.004
191.933
183.276
175.773
168.45
161.034
151.701
138.26
123.206
108.211
95.749
89.205
85.637
82.556
78.259
69.92
59.596
49.37
39.717
31.91
25.229
18.744
12.642
6.808
1.308
-3.668
-8.243
-12.521
-16.474
-20.099
-23.416
-26.432
-29.149
-31.576
-33.705
-35.529
-37.07
-38.352
-39.387
-40.189
-40.775
-41.158
-41.358
-41.39
-41.271
-41.013
-40.632
-40.142
-39.555
-38.888
-38.151
-37.356
-36.516
-35.64
-34.739
-33.821
-32.894
-31.967
-31.044
-30.134
-29.239
-28.366
-27.518
-26.699
-25.91
-25.155
-24.434
-23.75
-23.101
-22.489
-21.914
-21.375
-20.872
-20.404
-19.969
-19.569
-19.2
-18.863
-18.556
-18.277
-18.026
-17.802
-17.603
-17.429
-17.278
-17.149
-17.043
-16.958
-16.895
-16.853
-16.832
-16.833
-16.854
-16.896
-16.96
-17.045
-17.152
-17.281
-17.432
-17.606
-17.802
-18.022
-18.264
-18.53
-18.819
-19.131
-19.465
-19.821
-20.199
-20.597
-21.015
-21.453
-21.909
-22.382
-22.872
-23.376
-23.894
-24.424
-24.964
-25.512
-26.067
-26.626
-27.187
-27.749
-28.309
-28.864
-29.414
-29.956
-30.488
-31.008
-31.514
-32.005
-32.478
-32.933
-33.367
-33.78
-34.17
-34.537
-34.88
-35.198
-35.491
-35.759
-36.002
-36.219
-36.41
-36.577
-36.718
-36.836
-36.929
-36.999
-37.047
-37.074
-37.081
-37.069
-37.04
-36.994
-36.933
-36.859
-36.772
-36.673
-36.564
-36.445
-36.318
-36.184
-36.043
-35.897
-35.746
-35.591
-35.433
-35.271
-35.107
-34.941
-34.774
-34.605
-34.435
-34.266
-34.097
-33.93
-33.765
-33.603
-33.445
-33.292
-33.146
-33.007
-32.876
-32.755
-32.645
-32.548
-32.466
-32.4
-32.353
-32.327
-32.323
-32.346
-32.396
-32.477
-32.59
-32.739
-32.926
-33.154
-33.424
-33.739
-34.101
-34.512
-34.973
-35.486
-36.051
-36.669
-37.339
-38.061
-38.833
-39.654
-40.522
-41.432
-42.383
-43.369
-44.386
-45.43
-46.495
-47.573
-48.659
-49.746
-50.825
-51.888
-52.926
-53.931
-54.892
-55.801
-56.647
-57.421
-58.113
-58.714
-59.213
-59.601
-59.87
-60.011
-60.016
-59.877
-59.586
-59.139
-58.531
-57.757
-56.815
-55.702
-54.419
-52.966
-51.346
-49.562
-47.618
-45.52
-43.276
-40.893
-38.382
-35.753
-33.019
-30.192
-27.289
-24.327
-21.323
-18.298
-15.269
-12.256
-9.281
-6.363
-3.521
-0.772
1.867
4.379
6.745
8.946
10.968
12.794
14.413
15.813
16.981
17.911
18.597
19.042
19.245
19.205
18.914
18.365
17.553
16.482
15.159
13.591
11.79
9.771
7.559
5.194
2.713
0.15
-2.47
-5.124
-7.777
-10.39
-12.909
-15.284
-17.475
-19.452
-21.193
-22.681
-23.913
-24.897
-25.665
-26.274
-26.787
-27.27
-27.787
-28.414
-29.218
-30.301
-31.819
-33.859
-36.435
-39.476
-42.752
-46.02
-49.08
-51.63
-53.292
-53.836
-53.153
-51.448
-49.393
-47.594
-46.575
-46.924
-49.053
-53.169
-59.244
-66.53
-73.48
-78.501
-79.872
-75.751
-64.65
-45.159
-16.133
22.651
70.52
126.455
187.98
251.076
311.892
366.103
412.331
452.929
487.809
514.742
525.696
507.32
453.833
366.581
254.855
134.994
15.396
-100.516
-210.275
-313.547
-401.629
-462.358
-488.688
-476.136
-429.355
-361.996
-287.32
-219.921
-170.651
-140.085
-124.782
-117.518
-110.756
-102.942
-95.804
-92.673
-95.639
-103.655
-113.665
-121.873
-126.308
-126.741
-123.623
-118.063
-111.035
-103.161
-95.387
-88.733
-83.626
-80.212
-78.413
-77.84
-78.136
-78.996
-79.999
-80.731
-80.983
-80.657
-79.719
-78.21
-76.144
-73.551
-70.521
-67.176
-63.641
-60.004
-56.333
-52.693
-49.147
-45.766
-42.6
-39.666
-36.963
-34.497
-32.283
-30.348
-28.714
-27.377
-26.321
-25.524
-24.947
-24.563
-24.339
-24.232
-24.208
-24.237
-24.294
-24.37
-24.458
-24.549
-24.631
-24.689
-24.707
-24.673
-24.577
-24.408
-24.158
-23.819
-23.385
-22.853
-22.221
-21.483
-20.637
-19.675
-18.592
-17.383
-16.044
-14.57
-12.961
-11.216
-9.333
-7.316
-5.166
-2.885
-0.477
2.055
4.709
7.48
10.364
13.355
16.449
19.64
22.92
26.283
29.721
33.226
36.79
40.404
44.061
47.753
51.471
55.207
58.953
62.702
66.445
70.174
73.882
77.56
81.2
84.794
88.332
91.806
95.209
98.53
101.762
104.897
107.924
110.836
113.623
116.277
118.789
121.151
123.356
125.395
127.263
128.953
130.46
131.778
132.904
133.833
134.561
135.086
135.405
135.515
135.416
135.105
134.582
133.847
132.901
131.745
130.38
128.809
127.036
125.065
122.9
120.547
118.013
115.304
112.429
109.397
106.216
102.898
99.451
95.888
92.219
88.456
84.61
80.693
76.715
72.688
68.624
64.533
60.427
56.317
52.214
48.131
44.077
40.065
36.105
32.21
28.388
24.653
21.012
17.478
14.058
10.762
7.599
4.576
1.702
-1.018
-3.577
-5.971
-8.195
-10.247
-12.124
-13.825
-15.35
-16.698
-17.869
-18.865
-19.687
-20.338
-20.82
-21.138
-21.294
-21.296
-21.148
-20.859
-20.435
-19.886
-19.223
-18.457
-17.6
-16.664
-15.663
-14.61
-13.519
-12.404
-11.278
-10.152
-9.041
-7.958
-6.917
-5.933
-5.018
-4.186
-3.447
-2.813
-2.293
-1.895
-1.622
-1.476
-1.462
-1.585
-1.858
-2.29
-2.884
-3.64
-4.55
-5.605
-6.789
-8.075
-9.426
-10.805
-12.177
-13.516
-14.805
-16.02
-17.136
-18.116
-18.914
-19.487
-19.803
-19.841
-19.585
-19.039
-18.227
-17.204
-16.06
-14.874
-13.706
-12.607
-11.619
-10.802
-10.227
-9.968
-10.091
-10.679
-11.851
-13.652
-16.03
-18.808
-21.657
-24.234
-26.255
-27.406
-27.287
-25.682
-22.676
-18.669
-14.421
-10.612
-7.551
-5.504
-4.863
-5.716
-7.552
-9.152
-8.643
-4.268
5.156
20.865
44.386
76.887
117.828
164.674
214.324
264.615
316.298
371.054
427.214
478.901
516.747
532.41
522.651
490.064
440.738
379.963
312.783
243.828
177.931
121.367
77.236
43.881
15.951
-13.453
-48.499
-88.859
-130.742
-170.653
-207.152
-240.515
-272.381
-303.129
-331.622
-356.928
-378.296
-395.458
-408.764
-418.49
-424.675
-427.687
-428.109
-426.197
-422.182
-416.28
-408.533
-399.11
-388.301
-376.248
-363.07
-349.065
-334.488
-319.556
-304.496
-289.398
-274.308
-259.325
-244.537
-230.024
-215.905
-202.313
-189.366
-177.211
-165.95
-155.636
-146.293
-137.9
-130.419
-123.81
-118.047
-113.115
-108.997
-105.669
-103.085
-101.183
-99.852
-98.944
-98.287
-97.7
-97.039
-96.205
-95.127
-93.771
-92.12
-90.176
-87.944
-85.434
-82.658
-79.626
-76.354
-72.869
-69.224
-65.497
-61.784
-58.195
-54.81
-51.676
-48.823
-46.255
-43.964
-41.928
-40.112
-38.472
-36.965
-35.557
-34.213
-32.904
-31.588
-30.212
-28.72
-27.045
-25.135
-22.95
-20.459
-17.637
-14.464
-10.925
-7.018
-2.748
1.883
6.878
12.246
18.004
24.154
30.691
37.602
44.874
52.486
60.419
68.639
77.099
85.756
94.573
103.524
112.589
121.74
130.937
140.138
149.303
158.409
167.452
176.429
185.345
194.217
203.083
212.01
221.086
230.37
239.893
249.66
259.664
269.911
280.41
291.154
302.114
313.224
324.406
335.576
346.63
357.418
367.742
377.359
386.025
393.551
399.804
404.686
408.11
409.981
410.217
408.777
405.665
400.908
394.54
386.592
377.147
366.371
354.507
341.846
328.654
315.133
301.441
287.711
274.077
260.679
247.629
234.994
222.82
211.156
200.075
189.662
179.94
170.848
162.255
154.006
145.986
138.13
130.397
122.747
115.143
107.553
99.98
92.456
85.007
77.634
70.306
62.98
55.655
48.386
41.264
34.38
27.792
21.535
15.638
10.133
5.047
0.388
-3.867
-7.753
-11.291
-14.487
-17.326
-19.791
-21.888
-23.646
-25.105
-26.299
-27.252
-27.988
-28.533
-28.923
-29.189
-29.349
-29.405
-29.357
-29.212
-28.987
-28.707
-28.394
-28.062
-27.722
-27.385
-27.063
-26.774
-26.528
-26.327
-26.162
-26.027
-25.919
-25.842
-25.806
-25.817
-25.872
-25.967
-26.076
-26.161
-26.206
-26.204
-26.169
-26.12
-26.042
-25.886
-25.689
-25.583
-25.642
-25.85
-26.041
-25.955
-25.515
-24.936
-24.339
-23.518
-22.438
-21.356
-20.709
-21.422
-23.356
-24.747
-25.321
-25.977
-28.783
-37.753
-51.811
-65.476
-73.505
-69.737
-54.83
-35.67
-17.425
-5.506
-1.335
-1.611
-4.722
-9.01
-13.152
-17.797
-22.959
-28.17
-33.183
-37.166
-39.281
-39.444
-38.148
-36.176
-34.157
-32.335
-30.558
-28.617
-26.696
-24.969
-23.265
-21.452
-19.535
-17.566
-16.293
-16.158
-16.184
-16.623
-18.483
-23.361
-35.04
-52.887
-71.592
-85.347
-86.676
-74.627
-55.689
-35.717
-20.91
-13.156
-8.866
-6.572
-5.758
-6.393
-10.035
-16.447
-24.228
-32.605
-40.731
-47.761
-53.097
-56.314
-57.341
-56.754
-55.43
-53.873
-52.293
-50.875
-49.8
-49.247
-49.327
-49.898
-50.633
-51.346
-51.991
-52.582
-53.173
-53.771
-54.338
-54.875
-55.429
-56.026
-56.674
-57.359
-58.039
-58.688
-59.303
-59.879
-60.422
-60.931
-61.396
-61.809
-62.163
-62.454
-62.682
-62.851
-62.962
-63.015
-63.012
-62.955
-62.851
-62.702
-62.512
-62.281
-62.005
-61.684
-61.319
-60.913
-60.469
-59.988
-59.473
-58.925
-58.348
-57.744
-57.119
-56.474
-55.815
-55.143
-54.463
-53.78
-53.099
-52.425
-51.763
-51.118
-50.497
-49.905
-49.348
-48.834
-48.366
-47.949
-47.588
-47.286
-47.045
-46.867
-46.749
-46.692
-46.695
-46.757
-46.877
-47.054
-47.286
-47.573
-47.915
-48.31
-48.757
-49.248
-49.776
-50.332
-50.908
-51.494
-52.079
-52.649
-53.193
-53.7
-54.165
-54.579
-54.931
-55.205
-55.381
-55.445
-55.388
-55.207
-54.898
-54.459
-53.898
-53.233
-52.496
-51.719
-50.921
-50.103
-49.256
-48.374
-47.45
-46.481
-45.462
-44.372
-43.186
-41.889
-40.475
-38.933
-37.238
-35.338
-33.155
-30.623
-27.711
-24.419
-20.772
-16.799
-12.544
-8.067
-3.453
1.186
5.743
10.139
14.312
18.199
21.72
24.767
27.199
28.903
29.805
29.858
29.046
27.368
24.85
21.557
17.601
13.13
8.283
3.176
-2.098
-7.452
-12.784
-17.979
-22.9
-27.431
-31.488
-34.986
-37.869
-40.103
-41.669
-42.592
-42.969
-42.923
-42.581
-42.076
-41.499
-40.94
-40.52
-40.341
-40.527
-41.184
-42.367
-44.17
-46.711
-50.015
-54.062
-58.702
-63.589
-68.396
-72.844
-76.556
-79.173
-80.421
-80.09
-78.372
-75.785
-72.778
-69.778
-67.112
-65.025
-63.847
-63.709
-64.022
-63.714
-61.583
-56.224
-46.603
-31.791
-10.363
18.89
56.308
101.747
153.461
207.647
261.078
310.329
353.697
393.699
431.093
463.797
485.287
481.334
440.18
357.473
236.448
92.286
-57.773
-199.472
-320.299
-415.067
-479.818
-512.457
-515.618
-492.025
-450.757
-402.63
-354.92
-314.818
-281.761
-250.673
-219.642
-186.633
-153.818
-127.041
-108.419
-98.574
-96.594
-99.153
-104.094
-109.917
-114.913
-118.062
-118.933
-117.43
-113.861
-108.753
-102.606
-96.043
-89.873
-84.891
-81.452
-79.455
-78.621
-78.604
-79.145
-80.053
-81.025
-81.655
-81.666
-80.974
-79.604
-77.669
-75.257
-72.383
-69.109
-65.561
-61.884
-58.238
-54.739
-51.428
-48.327
-45.463
-42.862
-40.566
-38.607
-36.981
-35.669
-34.663
-33.957
-33.552
-33.437
-33.576
-33.911
-34.378
-34.926
-35.523
-36.143
-36.764
-37.361
-37.911
-38.401
-38.829
-39.193
-39.482
-39.684
-39.782
-39.767
-39.632
-39.378
-39.003
-38.505
-37.88
-37.124
-36.237
-35.217
-34.059
-32.759
-31.31
-29.708
-27.951
-26.039
-23.972
-21.751
-19.378
-16.854
-14.184
-11.372
-8.42
-5.333
-2.114
1.233
4.701
8.286
11.982
15.783
19.682
23.672
27.744
31.892
36.105
40.375
44.693
49.048
53.429
57.827
62.23
66.627
71.005
75.353
79.656
83.903
88.08
92.173
96.169
100.055
103.816
107.44
110.914
114.224
117.357
120.302
123.046
125.577
127.884
129.956
131.783
133.357
134.668
135.71
136.476
136.962
137.162
137.074
136.697
136.029
135.072
133.827
132.298
130.489
128.405
126.054
123.444
120.584
117.483
114.153
110.606
106.855
102.914
98.797
94.519
90.096
85.544
80.878
76.116
71.274
66.369
61.418
56.437
51.443
46.451
41.479
36.541
31.652
26.826
22.077
17.418
12.863
8.421
4.104
-0.077
-4.114
-7.997
-11.72
-15.276
-18.658
-21.863
-24.884
-27.719
-30.366
-32.821
-35.085
-37.157
-39.036
-40.724
-42.223
-43.535
-44.662
-45.607
-46.375
-46.97
-47.397
-47.66
-47.766
-47.721
-47.532
-47.205
-46.75
-46.174
-45.487
-44.699
-43.821
-42.863
-41.836
-40.752
-39.621
-38.455
-37.261
-36.051
-34.834
-33.62
-32.419
-31.244
-30.105
-29.013
-27.977
-27.007
-26.112
-25.299
-24.571
-23.932
-23.385
-22.937
-22.6
-22.383
-22.289
-22.321
-22.475
-22.744
-23.117
-23.573
-24.079
-24.604
-25.121
-25.605
-26.042
-26.411
-26.694
-26.859
-26.868
-26.69
-26.302
-25.69
-24.845
-23.776
-22.507
-21.094
-19.623
-18.173
-16.807
-15.579
-14.537
-13.74
-13.264
-13.184
-13.56
-14.468
-16.013
-18.235
-21.105
-24.478
-28.062
-31.537
-34.607
-36.934
-38.127
-37.934
-36.31
-33.535
-30.233
-27.012
-24.319
-22.58
-22.248
-23.576
-26.375
-29.673
-31.86
-31.31
-26.477
-15.722
2.681
30.302
67.251
111.508
160.559
212.573
267.896
327.74
390.119
448.7
493.218
514.446
508.505
477.362
427.375
364.319
292.917
217.742
144.109
78.697
25.703
-15.064
-48.168
-79.638
-112.984
-148.183
-182.455
-213.53
-241.006
-265.918
-290.03
-313.918
-336.943
-358.169
-376.431
-390.863
-401.152
-407.046
-408.407
-405.412
-398.34
-387.602
-373.843
-357.732
-339.81
-320.594
-300.534
-279.981
-259.366
-239.052
-219.176
-199.869
-181.239
-163.372
-146.564
-131.108
-117.061
-104.467
-93.503
-84.219
-76.748
-71.213
-67.22
-64.33
-62.362
-61.099
-60.274
-59.73
-59.084
-57.909
-56.396
-54.744
-52.93
-51.005
-48.932
-46.636
-44.353
-42.377
-40.57
-38.814
-37.106
-35.377
-33.717
-32.232
-30.829
-29.389
-27.961
-26.605
-25.382
-24.413
-23.743
-23.366
-23.299
-23.531
-24.004
-24.651
-25.402
-26.139
-26.736
-27.12
-27.246
-27.12
-26.802
-26.31
-25.633
-24.753
-23.633
-22.252
-20.613
-18.705
-16.507
-14.019
-11.249
-8.24
-5.075
-1.793
1.608
5.156
8.923
12.954
17.268
21.888
26.837
32.129
37.782
43.792
50.13
56.787
63.758
71.056
78.707
86.717
95.07
103.736
112.672
121.837
131.199
140.719
150.351
160.054
169.791
179.536
189.27
198.968
208.597
218.123
227.504
236.703
245.688
254.426
262.884
271.032
278.838
286.274
293.314
299.932
306.102
311.794
316.982
321.639
325.745
329.279
332.223
334.563
336.286
337.385
337.854
337.692
336.897
335.473
333.424
330.759
327.489
323.626
319.186
314.189
308.654
302.605
296.068
289.072
281.645
273.819
265.627
257.105
248.288
239.211
229.911
220.426
210.793
201.048
191.23
181.374
171.515
161.69
151.931
142.271
132.742
123.371
114.186
105.213
96.474
87.992
79.785
71.871
64.265
56.98
50.027
43.414
37.149
31.234
25.673
20.465
15.608
11.098
6.93
3.097
-0.411
-3.603
-6.49
-9.085
-11.401
-13.45
-15.248
-16.81
-18.149
-19.283
-20.225
-20.992
-21.598
-22.058
-22.387
-22.599
-22.708
-22.726
-22.666
-22.54
-22.359
-22.135
-21.876
-21.593
-21.294
-20.987
-20.678
-20.374
-20.08
-19.8
-19.539
-19.3
-19.085
-18.896
-18.735
-18.603
-18.5
-18.426
-18.381
-18.366
-18.378
-18.418
-18.483
-18.573
-18.686
-18.821
-18.975
-19.149
-19.339
-19.545
-19.764
-19.995
-20.237
-20.488
-20.745
-21.007
-21.273
-21.541
-21.809
-22.077
-22.341
-22.602
-22.859
-23.11
-23.355
-23.593
-23.823
-24.044
-24.257
-24.46
-24.654
-24.839
-25.014
-25.18
-25.338
-25.486
-25.627
-25.76
-25.887
-26.007
-26.122
-26.232
-26.339
-26.443
-26.545
-26.647
-26.751
-26.856
-26.966
-27.08
-27.201
-27.33
-27.468
-27.616
-27.777
-27.95
-28.137
-28.339
-28.556
-28.791
-29.042
-29.311
-29.598
-29.903
-30.225
-30.565
-30.92
-31.291
-31.676
-32.074
-32.483
-32.902
-33.328
-33.759
-34.193
-34.628
-35.062
-35.491
-35.912
-36.324
-36.722
-37.105
-37.469
-37.811
-38.129
-38.418
-38.678
-38.904
-39.095
-39.247
-39.36
-39.429
-39.454
-39.432
-39.362
-39.243
-39.075
-38.855
-38.586
-38.265
-37.895
-37.476
-37.009
-36.495
-35.937
-35.335
-34.693
-34.012
-33.295
-32.544
-31.763
-30.954
-30.12
-29.266
-28.394
-27.508
-26.612
-25.709
-24.802
-23.896
-22.993
-22.099
-21.217
-20.349
-19.502
-18.677
-17.878
-17.109
-16.374
-15.674
-15.012
-14.392
-13.815
-13.283
-12.799
-12.365
-11.981
-11.651
-11.375
-11.156
-10.994
-10.891
-10.849
-10.867
-10.946
-11.088
-11.294
-11.563
-11.896
-12.294
-12.756
-13.282
-13.873
-14.527
-15.242
-16.019
-16.855
-17.748
-18.697
-19.699
-20.752
-21.853
-22.999
-24.186
-25.412
-26.673
-27.962
-29.277
-30.61
-31.956
-33.309
-34.662
-36.008
-37.34
-38.649
-39.928
-41.168
-42.36
-43.496
-44.564
-45.557
-46.463
-47.274
-47.98
-48.573
-49.043
-49.381
-49.581
-49.633
-49.532
-49.271
-48.842
-48.241
-47.463
-46.504
-45.361
-44.034
-42.52
-40.821
-38.94
-36.88
-34.646
-32.245
-29.684
-26.971
-24.117
-21.134
-18.035
-14.834
-11.547
-8.19
-4.786
-1.354
2.085
5.508
8.894
12.219
15.462
18.601
21.617
24.492
27.205
29.738
32.067
34.175
36.045
37.661
39.009
40.077
40.853
41.333
41.518
41.408
41.005
40.304
39.295
37.976
36.355
34.437
32.236
29.769
27.055
24.127
21.031
17.808
14.503
11.151
7.771
4.404
1.093
-2.117
-5.162
-7.999
-10.599
-12.927
-14.961
-16.698
-18.144
-19.332
-20.323
-21.166
-21.923
-22.663
-23.448
-24.36
-25.469
-26.865
-28.697
-31.021
-33.812
-36.959
-40.187
-43.208
-45.802
-47.638
-48.291
-47.534
-45.282
-41.784
-37.779
-33.882
-30.582
-28.445
-27.907
-29.235
-32.433
-36.688
-40.376
-41.906
-39.561
-31.48
-16.096
8.168
42.621
87.417
141.728
204.46
272.705
341.923
407.845
465.32
512.261
550.585
579.926
599.382
603.042
578.461
518.325
418.204
281.717
126.262
-29.814
-165.558
-263.149
-320.444
-342.786
-341.389
-330.29
-313.868
-289.914
-257.211
-215.403
-169.032
-127.49
-95.067
-71.117
-53.961
-39.367
-26.092
-16.84
-12.6
-13.748
-19.384
-26.299
-32.217
-35.907
-36.699
-34.902
-30.992
-25.336
-18.484
-11.131
-4.034
2.06
6.797
10.191
12.437
13.857
14.728
15.291
15.842
16.708
18.082
20.05
22.627
25.734
29.319
33.336
37.701
42.3
47.003
51.691
56.264
60.649
64.792
68.654
72.206
75.425
78.304
80.831
82.99
84.776
86.179
87.199
87.849
88.153
88.156
87.898
87.422
86.773
85.99
85.102
84.14
83.115
82.024
80.891
79.745
78.574
77.379
76.166
74.926
73.698
72.534
71.424
70.339
69.396
68.732
68.283
68.068
68.12
68.183
68.998
71.288
74.043
76.96
78.174
75.451
71.267
67.271
65.916
70.575
78.257
86.427
93.346
96.141
96.853
97.547
98.678
101.499
105.264
109.016
112.923
116.85
120.847
125.09
129.44
133.78
138.128
142.476
146.796
151.075
155.303
159.469
163.575
167.625
171.595
175.462
179.213
182.834
186.31
189.631
192.781
195.746
198.515
201.08
203.43
205.556
207.448
209.1
210.503
211.652
212.54
213.163
213.518
213.601
213.411
212.946
212.208
211.196
209.914
208.364
206.55
204.479
202.156
199.588
196.785
193.755
190.508
187.055
183.408
179.578
175.579
171.424
167.127
162.7
158.159
153.517
148.788
143.988
139.13
134.229
129.299
124.353
119.407
114.473
109.565
104.695
99.877
95.122
90.441
85.847
81.348
76.955
72.676
68.518
64.49
60.597
56.845
53.238
49.78
46.474
43.322
40.326
37.485
34.798
32.266
29.885
27.654
25.569
23.628
21.824
20.155
18.615
17.198
15.898
14.709
13.623
12.632
11.729
10.904
10.146
9.445
8.791
8.172
7.578
6.997
6.42
5.835
5.234
4.609
3.951
3.251
2.5
1.688
0.806
-0.153
-1.196
-2.331
-3.563
-4.896
-6.33
-7.865
-9.499
-11.238
-13.09
-15.063
-17.158
-19.371
-21.696
-24.122
-26.632
-29.201
-31.789
-34.36
-36.88
-39.319
-41.661
-43.885
-45.966
-47.87
-49.556
-50.985
-52.133
-52.986
-53.536
-53.791
-53.785
-53.578
-53.27
-52.951
-52.695
-52.564
-52.615
-52.92
-53.561
-54.62
-56.17
-58.296
-61.108
-64.652
-68.881
-73.63
-78.589
-83.422
-87.845
-91.544
-94.121
-95.329
-95.193
-94.027
-92.496
-91.213
-90.449
-90.434
-91.537
-93.9
-97.136
-100.203
-101.375
-98.991
-91.967
-79.155
-59.109
-30.67
5.871
48.331
93.702
139.841
187.683
238.998
292.396
342.517
379.25
393.391
382.499
349.136
300.752
244.408
181.89
115.312
46.747
-21.255
-82.652
-135.57
-182.292
-225.158
-268.473
-313.193
-356.171
-395.326
-428.664
-455.904
-479.249
-500.007
-518.851
-536.04
-551.02
-563.634
-574.131
-582.53
-588.736
-592.517
-593.449
-591.404
-586.57
-579.19
-569.577
-558.043
-544.845
-530.299
-514.794
-498.618
-481.962
-464.968
-447.671
-430.082
-412.22
-394.056
-375.536
-356.633
-337.333
-317.627
-297.53
-277.078
-256.335
-235.424
-214.508
-193.749
-173.266
-153.155
-133.514
-114.447
