Name,Criss Capps
Date of Birth,"Feb 5, 1952"
Recorded Date,2022-08-01 15:50:07 -0400
Classification,Poor Recording
Symptoms,
Software Version,1.90
Device,"Watch5,4"
Sample Rate,512.844 hertz


Lead,Lead I
Unit,µV

-450.499
-583.773
-656.471
-662.201
-616.606
-547.247
-480.903
-433.346
-407.658
-396.633
-389.833
-378.678
-358.717
-331.326
-300.763
-271.256
-245.329
-222.627
-201.043
-178.702
-154.914
-129.872
-104.249
-78.65
-53.245
-28.18
-3.634
20.422
44.075
67.453
90.725
113.967
137.308
161.018
185.325
210.335
235.888
261.554
287.056
312.26
336.998
361.085
384.236
406.174
427.102
447.595
467.799
487.481
506.006
522.312
535.525
544.887
549.221
547.253
538.37
522.418
500.087
472.793
441.693
408.093
373.559
339.457
306.82
276.535
248.782
223.416
200.685
180.316
161.965
145.596
131.025
118.085
106.911
97.48
89.485
83.139
78.587
75.691
74.483
74.796
76.31
78.863
82.264
86.049
89.798
93.217
96.008
98.056
99.317
99.695
99.167
97.78
95.596
92.685
89.107
84.903
80.128
74.891
69.341
63.621
57.862
52.159
46.569
41.134
35.884
30.82
25.912
21.123
16.401
11.707
7.021
2.311
-2.457
-7.332
-12.377
-17.639
-23.14
-28.892
-34.893
-41.129
-47.583
-54.218
-60.981
-67.818
-74.676
-81.504
-88.262
-94.902
-101.369
-107.613
-113.579
-119.217
-124.487
-129.347
-133.758
-137.686
-141.097
-143.969
-146.282
-148.019
-149.161
-149.692
-149.599
-148.873
-147.509
-145.505
-142.863
-139.589
-135.694
-131.194
-126.109
-120.464
-114.284
-107.602
-100.449
-92.863
-84.884
-76.555
-67.92
-59.027
-49.923
-40.659
-31.286
-21.855
-12.416
-3.022
6.277
15.431
24.388
33.101
41.522
49.606
57.309
64.59
71.408
77.729
83.519
88.748
93.387
97.415
100.81
103.556
105.641
107.055
107.792
107.852
107.234
105.946
103.994
101.391
98.15
94.291
89.832
84.798
79.212
73.104
66.501
59.436
51.941
44.05
35.799
27.225
18.363
9.252
-0.07
-9.567
-19.199
-28.931
-38.726
-48.549
-58.363
-68.137
-77.836
-87.431
-96.891
-106.188
-115.296
-124.19
-132.846
-141.244
-149.364
-157.188
-164.701
-171.887
-178.733
-185.229
-191.365
-197.133
-202.526
-207.537
-212.164
-216.402
-220.251
-223.708
-226.776
-229.453
-231.743
-233.648
-235.171
-236.315
-237.086
-237.487
-237.524
-237.202
-236.528
-235.506
-234.144
-232.447
-230.423
-228.077
-225.416
-222.448
-219.178
-215.613
-211.762
-207.63
-203.227
-198.559
-193.635
-188.465
-183.057
-177.421
-171.567
-165.507
-159.251
-152.812
-146.2
-139.429
-132.513
-125.464
-118.296
-111.024
-103.662
-96.225
-88.727
-81.182
-73.606
-66.013
-58.417
-50.833
-43.275
-35.757
-28.291
-20.893
-13.573
-6.345
0.781
7.794
14.685
21.445
28.068
34.546
40.875
47.05
53.071
58.935
64.642
70.195
75.597
80.852
85.967
90.949
95.806
100.548
105.186
109.73
114.192
118.584
122.919
127.209
131.468
135.71
139.947
144.194
148.463
152.767
157.119
161.531
166.011
170.571
175.219
179.964
184.812
189.77
194.843
200.035
205.349
210.789
216.353
222.04
227.847
233.767
239.795
245.921
252.136
258.427
264.784
271.193
277.642
284.117
290.602
297.083
303.544
309.968
316.337
322.635
328.847
334.955
340.945
346.801
352.511
358.06
363.436
368.624
373.612
378.387
382.936
387.247
391.306
395.101
398.623
401.863
404.815
407.475
409.842
411.919
413.715
415.242
416.51
417.528
418.306
418.849
419.163
419.256
419.127
418.777
418.21
417.431
416.458
415.31
414
412.536
410.914
409.118
407.145
405.001
402.693
400.246
397.699
395.106
392.562
390.165
387.997
386.12
384.553
383.294
382.353
381.743
381.513
381.754
382.528
383.885
385.885
388.527
391.778
395.551
399.579
403.589
407.431
411.083
414.687
418.468
422.734
427.77
433.854
441.309
449.405
456.952
463.499
467.874
471.32
476.627
482.732
489.165
491.249
480.294
456.198
421.823
387.976
374.614
392.398
445.579
527.473
617.734
699.698
760.715
795.781
810.874
812.006
804.307
791.333
773.461
753.633
737.683
730.834
736.116
751.434
769.755
784.489
792.49
794.54
794.494
795.439
797.926
800.946
802.853
802.877
801.329
798.759
795.635
792.008
787.703
782.611
776.646
769.775
761.99
753.272
743.647
733.194
722.015
710.215
697.885
685.089
671.885
658.318
644.43
630.275
615.913
601.403
586.805
572.166
557.525
542.92
528.381
513.933
499.596
485.38
471.3
457.374
443.624
430.075
416.749
403.665
390.837
378.282
366.009
354.029
342.347
330.966
319.886
309.109
298.633
288.455
278.572
268.978
259.666
250.63
241.86
233.349
225.089
217.069
209.282
201.717
194.367
187.224
180.278
173.522
166.949
160.551
154.321
148.253
142.34
136.574
130.948
125.455
120.089
114.841
109.706
104.677
99.748
94.915
90.174
85.519
80.946
76.453
72.035
67.688
63.409
59.195
55.041
50.943
46.899
42.905
38.956
35.049
31.18
27.345
23.539
19.757
15.996
12.252
8.519
4.794
1.074
-2.647
-6.37
-10.1
-13.839
-17.59
-21.357
-25.141
-28.946
-32.773
-36.625
-40.505
-44.413
-48.352
-52.323
-56.328
-60.367
-64.442
-68.552
-72.698
-76.879
-81.093
-85.339
-89.616
-93.919
-98.246
-102.592
-106.954
-111.326
-115.702
-120.076
-124.443
-128.793
-133.121
-137.417
-141.673
-145.879
-150.027
-154.105
-158.104
-162.013
-165.82
-169.514
-173.083
-176.516
-179.799
-182.922
-185.871
-188.636
-191.205
-193.568
-195.713
-197.631
-199.315
-200.757
-201.95
-202.889
-203.571
-203.994
-204.155
-204.057
-203.701
-203.09
-202.231
-201.131
-199.797
-198.241
-196.475
-194.512
-192.368
-190.059
-187.603
-185.02
-182.33
-179.557
-176.723
-173.852
-170.969
-168.099
-165.269
-162.505
-159.831
-157.273
-154.857
-152.606
-150.544
-148.691
-147.069
-145.696
-144.59
-143.765
-143.236
-143.012
-143.104
-143.519
-144.259
-145.329
-146.728
-148.454
-150.502
-152.866
-155.538
-158.505
-161.756
-165.276
-169.049
-173.055
-177.276
-181.691
-186.277
-191.012
-195.871
-200.832
-205.87
-210.961
-216.081
-221.207
-226.318
-231.391
-236.406
-241.345
-246.19
-250.926
-255.538
-260.015
-264.344
-268.517
-272.527
-276.369
-280.038
-283.533
-286.851
-289.995
-292.966
-295.768
-298.406
-300.884
-303.212
-305.395
-307.444
-309.367
-311.175
-312.879
-314.488
-316.014
-317.467
-318.859
-320.199
-321.497
-322.763
-324.005
-325.231
-326.447
-327.66
-328.875
-330.095
-331.326
-332.569
-333.827
-335.101
-336.393
-337.703
-339.032
-340.382
-341.751
-343.142
-344.554
-345.989
-347.448
-348.932
-350.444
-351.986
-353.562
-355.173
-356.825
-358.521
-360.267
-362.068
-363.93
-365.859
-367.862
-369.946
-372.12
-374.391
-376.769
-379.261
-381.878
-384.627
-387.519
-390.562
-393.763
-397.132
-400.673
-404.395
-408.301
-412.395
-416.68
-421.158
-425.827
-430.687
-435.733
-440.961
-446.364
-451.933
-457.659
-463.53
-469.534
-475.657
-481.883
-488.197
-494.581
-501.018
-507.489
-513.973
-520.452
-526.905
-533.311
-539.65
-545.9
-552.041
-558.053
-563.915
-569.609
-575.116
-580.418
-585.499
-590.342
-594.935
-599.264
-603.318
-607.087
-610.565
-613.744
-616.62
-619.192
-621.458
-623.42
-625.08
-626.442
-627.512
-628.296
-628.803
-629.041
-629.019
-628.749
-628.242
-627.51
-626.565
-625.421
-624.089
-622.584
-620.918
-619.106
-617.159
-615.091
-612.915
-610.643
-608.287
-605.859
-603.369
-600.828
-598.245
-595.628
-592.986
-590.324
-587.649
-584.964
-582.274
-579.581
-576.887
-574.192
-571.497
-568.801
-566.103
-563.401
-560.693
-557.976
-555.248
-552.505
-549.745
-546.962
-544.155
-541.318
-538.449
-535.545
-532.6
-529.613
-526.579
-523.495
-520.357
-517.162
-513.907
-510.589
-507.205
-503.753
-500.231
-496.637
-492.97
-489.23
-485.417
-481.531
-477.572
-473.543
-469.444
-465.278
-461.047
-456.753
-452.399
-447.989
-443.525
-439.011
-434.451
-429.846
-425.203
-420.523
-415.81
-411.069
-406.302
-401.515
-396.711
-391.895
-387.071
-382.244
-377.418
-372.6
-367.793
-363.003
-358.234
-353.491
-348.78
-344.104
-339.468
-334.877
-330.333
-325.841
-321.405
-317.028
-312.713
-308.464
-304.282
-300.173
-296.137
-292.179
-288.3
-284.504
-280.794
-277.171
-273.639
-270.2
-266.856
-263.609
-260.461
-257.414
-254.469
-251.627
-248.889
-246.255
-243.726
-241.302
-238.983
-236.77
-234.663
-232.661
-230.766
-228.976
-227.294
-225.719
-224.251
-222.892
-221.642
-220.502
-219.472
-218.553
-217.746
-217.051
-216.468
-215.997
-215.638
-215.39
-215.253
-215.226
-215.308
-215.498
-215.793
-216.193
-216.696
-217.299
-218
-218.797
-219.686
-220.664
-221.728
-222.873
-224.094
-225.385
-226.74
-228.152
-229.612
-231.112
-232.641
-234.19
-235.747
-237.3
-238.835
-240.34
-241.801
-243.202
-244.53
-245.77
-246.906
-247.922
-248.805
-249.538
-250.107
-250.497
-250.693
-250.681
-250.449
-249.982
-249.268
-248.297
-247.057
-245.538
-243.732
-241.631
-239.229
-236.523
-233.508
-230.185
-226.555
-222.619
-218.384
-213.857
-209.045
-203.961
-198.617
-193.028
-187.211
-181.184
-174.966
-168.579
-162.044
-155.386
-148.629
-141.796
-134.915
-128.009
-121.105
-114.228
-107.404
-100.658
-94.015
-87.498
-81.131
-74.937
-68.936
-63.149
-57.594
-52.287
-47.244
-42.476
-37.995
-33.809
-29.924
-26.345
-23.073
-20.108
-17.448
-15.087
-13.018
-11.234
-9.722
-8.471
-7.466
-6.694
-6.136
-5.778
-5.602
-5.59
-5.727
-5.994
-6.377
-6.858
-7.423
-8.057
-8.745
-9.478
-10.242
-11.028
-11.829
-12.638
-13.451
-14.266
-15.082
-15.9
-16.72
-17.548
-18.387
-19.244
-20.126
-21.04
-21.997
-23.008
-24.086
-25.244
-26.495
-27.853
-29.333
-30.948
-32.711
-34.632
-36.722
-38.988
-41.438
-44.077
-46.911
-49.94
-53.166
-56.585
-60.193
-63.985
-67.95
-72.078
-76.352
-80.758
-85.279
-89.898
-94.595
-99.352
-104.148
-108.965
-113.784
-118.587
-123.35
-128.051
-132.665
-137.17
-141.538
-145.742
-149.748
-153.526
-157.048
-160.291
-163.237
-165.871
-168.178
-170.15
-171.785
-173.086
-174.058
-174.702
-175.008
-174.976
-174.616
-173.946
-173.005
-171.821
-170.408
-168.78
-166.949
-164.916
-162.672
-160.178
-157.361
-154.151
-150.502
-146.403
-141.881
-136.947
-131.607
-125.858
-119.668
-113.04
-105.993
-98.521
-90.645
-82.432
-73.956
-65.386
-57.014
-49.041
-41.599
-34.7
-28.093
-21.533
-14.844
-7.81
-0.239
7.939
16.598
25.177
32.604
37.766
40.516
41.808
42.533
43.417
42.677
36.114
22.991
5.981
-7.064
-3.256
23.586
72.091
135.1
198.856
255.239
302.713
340.229
370.516
393.452
405.872
409.765
407.13
400.995
396.349
393.689
393.123
395.486
400.273
408.056
418.973
431.771
445.248
458.444
470.622
481.499
491.019
499.136
505.961
511.845
517.244
522.403
527.391
532.156
536.531
540.446
543.9
546.842
549.225
551.037
552.294
553.057
553.431
553.478
553.228
552.704
551.911
550.867
549.609
548.168
546.571
544.831
542.955
540.944
538.802
536.524
534.1
531.513
528.744
525.781
522.619
519.255
515.692
511.929
507.961
503.788
499.409
494.821
490.026
485.02
479.803
474.374
468.736
462.894
456.854
450.622
444.209
437.625
430.884
424.001
416.995
409.886
402.696
395.45
388.175
380.899
373.653
366.467
359.374
352.407
345.6
338.987
332.598
326.467
320.623
315.096
309.914
305.101
300.681
296.676
293.105
289.984
287.328
285.148
283.45
282.239
281.515
281.274
281.509
282.209
283.357
284.933
286.915
289.275
291.982
295.001
298.295
301.821
305.536
309.391
313.338
317.328
321.312
325.236
329.048
332.692
336.114
339.269
342.103
344.553
346.564
348.078
349.051
349.46
349.272
348.434
346.928
344.769
341.969
338.544
334.491
329.749
324.297
318.193
311.395
303.713
295.109
285.671
275.4
264.53
252.744
238.816
222.967
206.445
191.13
180.656
175.112
170.894
164.498
150.916
129.538
105.287
82.007
63.733
51.494
41.728
32.183
21.435
8.968
-3.71
-15.824
-27.403
-38.348
-48.845
-58.94
-68.407
-77.162
-85.226
-92.585
-99.223
-105.147
-110.37
-114.916
-118.83
-122.141
-124.85
-126.975
-128.544
-129.582
-130.122
-130.196
-129.834
-129.07
-127.944
-126.493
-124.756
-122.773
-120.58
-118.214
-115.713
-113.11
-110.441
-107.737
-105.027
-102.339
-99.698
-97.127
-94.645
-92.269
-90.014
-87.891
-85.909
-84.074
-82.39
-80.858
-79.476
-78.242
-77.151
-76.195
-75.365
-74.654
-74.049
-73.539
-73.112
-72.756
-72.458
-72.206
-71.988
-71.792
-71.608
-71.428
-71.242
-71.044
-70.83
-70.596
-70.342
-70.067
-69.776
-69.472
-69.163
-68.859
-68.57
-68.308
-68.09
-67.929
-67.845
-67.856
-67.98
-68.239
-68.652
-69.24
-70.024
-71.022
-72.255
-73.74
-75.495
-77.533
-79.87
-82.516
-85.481
-88.771
-92.392
-96.345
-100.629
-105.241
-110.173
-115.416
-120.958
-126.782
-132.87
-139.2
-145.749
-152.488
-159.39
-166.423
-173.553
-180.746
-187.964
-195.171
-202.328
-209.395
-216.335
-223.107
-229.674
-235.998
-242.043
-247.774
-253.159
-258.166
-262.767
-266.936
-270.652
-273.892
-276.642
-278.886
-280.616
-281.823
-282.505
-282.661
-282.295
-281.414
-280.027
-278.147
-275.79
-272.975
-269.722
-266.057
-262.003
-257.589
-252.844
-247.799
-242.484
-236.933
-231.178
-225.252
-219.188
-213.019
-206.776
-200.49
-194.192
-187.908
-181.665
-175.489
-169.401
-163.424
-157.575
-151.871
-146.327
-140.954
-135.761
-130.757
-125.948
-121.335
-116.921
-112.706
-108.688
-104.863
-101.227
-97.773
-94.495
-91.386
-88.436
-85.638
-82.981
-80.457
-78.056
-75.769
-73.586
-71.5
-69.502
-67.585
-65.742
-63.966
-62.254
-60.599
-59
-57.452
-55.954
-54.504
-53.102
-51.748
-50.441
-49.184
-47.976
-46.819
-45.714
-44.661
-43.662
-42.717
-41.824
-40.983
-40.192
-39.448
-38.746
-38.083
-37.452
-36.846
-36.257
-35.676
-35.093
-34.495
-33.871
-33.208
-32.491
-31.705
-30.836
-29.867
-28.782
-27.564
-26.199
-24.668
-22.957
-21.049
-18.93
-16.587
-14.005
-11.174
-8.083
-4.723
-1.087
2.831
7.033
11.521
16.294
21.349
26.681
32.282
38.143
44.253
50.596
57.157
63.917
70.858
77.957
85.192
92.538
99.968
107.457
114.977
122.5
129.997
137.438
144.797
152.042
159.146
166.081
172.82
179.335
185.603
191.598
197.298
202.681
207.729
212.423
216.747
220.688
224.232
227.37
230.093
232.396
234.273
235.722
236.743
237.336
237.504
237.252
236.585
235.509
234.035
232.169
229.924
227.309
224.338
221.021
217.372
213.405
209.134
204.572
199.735
194.635
189.289
183.711
177.915
171.916
165.728
159.367
152.846
146.18
139.384
132.472
125.459
118.36
111.19
103.965
96.7
89.411
82.116
74.83
67.572
60.36
53.213
46.15
39.192
32.359
25.672
19.154
12.826
6.711
0.833
-4.786
-10.122
-15.153
-19.855
-24.205
-28.181
-31.761
-34.925
-37.652
-39.923
-41.721
-43.031
-43.837
-44.126
-43.89
-43.118
-41.806
-39.95
-37.548
-34.604
-31.12
-27.106
-22.571
-17.528
-11.994
-5.987
0.47
7.354
14.638
22.292
30.284
38.582
47.149
55.949
64.942
74.09
83.351
92.684
102.047
111.399
120.697
129.9
138.968
147.861
156.54
164.97
173.114
180.941
188.419
195.521
202.222
208.5
214.335
219.711
224.617
229.043
232.982
236.432
239.393
241.871
243.871
245.403
246.481
247.121
247.339
247.158
246.599
245.688
244.45
242.914
241.109
239.064
236.81
234.379
231.802
229.11
226.334
223.504
220.65
217.799
214.978
212.212
209.525
206.937
204.466
202.13
199.942
197.914
196.053
194.367
192.858
191.528
190.374
189.392
188.576
187.916
187.401
187.019
186.752
186.585
186.5
186.475
186.49
186.523
186.55
186.547
186.492
186.359
186.123
185.762
185.251
184.568
183.691
182.6
181.275
179.699
177.857
175.735
173.322
170.607
167.585
164.25
160.599
156.634
152.356
147.77
142.883
137.705
132.248
126.525
120.552
114.346
107.927
101.316
94.535
87.608
80.56
73.416
66.203
58.947
51.677
44.42
37.203
30.053
22.996
16.057
9.261
2.63
-3.814
-10.052
-16.065
-21.84
-27.361
-32.618
-37.603
-42.309
-46.733
-50.874
-54.734
-58.317
-61.63
-64.682
-67.485
-70.054
-72.405
-74.555
-76.527
-78.342
-80.025
-81.601
-83.097
-84.542
-85.964
-87.394
-88.862
-90.397
-92.031
-93.793
-95.713
-97.819
-100.138
-102.696
-105.519
-108.628
-112.044
-115.785
-119.869
-124.308
-129.114
-134.294
-139.855
-145.799
-152.127
-158.834
-165.916
-173.363
-181.164
-189.304
-197.768
-206.535
-215.583
-224.89
-234.427
-244.167
-254.081
-264.136
-274.3
-284.539
-294.818
-305.102
-315.355
-325.542
-335.626
-345.572
-355.346
-364.914
-374.244
-383.304
-392.064
-400.498
-408.577
-416.28
-423.584
-430.469
-436.919
-442.92
-448.46
-453.529
-458.121
-462.233
-465.862
-469.011
-471.682
-473.883
-475.622
-476.909
-477.757
-478.181
-478.199
-477.828
-477.087
-475.998
-474.583
-472.864
-470.865
-468.609
-466.121
-463.424
-460.543
-457.499
-454.317
-451.017
-447.621
-444.147
-440.614
-437.037
-433.433
-429.813
-426.189
-422.571
-418.965
-415.378
-411.812
-408.269
-404.748
-401.249
-397.765
-394.292
-390.823
-387.347
-383.856
-380.337
-376.777
-373.164
-369.482
-365.718
-361.855
-357.878
-353.771
-349.52
-345.107
-340.519
-335.742
-330.762
-325.567
-320.146
-314.49
-308.59
-302.439
-296.034
-289.37
-282.446
-275.264
-267.825
-260.133
-252.195
-244.018
-235.613
-226.989
-218.161
-209.141
-199.946
-190.592
-181.096
-171.478
-161.757
-151.952
-142.083
-132.171
-122.237
-112.301
-102.383
-92.504
-82.683
-72.938
-63.288
-53.75
-44.338
-35.067
-25.949
-16.997
-8.219
0.376
8.783
16.997
25.015
32.836
40.461
47.893
55.134
62.19
69.068
75.775
82.32
88.712
94.961
101.079
107.077
112.965
118.755
124.459
130.087
135.651
141.162
146.628
152.06
157.465
162.852
168.225
173.59
178.95
184.307
189.662
195.013
200.357
205.69
211.006
216.297
221.554
226.765
231.919
237.003
242.001
246.899
251.679
256.326
260.821
265.148
269.289
273.226
276.943
280.424
283.651
286.61
289.287
291.669
293.743
295.498
296.925
298.016
298.765
299.167
299.22
298.921
298.274
297.28
295.944
294.275
292.28
289.97
287.359
284.461
281.292
277.87
274.212
270.339
266.271
262.03
257.635
253.11
248.474
243.749
238.954
234.11
229.234
224.344
219.455
214.583
209.74
204.938
200.186
195.491
190.861
186.298
181.804
177.378
173.019
168.721
164.478
160.28
156.116
151.972
147.835
143.686
139.508
135.281
130.985
126.598
122.097
117.461
112.668
107.695
102.522
97.128
91.494
85.603
79.439
72.989
66.24
59.184
51.812
44.122
36.11
27.777
19.126
10.164
0.9
-8.656
-18.488
-28.581
-38.914
-49.464
-60.208
-71.119
-82.167
-93.322
-104.551
-115.819
-127.092
-138.333
-149.506
-160.574
-171.5
-182.248
-192.783
-203.071
-213.079
-222.777
-232.136
-241.131
-249.738
-257.936
-265.708
-273.039
-279.918
-286.336
-292.287
-297.771
-302.788
-307.342
-311.441
-315.095
-318.316
-321.121
-323.528
-325.556
-327.229
-328.571
-329.607
-330.365
-330.873
-331.161
-331.257
-331.191
-330.992
-330.69
-330.311
-329.882
-329.429
-328.973
-328.537
-328.137
-327.791
-327.512
-327.309
-327.19
-327.16
-327.221
-327.37
-327.603
-327.914
-328.294
-328.728
-329.205
-329.706
-330.214
-330.709
-331.169
-331.572
-331.894
-332.112
-332.201
-332.137
-331.896
-331.456
-330.792
-329.885
-328.714
-327.261
-325.509
-323.446
-321.058
-318.338
-315.279
-311.877
-308.133
-304.049
-299.63
-294.886
-289.828
-284.47
-278.83
-272.927
-266.783
-260.421
-253.868
-247.151
-240.299
-233.342
-226.311
-219.237
-212.152
-205.085
-198.069
-191.133
-184.306
-177.614
-171.085
-164.74
-158.603
-152.693
-147.028
-141.62
-136.482
-131.623
-127.048
-122.76
-118.758
-115.037
-111.593
-108.414
-105.491
-102.807
-100.347
-98.09
-96.015
-94.1
-92.32
-90.646
-89.051
-87.505
-85.975
-84.431
-82.84
-81.171
-79.39
-77.466
-75.367
-73.065
-70.53
-67.735
-64.653
-61.258
-57.529
-53.445
-48.986
-44.132
-38.866
-33.173
-27.043
-20.465
-13.427
-5.915
2.073
10.54
19.487
28.917
38.841
49.277
60.219
71.661
83.623
96.121
109.166
122.772
136.913
151.545
166.678
182.338
198.429
214.837
231.621
248.769
266.257
284.318
302.317
319.631
337.121
355.041
374.992
398.896
424.614
450.699
474.993
494.542
511.883
529.154
547.802
570.226
594.553
618.893
642.761
665
686.214
707.171
727.661
747.733
767.276
786.105
804.345
822.072
839.228
855.788
871.753
887.164
902.114
916.658
930.789
944.45
957.544
969.987
981.724
992.679
1002.754
1011.795
1019.602
1026.039
1031.152
1035
1037.444
1038.245
1036.986
1033.254
1027.023
1018.268
1006.541
991.474
973.223
952.022
928.76
903.887
875.975
844.364
810.095
776.51
749.162
730.946
718.569
703.062
673.109
621.11
549.142
467.385
389.966
329.375
288.523
263.745
247.869
233.17
218.908
206.635
196.419
187.192
173.896
152.491
124.476
94.939
69.854
52.812
42.815
35.797
28.685
20.536
11.8
3.847
-2.893
-9.031
-14.946
-20.813
-26.613
-32.131
-37.288
-42.107
-46.455
-50.107
-52.952
-54.958
-56.15
-56.593
-56.271
-55.137
-53.195
-50.478
-47.03
-42.902
-38.131
-32.754
-26.847
-20.504
-13.827
-6.936
0.083
7.161
14.235
21.253
28.165
34.925
41.506
47.896
54.079
60.04
65.766
71.243
76.468
81.445
86.178
90.675
94.943
98.985
102.809
106.42
109.824
113.029
116.044
118.874
121.529
124.017
126.34
128.513
130.551
132.474
134.305
136.069
137.781
139.463
141.135
142.811
144.504
146.22
147.95
149.694
151.453
153.237
155.068
156.952
158.877
160.816
162.712
164.534
166.279
167.946
169.554
171.104
172.552
173.918
175.284
176.642
177.934
178.968
179.377
179.029
178.059
176.625
174.938
173.29
171.923
171.423
172.761
176.344
182.025
189.365
197.535
205.807
213.729
220.412
224.558
225.548
223.382
218.606
212.436
205.78
199.11
193.197
189.02
187.107
187.621
190.197
193.873
198.01
202.344
206.526
210.224
213.223
215.372
216.796
217.907
218.939
219.954
220.984
221.974
222.907
223.813
224.66
225.361
225.869
226.161
226.241
226.152
225.912
225.51
224.937
224.17
223.197
222.014
220.617
219.004
217.173
215.118
212.84
210.341
207.623
204.69
201.546
198.194
194.641
190.902
186.994
182.94
178.762
174.481
170.119
165.697
161.238
156.766
152.304
147.872
143.495
139.193
134.988
130.9
126.95
123.154
119.529
116.086
112.84
109.799
106.972
104.367
101.987
99.835
97.911
96.214
94.74
93.483
92.434
91.584
90.92
90.43
90.096
89.904
89.834
89.868
89.987
90.169
90.395
90.645
90.897
91.132
91.33
91.472
91.541
91.52
91.393
91.146
90.767
90.245
89.569
88.733
87.729
86.554
85.203
83.676
81.972
80.093
78.043
75.827
73.45
70.92
68.247
65.44
62.511
59.471
56.335
53.114
49.824
46.478
43.091
39.679
36.255
32.833
29.428
26.054
22.723
19.447
16.237
13.105
10.06
7.11
4.264
1.529
-1.09
-3.586
-5.955
-8.194
-10.299
-12.267
-14.099
-15.791
-17.346
-18.762
-20.042
-21.188
-22.201
-23.085
-23.843
-24.48
-25
-25.407
-25.708
-25.908
-26.013
-26.031
-25.967
-25.83
-25.627
-25.365
-25.054
-24.701
-24.317
-23.91
-23.491
-23.07
-22.66
-22.272
-21.921
-21.619
-21.382
-21.225
-21.165
-21.219
-21.406
-21.743
-22.252
-22.953
-23.866
-25.014
-26.419
-28.103
-30.091
-32.404
-35.066
-38.101
-41.531
-45.379
-49.668
-54.419
-59.654
-65.393
-71.656
-78.461
-85.824
-93.761
-102.285
-111.408
-121.139
-131.484
-142.448
-154.033
-166.238
-179.059
-192.49
-206.519
-221.136
-236.323
-252.061
-268.328
-285.1
-302.346
-320.037
-338.139
-356.614
-375.423
-394.524
-413.875
-433.428
-453.137
-472.95
-492.818
-512.687
-532.504
-552.215
-571.765
-591.1
-610.164
-628.903
-647.264
-665.194
-682.641
-699.557
-715.893
-731.605
-746.648
-760.983
-774.573
-787.382
-799.381
-810.541
-820.839
-830.253
-838.769
-846.372
-853.053
-858.808
-863.635
-867.536
-870.516
-872.586
-873.758
-874.05
-873.481
-872.074
-869.855
-866.855
-863.103
-858.635
-853.488
-847.698
-841.307
-834.355
-826.887
-818.945
-810.573
-801.816
-792.72
-783.327
-773.683
-763.831
-753.812
-743.669
-733.44
-723.165
-712.88
-702.62
-692.418
-682.306
-672.312
-662.462
-652.782
-643.294
-634.018
-624.97
-616.167
-607.622
-599.344
-591.342
-583.623
-576.19
-569.044
-562.187
-555.615
-549.325
-543.311
-537.565
-532.081
-526.846
-521.852
-517.085
-512.533
-508.184
-504.022
-500.036
-496.209
-492.528
-488.979
-485.548
-482.221
-478.984
-475.825
-472.731
-469.691
-466.693
-463.726
-460.781
-457.848
-454.918
-451.984
-449.038
-446.074
-443.085
-440.066
-437.013
-433.922
-430.789
-427.611
-424.388
-421.116
-417.795
-414.425
-411.005
-407.535
-404.016
-400.448
-396.832
-393.17
-389.461
-385.709
-381.913
-378.076
-374.197
-370.279
-366.323
-362.33
-358.3
-354.237
-350.14
-346.013
-341.858
-337.676
-333.471
-329.248
-325.009
-320.761
-316.507
-312.255
-308.011
-303.782
-299.578
-295.407
-291.279
-287.205
-283.197
-279.267
-275.427
-271.692
-268.075
-264.592
-261.258
-258.087
-255.097
-252.304
-249.724
-247.374
-245.27
-243.429
-241.865
-240.595
-239.631
-238.988
-238.677
-238.71
-239.094
-239.838
-240.946
-242.421
-244.266
-246.478
-249.053
-251.984
-255.263
-258.876
-262.809
-267.044
-271.561
-276.335
-281.342
-286.551
-291.933
-297.455
-303.08
-308.772
-314.491
-320.197
-325.85
-331.405
-336.819
-342.05
-347.053
-351.784
-356.201
-360.262
-363.926
-367.153
-369.906
-372.149
-373.849
-374.975
-375.501
-375.402
-374.656
-373.248
-371.164
-368.394
-364.934
-360.781
-355.94
-350.418
-344.225
-337.377
-329.892
-321.794
-313.108
-303.863
-294.092
-283.828
-273.108
-261.972
-250.46
-238.614
-226.475
-214.088
-201.495
-188.741
-175.867
-162.916
-149.929
-136.946
-124.004
-111.14
-98.387
-85.776
-73.337
-61.094
-49.071
-37.286
-25.755
-14.492
-3.505
7.199
17.619
27.754
37.608
47.188
56.503
65.564
74.385
82.981
91.37
99.57
107.599
115.479
123.228
130.868
138.418
145.898
153.326
160.721
168.098
175.473
182.859
190.268
197.71
205.194
212.723
220.303
227.935
235.617
243.346
251.117
258.923
266.753
274.596
282.438
290.265
298.058
305.801
313.474
321.058
328.532
335.876
343.069
350.09
356.92
363.54
369.931
376.075
381.958
387.564
392.882
397.899
402.607
406.998
411.068
414.812
418.23
421.321
424.09
426.54
428.678
430.512
432.052
433.311
434.301
435.038
435.536
435.814
435.89
435.781
435.508
435.089
434.546
433.899
433.167
432.37
431.528
430.66
429.784
428.917
428.075
427.274
426.528
425.85
425.251
424.741
424.33
424.025
423.831
423.755
423.799
423.965
424.254
424.664
425.193
425.839
426.596
427.457
428.418
429.469
430.601
431.804
433.068
434.379
435.727
437.096
438.473
439.842
441.188
442.495
443.746
444.926
446.017
447.003
447.866
448.59
449.156
449.548
449.748
449.74
449.507
449.035
448.307
447.31
446.03
444.456
442.575
440.377
437.854
434.998
431.802
428.263
424.377
420.145
415.566
410.646
405.389
399.804
393.901
387.692
381.191
374.414
367.376
360.099
352.603
344.909
337.041
329.026
320.89
312.664
304.376
296.058
287.741
279.456
271.236
263.11
255.111
247.268
239.608
232.16
224.948
217.999
211.332
204.967
198.918
193.197
187.815
182.777
178.083
173.728
169.705
166.004
162.613
159.515
156.693
154.125
151.789
149.664
147.727
145.947
144.29
142.718
141.186
139.65
138.063
136.373
134.529
132.483
130.189
127.606
124.704
121.444
117.788
113.698
109.129
104.052
98.451
92.309
85.625
78.414
70.703
62.547
54.009
45.127
35.934
26.449
16.665
6.594
-3.758
-14.39
-25.266
-36.352
-47.628
-59.051
-70.602
-82.288
-94.13
-106.19
-118.544
-131.208
-144.17
-157.392
-170.76
-184.164
-197.476
-210.531
-223.241
-235.533
-247.304
-258.473
-268.931
-278.518
-287.067
-294.365
-300.153
-304.226
-306.427
-306.641
-304.877
-301.166
-295.562
-288.164
-278.98
-268.002
-255.288
-240.907
-224.969
-207.642
-189.122
-169.661
-149.613
-129.346
-109.173
-89.359
-70.049
-51.355
-33.394
-16.272
-0.17
14.741
28.359
40.614
51.467
60.915
68.998
75.822
81.625
86.702
91.292
95.578
99.662
103.616
107.542
111.553
115.791
120.364
125.334
130.747
136.649
143.079
150.043
157.473
165.194
172.98
180.645
188.08
195.247
202.106
208.592
214.629
220.117
225.05
229.516
233.459
236.697
239.061
240.351
240.61
240.212
239.355
237.995
236.337
234.713
233.505
233.326
234.194
235.396
236.54
237.519
237.996
237.65
235.99
232.113
225.956
218.365
209.844
200.705
191.309
181.792
172.545
164.367
157.363
150.96
144.798
138.571
132.085
125.433
118.51
110.96
102.753
94.132
85.277
76.393
67.573
58.734
49.882
41.106
32.437
23.878
15.432
7.07
-1.192
-9.293
-17.192
-24.852
-32.248
-39.374
-46.219
-52.764
-58.995
-64.894
-70.448
-75.647
-80.481
-84.942
-89.024
-92.719
-96.021
-98.928
-101.438
-103.554
-105.272
-106.589
-107.5
-108.006
-108.107
-107.81
-107.121
-106.045
-104.59
-102.769
-100.591
-98.071
-95.224
-92.064
-88.609
-84.875
-80.883
-76.654
-72.208
-67.57
-62.763
-57.81
-52.736
-47.568
-42.329
-37.048
-31.749
-26.46
-21.207
-16.016
-10.913
-5.926
-1.077
3.608
8.106
12.396
16.456
20.269
23.817
27.085
30.061
32.733
35.094
37.138
38.862
40.265
41.349
42.12
42.584
42.752
42.636
42.252
41.616
40.748
39.671
38.408
36.985
35.431
33.774
32.045
30.277
28.503
26.757
25.073
23.487
22.034
20.748
19.664
18.817
18.239
17.963
18.019
18.436
19.24
20.457
22.109
24.216
26.794
29.859
33.42
37.487
42.065
47.156
52.759
58.87
65.482
72.585
80.165
88.206
96.689
105.593
114.894
124.564
134.577
144.9
155.502
166.348
177.402
188.627
199.986
211.439
222.946
234.467
245.961
257.39
268.712
279.889
290.883
301.657
312.173
322.399
332.301
341.847
351.01
359.761
368.076
375.931
383.307
390.185
396.551
402.39
407.692
412.448
416.653
420.303
423.396
425.935
427.921
429.362
430.266
430.642
430.505
429.869
428.752
427.173
425.154
422.719
419.892
416.702
413.176
409.345
405.242
400.898
396.349
391.629
386.773
381.818
376.8
371.757
366.726
361.744
356.85
352.08
347.472
343.064
338.892
334.992
331.399
328.148
325.271
322.801
320.768
319.2
318.125
317.566
317.546
318.084
319.197
320.899
323.199
326.104
329.615
333.734
338.456
343.772
349.672
356.142
363.165
370.721
378.787
387.336
396.339
405.761
415.568
425.72
436.178
446.896
457.829
468.931
480.151
491.442
502.753
514.031
525.223
536.279
547.144
557.769
568.103
578.099
587.71
596.895
605.616
613.84
621.537
628.679
635.247
641.226
646.602
651.365
655.509
659.029
661.926
664.205
665.877
666.953
667.45
667.394
666.816
665.757
664.257
662.355
660.095
657.518
654.671
651.605
648.364
644.99
641.53
638.035
634.564
631.192
627.974
624.939
622.109
619.486
617.073
614.883
612.906
611.114
609.501
608.067
606.842
605.893
605.251
604.917
604.869
605.04
605.401
605.957
606.708
607.666
608.841
610.221
611.838
613.77
616.015
618.518
621.149
623.683
625.952
627.842
629.256
630.137
630.398
629.906
628.554
626.248
622.879
618.347
612.49
605.081
596
585.223
572.814
558.964
543.804
527.406
509.851
491.202
471.538
450.975
429.586
407.416
384.548
361.085
337.191
313.102
288.969
264.869
240.823
216.77
192.691
168.62
144.573
120.568
96.637
72.805
49.135
25.734
2.673
-20.004
-42.28
-64.183
-85.701
-106.786
-127.377
-147.384
-166.735
-185.385
-203.278
-220.357
-236.582
-251.926
-266.389
-279.996
-292.764
-304.698
-315.803
-326.077
-335.529
-344.183
-352.063
-359.199
-365.624
-371.37
-376.478
-380.991
-384.953
-388.398
-391.36
-393.867
-395.948
-397.634
-398.958
-399.948
-400.634
-401.043
-401.203
-401.143
-400.887
-400.457
-399.872
-399.149
-398.302
-397.346
-396.29
-395.145
-393.918
-392.615
-391.242
-389.804
-388.302
-386.739
-385.115
-383.431
-381.686
-379.879
-378.008
-376.072
-374.069
-371.998
-369.858
-367.651
-365.376
-363.036
-360.632
-358.171
-355.657
-353.096
-350.495
-347.861
-345.206
-342.538
-339.871
-337.216
-334.587
-332
-329.468
-327.008
-324.635
-322.365
-320.213
-318.195
-316.326
-314.621
-313.093
-311.756
-310.623
-309.704
-309.01
-308.55
-308.333
-308.363
-308.646
-309.184
-309.978
-311.029
-312.333
-313.887
-315.683
-317.716
-319.974
-322.448
-325.124
-327.989
-331.027
-334.223
-337.56
-341.02
-344.586
-348.239
-351.961
-355.735
-359.542
-363.365
-367.188
-370.995
-374.77
-378.5
-382.171
-385.773
-389.294
-392.727
-396.063
-399.297
-402.426
-405.446
-408.356
-411.157
-413.851
-416.442
-418.936
-421.338
-423.656
-425.898
-428.075
-430.196
-432.271
-434.31
-436.324
-438.321
-440.312
-442.306
-444.308
-446.328
-448.369
-450.436
-452.533
-454.66
-456.817
-459.002
-461.212
-463.442
-465.684
-467.93
-470.171
-472.395
-474.588
-476.737
-478.827
-480.839
-482.756
-484.56
-486.229
-487.744
-489.084
-490.23
-491.162
-491.861
-492.31
-492.491
-492.389
-491.993
-491.289
-490.269
-488.925
-487.253
-485.25
-482.919
-480.262
-477.288
-474.005
-470.425
-466.566
-462.444
-458.08
-453.495
-448.715
-443.766
-438.677
-433.48
-428.208
-422.895
-417.58
-412.301
-407.098
-402.012
-397.082
-392.349
-387.851
-383.625
-379.709
-376.14
-372.949
-370.169
-367.832
-365.965
-364.596
-363.747
-363.439
-363.689
-364.508
-365.906
-367.889
-370.461
-373.62
-377.362
-381.681
-386.57
-392.019
-398.015
-404.541
-411.577
-419.101
-427.085
-435.5
-444.312
-453.481
-462.967
-472.731
-482.732
-492.932
-503.294
-513.783
-524.364
-535.008
-545.679
-556.339
-566.948
-577.461
-587.833
-598.017
-607.969
-617.643
-627.006
-636.029
-644.688
-652.966
-660.834
-668.258
-675.196
-681.602
-687.438
-692.679
-697.305
-701.3
-704.681
-707.484
-709.77
-711.631
-713.125
-714.269
-715.076
-715.537
-715.666
-715.507
-715.067
-714.318
-713.236
-711.764
-709.889
-707.674
-705.066
-701.912
-698.091
-693.453
-688.034
-682.119
-675.784
-668.892
-661.335
-652.96
-643.622
-633.309
-621.627
-607.778
-591.475
-572.91
-552.649
-531.736
-511.166
-491.726
-474.614
-461.385
-452.896
-449.345
-450.24
-454.295
-460.397
-467.745
-475.284
-481.751
-486.374
-488.824
-489.26
-488.434
-486.799
-484.359
-481.123
-477.192
-472.57
-467.247
-461.246
-454.35
-446.371
-437.434
-427.651
-416.862
-404.88
-391.341
-375.375
-356.363
-334.251
-309.002
-281.105
-251.925
-222.65
-194.627
-170.02
-150.435
-136.72
-129.71
-129.098
-133.2
-140.636
-149.751
-158.022
-163.738
-165.623
-162.115
-152.926
-139.014
-121.192
-100.82
-79.898
-59.618
-41.056
-25.642
-13.913
-5.771
-1.08
0.902
1.231
0.412
-1.093
-2.683
-4.16
-5.438
-6.462
-7.531
-9.02
-11.068
-13.76
-17.147
-21.158
-25.778
-31.005
-36.75
-42.924
-49.478
-56.383
-63.653
-71.321
-79.394
-87.856
-96.686
-105.856
-115.34
-125.113
-135.145
-145.397
-155.829
-166.4
-177.071
-187.807
-198.571
-209.326
-220.031
-230.649
-241.147
-251.492
-261.657
-271.616
-281.339
-290.797
-299.961
-308.803
-317.296
-325.414
-333.132
-340.425
-347.271
-353.647
-359.534
-364.911
-369.76
-374.063
-377.8
-380.957
-383.519
-385.474
-386.812
-387.525
-387.606
-387.049
-385.85
-384.009
-381.522
-378.389
-374.613
-370.196
-365.141
-359.455
-353.145
-346.222
-338.695
-330.58
-321.889
-312.642
-302.855
-292.55
-281.748
-270.473
-258.752
-246.612
-234.08
-221.188
-207.967
-194.45
-180.671
-166.665
-152.467
-138.114
-123.642
-109.089
-94.494
-79.893
-65.326
-50.83
-36.446
-22.21
-8.162
5.661
19.222
32.484
45.411
57.969
70.124
81.845
93.102
103.866
114.112
123.814
132.951
141.503
149.455
156.79
163.499
169.571
175.001
179.786
183.925
187.42
190.277
192.504
194.112
195.114
195.528
195.373
194.67
193.445
191.724
189.537
186.915
183.893
180.505
176.79
172.786
168.533
164.073
159.447
154.699
149.87
145.003
140.141
135.325
130.597
125.994
121.557
117.321
113.322
109.592
106.163
103.064
100.319
97.953
95.986
94.435
93.317
92.642
92.42
92.655
93.351
94.506
96.117
98.178
100.678
103.605
106.945
110.679
114.787
119.247
124.035
129.126
134.491
140.103
145.932
151.949
158.124
164.425
170.824
177.29
183.795
190.309
196.807
203.262
209.65
215.948
222.135
228.193
234.104
239.854
245.43
250.823
256.025
261.03
265.836
270.442
274.851
279.066
283.096
286.949
290.636
294.172
297.572
300.852
304.033
307.134
310.177
313.185
316.181
319.189
322.234
325.341
328.534
331.839
335.281
338.883
342.669
346.661
350.882
355.352
360.091
365.117
370.447
376.097
382.081
388.411
395.098
402.15
409.574
417.375
425.555
434.114
443.051
452.361
462.037
472.07
482.449
493.159
504.185
515.509
527.108
538.96
551.04
563.321
575.773
588.366
601.067
613.841
626.653
639.466
652.241
664.938
677.516
689.933
702.144
714.107
725.776
737.107
748.054
758.573
768.618
778.146
787.112
795.474
803.188
810.215
816.514
822.048
826.782
830.683
833.723
835.875
837.114
837.42
836.772
835.154
832.55
828.951
824.351
818.747
812.141
804.543
795.963
786.421
775.938
764.539
752.25
739.102
725.129
710.375
694.891
678.734
661.963
644.639
626.821
608.569
589.946
571.008
551.812
532.411
512.85
493.183
473.472
453.774
434.139
414.595
395.141
375.786
356.549
337.469
318.604
300.016
281.743
263.847
246.437
229.545
213.134
197.09
181.189
165.257
149.27
133.275
117.332
101.824
87.391
74.779
64.92
58.559
56.002
57.356
62.601
70.939
80.943
91.041
99.364
104.414
105.437
101.823
93.059
79.776
63.513
46.088
29.803
16.425
6.82
1.924
2.7
9.058
20.092
34.442
50.104
65.636
80.386
93.529
104.178
112.016
117.125
120.051
121.916
123.423
124.792
126.335
128.334
130.956
134.338
138.343
142.542
146.698
150.757
154.684
158.528
162.288
165.897
169.365
172.76
176.119
179.451
182.737
185.914
188.945
191.823
194.541
197.105
199.513
201.761
203.847
205.777
207.557
209.202
210.721
212.124
213.422
214.623
215.742
216.793
217.79
218.743
219.66
220.545
221.404
222.246
223.079
223.912
224.753
225.608
226.484
227.389
228.331
229.315
230.346
231.43
232.569
233.767
235.029
236.355
237.748
239.209
240.737
242.33
243.988
245.707
247.485
249.319
251.203
253.136
255.111
257.125
259.174
261.252
263.355
265.479
267.617
269.766
271.92
274.075
276.226
278.367
280.495
282.605
284.691
286.751
288.779
290.771
292.725
294.636
296.503
298.322
300.091
301.809
303.473
305.082
306.635
308.13
309.566
310.941
312.253
313.5
314.679
315.787
316.82
317.773
318.642
319.42
320.101
320.678
321.143
321.487
321.702
321.778
321.705
321.471
321.067
320.479
319.698
318.71
317.503
316.064
314.381
312.442
310.232
307.739
304.951
301.855
298.44
294.695
290.61
286.175
281.383
276.227
270.701
264.803
258.53
251.883
244.863
237.474
229.723
221.619
213.172
204.394
195.3
185.909
176.238
166.308
156.142
145.765
135.202
124.482
113.634
102.688
91.676
80.632
69.59
58.585
47.652
36.827
26.148
15.651
5.371
-4.656
-14.395
-23.811
-32.872
-41.547
-49.807
-57.625
-64.975
-71.835
-78.187
-84.013
-89.301
-94.04
-98.223
-101.848
-104.914
-107.424
-109.386
-110.809
-111.707
-112.097
-112
-111.439
-110.442
-109.039
-107.263
-105.15
-102.741
-100.077
-97.202
-94.163
-91.009
-87.791
-84.561
-81.373
-78.283
-75.343
-72.61
-70.14
-67.988
-66.21
-64.859
-63.985
-63.636
-63.862
-64.713
-66.223
-68.429
-71.363
-75.052
-79.534
-84.847
-91.005
-98.016
-105.92
-114.749
-124.523
-135.271
-146.974
-159.59
-173.131
-187.627
-202.966
-219.009
-235.785
-253.25
-271.35
-290.298
-309.431
-328.079
-347.079
-366.688
-388.487
-414.376
-442.186
-470.397
-496.833
-518.603
-538.153
-557.384
-577.672
-601.477
-626.959
-652.498
-677.263
-698.837
-718.02
-736.76
-756.738
-781.632
-811.261
-841.739
-869.515
-889.496
-901.092
-909.153
-917.453
-929.999
-947.614
-966.618
-984.68
-1000.253
-1012.8
-1023.792
-1033.92
-1043.111
-1051.411
-1058.587
-1064.567
-1069.551
-1073.597
-1076.67
-1078.774
-1079.919
-1080.103
-1079.32
-1077.558
-1074.79
-1071.014
-1066.257
-1060.537
-1053.867
-1046.267
-1037.758
-1028.364
-1018.117
-1007.047
-995.182
-982.555
-969.197
-955.141
-940.421
-925.069
-909.12
-892.611
-875.579
-858.066
-840.117
-821.778
-803.1
-784.137
-764.938
-745.559
-726.052
-706.47
-686.864
-667.284
-647.772
-628.379
-609.156
-590.156
-571.446
-553.081
-535.09
-517.503
-500.335
-483.582
-467.252
-451.326
-435.768
-420.557
-405.682
-391.177
-377.117
-363.555
-350.523
-338.023
-326.004
-314.486
-303.541
-293.094
-283.108
-273.566
-264.396
-255.775
-247.983
-241.011
-234.807
-229.512
-225.073
-221.551
-219.143
-217.423
-215.946
-214.659
-213.37
-211.742
-209.613
-206.461
-201.694
-195.58
-188.325
-179.847
-170.319
-159.88
-148.656
-137.213
-126.071
-115.035
-103.936
-92.742
-81.33
-69.803
-58.281
-46.649
-34.836
-23.092
-11.711
-0.929
9.059
18.265
26.792
34.7
42.021
48.809
55.122
61.001
66.491
71.589
76.247
80.435
84.146
87.414
90.31
92.902
95.218
97.265
99.029
100.472
101.581
102.351
102.765
102.83
102.566
102.003
101.198
100.224
99.135
97.978
96.794
95.615
94.488
93.462
92.588
91.917
91.501
91.387
91.628
92.269
93.348
94.897
96.937
99.483
102.548
106.143
110.273
114.943
120.152
125.898
132.173
138.969
146.271
154.06
162.314
171.004
180.101
189.571
199.379
209.487
219.856
230.445
241.214
252.121
263.124
274.182
285.253
296.299
307.279
318.157
328.898
339.468
349.836
359.974
369.856
379.462
388.772
397.77
406.443
414.782
422.779
430.43
437.733
444.688
451.298
457.57
463.509
469.128
474.437
479.45
484.182
488.647
492.862
496.844
500.609
504.172
507.55
510.757
513.807
516.714
519.488
522.14
524.677
527.107
529.433
531.658
533.782
535.803
537.718
539.519
541.2
542.751
544.16
545.415
546.5
547.4
548.098
548.577
548.817
548.8
548.506
547.917
547.012
545.775
544.185
542.228
539.886
537.147
533.996
530.423
526.42
521.979
517.096
511.769
505.998
499.785
493.137
486.061
478.568
470.67
462.383
453.724
444.712
435.371
425.724
415.797
405.617
395.213
384.616
373.856
362.967
351.981
340.932
329.853
318.777
307.739
296.772
285.907
275.176
264.611
254.24
244.091
234.191
224.563
215.232
206.216
197.536
189.207
181.244
173.659
166.463
159.663
153.266
147.275
141.693
136.52
131.754
127.391
123.427
119.856
116.669
113.858
111.412
109.321
107.574
106.158
105.06
104.267
103.766
103.544
103.587
103.883
104.418
105.181
106.16
107.344
108.723
110.288
112.029
113.941
116.014
118.243
120.622
123.145
125.81
128.61
131.543
134.605
137.794
141.106
144.538
148.088
151.752
155.527
159.409
163.393
167.474
171.648
175.906
180.241
184.646
189.11
193.622
198.172
202.745
207.327
211.903
216.455
220.964
225.411
229.776
234.036
238.17
242.153
245.963
249.575
252.965
256.109
258.984
261.565
263.829
265.754
267.318
268.5
269.282
269.644
269.571
269.048
268.062
266.605
264.666
262.241
259.325
255.916
252.015
247.627
242.755
237.409
231.599
225.339
218.648
211.543
204.045
196.176
187.957
179.411
170.563
161.439
152.067
142.473
132.687
122.738
112.659
102.481
92.235
81.952
71.654
61.368
51.12
40.939
30.858
20.908
11.116
1.503
-7.911
-17.113
-26.089
-34.832
-43.342
-51.626
-59.694
-67.552
-75.201
-82.644
-89.899
-97.004
-104.025
-111.021
-118.019
-125.033
-132.051
-139.054
-146.07
-153.101
-160.092
-167.052
-174.045
-181.179
-188.72
-196.893
-205.644
-214.885
-224.503
-234.063
-243.103
-251.109
-257.19
-260.642
-261.357
-259.298
-254.648
-248.355
-241.385
-234.79
-230.217
-228.904
-231.288
-237.848
-248.744
-262.996
-279.517
-296.955
-313.189
-326.715
-336.779
-342.401
-342.852
-338.453
-329.739
-317.731
-304.24
-290.444
-276.963
-264.676
-254.327
-246.096
-240.009
-235.596
-231.804
-228.038
-224.046
-219.471
-214.062
-207.682
-200.217
-191.839
-182.993
-173.923
-164.729
-155.494
-146.21
-136.922
-127.722
-118.625
-109.595
-100.629
-91.753
-83.02
-74.522
-66.323
-58.457
-50.954
-43.829
-37.105
-30.805
-24.944
-19.531
-14.568
-10.055
-5.99
-2.37
0.81
3.561
5.898
7.839
9.403
10.609
11.473
12.011
12.242
12.19
11.879
11.335
10.584
9.653
8.571
7.366
6.067
4.704
3.303
1.892
0.498
-0.853
-2.135
-3.324
-4.396
-5.33
-6.107
-6.708
-7.118
-7.321
-7.305
-7.06
-6.577
-5.85
-4.873
-3.644
-2.162
-0.429
1.552
3.774
6.23
8.91
11.801
14.889
18.159
21.591
25.167
28.864
32.66
36.529
40.448
44.389
48.325
52.228
56.07
59.822
63.457
66.946
70.262
73.376
76.264
78.899
81.258
83.318
85.058
86.459
87.503
88.175
88.462
88.353
87.841
86.919
85.585
83.839
81.685
79.129
76.18
72.85
69.154
65.11
60.739
56.064
51.111
45.908
40.485
34.875
29.111
23.229
17.267
11.26
5.25
-0.727
-6.629
-12.419
-18.057
-23.504
-28.724
-33.679
-38.336
-42.659
-46.619
-50.185
-53.331
-56.03
-58.263
-60.008
-61.251
-61.979
-62.181
-61.851
-60.986
-59.586
-57.653
-55.194
-52.218
-48.736
-44.762
-40.315
-35.413
-30.079
-24.337
-18.212
-11.731
-4.924
2.179
9.548
17.152
24.957
32.932
41.045
49.262
57.551
65.882
74.222
82.543
90.813
99.007
107.098
115.061
122.873
130.513
137.962
145.202
152.217
158.994
165.521
171.786
177.782
183.503
188.941
194.095
198.961
203.539
207.828
211.831
215.548
218.983
222.14
225.023
227.636
229.986
232.077
233.917
235.513
236.87
237.997
238.9
239.587
240.065
240.341
240.421
240.312
240.019
239.549
238.905
238.094
237.118
235.982
234.69
233.243
231.646
229.9
228.007
225.97
223.791
221.472
219.015
216.422
213.697
210.842
207.86
204.755
201.531
198.191
194.739
191.18
187.518
183.756
179.901
175.955
171.925
167.814
163.63
159.377
155.061
150.689
146.268
141.805
137.307
132.784
128.242
123.692
119.141
114.599
110.076
105.581
101.124
96.715
92.362
88.076
83.867
79.745
75.716
71.791
67.976
64.279
60.709
57.276
53.985
50.845
47.861
45.041
42.393
39.924
37.638
35.537
33.621
31.889
30.343
28.984
27.814
26.828
26.019
25.381
24.912
24.61
24.474
24.5
24.679
25.004
25.477
26.101
26.89
27.852
28.989
30.304
31.787
33.445
35.296
37.357
39.646
42.155
44.833
47.649
50.594
53.652
56.841
60.099
63.236
66.199
69.067
71.921
74.948
78.141
81.155
83.889
86.549
89.032
91.031
92.061
91.193
88.122
83.472
77.485
70.046
61.637
53.131
45.967
42.461
43.202
46.726
52.607
61.444
75.387
97.233
125.745
155.507
178.245
186.647
178.99
157.341
127.766
96.297
63.922
32.445
3.971
-19.67
-32.508
-32.512
-23.656
-10.235
1.246
7.345
10.336
11.883
12.972
13.314
10.839
4.916
-3.564
-13.385
-23.52
-33.604
-43.586
-53.229
-62.255
-70.545
-78.282
-85.884
-93.565
-101.325
-109.101
-116.806
-124.442
-132.05
-139.603
-147.016
-154.235
-161.249
-168.077
-174.776
-181.372
-187.864
-194.252
-200.53
-206.697
-212.759
-218.719
-224.572
-230.312
-235.929
-241.411
-246.751
-251.941
-256.973
-261.837
-266.522
-271.017
-275.315
-279.412
-283.307
-286.995
-290.468
-293.721
-296.745
-299.535
-302.086
-304.394
-306.453
-308.26
-309.81
-311.1
-312.128
-312.891
-313.386
-313.611
-313.564
-313.245
-312.653
-311.792
-310.663
-309.269
-307.616
-305.707
-303.547
-301.143
-298.502
-295.631
-292.541
-289.244
-285.754
-282.087
-278.263
-274.303
-270.231
-266.073
-261.856
-257.606
-253.348
-249.111
-244.918
-240.794
-236.764
-232.851
-229.082
-225.486
-222.094
-218.94
-216.058
-213.483
-211.247
-209.38
-207.911
-206.866
-206.265
-206.123
-206.462
-207.3
-208.664
-210.588
-213.094
-216.193
-219.884
-224.154
-228.968
-234.279
-240.033
-246.167
-252.637
-259.411
-266.468
-273.826
-281.512
-289.554
-297.957
-306.688
-315.694
-324.951
-334.468
-344.227
-354.208
-364.422
-374.894
-385.706
-396.963
-408.685
-420.747
-433.089
-445.793
-458.728
-471.678
-484.566
-497.045
-509.464
-523.169
-537.793
-551.874
-563.127
-567.275
-564.264
-558.087
-552.748
-554.062
-562.614
-573
-581.113
-582.519
-576.43
-567.093
-557.18
-548.501
-541.708
-535.206
-528.268
-521.054
-513.653
-506.472
-499.731
-493.288
-487.064
-481.005
-475.04
-469.224
-463.604
-458.113
-452.533
-446.58
-440.174
-433.546
-426.897
-420.074
-413.004
-405.872
-399.284
-394.331
-390.88
-387.453
-383.362
-378.894
-376.533
-380.407
-390.944
-404.816
-416.442
-418.42
-407.696
-386.493
-358.899
-332.086
-312.619
-303.114
-304.845
-315.209
-328.321
-340.063
-347.122
-349.095
-348.871
-348.632
-350.021
-352.568
-354.72
-354.994
-352.119
-348.039
-344.369
-343.091
-346.546
-352.414
-358.852
-364.352
-366.669
-367.65
-369.043
-371.199
-375.194
-380.405
-385.526
-390.292
-394.169
-396.019
-395.845
-393.925
-389.197
-381.757
-371.263
-356.861
-341.58
-328.612
-321.263
-322.947
-332.14
-346.664
-363.767
-380.044
-395.647
-409.872
-421.503
-430.368
-434.398
-432.513
-425.642
-414.373
-400.052
-384.778
-369.619
-355.493
-343.718
-334.755
-328.461
-324.685
-322.685
-321.385
-320.261
-318.868
-316.63
-313.371
-309.027
-303.545
-297.206
-290.386
-283.234
-275.853
-268.316
-260.581
-252.663
-244.602
-236.354
-227.877
-219.165
-210.231
-201.127
-191.926
-182.671
-173.388
-164.098
-154.816
-145.562
-136.356
-127.211
-118.137
-109.142
-100.234
-91.425
-82.722
-74.129
-65.644
-57.26
-48.972
-40.781
-32.69
-24.709
-16.849
-9.119
-1.538
5.87
13.079
20.069
26.83
33.345
39.594
45.534
51.105
56.25
60.933
65.142
68.883
72.177
75.019
77.427
79.486
81.213
82.574
83.467
83.653
82.932
81.264
78.694
75.32
71.552
67.985
65.306
64.531
66.551
71.911
80.909
93.439
108.642
125.191
141.65
156.096
166.727
172.225
171.548
164.414
151.677
134.958
116.07
97.38
81.275
69.637
64.179
65.831
74.356
88.741
107.665
129.298
151.643
173.122
192.236
207.983
220.156
229.005
235.033
239.1
242.216
245.097
248.382
252.498
257.505
263.36
269.914
276.859
283.827
290.59
296.99
302.936
308.439
313.477
318.02
322.08
325.663
328.753
331.31
333.278
334.59
335.206
335.109
334.291
332.753
330.499
327.535
323.879
319.556
314.597
309.039
302.917
296.275
289.164
281.632
273.731
265.516
257.034
248.343
239.515
230.601
221.654
212.76
203.99
195.404
187.087
179.09
171.414
164.113
157.256
150.786
144.662
139.017
133.861
129.178
125.295
121.76
117.971
114.753
112.378
112.11
116.308
123.59
131.825
138.815
140.374
137.037
132.78
130.278
133.749
144.268
157.755
171.769
183.877
192.308
199.421
206.707
214.594
224.009
234.167
244.362
254.777
265.249
275.784
286.509
297.284
307.987
318.611
329.115
339.445
349.583
359.516
369.224
378.702
387.948
396.939
405.656
414.094
422.238
430.082
437.618
444.84
451.74
458.317
464.571
470.499
476.105
481.391
486.362
491.021
495.377
499.436
503.206
506.695
509.909
512.856
515.544
517.981
520.174
522.132
523.863
525.378
526.683
527.789
528.706
529.441
530.005
530.406
530.654
530.759
530.735
530.595
530.353
530.025
529.631
529.19
528.724
528.255
527.802
527.384
527.02
526.727
526.52
526.412
526.413
526.539
526.805
527.23
527.833
528.633
529.65
530.903
532.409
534.182
536.232
538.561
541.164
544.04
547.19
550.619
554.339
558.344
562.618
567.143
571.883
576.788
581.794
586.808
591.725
596.471
600.981
605.21
609.146
612.762
616.04
618.971
621.512
623.63
625.302
626.482
627.139
627.282
626.94
626.195
625.158
623.869
622.329
620.507
618.298
615.589
612.237
608.045
602.865
596.575
589.054
580.24
570.066
558.42
545.19
530.214
513.284
494.282
473.138
449.82
424.418
397.038
367.812
336.993
304.826
271.531
237.348
202.462
167.011
131.261
95.621
60.375
25.668
-8.328
-41.592
-73.681
-103.599
-131.516
-158.363
-185.998
-217.401
-252.632
-289.79
-325.397
-353.504
-371.832
-380.392
-381.49
-382.918
-390.691
-409.379
-441.113
-479.649
-516.824
-544.498
-556.429
-554.398
-544.538
-534.665
-531.26
-536.174
-547.522
-560.167
-570.318
-576.067
-577.176
-577.119
-577.182
-576.726
-574.534
-566.404
-551.731
-533.328
-515.296
-504.429
-503.24
-510.294
-521.271
-528.182
-526.597
-515.026
-495.647
-475.155
-457.918
-446.649
-441.341
-438.3
-435.216
-430.752
-424.525
-417.857
-411.351
-404.985
-398.783
-392.478
-386.005
-379.548
-373.151
-366.779
-360.413
-353.995
-347.493
-340.908
-334.22
-327.405
-320.473
-313.437
-306.31
-299.161
-291.957
-284.507
-276.79
-268.903
-260.821
-252.733
-244.394
-234.763
-223.972
-213.019
-203.544
-198.44
-198.024
-199.44
-198.425
-190.085
-172.575
-148.5
-123.466
-102.538
-88.389
-80.708
-75.23
-68.51
-58.538
-43.699
-25.461
-5.141
16.932
39.922
64.134
89.639
115.23
139.013
158.762
172.767
179.713
178.758
169.581
151.912
126.5
95.593
61.492
26.36
-7.309
-37.683
-63.256
-82.775
-96.618
-105.944
-111.096
-110.604
-102.151
-85.157
-61.833
-38.955
-24.996
-23.443
-33.754
-50.55
-64.373
-70.739
-68.575
-58.878
-47.389
-37.297
-29.653
-25.828
-23.947
-22.638
-21.783
-20.555
-19.389
-18.776
-18.414
-18.172
-17.757
-16.881
-15.578
-13.968
-12.14
-10.147
-8.013
-5.728
-3.24
-0.527
2.421
5.632
9.078
12.712
16.479
20.287
24.048
27.711
31.239
34.619
37.859
40.96
43.93
46.784
49.524
52.147
54.655
57.041
59.308
61.466
63.53
65.526
67.484
69.427
71.378
73.361
75.392
77.489
79.666
81.933
84.3
86.781
89.392
92.149
95.067
98.162
101.447
104.936
108.64
112.567
116.722
121.108
125.727
130.578
135.659
140.966
146.496
152.24
158.191
164.339
170.673
177.179
183.844
190.649
197.576
204.606
211.717
218.887
226.094
233.313
240.522
247.697
254.813
261.849
268.78
275.582
282.233
288.71
294.992
301.059
306.891
312.471
317.785
322.818
327.56
332
336.133
339.951
343.452
346.633
349.495
352.04
354.271
356.193
357.814
359.143
360.19
360.966
361.485
361.76
361.807
361.64
361.277
360.734
360.027
359.174
358.192
357.098
355.909
354.64
353.307
351.925
350.507
349.066
347.614
346.16
344.714
343.283
341.873
340.489
339.136
337.815
336.527
335.273
334.053
332.864
331.704
330.57
329.46
328.369
327.292
326.227
325.168
324.112
323.055
321.993
320.924
319.846
318.756
317.655
316.541
315.417
314.284
313.145
312.005
310.865
309.735
308.623
307.539
306.494
305.498
304.561
303.696
302.923
302.252
301.685
301.23
300.889
300.678
300.629
300.757
301.057
301.556
302.306
303.348
304.727
306.451
308.476
310.798
313.475
316.445
319.514
322.652
325.911
329.261
332.928
336.45
338.602
339.751
340.96
344.161
352.837
366.453
381.565
394.636
400.661
399.725
396.44
394.335
397.355
405.838
416.28
426.628
435.35
442.116
448.341
454.579
460.784
466.977
472.919
478.563
484.085
489.52
494.825
499.996
505.029
509.907
514.615
519.125
523.398
527.42
531.2
534.74
538.035
541.085
543.886
546.44
548.751
550.824
552.658
554.256
555.623
556.761
557.678
558.379
558.872
559.166
559.268
559.184
558.921
558.486
557.887
557.132
556.231
555.19
554.018
552.723
551.317
549.813
548.224
546.558
544.822
543.023
541.173
539.286
537.379
535.463
533.548
531.638
529.736
527.849
525.976
524.115
522.25
520.361
518.426
516.427
514.35
512.184
509.9
507.454
504.79
501.845
498.585
495.011
491.13
486.946
482.443
477.571
472.344
466.849
461.114
455.078
448.53
441.226
433.12
424.406
415.316
405.906
396.211
386.401
377.042
368.892
362.34
357.205
352.866
348.837
344.84
340.436
334.558
325.602
312.156
293.556
270.056
241.982
209.345
172.307
131.805
89.782
48.55
9.873
-25.323
-56.174
-81.415
-99.738
-111.181
-117.567
-121.023
-122.954
-122.594
-118.17
-110.541
-103.997
-105.937
-123.795
-160.797
-214.718
-278.565
-345.013
-409.42
-470.152
-528.535
-584.984
-637.684
-684.349
-722.502
-750.93
-770.181
-781.508
-786.47
-787.29
-786.644
-787.054
-790.996
-800.571
-817.205
-841.652
-874.075
-913.771
-959.498
-1009.836
-1062.768
-1116.1
-1167.771
-1216.254
-1260.672
-1300.673
-1336.086
-1366.874
-1393.755
-1417.94
-1440.871
-1463.698
-1487.049
-1511.327
-1536.973
-1564.42
-1593.536
-1623.836
-1654.689
-1685.595
-1716.446
-1747.153
-1777.418
-1806.918
-1835.644
-1863.63
-1890.64
-1916.749
-1942.213
-1966.412
-1988.774
-2007.863
-2020.463
-2027.304
-2032.397
-2040.09
-2056.884
-2083.907
-2116.074
-2149.223
-2178.702
-2202.17
-2221.192
-2235.823
-2244.894
-2247.421
-2242.042
-2228.518
-2207.835
-2181.576
-2151.785
-2120.4
-2089.33
-2059.881
-2032.547
-2007.492
-1984.479
-1962.907
-1942.027
-1921.177
-1899.701
-1877.164
-1853.452
-1828.539
-1802.562
-1775.792
-1748.491
-1720.818
-1692.962
-1665.21
-1637.76
-1610.657
-1583.785
-1556.873
-1530.344
-1505.327
-1482.272
-1460.546
-1437.252
-1408.09
-1371.276
-1328.426
-1284.912
-1248.505
-1223.83
-1210.696
-1205.317
-1200.329
-1189.258
-1169.804
-1141.691
-1108.527
-1076.128
-1047.687
-1025.534
-1009.284
-995.514
-982.2
-967.958
-952.355
-936.563
-921.045
-905.732
-890.608
-875.409
-860.125
-844.988
-830.037
-815.311
-800.995
-787.078
-773.44
-760.104
-746.869
-733.974
-722.434
-712.063
-701.812
-689.928
-673.392
-651.846
-627.975
-605.887
-590.455
-583.479
-582.476
-582.057
-577.182
-565.132
-546.287
-525.06
-504.958
-487.901
-474.933
-463.808
-453.04
-442.465
-431.458
-420.695
-410.491
-400.797
-392.676
-386.668
-382.098
-375.975
-363.558
-342.468
-315.122
-289.128
-273.265
-271.442
-280.125
-291.068
-297.44
-297.327
-294.768
-294.498
-297.23
-300.368
-297.732
-284.556
-260.415
-227.943
-193.896
-166.023
-149.581
-146.564
-154.784
-168.68
-182.551
-191.835
-192.662
-183.792
-166.302
-143.232
-120.313
-102.179
-90.484
-84.177
-79.525
-73.464
-65.006
-54.43
-42.967
-31.308
-19.346
-6.948
5.96
19.23
32.589
45.917
59.206
72.449
85.632
98.734
111.747
124.679
137.534
150.294
162.924
175.395
187.685
199.776
211.653
223.299
234.701
245.849
256.732
267.333
277.642
287.649
297.347
306.736
315.813
324.576
333.023
341.16
348.99
356.524
363.768
370.724
377.405
383.832
390.026
396.01
401.798
407.384
412.783
418.025
423.104
427.991
432.666
437.106
441.322
445.377
449.288
453.02
456.662
460.432
464.391
468.494
472.754
476.972
481.511
487.495
494.577
501.575
506.847
507.222
502.856
497.159
492.847
494.162
502.327
513.208
524.959
535.52
542.602
549.288
555.276
557.984
558.424
554.142
546.165
540.214
537.56
540.437
549.037
558.797
568.632
578.691
588.402
599.073
609.217
614.388
613.078
605.026
593.043
584.174
582.35
589.313
603.616
619.187
632.038
639.755
642.143
642.559
643.19
645.259
649.228
653.938
658.797
663.821
668.958
674.413
680.226
686.178
692.174
698.202
704.235
710.261
716.252
722.15
727.911
733.513
738.945
744.198
749.284
754.197
758.946
763.591
768.137
772.546
776.729
780.474
783.583
785.955
787.578
788.513
789.154
790.094
791.951
795.591
801.794
811.125
824.003
840.463
859.712
880.416
901.262
920.448
936.207
947.092
951.461
948.943
940.974
929.112
915.084
899.224
879.636
856.796
832.68
811.905
803.241
810.778
836.556
880.231
933.19
988.607
1038.327
1071.64
1086.889
1085.282
1071.396
1054.941
1038.901
1022.581
1006.299
990.971
983.91
994.507
1025.416
1071.959
1121.311
1157.855
1172.623
1163.756
1138.406
1109.735
1088.553
1083.103
1094.374
1116.265
1143.253
1170.466
1196.242
1222.545
1247.854
1266.883
1274.215
1265.624
1243.769
1219.33
1203.451
1203.715
1220.743
1246.724
1271.623
1288.645
1295.491
1294.835
1291.804
1289.59
1289.296
1290.651
1292.245
1293.454
1294.458
1295.357
1296.217
1296.91
1297.274
1297.206
1296.683
1295.912
1294.311
1291.35
1287.889
1284.224
1281.908
1282.764
1284.807
1286.723
1286.558
1281.61
1274.3
1266.679
1260.155
1257.049
1255.734
1254.555
1253.157
1250.538
1247.302
1244.222
1241.167
1238.245
1235.419
1232.548
1229.743
1227.097
1224.592
1222.233
1220.037
1218.009
1216.147
1214.449
1212.903
1211.488
1210.206
1209.058
1208.029
1207.104
1206.271
1205.51
1204.803
1204.129
1203.463
1202.781
1202.06
1201.279
1200.411
1199.429
1198.302
1197.001
1195.492
1193.741
1191.706
1189.34
1186.593
1183.419
1179.781
1175.636
1170.938
1165.631
1159.651
1152.944
1145.47
1137.196
1128.093
1118.143
1107.347
1095.731
1083.362
1070.31
1056.632
1042.374
1027.561
1012.222
996.415
980.212
963.687
946.915
929.941
912.788
895.475
877.954
860.112
841.802
822.804
802.85
781.774
759.54
736.258
712.207
687.636
662.627
637.253
611.705
586.121
560.237
533.313
504.515
473.18
439.863
406.357
372.991
339.431
304.809
266.864
228.195
194.912
172.607
168.289
182.254
207.814
238.976
268.456
293.048
315.457
336.825
357.807
378.475
396.835
412.619
427.174
441.085
454.727
468.236
480.915
492.088
501.43
507.612
509.295
506.847
499.973
488.188
471.154
446.698
415.699
383.077
353.69
332.383
319.896
312.173
307.276
305.081
306.06
310.133
311.533
302.735
280.826
248.177
212.362
181.43
156.969
136.218
117.049
97.425
79.04
65.176
53.831
43.041
30.878
14.545
-4.36
-24.183
-44.768
-65.047
-85.306
-106.121
-127.175
-148.555
-170.402
-192.55
-214.967
-237.664
-260.536
-283.546
-306.658
-329.681
-352.426
-374.806
-396.734
-418.168
-438.973
-458.8
-477.388
-494.486
-509.893
-523.832
-536.607
-548.494
-560.297
-572.27
-583.756
-594.823
-605.154
-616.102
-631.754
-654.066
-683.786
-717.174
-745.18
-761.408
-760.884
-744.884
-723.49
-707.969
-713.37
-753.486
-833.866
-954.791
-1107.983
-1277.8
-1447.677
-1602.048
-1727.51
-1816.265
-1866.92
-1881.042
-1867.273
-1838.684
-1807.171
-1786.013
-1781.014
-1789.421
-1805.342
-1818.602
-1823.866
-1822.45
-1818.094
-1817.06
-1822.151
-1832.406
-1845.742
-1858.633
-1869.05
-1876.369
-1879.948
-1880.627
-1879.385
-1875.689
-1869.953
-1861.386
-1848.615
-1834.259
-1820.027
-1808.02
-1800.99
-1796.031
-1790.561
-1782.711
-1769.817
-1753.596
-1735.855
-1717.088
-1698.49
-1679.578
-1659.728
-1639.293
-1618.351
-1597.081
-1575.772
-1554.458
-1533.206
-1512.202
-1491.575
-1471.346
-1451.476
-1432.006
-1413.032
-1394.728
-1377.359
-1361.057
-1345.853
-1331.861
-1319.139
-1307.449
-1296.291
-1284.798
-1271.895
-1256.843
-1239.21
-1218.609
-1194.949
-1168.673
-1140.823
-1113.133
-1087.536
-1065.589
-1048.551
-1037.582
-1033.595
-1036.808
-1046.437
-1060.882
-1078.384
-1097.125
-1115.257
-1130.787
-1141.435
-1145.542
-1142.722
-1133.339
-1117.841
-1097.858
-1075.211
-1050.93
-1027.377
-1004.905
-982.573
-962.779
-946.724
-936.058
-933.15
-934.641
-937.015
-937.861
-934.315
-927.856
-920.418
-912.555
-905.355
-898.428
-891.29
-884.258
-877.328
-870.538
-863.892
-857.203
-850.364
-843.385
-836.301
-829.126
-821.87
-814.545
-807.139
-799.667
-792.167
-784.662
-777.197
-769.816
-762.542
-755.408
-748.454
-741.703
-735.166
-728.833
-722.667
-716.644
-710.757
-705.003
-699.392
-693.927
-688.602
-683.413
-678.358
-673.43
-668.623
-663.924
-659.315
-654.78
-650.312
-645.906
-641.561
-637.275
-633.042
-628.854
-624.705
-620.586
-616.487
-612.398
-608.301
-604.183
-600.032
-595.835
-591.58
-587.256
-582.847
-578.343
-573.729
-568.993
-564.121
-559.099
-553.912
-548.547
-542.989
-537.225
-531.242
-525.026
-518.566
-511.849
-504.866
-497.607
-490.062
-482.222
-474.08
-465.628
-456.861
-447.773
-438.36
-428.62
-418.55
-408.152
-397.427
-386.378
-375.01
-363.328
-351.34
-339.053
-326.478
-313.626
-300.509
-287.14
-273.536
-259.713
-245.689
-231.483
-217.115
-202.605
-187.976
-173.248
-158.443
-143.585
-128.694
-113.795
-98.908
-84.056
-69.261
-54.546
-39.93
-25.435
-11.08
3.115
17.131
30.952
44.56
57.939
71.077
83.959
96.572
108.907
120.953
132.703
144.15
155.289
166.116
176.629
186.826
196.709
206.278
215.536
224.485
233.13
241.475
249.525
257.285
264.761
271.96
278.886
285.547
291.949
298.098
303.999
309.661
315.087
320.283
325.256
330.01
334.551
338.881
343.007
346.931
350.657
354.187
357.523
360.668
363.622
366.385
368.958
371.339
373.529
375.527
377.33
378.938
380.351
381.566
382.585
383.407
384.033
384.463
384.701
384.747
384.607
384.283
383.781
383.107
382.267
381.269
380.121
378.832
377.412
375.87
374.22
372.471
370.636
368.729
366.763
364.753
362.713
360.659
358.608
356.576
354.58
352.637
350.763
348.976
347.291
345.726
344.295
343.013
341.894
340.951
340.195
339.639
339.291
339.158
339.249
339.569
340.12
340.908
341.931
343.191
344.687
346.414
348.37
350.549
352.945
355.549
358.353
361.345
364.514
367.844
371.32
374.925
378.639
382.443
386.315
390.234
394.177
398.119
402.037
405.906
409.702
413.399
416.972
420.396
423.646
426.699
429.53
432.116
434.434
436.462
438.179
439.565
440.599
441.264
441.542
441.416
440.873
439.899
438.484
436.62
434.299
431.519
428.279
424.584
420.441
415.856
410.84
405.405
399.567
393.343
386.751
379.804
372.523
364.926
357.039
348.888
340.5
331.904
323.134
314.23
305.235
296.195
287.157
278.159
269.245
260.462
251.861
243.507
235.457
227.751
220.433
213.538
207.093
201.117
195.6
190.501
185.78
181.404
177.344
173.587
170.111
166.883
163.874
161.046
158.365
155.812
153.388
151.108
149.029
147.265
145.956
145.289
145.474
146.709
149.085
152.583
157.089
162.365
168.244
174.644
181.394
188.349
195.629
203.594
212.87
224.249
238.178
254.709
273.887
295.492
318.66
341.949
363.232
380.08
390.566
393.203
386.598
369.913
343.332
308.051
266.382
221.133
174.83
130.011
89.402
55.313
29.157
11.339
1.25
-2.18
-0.015
6.349
15.046
24.362
33.127
40.757
47.226
52.768
57.641
62.335
67.671
74.323
82.582
92.494
103.836
116.258
129.443
142.99
156.381
169.241
181.393
192.763
203.436
213.532
223.114
232.291
241.201
249.962
258.698
267.487
276.332
285.248
294.27
303.424
312.735
322.2
331.771
341.398
351.038
360.634
370.131
379.459
388.538
397.283
405.603
413.427
420.701
427.382
433.429
438.807
443.486
447.453
450.714
453.273
455.13
456.288
456.75
456.53
455.65
454.132
452.001
449.283
446
442.179
437.846
433.025
427.745
422.031
415.905
409.393
402.525
395.331
387.848
380.114
372.163
364.025
355.742
347.364
338.937
330.508
322.11
313.757
305.477
297.319
289.294
281.386
273.586
265.882
258.288
250.88
243.7
236.722
230.04
223.882
218.29
213.2
208.642
204.369
200.759
199.037
198.818
198.872
197.22
190.195
178.105
164.739
154.022
151.39
157.178
166.423
175.049
179.148
178.952
178.465
179.65
181.47
179.5
169.059
148.464
122.273
100.081
90.123
97.906
120.642
148.024
170.179
178.255
170.408
151.647
126.948
101.963
79.915
61.845
49.82
44.245
44.628
49.292
55.636
63.418
71.794
78.791
81.615
75.298
58.069
32.859
4.838
-20.185
-39.13
-52.855
-64.498
-76.261
-88.717
-101.141
-111.568
-119.161
-124.602
-128.884
-132.974
-137.592
-142.932
-149.198
-156.998
-166.559
-177.553
-189.377
-201.424
-213.311
-224.888
-236.025
-246.428
-255.934
-264.637
-272.812
-280.698
-288.381
-295.852
-303.113
-310.307
-317.578
-324.894
-332.066
-338.92
-345.461
-351.925
-358.578
-365.402
-372.362
-379.643
-387.746
-397.341
-408.674
-421.277
-434.362
-447.41
-459.979
-471.54
-481.215
-487.783
-490.62
-490.097
-487.166
-482.686
-477.286
-471.438
-465.777
-461.203
-458.188
-456.491
-455.388
-454.248
-452.826
-451.114
-449.076
-446.578
-443.644
-440.541
-437.676
-435.232
-432.92
-430.738
-429.295
-428.948
-429.299
-427.969
-421.192
-407.229
-388.087
-369.963
-359.977
-361.404
-371.878
-384.303
-392.133
-392.426
-385.9
-375.904
-364.62
-352.574
-339.831
-326.039
-311.273
-296.086
-280.952
-266.539
-253.653
-242.669
-233.366
-225.035
-217.037
-209.035
-200.891
-192.523
-183.656
-174.049
-163.758
-153.095
-142.373
-131.773
-121.341
-111.029
-100.865
-90.925
-81.235
-71.776
-62.511
-53.423
-44.535
-35.906
-27.586
-19.599
-11.956
-4.654
2.306
8.918
15.178
21.087
26.653
31.886
36.799
41.406
45.723
49.764
53.551
57.106
60.448
63.597
66.57
69.381
72.051
74.603
77.059
79.446
81.793
84.128
86.487
88.899
91.386
93.967
96.668
99.514
102.547
105.805
109.309
113.085
117.152
121.52
126.196
131.166
136.373
141.758
147.25
152.779
158.312
163.824
169.284
174.659
179.903
184.973
189.858
194.544
198.997
203.196
207.13
210.863
214.55
218.383
222.617
227.435
232.906
239.018
245.599
252.398
259.226
265.788
271.689
276.847
281.375
285.726
291.017
298.291
308.422
321.577
336.742
352.815
368.633
385.064
404.861
427.75
451.415
468.956
468.45
444.158
394.658
322.567
239.387
154.45
75.841
14.232
-25.892
-42.996
-37.551
-16.553
12.835
44.736
73.019
94.82
108.759
115.569
118.896
121.48
126.082
133.32
141.14
148.969
156.232
162.868
170.179
178.331
186.897
195.616
203.84
211.062
217.298
222.593
226.995
230.765
234.107
237.179
240.212
243.361
246.673
250.217
254.063
258.214
262.684
267.488
272.588
277.991
283.72
289.726
295.94
302.403
309.165
316.099
323.15
330.301
337.303
344.766
353.285
361.993
370.625
377.604
381.05
383.067
385.052
389.088
398.033
409.365
420.946
431.315
438.046
442.872
447.545
452.446
458.629
465.451
472.089
478.667
485.051
491.268
497.45
503.462
509.191
514.637
519.774
524.563
528.975
532.985
536.564
539.698
542.372
544.55
546.197
547.291
547.807
547.723
547.023
545.686
543.696
541.043
537.717
533.712
529.025
523.656
517.606
510.884
503.498
495.463
486.794
477.512
467.639
457.201
446.226
434.744
422.789
410.395
397.601
384.445
370.968
357.213
343.221
329.039
314.711
300.282
285.798
271.303
256.844
242.464
228.207
214.114
200.227
186.586
173.227
160.188
147.502
135.2
123.313
111.868
100.89
90.401
80.42
70.965
62.049
53.683
45.876
38.633
31.956
25.846
20.3
15.313
10.877
6.982
3.617
0.768
-1.581
-3.447
-4.85
-5.81
-6.35
-6.493
-6.265
-5.69
-4.794
-3.603
-2.144
-0.448
1.456
3.54
5.779
8.136
10.575
13.062
15.561
18.049
20.508
22.9
25.188
27.369
29.434
31.371
33.18
34.816
36.223
37.399
38.359
38.989
39.158
38.916
38.242
37.099
35.715
33.428
29.592
25.104
20.233
16.634
16.297
17.013
17.315
15.015
7.112
-3.73
-15.25
-25.894
-33.098
-38.673
-44.452
-50.828
-58.91
-68.02
-77.295
-86.869
-96.607
-106.538
-116.802
-127.254
-137.772
-148.351
-158.96
-169.554
-180.095
-190.551
-200.887
-211.079
-221.106
-230.92
-240.472
-249.728
-258.646
-267.19
-275.323
-283.008
-290.209
-296.895
-303.036
-308.605
-313.577
-317.927
-321.636
-324.685
-327.061
-328.751
-329.748
-330.047
-329.646
-328.548
-326.759
-324.289
-321.149
-317.356
-312.931
-307.901
-302.29
-296.132
-289.458
-282.302
-274.707
-266.719
-258.374
-249.712
-240.777
-231.613
-222.274
-212.826
-203.308
-193.761
-184.262
-174.884
-165.695
-156.769
-148.134
-139.793
-131.819
-124.297
-117.161
-110.334
-103.897
-97.855
-92.234
-87.306
-82.5
-77.241
-72.428
-68.416
-66.608
-68.758
-72.95
-77.655
-81.566
-82.635
-82.316
-82.306
-82.355
-82.779
-84.05
-85.914
-90.063
-98.337
-108.738
-119.822
-129.938
-136.711
-141.796
-146.766
-152.073
-158.832
-166.357
-173.804
-181.3
-188.706
-196.033
-203.41
-210.691
-217.757
-224.634
-231.323
-237.797
-244.045
-250.057
-255.824
-261.358
-266.666
-271.731
-276.546
-281.115
-285.444
-289.557
-293.476
-297.227
-300.846
-304.344
-307.737
-311.087
-314.501
-318.1
-321.973
-326.15
-330.618
-335.391
-340.537
-346.048
-351.69
-357.311
-363.002
-368.813
-375.123
-381.846
-387.816
-393.183
-398.961
-406.905
-420.535
-439.329
-459.36
-476.342
-483.671
-480.718
-471.702
-459.822
-452.061
-451.174
-456.306
-469.241
-486.93
-506.954
-528.923
-549.971
-570.565
-591.773
-612.775
-633.259
-652.043
-668.048
-681.614
-693.591
-704.624
-714.987
-724.718
-733.78
-742.171
-749.904
-756.766
-762.275
-766.143
-768.32
-768.875
-768.061
-766.144
-763.286
-759.659
-755.448
-750.793
-745.849
-740.788
-735.769
-730.925
-726.365
-722.169
-718.402
-715.121
-712.322
-709.94
-707.831
-705.81
-703.741
-701.544
-699.17
-696.578
-693.715
-690.505
-686.883
-682.817
-678.283
-673.253
-667.696
-661.576
-654.889
-647.668
-639.981
-631.911
-623.511
-614.812
-605.833
-596.585
-587.084
-577.343
-567.361
-557.125
-546.629
-535.878
-524.883
-513.664
-502.23
-490.585
-478.725
-466.653
-454.374
-441.902
-429.253
-416.442
-403.491
-390.427
-377.281
-364.091
-350.889
-337.707
-324.573
-311.516
-298.564
-285.745
-273.085
-260.609
-248.342
-236.306
-224.526
-213.026
-201.825
-190.943
-180.396
-170.2
-160.366
-150.905
-141.825
-133.131
-124.827
-116.914
-109.391
-102.257
-95.505
-89.13
-83.122
-77.47
-72.16
-67.178
-62.506
-58.125
-54.014
-50.152
-46.518
-43.087
-39.836
-36.741
-33.778
-30.924
-28.154
-25.445
-22.772
-20.112
-17.443
-14.742
-11.988
-9.162
-6.245
-3.219
-0.068
3.223
6.668
10.28
14.069
18.046
22.219
26.595
31.181
35.979
40.992
46.221
51.664
57.317
63.175
69.232
75.478
81.903
88.495
95.239
102.12
109.122
116.226
123.411
130.657
137.941
145.24
152.53
159.784
166.976
174.08
181.068
187.911
194.582
201.05
207.286
213.26
218.943
224.304
229.314
233.944
238.166
241.952
245.276
248.113
250.44
252.236
253.48
254.156
254.247
253.741
252.627
250.898
248.547
245.572
241.973
237.754
232.919
227.479
221.444
214.829
207.651
199.93
191.689
182.952
173.747
164.104
154.058
143.642
132.894
121.852
110.559
99.057
87.392
75.607
63.747
51.858
39.985
28.178
16.485
4.951
-6.378
-17.457
-28.242
-38.69
-48.757
-58.406
-67.6
-76.309
-84.502
-92.148
-99.217
-105.678
-111.512
-116.704
-121.243
-125.113
-128.301
-130.794
-132.586
-133.678
-134.073
-133.77
-132.766
-131.052
-128.626
-125.495
-121.673
-117.185
-112.037
-106.217
-99.72
-92.535
-84.69
-76.245
-67.24
-57.696
-47.629
-37.018
-25.915
-14.479
-2.743
9.377
21.967
35.202
49.054
63.181
77.422
91.829
106.229
120.37
133.871
145.986
156.441
165.673
173.955
181.506
188.828
196.246
204.344
214.33
226.841
241.687
258.681
277.313
296.643
316.082
334.813
351.373
365.351
377.363
387.444
395.585
400.299
398.299
388.923
374.497
360.019
352.845
356.917
371.339
392.49
413.533
428.495
435.265
432.778
423.512
412.776
403.689
399.041
399.284
400.646
400.613
398.631
394.5
391.005
390.527
391.067
391.338
389.193
381.972
372.333
362.442
353.705
348.434
345.045
341.933
338.789
334.652
330.112
325.951
322.079
318.647
315.667
313.034
310.891
309.341
308.343
307.879
307.957
308.559
309.705
311.341
313.251
315.378
317.826
320.68
324.152
328.236
332.512
336.957
341.992
347.476
352.95
357.92
361.207
362.966
365.151
367.747
369.637
369.618
364.935
357.163
352.238
354.797
369.709
397.445
432.67
470.384
505.122
533.471
555.511
571.16
580.524
582.884
576.738
562.207
540.619
514.575
487.664
462.698
442.087
428.064
421.611
422.906
431.471
445.641
463.419
482.872
501.683
517.802
530.096
537.928
541.27
540.823
537.342
531.748
525.358
519.211
513.935
509.97
507.397
506.068
505.899
506.669
508.008
509.747
511.812
514.172
516.918
520.109
523.743
527.857
532.482
537.58
543.102
548.976
555.105
561.431
567.907
574.482
581.116
587.758
594.353
600.856
607.219
613.397
619.342
624.998
630.314
635.248
639.763
643.823
647.39
650.415
652.85
654.647
655.763
656.166
655.823
654.702
652.777
650.024
646.439
642.033
636.819
630.817
624.038
616.479
608.165
599.133
589.447
579.195
568.436
557.195
545.501
533.37
520.847
508.039
494.978
481.622
467.996
454.148
440.291
426.836
413.979
401.663
389.782
378.128
366.487
354.748
342.373
328.398
312.253
293.74
273.2
251.624
229.931
208.84
189.551
173.614
162.278
156.555
156.353
160.366
167.252
175.659
184.072
191.052
195.149
194.866
189.874
181.036
169.501
156.773
144.105
132.278
122.255
115.125
111.291
110.521
112.185
115.175
118.75
122.63
126.433
129.763
132.383
134.156
135.211
135.958
136.608
137.163
137.613
137.879
137.932
137.81
137.478
136.841
135.842
134.451
132.671
130.55
128.11
125.347
122.255
118.821
115.039
110.921
106.472
101.699
96.602
91.18
85.434
79.372
73.002
66.333
59.374
52.131
44.615
36.845
28.841
20.628
12.232
3.674
-5.023
-13.835
-22.737
-31.703
-40.708
-49.725
-58.73
-67.697
-76.598
-85.406
-94.096
-102.641
-111.015
-119.197
-127.16
-134.882
-142.341
-149.516
-156.385
-162.93
-169.134
-174.981
-180.455
-185.543
-190.236
-194.523
-198.398
-201.856
-204.893
-207.507
-209.7
-211.472
-212.83
-213.776
-214.319
-214.466
-214.228
-213.615
-212.64
-211.318
-209.664
-207.696
-205.432
-202.894
-200.102
-197.08
-193.852
-190.443
-186.879
-183.189
-179.398
-175.537
-171.635
-167.72
-163.824
-159.977
-156.207
-152.546
-149.022
-145.664
-142.5
-139.558
-136.864
-134.444
-132.323
-130.526
-129.077
-127.998
-127.312
-127.039
-127.198
-127.808
-128.885
-130.444
-132.496
-135.052
-138.121
-141.707
-145.816
-150.446
-155.597
-161.266
-167.447
-174.132
-181.31
-188.964
-197.079
-205.635
-214.612
-223.983
-233.724
-243.806
-254.197
-264.872
-275.8
-286.951
-298.295
-309.792
-321.404
-333.091
-344.814
-356.531
-368.202
-379.785
-391.237
-402.521
-413.602
-424.447
-435.027
-445.302
-455.237
-464.793
-473.931
-482.633
-490.88
-498.659
-505.968
-512.776
-519.056
-524.804
-530.005
-534.654
-538.771
-542.295
-545.162
-547.458
-549.237
-550.571
-551.579
-552.136
-552.075
-551.472
-550.377
-548.599
-546.056
-542.517
-537.676
-531.892
-525.571
-518.742
-511.529
-504.195
-496.846
-489.915
-483.895
-478.384
-472.972
-467.588
-462.017
-456.135
-449.925
-442.993
-434.915
-425.946
-416.343
-406.197
-395.744
-385.045
-374.138
-363.307
-352.849
-342.764
-332.972
-323.375
-313.758
-303.98
-293.98
-283.677
-273.049
-262.17
-251.355
-241.147
-232.149
-224.933
-219.899
-217.212
-216.828
-218.687
-222.216
-226.184
-229.426
-230.788
-229.008
-223.115
-212.307
-195.56
-172.626
-144.479
-112.041
-76.14
-39.036
-3.28
29.354
55.882
75.339
88.985
94.325
88.458
69.529
34.637
-13.195
-66.463
-119.375
-165.249
-200.143
-225.002
-240.199
-247.246
-248.172
-242.167
-229.415
-210.963
-188.004
-163.956
-141.423
-121.366
-104.475
-90.394
-78.537
-68.735
-60.261
-51.902
-42.956
-33.072
-22.203
-10.803
0.735
12.18
23.126
33.146
42.017
49.639
56.105
61.685
66.598
71.053
75.214
79.164
82.966
86.646
90.205
93.668
97.054
100.354
103.58
106.738
109.816
112.815
115.698
118.388
120.809
122.872
124.52
125.739
126.521
126.864
126.779
126.266
125.341
124.037
122.372
120.355
117.994
115.293
112.267
108.946
105.36
101.537
97.504
93.28
88.883
84.33
79.635
74.804
69.841
64.746
59.52
54.167
48.695
43.106
37.407
31.602
25.692
19.677
13.566
7.363
1.069
-5.312
-11.788
-18.374
-25.062
-31.843
-38.741
-45.775
-52.957
-60.305
-67.802
-75.409
-83.143
-91.036
-98.992
-106.897
-114.809
-122.715
-130.585
-138.643
-146.246
-152.769
-159.074
-165.41
-173.37
-184.862
-197.737
-210.559
-221.196
-226.724
-229.693
-232.259
-235.891
-243.036
-251.907
-260.7
-268.995
-275.685
-281.383
-286.882
-292.011
-296.859
-301.355
-305.322
-308.854
-312.027
-314.803
-317.167
-319.123
-320.663
-321.778
-322.463
-322.701
-322.476
-321.799
-320.682
-319.129
-317.151
-314.756
-311.956
-308.767
-305.208
-301.294
-297.044
-292.478
-287.617
-282.484
-277.105
-271.503
-265.704
-259.735
-253.621
-247.39
-241.069
-234.684
-228.262
-221.829
-215.411
-209.034
-202.721
-196.496
-190.382
-184.401
-178.573
-172.917
-167.452
-162.194
-157.157
-152.354
-147.798
-143.496
-139.456
-135.683
-132.182
-128.952
-125.994
-123.305
-120.881
-118.713
-116.796
-115.117
-113.666
-112.429
-111.391
-110.538
-109.852
-109.316
-108.911
-108.619
-108.422
-108.3
-108.233
-108.203
-108.192
-108.179
-108.148
-108.081
-107.962
-107.775
-107.505
-107.14
-106.667
-106.076
-105.357
-104.503
-103.507
-102.365
-101.074
-99.631
-98.038
-96.296
-94.409
-92.38
-90.218
-87.93
-85.524
-83.011
-80.402
-77.709
-74.944
-72.121
-69.251
-66.351
-63.431
-60.508
-57.593
-54.7
-51.84
-49.026
-46.267
-43.573
-40.954
-38.415
-35.964
-33.604
-31.342
-29.178
-27.114
-25.15
-23.285
-21.515
-19.837
-18.244
-16.73
-15.286
-13.903
-12.57
-11.275
-10.007
-8.752
-7.496
-6.223
-4.919
-3.568
-2.154
-0.661
0.925
2.622
4.441
6.397
8.501
10.764
13.195
15.801
18.59
21.565
24.73
28.088
31.639
35.382
39.314
43.429
47.722
52.182
56.798
61.56
66.451
71.458
76.563
81.749
86.996
92.284
97.593
102.9
108.18
113.408
118.559
123.606
128.525
133.292
137.887
142.287
146.47
150.417
154.11
157.537
160.682
163.53
166.059
168.253
170.098
171.587
172.713
173.465
173.83
173.797
173.365
172.542
171.343
169.779
167.858
165.589
162.994
160.106
156.964
153.605
150.059
146.351
142.516
138.619
134.737
130.948
127.307
123.828
120.5
117.303
114.227
111.271
108.438
105.688
102.927
100.13
97.401
94.968
93.05
91.66
90.561
89.47
88.374
87.332
86.108
84.082
80.428
74.634
66.94
58.083
48.41
38.012
27.45
17.953
11.44
9.856
14.001
23.564
38.401
58.543
83.303
111.099
139.203
164.212
183.675
196.372
201.015
196.217
181.644
158.068
127.486
92.995
57.359
22.606
-8.655
-33.286
-49.401
-56.391
-54.57
-45.375
-30.306
-10.515
11.602
32.502
49.785
62.18
68.971
70.38
66.618
57.483
44.104
28.838
13.27
-1.647
-15.282
-27.693
-38.714
-47.686
-54.801
-61.008
-66.897
-72.894
-79.222
-85.68
-92.313
-99.486
-107.236
-115.354
-123.715
-132.169
-140.685
-149.418
-158.409
-167.6
-176.989
-186.584
-196.401
-206.481
-216.816
-227.355
-238.058
-248.886
-259.8
-270.77
-281.759
-292.728
-303.637
-314.45
-325.129
-335.64
-345.953
-356.039
-365.869
-375.405
-384.612
-393.454
-401.895
-409.901
-417.436
-424.46
-430.933
-436.818
-442.081
-446.69
-450.615
-453.824
-456.291
-457.988
-458.894
-458.988
-458.253
-456.674
-454.237
-450.934
-446.757
-441.703
-435.773
-428.969
-421.294
-412.756
-403.366
-393.138
-382.086
-370.227
-357.583
-344.176
-330.031
-315.178
-299.644
-283.463
-266.667
-249.292
-231.374
-212.952
-194.064
-174.75
-155.049
-135.003
-114.654
-94.043
-73.212
-52.203
-31.057
-9.818
11.474
32.777
54.05
75.252
96.344
117.284
138.035
158.557
178.812
198.765
218.38
237.621
256.454
274.849
292.773
310.196
327.09
343.426
359.178
374.321
388.831
402.687
415.866
428.351
440.123
451.167
461.469
471.017
479.801
487.812
495.044
501.493
507.159
512.042
516.146
519.476
522.038
523.843
524.901
525.228
524.84
523.754
521.989
519.568
516.515
512.856
508.621
503.835
498.528
492.729
486.468
479.78
472.704
465.275
457.528
449.5
441.225
432.742
424.087
415.291
406.384
397.393
388.343
379.265
370.185
361.134
352.141
343.213
334.36
325.585
316.882
308.276
299.789
291.421
283.178
275.06
267.04
259.168
251.501
243.941
236.422
228.865
221.144
213.378
205.733
198.134
190.532
183.119
175.985
169.374
163.603
158.334
153.182
148.134
143.087
137.794
132.163
125.777
118.153
109.701
100.845
91.666
82.39
73.149
63.949
55.17
47.22
39.805
32.655
25.684
18.687
11.686
4.769
-2.237
-9.487
-16.835
-24.163
-31.384
-38.356
-45.101
-51.652
-57.942
-63.922
-69.583
-74.901
-79.872
-84.502
-88.746
-92.568
-95.942
-98.842
-101.257
-103.181
-104.6
-105.505
-105.888
-105.743
-105.066
-103.858
-102.12
-99.856
-97.072
-93.778
-89.986
-85.711
-80.972
-75.788
-70.181
-64.171
-57.785
-51.048
-43.988
-36.639
-29.033
-21.206
-13.194
-5.036
3.229
11.561
19.92
28.266
36.56
44.765
52.845
60.761
68.477
75.957
83.168
90.076
96.652
102.863
108.682
114.083
119.045
123.549
127.58
131.126
134.175
136.722
138.767
140.31
141.351
141.893
141.941
141.505
140.6
139.241
137.447
135.238
132.639
129.682
126.398
122.813
118.951
114.834
110.487
105.937
101.214
96.346
91.357
86.279
81.153
76.03
70.964
65.995
61.136
56.393
51.779
47.307
42.99
38.821
34.773
30.836
27.031
23.393
19.957
16.719
13.631
10.636
7.685
4.752
1.834
-1.075
-3.994
-6.897
-9.704
-12.282
-14.462
-16.176
-17.422
-18.185
-18.524
-18.504
-18.205
-17.861
-17.69
-17.798
-18.35
-19.468
-20.93
-22.416
-23.445
-23.251
-21.36
-17.27
-10.323
-0.464
11.795
24.871
36.439
44.81
48.27
46.288
39.131
25.421
4.828
-23.8
-63.266
-111.968
-165.984
-218.174
-256.347
-272.601
-265.118
-236.757
-196.324
-151.778
-106.611
-62.054
-17.296
28.545
74.603
119.237
160.874
198.816
233.298
265.293
296.162
326.486
356.192
384.925
411.974
436.667
458.45
476.643
490.553
499.826
504.401
504.462
500.427
492.624
481.268
466.597
448.838
428.23
405.045
379.577
352.125
323.056
292.813
261.783
230.282
198.558
166.773
135.027
103.418
72.091
41.202
10.951
-18.409
-46.661
-73.591
-99.006
-122.814
-145.002
-165.623
-184.738
-202.363
-218.502
-233.167
-246.365
-258.115
-268.49
-277.562
-285.473
-292.469
-298.77
-304.599
-310.183
-315.654
-321.095
-326.566
-332.086
-337.674
-343.352
-349.109
-354.923
-360.791
-366.674
-372.524
-378.254
-383.694
-388.703
-393.162
-396.948
-399.995
-402.258
-403.695
-404.301
-404.103
-403.121
-401.388
-398.946
-395.811
-392.02
-387.619
-382.668
-377.255
-371.454
-365.315
-358.888
-352.208
-345.301
-338.193
-330.892
-323.385
-315.667
-307.734
-299.583
-291.222
-282.651
-273.868
-264.868
-255.646
-246.202
-236.538
-226.659
-216.571
-206.281
-195.796
-185.129
-174.297
-163.313
-152.187
-140.929
-129.547
-118.049
-106.446
-94.747
-82.957
-71.087
-59.145
-47.141
-35.087
-22.995
-10.874
1.263
13.406
25.54
37.655
49.737
61.774
73.753
85.663
97.49
109.223
120.85
132.361
143.744
154.989
166.087
177.026
187.796
198.389
208.795
219.004
229.007
238.794
248.358
257.689
266.779
275.619
284.202
292.521
300.567
308.337
315.823
323.022
329.929
336.542
342.858
348.875
354.594
360.015
365.138
369.965
374.501
378.749
382.715
386.404
389.823
392.981
395.887
398.548
400.977
403.184
405.179
406.974
408.583
410.016
411.286
412.407
413.391
414.25
414.997
415.644
416.202
416.682
417.095
417.45
417.756
418.019
418.248
418.447
418.62
418.771
418.901
419.01
419.097
419.159
419.192
419.19
419.147
419.052
418.898
418.673
418.365
417.963
417.452
416.819
416.05
415.131
414.047
412.784
411.329
409.666
407.784
405.671
403.314
400.705
397.833
394.691
391.272
387.571
383.585
379.312
374.752
369.906
364.777
359.371
353.694
347.756
341.567
335.139
328.488
321.628
314.578
307.354
299.979
292.472
284.856
277.154
269.388
261.582
253.76
245.946
238.163
230.434
222.781
215.226
207.79
200.491
193.348
186.378
179.596
173.015
166.648
160.506
154.597
148.927
143.503
138.326
133.398
128.719
124.285
120.094
116.138
112.411
108.901
105.6
102.494
99.57
96.811
94.203
91.728
89.368
87.106
84.924
82.802
80.722
78.666
76.615
74.553
72.461
70.323
68.123
65.847
63.48
61.013
58.435
55.738
52.911
49.945
46.833
43.57
40.15
36.572
32.831
28.929
24.866
20.649
16.286
11.784
7.15
2.387
-2.502
-7.506
-12.611
-17.799
-23.052
-28.354
-33.69
-39.043
-44.394
-49.725
-55.027
-60.295
-65.53
-70.727
-75.876
-80.957
-85.947
-90.835
-95.629
-100.356
-105.049
-109.72
-114.353
-118.923
-123.417
-127.84
-132.219
-136.532
-140.689
-144.67
-148.572
-152.629
-157.096
-162.038
-167.253
-172.487
-177.664
-182.675
-187.233
-190.755
-192.523
-192.262
-190.368
-187.568
-184.343
-181.036
-178.084
-176.243
-176.531
-179.449
-184.607
-191.054
-198.042
-205.124
-211.942
-217.984
-222.448
-224.848
-225.401
-224.822
-223.737
-222.482
-221.209
-220.042
-219.3
-219.243
-219.825
-220.758
-221.76
-222.693
-223.551
-224.401
-225.237
-226.011
-226.716
-227.393
-228.094
-228.846
-229.638
-230.424
-231.169
-231.859
-232.495
-233.084
-233.631
-234.131
-234.578
-234.969
-235.299
-235.569
-235.776
-235.919
-235.995
-236.004
-235.944
-235.819
-235.633
-235.387
-235.08
-234.708
-234.268
-233.761
-233.188
-232.555
-231.865
-231.123
-230.336
-229.51
-228.656
-227.782
-226.899
-226.016
-225.145
-224.298
-223.486
-222.725
-222.028
-221.409
-220.88
-220.456
-220.15
-219.974
-219.942
-220.065
-220.355
-220.821
-221.473
-222.319
-223.365
-224.617
-226.077
-227.747
-229.626
-231.711
-233.996
-236.475
-239.136
-241.968
-244.955
-248.081
-251.327
-254.67
-258.087
-261.553
-265.04
-268.521
-271.965
-275.342
-278.62
-281.768
-284.754
-287.546
-290.112
-292.423
-294.448
-296.159
-297.528
-298.53
-299.143
-299.345
-299.118
-298.447
-297.32
-295.726
-293.661
-291.122
-288.111
-284.632
-280.695
-276.313
-271.5
-266.279
-260.671
-254.703
-248.407
-241.814
-234.961
-227.884
-220.625
-213.226
-205.729
-198.179
-190.621
-183.1
-175.661
-168.348
-161.206
-154.276
-147.599
-141.214
-135.155
-129.457
-124.15
-119.26
-114.809
-110.819
-107.303
-104.273
-101.736
-99.695
-98.146
-97.085
-96.501
-96.379
-96.701
-97.444
-98.582
-100.086
-101.923
-104.056
-106.449
-109.06
-111.847
-114.767
-117.773
-120.821
-123.863
-126.855
-129.751
-132.506
-135.078
-137.425
-139.507
-141.289
-142.735
-143.816
-144.502
-144.77
-144.598
-143.97
-142.873
-141.296
-139.236
-136.69
-133.66
-130.152
-126.176
-121.743
-116.869
-111.574
-105.878
-99.805
-93.382
-86.637
-79.6
-72.304
-64.781
-57.065
-49.189
-41.19
-33.102
-24.958
-16.794
-8.642
-0.534
7.498
15.426
23.22
30.857
38.312
45.564
52.594
59.386
65.921
72.185
78.168
83.859
89.252
94.339
99.116
103.581
107.733
111.574
115.104
118.327
121.243
123.855
126.165
128.181
129.913
131.372
132.566
133.502
134.186
134.62
134.81
134.754
134.454
133.905
133.106
132.054
130.747
129.182
127.361
125.268
122.871
120.14
117.032
113.535
109.678
105.473
100.928
96.049
90.803
85.208
79.362
73.239
66.708
59.675
52.015
43.785
35.32
26.753
17.977
9.169
0.686
-7.116
-13.708
-19.046
-23.755
-28.007
-31.517
-34.484
-37.382
-40.863
-46.035
-53.237
-61.797
-71.736
-83.72
-97.77
-113.551
-130.253
-146.259
-160.882
-174.605
-187.06
-197.15
-204.289
-208.092
-208.886
-208.041
-205.971
-201.981
-196.252
-189.653
-183.063
-177.646
-173.82
-170.994
-169.378
-169.982
-173.129
-178.642
-185.84
-193.328
-200.318
-206.781
-212.238
-215.881
-217.257
-216.13
-212.848
-208.442
-203.563
-198.449
-193.445
-188.88
-185.015
-182.104
-180.093
-178.602
-177.412
-176.448
-175.672
-175.136
-174.854
-174.789
-174.958
-175.415
-176.165
-177.17
-178.369
-179.684
-181.08
-182.559
-184.154
-185.887
-187.804
-190.008
-192.516
-195.28
-198.206
-201.068
-203.701
-206.116
-208.35
-210.463
-212.831
-215.981
-220.524
-227.385
-237.281
-250.564
-267.451
-287.777
-310.701
-335.081
-359.586
-382.342
-401.586
-415.76
-423.493
-424.262
-418.556
-407.388
-392.03
-374.415
-356.982
-342.665
-334.428
-334.306
-342.468
-357.759
-379.512
-407.322
-442.173
-485.553
-535.817
-588.218
-634.821
-666.981
-680.666
-678.345
-667.951
-658.143
-653.824
-654.828
-657.275
-658.199
-657.167
-654.96
-652.964
-651.251
-648.687
-644.69
-639.061
-631.823
-623.192
-613.305
-602.426
-591.194
-580.367
-570.403
-561.534
-553.902
-547.676
-543.179
-540.658
-540.135
-541.449
-544.36
-548.712
-554.395
-561.261
-569.054
-577.404
-585.951
-594.449
-602.75
-610.705
-618.133
-624.785
-630.369
-634.696
-637.676
-639.268
-639.477
-638.283
-635.683
-631.747
-626.621
-620.496
-613.515
-605.748
-597.21
-587.918
-577.916
-567.276
-556.072
-544.328
-532.048
-519.236
-505.902
-492.064
-477.723
-462.841
-447.349
-431.17
-414.264
-396.625
-378.271
-359.222
-339.498
-319.123
-298.138
-276.601
-254.566
-232.08
-209.183
-185.914
-162.32
-138.464
-114.413
-90.234
-65.986
-41.723
-17.499
6.636
30.636
54.461
78.078
101.46
124.577
147.397
169.89
192.026
213.782
235.135
256.066
276.559
296.603
316.191
335.323
354
372.227
390.009
407.356
424.279
440.792
456.909
472.647
488.024
503.06
517.777
532.196
546.341
560.233
573.892
587.339
600.594
613.673
626.593
639.368
652.012
664.539
676.957
689.273
701.492
713.614
725.639
737.564
749.381
761.077
772.637
784.046
795.288
806.344
817.193
827.812
838.172
848.254
858.038
867.505
876.641
885.422
893.816
901.793
909.318
916.356
922.869
928.814
934.144
938.832
942.844
946.16
948.765
950.614
951.667
951.881
951.19
949.561
947.006
943.551
939.271
934.259
928.558
922.258
915.495
908.294
900.652
892.446
883.396
873.441
862.723
851.376
839.59
827.618
815.684
804.331
794.388
786.18
779.594
774.262
769.567
765.004
760.069
753.78
744.74
731.888
714.808
693.672
668.997
641.258
611.166
579.896
549.252
521.327
497.606
479.021
466.36
460.087
460.209
466.405
477.6
492.098
508.631
526.135
543.409
559.694
574.573
587.782
599.585
610.539
620.807
630.421
639.486
647.856
655.294
661.514
665.983
668.165
667.801
664.825
659.299
651.388
641.226
628.956
614.853
599.276
582.585
565.124
547.147
528.859
510.516
492.407
474.8
457.888
441.791
426.555
412.202
398.763
386.268
374.719
364.072
354.257
345.171
336.701
328.785
321.37
314.384
307.762
301.448
295.422
289.719
284.387
279.452
274.923
270.8
267.086
263.815
261.008
258.676
256.855
255.569
254.858
254.796
255.416
256.715
258.661
261.165
264.161
267.626
271.538
275.885
280.659
285.825
291.392
297.413
303.872
310.699
317.76
324.829
331.742
338.392
344.689
350.59
356.024
360.873
365.044
368.457
371.013
372.625
373.148
372.368
370.179
366.568
361.612
355.509
348.402
340.371
331.508
321.883
311.58
300.717
289.373
277.59
265.45
253.052
240.548
228.161
216.027
204.203
192.693
181.413
170.324
159.432
148.723
138.188
127.828
117.644
107.681
98.024
88.72
79.786
71.207
62.923
54.913
47.185
39.748
32.633
25.847
19.389
13.288
7.567
2.223
-2.785
-7.555
-12.184
-16.737
-21.251
-25.733
-30.176
-34.602
-38.965
-43.138
-47.064
-50.701
-54.102
-57.534
-61.236
-65.307
-69.789
-74.625
-79.487
-84.056
-87.914
-90.1
-89.596
-85.801
-78.421
-68.227
-57.323
-46.839
-37.469
-29.677
-22.385
-17.009
-16.673
-24.399
-44.604
-78.486
-123.114
-173.481
-220.802
-256.172
-275.12
-275.902
-261.536
-238.877
-211.881
-184.802
-161.485
-142.317
-129.933
-124.547
-122.088
-120.176
-115.098
-104.797
-91.796
-77.695
-63.836
-51.256
-39.017
-26.85
-15.419
-5.349
2.581
7.911
10.682
11.014
8.984
4.755
-1.509
-9.662
-19.499
-30.817
-43.36
-56.793
-70.848
-85.304
-99.932
-114.505
-128.737
-142.361
-155.218
-167.229
-178.367
-188.641
-198.034
-206.52
-214.162
-221.049
-227.311
-233.121
-238.57
-243.708
-248.602
-253.314
-257.928
-262.524
-267.121
-271.697
-276.237
-280.719
-285.136
-289.481
-293.703
-297.739
-301.521
-304.974
-308.057
-310.755
-313.047
-314.922
-316.377
-317.412
-318.049
-318.325
-318.269
-317.901
-317.245
-316.321
-315.162
-313.81
-312.3
-310.672
-308.96
-307.194
-305.404
-303.619
-301.86
-300.146
-298.495
-296.918
-295.43
-294.046
-292.782
-291.654
-290.675
-289.856
-289.206
-288.734
-288.444
-288.336
-288.41
-288.662
-289.085
-289.672
-290.414
-291.299
-292.316
-293.452
-294.69
-296.016
-297.41
-298.855
-300.33
-301.815
-303.288
-304.73
-306.117
-307.428
-308.642
-309.739
-310.697
-311.494
-312.109
-312.522
-312.713
-312.662
-312.349
-311.758
-310.871
-309.674
-308.153
-306.296
-304.095
-301.54
-298.628
-295.352
-291.712
-287.708
-283.34
-278.613
-273.531
-268.101
-262.333
-256.236
-249.823
-243.108
-236.105
-228.833
-221.308
-213.552
-205.584
-197.427
-189.105
-180.641
-172.061
-163.392
-154.661
-145.894
-137.12
-128.366
-119.66
-111.03
-102.503
-94.105
-85.863
-77.801
-69.944
-62.314
-54.934
-47.825
-41.004
-34.492
-28.303
-22.454
-16.957
-11.824
-7.066
-2.691
1.294
4.885
8.079
10.875
13.273
15.276
16.888
18.115
18.965
19.448
19.574
19.355
18.806
17.94
16.774
15.323
13.606
11.64
9.444
7.036
4.436
1.662
-1.266
-4.328
-7.505
-10.778
-14.127
-17.533
-20.979
-24.445
-27.914
-31.369
-34.794
-38.173
-41.49
-44.732
-47.884
-50.934
-53.87
-56.68
-59.355
-61.885
-64.262
-66.478
-68.527
-70.401
-72.097
-73.607
-74.927
-76.052
-76.977
-77.699
-78.212
-78.514
-78.6
-78.467
-78.111
-77.531
-76.722
-75.682
-74.407
-72.893
-71.136
-69.133
-66.879
-64.371
-61.603
-58.572
-55.274
-51.708
-47.867
-43.748
-39.346
-34.656
-29.671
-24.387
-18.798
-12.897
-6.679
-0.142
6.719
13.905
21.416
29.254
37.418
45.907
54.719
63.85
73.299
83.06
93.128
103.495
114.15
125.08
136.273
147.712
159.379
171.252
183.311
195.538
207.913
220.415
233.02
245.702
258.434
271.191
283.94
296.646
309.266
321.759
334.086
346.21
358.096
369.709
381.013
391.974
402.564
412.759
422.528
431.836
440.633
448.867
456.503
463.524
469.924
475.696
480.827
485.313
489.166
492.41
495.056
497.094
498.48
499.168
499.138
498.396
496.967
494.89
492.176
488.816
484.807
480.161
474.88
468.959
462.338
454.922
446.667
437.577
427.722
417.203
406.073
394.375
382.163
369.486
356.43
343.104
329.535
315.734
301.762
287.702
273.749
260.178
247.144
234.766
223.192
212.459
202.564
193.402
184.617
175.837
166.851
157.548
147.855
137.86
127.935
118.808
111.405
106.671
104.632
104.099
104.908
107.173
111.331
119.01
127.699
131.936
126.703
106.521
71.53
27.345
-20.601
-66.153
-105.975
-140.328
-168.565
-190.495
-205.784
-213.302
-213.681
-208.495
-199.753
-190.27
-182.342
-177.323
-176.047
-178.673
-184.706
-193.514
-204.169
-215.386
-226.17
-235.913
-244.259
-251.19
-256.872
-261.455
-265.193
-268.451
-271.419
-274.14
-276.605
-278.715
-280.405
-281.677
-282.515
-282.897
-282.854
-282.44
-281.717
-280.76
-279.618
-278.311
-276.866
-275.311
-273.673
-271.993
-270.303
-268.629
-266.989
-265.398
-263.866
-262.395
-260.984
-259.622
-258.303
-257.022
-255.778
-254.573
-253.41
-252.291
-251.214
-250.175
-249.169
-248.184
-247.209
-246.228
-245.225
-244.183
-243.082
-241.906
-240.634
-239.25
-237.733
-236.065
-234.225
-232.194
-229.955
-227.49
-224.782
-221.816
-218.58
-215.06
-211.249
-207.137
-202.72
-197.995
-192.961
-187.618
-181.97
-176.023
-169.783
-163.261
-156.468
-149.42
-142.133
-134.627
-126.926
-119.054
-111.039
-102.91
-94.698
-86.437
-78.159
-69.901
-61.697
-53.583
-45.598
-37.777
-30.157
-22.775
-15.668
-8.87
-2.416
3.661
9.33
14.56
19.324
23.595
27.35
30.567
33.225
35.309
36.802
37.695
37.977
37.641
36.686
35.11
32.917
30.113
26.706
22.703
18.117
12.962
7.255
1.016
-5.734
-12.978
-20.685
-28.817
-37.337
-46.209
-55.406
-64.909
-74.693
-84.717
-94.98
-105.508
-116.307
-127.371
-138.667
-150.125
-161.699
-173.386
-185.055
-196.437
-207.438
-218.132
-228.511
-238.74
-248.473
-256.641
-263.59
-270.493
-279.097
-292.661
-311.471
-333.041
-354.41
-370.075
-376.823
-375.477
-367.91
-359.709
-357.419
-364.048
-380.335
-402.903
-424.836
-441.377
-450.625
-453.643
-454.612
-456.588
-460.513
-466.214
-472.354
-478.142
-483.668
-489.042
-494.384
-499.641
-504.611
-509.199
-513.411
-517.25
-520.71
-523.791
-526.51
-528.895
-530.97
-532.735
-534.175
-535.277
-536.04
-536.465
-536.55
-536.295
-535.698
-534.764
-533.502
-531.919
-530.025
-527.831
-525.348
-522.589
-519.571
-516.31
-512.823
-509.129
-505.248
-501.202
-497.013
-492.703
-488.296
-483.816
-479.286
-474.731
-470.174
-465.641
-461.154
-456.737
-452.411
-448.199
-444.12
-440.194
-436.438
-432.869
-429.501
-426.346
-423.415
-420.716
-418.255
-416.037
-414.063
-412.335
-410.849
-409.601
-408.587
-407.797
-407.223
-406.853
-406.673
-406.67
-406.828
-407.129
-407.557
-408.093
-408.717
-409.411
-410.152
-410.923
-411.701
-412.468
-413.204
-413.888
-414.504
-415.032
-415.458
-415.766
-415.941
-415.973
-415.851
-415.566
-415.113
-414.485
-413.681
-412.701
-411.544
-410.214
-408.716
-407.056
-405.242
-403.285
-401.194
-398.983
-396.665
-394.254
-391.767
-389.22
-386.629
-384.011
-381.382
-378.761
-376.163
-373.606
-371.107
-368.682
-366.348
-364.119
-362.013
-360.041
-358.218
-356.552
-355.052
-353.727
-352.582
-351.625
-350.862
-350.296
-349.931
-349.768
-349.807
-350.043
-350.471
-351.077
-351.847
-352.766
-353.815
-354.981
-356.244
-357.582
-358.971
-360.38
-361.777
-363.125
-364.389
-365.531
-366.521
-367.328
-367.931
-368.317
-368.476
-368.406
-368.103
-367.552
-366.751
-365.707
-364.445
-363.018
-361.476
-359.861
-358.211
-356.538
-354.838
-353.122
-351.349
-349.424
-347.333
-345.108
-342.878
-340.942
-339.519
-338.711
-338.648
-339.308
-340.343
-341.204
-340.961
-338.316
-332.265
-321.999
-306.756
-286.479
-261.809
-233.815
-204.57
-176.756
-152.513
-134.123
-123.321
-119.936
-124.107
-135.825
-154.594
-180.866
-211.736
-241.017
-262.16
-268.44
-258.966
-238.324
-211.373
-183.772
-157.793
-132.503
-108.789
-87.215
-68.593
-54.793
-45.962
-41.395
-40.48
-41.824
-43.842
-45.633
-46.559
-46.221
-44.712
-42.144
-38.563
-34.241
-29.566
-24.745
-19.896
-15.048
-10.086
-4.944
0.385
5.941
11.758
17.839
24.176
30.739
37.477
44.36
51.383
58.546
65.859
73.329
80.96
88.758
96.733
104.893
113.246
121.798
130.558
139.531
148.719
158.122
167.735
177.548
187.548
197.719
208.039
218.488
229.046
239.691
250.402
261.157
271.933
282.704
293.447
304.137
314.748
325.256
335.636
345.867
355.924
365.787
375.437
384.853
394.018
402.917
411.535
419.858
427.878
435.586
442.977
450.048
456.798
463.229
469.345
475.152
480.662
485.885
490.835
495.528
499.984
504.223
508.267
512.14
515.868
519.477
522.994
526.447
529.865
533.276
536.71
540.194
543.756
547.424
551.226
555.184
559.322
563.66
568.217
573.008
578.047
583.341
588.899
594.724
600.818
607.179
613.804
620.685
627.812
635.171
642.747
650.522
658.472
666.573
674.797
683.115
691.496
699.908
708.317
716.688
724.985
733.172
741.213
749.071
756.711
764.095
771.189
777.961
784.382
790.425
796.067
801.287
806.071
810.409
814.295
817.723
820.691
823.2
825.252
826.854
828.013
828.736
829.035
828.927
828.436
827.594
826.433
824.988
823.296
821.403
819.352
817.192
814.962
812.697
810.433
808.213
806.088
804.115
802.34
800.793
799.495
798.468
797.723
797.258
797.047
797.031
797.154
797.383
797.71
798.155
798.724
799.424
800.25
801.203
802.316
803.629
805.165
806.928
808.925
811.191
813.815
816.937
820.668
825.05
830.06
835.626
841.673
848.106
854.798
861.575
868.195
874.435
880.125
885.133
889.329
892.544
894.54
895.025
893.768
890.625
885.522
878.44
869.371
858.355
845.51
831.037
815.221
798.301
780.449
761.798
742.475
722.649
702.542
682.41
662.443
642.785
623.545
604.805
586.651
569.118
552.173
535.706
519.557
503.618
487.834
472.182
456.645
441.189
425.757
410.295
394.789
379.234
363.622
347.944
332.181
316.341
300.469
284.642
268.947
253.446
238.168
223.132
208.35
193.833
179.589
165.614
151.885
138.388
125.114
112.064
99.24
86.64
74.247
62.045
50.017
38.152
26.446
14.897
3.505
-7.725
-18.784
-29.656
-40.321
-50.763
-60.969
-70.925
-80.618
-90.037
-99.164
-107.987
-116.491
-124.662
-132.483
-139.937
-147.01
-153.687
-159.957
-165.808
-171.23
-176.217
-180.761
-184.858
-188.501
-191.688
-194.415
-196.682
-198.49
-199.839
-200.733
-201.181
-201.193
-200.787
-199.983
-198.805
-197.276
-195.424
-193.277
-190.858
-188.193
-185.296
-182.184
-178.874
-175.388
-171.752
-167.995
-164.14
-160.208
-156.224
-152.2
-148.141
-144.039
-139.866
-135.596
-131.235
-126.803
-122.34
-117.914
-113.58
-109.402
-105.46
-101.803
-98.469
-95.482
-92.835
-90.535
-88.618
-87.123
-86.124
-85.691
-85.812
-86.471
-87.581
-88.92
-90.37
-91.879
-93.405
-95.104
-97.135
-99.49
-102.334
-105.947
-110.131
-114.368
-117.741
-118.774
-116.395
-110.136
-99.478
-84.113
-64.647
-42.354
-19.464
0.807
15.88
23.996
23.432
12.986
-7.378
-36.824
-73.293
-113.418
-154.101
-192.613
-225.895
-251.343
-267.493
-273.665
-270.239
-258.892
-241.471
-220.046
-197.436
-176.164
-157.868
-143.686
-134.004
-128.353
-126.172
-126.584
-128.128
-129.698
-130.711
-130.835
-130.249
-129.397
-128.578
-128.224
-128.889
-130.804
-134.026
-138.483
-143.848
-149.864
-156.405
-163.306
-170.455
-177.799
-185.239
-192.739
-200.314
-207.934
-215.575
-223.195
-230.738
-238.249
-245.864
-253.771
-262.131
-270.941
-280.047
-289.348
-298.876
-308.783
-319.239
-330.312
-342.053
-354.689
-368.904
-384.813
-402.187
-421.196
-440.945
-462.168
-485.802
-509.54
-532.224
-550.324
-559.253
-559.818
-551.48
-536.331
-520.503
-506.115
-496.884
-493.993
-492.578
-489.682
-481.841
-467.611
-450.329
-432.156
-414.42
-397.685
-380.644
-362.837
-344.772
-326.805
-309.362
-292.588
-276.277
-260.324
-244.736
-229.405
-214.134
-198.789
-183.289
-167.603
-151.759
-135.737
-119.475
-102.956
-86.191
-69.191
-51.984
-34.586
-17.014
0.667
18.374
36.02
53.496
70.727
87.654
104.222
120.39
136.12
151.382
166.159
180.449
194.245
207.533
220.298
232.521
244.19
255.296
265.826
275.772
285.114
293.832
301.901
309.299
316.004
321.992
327.235
331.697
335.335
338.118
340.034
341.077
341.249
340.562
339.035
336.703
333.629
329.873
325.491
320.533
315.009
308.93
302.314
295.18
287.554
279.442
270.805
261.593
251.775
241.309
230.157
218.26
205.493
191.756
176.99
161.161
144.317
126.539
107.905
88.516
68.514
48.079
27.471
6.989
-13.131
-32.654
-51.346
-68.964
-85.177
-99.693
-112.295
-122.81
-131.153
-137.295
-141.204
-142.894
-142.47
-140.086
-135.983
-130.463
-123.748
-116.042
-107.558
-98.509
-89.175
-79.818
-70.622
-61.732
-53.255
-45.265
-37.843
-31.046
-24.847
-19.184
-13.948
-8.989
-4.224
0.401
4.945
9.453
13.992
18.622
23.352
28.163
33.038
37.957
42.907
47.874
52.8
57.612
62.231
66.563
70.547
74.144
77.315
80.035
82.286
84.053
85.345
86.188
86.597
86.587
86.167
85.349
84.153
82.61
80.748
78.596
76.183
73.532
70.669
67.621
64.406
61.047
57.56
53.959
50.264
46.497
42.681
38.842
35.005
31.194
27.437
23.76
20.19
16.75
13.465
10.354
7.441
4.747
2.292
0.096
-1.821
-3.441
-4.746
-5.719
-6.346
-6.613
-6.51
-6.027
-5.157
-3.895
-2.24
-0.193
2.245
5.07
8.274
11.848
15.781
20.057
24.658
29.564
34.752
40.194
45.86
51.719
57.737
63.878
70.105
76.381
82.665
88.917
95.093
101.151
107.046
112.734
118.169
123.307
128.103
132.519
136.514
140.051
143.097
145.621
147.597
149.003
149.818
150.021
149.599
148.54
146.835
144.476
141.455
137.765
133.408
128.389
122.721
116.424
109.519
102.035
94.006
85.473
76.475
67.055
57.251
47.093
36.623
25.889
14.952
3.886
-7.242
-18.379
-29.471
-40.478
-51.377
-62.159
-72.846
-83.479
-94.074
-104.644
-115.17
-125.596
-135.883
-145.999
-155.923
-165.695
-175.344
-184.868
-194.268
-203.513
-212.52
-221.223
-229.474
-237.031
-243.807
-249.822
-255.215
-260.364
-265.597
-271.094
-277.004
-283.377
-289.897
-296.034
-301.084
-303.995
-303.948
-300.559
-293.785
-284.055
-272.508
-260.757
-250.521
-243.935
-242.916
-248.732
-262.19
-283.356
-311.171
-343.755
-379.085
-414.552
-447.475
-475.789
-497.654
-511.961
-518.829
-519.217
-514.373
-506.179
-496.77
-487.822
-480.963
-477.312
-477.125
-480.185
-486.003
-493.674
-502.108
-510.526
-518.24
-524.8
-530.122
-534.209
-537.156
-539.209
-540.673
-541.689
-542.293
-542.454
-542.057
-541.043
-539.384
-537.027
-533.919
-530.046
-525.438
-520.137
-514.199
-507.659
-500.524
-492.805
-484.517
-475.682
-466.331
-456.495
-446.197
-435.457
-424.296
-412.733
-400.788
-388.477
-375.811
-362.804
-349.479
-335.864
-321.996
-307.914
-293.66
-279.279
-264.815
-250.314
-235.819
-221.374
-207.025
-192.813
-178.785
-164.985
-151.455
-138.241
-125.384
-112.926
-100.908
-89.368
-78.341
-67.862
-57.964
-48.676
-40.026
-32.038
-24.736
-18.138
-12.261
-7.118
-2.72
0.926
3.818
5.956
7.345
7.992
7.909
7.112
5.618
3.451
0.632
-2.81
-6.848
-11.451
-16.586
-22.219
-28.314
-34.835
-41.744
-49.001
-56.568
-64.406
-72.475
-80.736
-89.152
-97.684
-106.297
-114.954
-123.62
-132.264
-140.853
-149.356
-157.746
-165.996
-174.08
-181.977
-189.664
-197.124
-204.338
-211.292
-217.973
-224.369
-230.47
-236.269
-241.758
-246.932
-251.788
-256.323
-260.534
-264.422
-267.985
-271.226
-274.144
-276.742
-279.022
-280.986
-282.636
-283.975
-285.007
-285.733
-286.156
-286.28
-286.108
-285.643
-284.889
-283.851
-282.533
-280.941
-279.08
-276.958
-274.579
-271.953
-269.088
-265.991
-262.674
-259.145
-255.418
-251.505
-247.419
-243.177
-238.793
-234.284
-229.669
-224.966
-220.195
-215.377
-210.532
-205.682
-200.851
-196.063
-191.341
-186.712
-182.201
-177.832
-173.63
-169.619
-165.822
-162.26
-158.952
-155.918
-153.173
-150.733
-148.612
-146.822
-145.372
-144.271
-143.523
-143.133
-143.1
-143.42
-144.086
-145.088
-146.416
-148.054
-149.986
-152.195
-154.659
-157.358
-160.266
-163.359
-166.608
-169.981
-173.446
-176.966
-180.507
-184.032
-187.503
-190.887
-194.145
-197.247
-200.161
-202.858
-205.311
-207.494
-209.378
-210.939
-212.152
-212.995
-213.443
-213.478
-213.079
-212.236
-210.941
-209.194
-206.998
-204.359
-201.289
-197.799
-193.9
-189.602
-184.915
-179.848
-174.409
-168.614
-162.486
-156.059
-149.381
-142.494
-135.441
-128.253
-120.95
-113.532
-105.98
-98.274
-90.383
-82.292
-73.999
-65.523
-56.915
-48.234
-39.551
-30.906
-22.301
-13.729
-5.177
3.348
11.813
20.147
28.246
35.982
43.188
49.709
55.405
60.206
64.141
67.304
69.848
71.87
73.405
74.482
75.129
75.414
75.428
75.291
75.133
75.195
75.857
77.434
80.184
84.193
89.284
95.209
101.741
108.585
115.388
122.155
129.118
136.674
145.71
156.999
171.013
188.473
209.411
232.316
255.428
276.755
295.886
315.184
336.022
357.737
374.721
377.425
359.35
317.221
255.633
186.83
122.019
73.196
47.453
42.346
54.243
75.505
98.297
121.06
140.894
156.88
169.379
175.907
177.885
176.779
173.416
170.472
167.542
164.318
161.456
158.417
155.94
154.674
154.238
154.535
155.186
155.621
155.729
155.507
154.961
154.246
153.482
152.728
152.059
151.56
151.316
151.43
152.036
153.269
155.177
157.748
160.89
164.346
167.917
171.514
174.895
177.867
180.543
183.151
186.275
190.898
197.599
206.644
218.341
232.387
247.89
263.721
277.869
287.731
291.201
286.267
271.744
248.337
217.137
178.946
133.652
80.399
20.275
-41.737
-96.702
-136.049
-155.679
-157.489
-149.459
-139.605
-132.361
-128.916
-126.903
-124.14
-120.514
-116.675
-113.676
-111.812
-110.262
-107.854
-103.77
-97.769
-89.897
-80.372
-69.549
-57.797
-45.622
-33.609
-22.078
-11.143
-0.834
8.949
18.263
27.126
35.647
43.957
52.169
60.403
68.709
77.077
85.539
94.145
102.934
111.941
121.156
130.528
140.014
149.574
159.167
168.752
178.27
187.655
196.836
205.738
214.306
222.503
230.293
237.644
244.532
250.933
256.845
262.282
267.254
271.765
275.824
279.436
282.617
285.389
287.77
289.782
291.444
292.773
293.784
294.494
294.915
295.06
294.94
294.561
293.935
293.072
291.987
290.696
289.213
287.552
285.728
283.758
281.659
279.444
277.13
274.73
272.26
269.738
267.178
264.599
262.017
259.45
256.915
254.43
252.012
249.679
247.448
245.336
243.361
241.541
239.892
238.434
237.184
236.159
235.376
234.851
234.6
234.638
234.977
235.631
236.611
237.928
239.59
241.607
243.983
246.726
249.838
253.322
257.18
261.41
266.011
270.978
276.307
281.99
288.02
294.386
301.078
308.083
315.388
322.979
330.839
338.953
347.303
355.87
364.636
373.581
382.686
391.929
401.29
410.748
420.283
429.872
439.494
449.128
458.753
468.347
477.889
487.357
496.73
505.987
515.108
524.07
532.854
541.438
549.801
557.923
565.782
573.359
580.63
587.574
594.171
600.397
606.229
611.646
616.624
621.14
625.168
628.687
631.67
634.093
635.932
637.161
637.757
637.694
636.949
635.498
633.319
630.391
626.693
622.206
616.914
610.801
603.854
596.062
587.416
577.911
567.543
556.312
544.223
531.282
517.499
502.889
487.47
471.264
454.297
436.599
418.204
399.15
379.479
359.237
338.475
317.246
295.607
273.62
251.349
228.859
206.221
183.505
160.784
138.133
115.628
93.342
71.354
49.737
28.568
7.918
-12.139
-31.536
-50.204
-68.08
-85.104
-101.22
-116.376
-130.523
-143.619
-155.627
-166.513
-176.249
-184.814
-192.192
-198.372
-203.349
-207.126
-209.711
-211.116
-211.362
-210.474
-208.482
-205.421
-201.331
-196.257
-190.246
-183.352
-175.629
-167.138
-157.938
-148.095
-137.671
-126.735
-115.352
-103.588
-91.509
-79.18
-66.662
-54.018
-41.307
-28.588
-15.915
-3.341
9.083
21.311
33.297
45.003
56.393
67.436
78.103
88.374
98.228
107.652
116.635
125.168
133.246
140.869
148.038
154.759
161.04
166.893
172.334
177.381
182.053
186.371
190.357
194.032
197.417
200.534
203.401
206.041
208.477
210.73
212.821
214.774
216.611
218.356
220.035
221.666
223.267
224.853
226.438
228.031
229.642
231.274
232.927
234.605
236.312
238.05
239.826
241.643
243.505
245.415
247.374
249.378
251.425
253.51
255.62
257.75
259.899
262.075
264.302
266.598
268.972
271.434
273.982
276.592
279.228
281.823
284.3
286.608
288.705
290.563
292.193
293.605
294.825
295.883
296.758
297.406
297.788
297.859
297.611
297.111
296.467
295.864
295.514
295.594
296.299
297.715
299.768
302.291
304.937
307.32
309.258
310.685
311.545
312.115
312.826
314.115
316.729
321.269
327.941
336.766
347.369
358.659
369.285
377.826
382.447
381.48
373.435
357.036
332.046
299.386
260.667
217.945
173.755
130.799
92.131
60.655
38.087
24.989
21.015
25.186
36.145
52.079
70.58
89.332
106.762
121.955
134.622
144.846
152.84
159.149
164.649
170.015
175.529
181.169
186.589
191.309
194.86
196.678
196.142
192.843
186.623
177.469
165.547
151.081
134.23
115.191
94.224
71.532
47.286
21.668
-5.18
-33.074
-61.725
-90.895
-120.386
-150.018
-179.688
-209.293
-238.741
-268.001
-297.023
-325.739
-354.065
-381.861
-408.936
-435.13
-460.232
-484.015
-506.325
-526.961
-545.743
-562.564
-577.293
-589.834
-600.117
-608.053
-613.587
-616.737
-617.552
-616.128
-612.641
-607.27
-600.281
-592.014
-582.773
-572.883
-562.627
-552.207
-541.821
-531.65
-521.833
-512.501
-503.761
-495.657
-488.232
-481.525
-475.518
-470.181
-465.422
-461.082
-457.03
-453.156
-449.372
-445.642
-441.938
-438.233
-434.534
-430.867
-427.263
-423.77
-420.419
-417.224
-414.216
-411.436
-408.939
-406.802
-405.083
-403.809
-402.999
-402.654
-402.764
-403.318
-404.28
-405.597
-407.22
-409.1
-411.192
-413.464
-415.876
-418.383
-420.942
-423.508
-426.041
-428.51
-430.882
-433.127
-435.218
-437.129
-438.845
-440.354
-441.645
-442.705
-443.524
-444.093
-444.405
-444.456
-444.242
-443.759
-443.005
-441.98
-440.686
-439.13
-437.313
-435.244
-432.931
-430.387
-427.625
-424.661
-421.512
-418.191
-414.717
-411.105
-407.365
-403.506
-399.533
-395.447
-391.251
-386.952
-382.554
-378.064
-373.485
-368.821
-364.085
-359.283
-354.413
-349.47
-344.432
-339.285
-334.036
-328.702
-323.306
-317.893
-312.495
-307.147
-301.904
-296.799
-291.844
-287.034
-282.322
-277.658
-273.023
-268.416
-263.866
-259.401
-255.006
-250.656
-246.323
-241.941
-237.455
-232.798
-227.847
-222.532
-216.85
-210.846
-204.656
-198.447
-192.327
-186.373
-180.638
-175.15
-169.986
-165.226
-160.923
-157.174
-154.079
-151.757
-150.41
-150.177
-151.09
-153.117
-156.116
-159.88
-164.274
-169.185
-174.503
-180.157
-186.054
-192.1
-198.249
-204.434
-210.561
-216.508
-222.085
-227.132
-231.586
-235.432
-238.733
-241.607
-244.125
-246.344
-248.335
-250.136
-251.78
-253.293
-254.657
-255.853
-256.894
-257.812
-258.676
-259.554
-260.467
-261.418
-262.381
-263.307
-264.166
-264.933
-265.569
-266.055
-266.384
-266.557
-266.599
-266.546
-266.418
-266.225
-265.974
-265.663
-265.301
-264.902
-264.48
-264.05
-263.631
-263.239
-262.894
-262.616
-262.418
-262.31
-262.299
-262.386
-262.577
-262.877
-263.294
-263.835
-264.51
-265.327
-266.297
-267.433
-268.746
-270.248
-271.948
-273.859
-275.99
-278.353
-280.957
-283.814
-286.931
-290.319
-293.983
-297.933
-302.176
-306.719
-311.567
-316.726
-322.2
-327.991
-334.099
-340.523
-347.258
-354.297
-361.631
-369.247
-377.131
-385.266
-393.632
-402.204
-410.96
-419.871
-428.912
-438.056
-447.274
-456.536
-465.814
-475.074
-484.28
-493.392
-502.362
-511.142
-519.681
-527.929
-535.835
-543.354
-550.441
-557.054
-563.157
-568.706
-573.65
-577.934
-581.49
-584.257
-586.201
-587.302
-587.555
-586.984
-585.614
-583.479
-580.644
-577.15
-573.012
-568.241
-562.81
-556.712
-550.011
-542.785
-535.122
-527.108
-518.747
-510.024
-500.972
-491.536
-481.555
-470.958
-459.679
-447.801
-435.721
-423.786
-412.18
-401.149
-390.913
-381.338
-371.895
-361.711
-349.501
-334.112
-315.596
-294.1
-268.879
-240.548
-209.208
-175.444
-144.137
-118.409
-100.764
-94.605
-98.38
-111.925
-135.902
-167.067
-202.209
-234.601
-256.051
-262.777
-254.937
-237.834
-218.265
-200.262
-185.124
-171.324
-157.553
-144.473
-133.466
-126.245
-123.398
-124.126
-127.311
-131.695
-136.422
-141.004
-145.063
-148.455
-151.241
-153.617
-155.866
-158.308
-161.077
-164.177
-167.596
-171.253
-175.079
-179.037
-183.066
-187.109
-191.172
-195.29
-199.502
-203.854
-208.358
-213.001
-217.777
-222.674
-227.683
-232.801
-238.015
-243.306
-248.657
-254.042
-259.431
-264.788
-270.07
-275.226
-280.21
-284.975
-289.478
-293.682
-297.55
-301.046
-304.136
-306.787
-308.962
-310.627
-311.745
-312.285
-312.213
-311.5
-310.117
-308.041
-305.248
-301.72
-297.441
-292.398
-286.581
-279.985
-272.607
-264.449
-255.518
-245.823
-235.379
-224.202
-212.315
-199.743
-186.514
-172.662
-158.22
-143.227
-127.725
-111.756
-95.367
-78.604
-61.515
-44.151
-26.562
-8.803
9.076
27.019
44.973
62.884
80.698
98.364
115.828
133.043
149.958
166.527
182.706
198.453
213.727
228.492
242.712
256.355
269.393
281.8
293.552
304.629
315.014
324.692
333.652
341.885
349.384
356.146
362.169
367.456
372.008
375.832
378.935
381.328
383.021
384.027
384.361
384.039
383.077
381.495
379.312
376.547
373.222
369.359
364.981
360.11
354.77
348.985
342.78
336.179
329.208
321.892
314.257
306.328
298.133
289.697
281.048
272.213
263.22
254.095
244.869
235.568
226.221
216.859
207.509
198.202
188.968
179.836
170.837
162.002
153.36
144.943
136.78
128.901
121.337
114.117
107.267
100.818
94.795
89.224
84.13
79.536
75.465
71.938
68.972
66.585
64.793
63.609
63.044
63.107
63.805
65.142
67.122
69.744
73.005
76.901
81.424
86.566
92.313
98.653
105.567
113.038
121.045
129.564
138.572
148.042
157.946
168.255
178.939
189.968
201.308
212.928
224.794
236.873
249.132
261.539
274.059
286.66
299.312
311.983
324.643
337.263
349.815
362.272
374.608
386.799
398.822
410.655
422.279
433.674
444.824
455.713
466.326
476.652
486.677
496.392
505.787
514.854
523.587
531.979
540.025
547.722
555.065
562.053
568.682
574.952
580.86
586.405
591.584
596.397
600.842
604.917
608.62
611.951
614.907
617.487
619.688
621.508
622.944
623.993
624.652
624.917
624.786
624.255
623.321
621.984
620.241
618.092
615.537
612.576
609.21
605.439
601.266
596.69
591.716
586.345
580.583
574.436
567.91
561.016
553.762
546.161
538.225
529.967
521.4
512.54
503.403
494.005
484.367
474.509
464.454
454.227
443.854
433.362
422.779
412.132
401.449
390.757
380.082
369.452
358.895
348.438
338.111
327.941
317.959
308.196
298.682
289.449
280.524
271.935
263.706
255.861
248.42
241.4
234.814
228.673
222.991
217.78
213.052
208.821
205.1
201.903
199.239
197.115
195.533
194.487
193.967
193.958
194.454
195.452
196.959
198.996
201.576
204.709
208.393
212.606
217.301
222.407
227.844
233.521
239.357
245.286
251.273
257.301
263.357
269.426
275.44
281.296
286.905
292.174
297.047
301.521
305.617
309.437
313.18
317.002
320.975
325.074
329.064
332.676
335.747
338.008
339.216
339.514
339.337
339.477
341.12
345.212
352.237
362.672
376.828
394.184
413.545
432.94
449.681
461.508
466.872
464.242
452.157
430.243
399.176
360.741
317.941
273.7
230.496
191.168
158.77
135.356
121.918
118.429
123.563
135.659
153.059
173.404
193.948
212.704
228.439
240.563
249.274
254.999
258.219
259.939
261.46
263.583
266.666
270.719
275.425
280.536
285.919
291.293
296.268
300.661
304.456
307.796
310.98
314.191
317.479
320.878
324.418
328.125
332.046
336.203
340.556
345.074
349.742
354.544
359.48
364.517
369.579
374.566
379.372
383.928
388.198
392.166
395.827
399.175
402.201
404.91
407.32
409.442
411.276
412.813
414.044
414.971
415.611
415.988
416.131
416.062
415.8
415.362
414.769
414.038
413.182
412.211
411.132
409.956
408.702
407.389
406.039
404.673
403.313
401.98
400.699
399.491
398.377
397.375
396.504
395.781
395.225
394.855
394.686
394.739
395.029
395.574
396.39
397.493
398.896
400.609
402.645
405.012
407.717
410.766
414.164
417.913
422.015
426.471
431.279
436.437
441.936
447.771
453.93
460.401
467.171
474.223
481.539
489.099
496.883
504.868
513.032
521.35
529.797
538.345
546.967
555.634
564.318
572.989
581.617
590.172
598.625
606.948
615.113
623.092
630.858
638.388
645.657
652.642
659.324
665.684
671.704
677.37
682.671
687.595
692.136
696.288
700.05
703.42
706.402
709
711.22
713.073
714.568
715.719
716.541
717.048
717.259
717.192
716.866
716.3
715.514
714.528
713.362
712.034
710.562
708.966
707.259
705.458
703.576
701.624
699.612
697.547
695.434
693.275
691.072
688.82
686.514
684.147
681.707
679.18
676.55
673.797
670.901
667.838
664.581
661.102
657.373
653.362
649.038
644.368
639.319
633.859
627.954
621.574
614.685
607.259
599.266
590.68
581.476
571.63
561.123
549.937
538.056
525.469
512.168
498.146
483.403
467.939
451.76
434.874
417.295
399.038
380.124
360.575
340.418
319.683
298.402
276.613
254.351
231.659
208.577
185.151
161.425
137.444
113.257
88.908
64.446
39.918
15.368
-9.158
-33.616
-57.964
-82.159
-106.164
-129.941
-153.454
-176.672
-199.562
-222.098
-244.253
-266.007
-287.337
-308.228
-328.665
-348.636
-368.134
-387.152
-405.688
-423.739
-441.31
-458.403
-475.026
-491.185
-506.891
-522.156
-536.992
-551.412
-565.431
-579.064
-592.327
-605.234
-617.801
-630.045
-641.98
-653.621
-664.982
-676.077
-686.918
-697.519
-707.891
-718.043
-727.987
-737.731
-747.282
-756.648
-765.835
-774.848
-783.69
-792.365
-800.875
-809.22
-817.401
-825.416
-833.265
-840.944
-848.451
-855.782
-862.933
-869.9
-876.678
-883.263
-889.65
-895.835
-901.813
-907.581
-913.133
-918.466
-923.576
-928.461
-933.116
-937.54
-941.732
-945.691
-949.415
-952.906
-956.162
-959.182
-961.968
-964.519
-966.838
-968.929
-970.796
-972.443
-973.879
-975.11
-976.143
-976.984
-977.638
-978.108
-978.397
-978.508
-978.442
-978.206
-977.803
-977.233
-976.495
-975.585
-974.496
-973.223
-971.756
-970.088
-968.216
-966.141
-963.865
-961.401
-958.764
-955.971
-953.044
-949.991
-946.834
-943.602
-940.341
-937.116
-933.987
-930.997
-928.186
-925.569
-923.146
-920.935
-918.904
-916.961
-915.109
-913.393
-911.93
-911.003
-910.779
-911.283
-912.616
-914.756
-917.333
-919.84
-921.412
-920.809
-917.159
-909.815
-898.078
-881.901
-861.952
-839.2
-815.476
-793.305
-774.681
-761.527
-755.924
-758.009
-767.005
-782.817
-803.532
-827.803
-854.659
-879.135
-897.017
-905.246
-901.565
-888.317
-868.047
-842.372
-812.525
-779.86
-748.33
-722.236
-706.131
-701.154
-703.161
-707.973
-711.022
-710.039
-706.926
-703.046
-699.304
-696.006
-691.949
-686.623
-680.372
-673.622
-666.848
-660.229
-653.636
-646.934
-640.115
-633.187
-626.114
-618.865
-611.456
-603.931
-596.375
-588.874
-581.464
-574.164
-566.995
-559.963
-553.081
-546.366
-539.824
-533.461
-527.284
-521.296
-515.501
-509.903
-504.5
-499.295
-494.289
-489.487
-484.897
-480.53
-476.398
-472.516
-468.897
-465.549
-462.48
-459.697
-457.205
-455.008
-453.109
-451.51
-450.209
-449.206
-448.498
-448.078
-447.94
-448.074
-448.467
-449.105
-449.971
-451.049
-452.317
-453.755
-455.338
-457.041
-458.836
-460.694
-462.583
-464.47
-466.319
-468.095
-469.76
-471.276
-472.602
-473.699
-474.527
-475.045
-475.213
-474.992
-474.344
-473.231
-471.617
-469.468
-466.751
-463.436
-459.495
-454.902
-449.634
-443.669
-436.991
-429.585
-421.439
-412.545
-402.898
-392.497
-381.342
-369.44
-356.798
-343.428
-329.346
-314.571
-299.124
-283.03
-266.318
-249.019
-231.166
-212.796
-193.947
-174.658
-154.973
-134.935
-114.588
-93.977
-73.148
-52.148
-31.024
-9.82
11.417
32.642
53.812
74.884
95.816
116.568
137.103
157.384
177.378
197.051
216.375
235.322
253.866
271.987
289.663
306.877
323.616
339.867
355.62
370.87
385.611
399.842
413.562
426.774
439.482
451.691
463.409
474.643
485.403
495.699
505.543
514.945
523.916
532.469
540.615
548.364
555.726
562.713
569.331
575.59
581.496
587.054
592.269
597.144
601.681
605.879
609.737
613.253
616.422
619.239
621.697
623.787
625.501
626.827
627.756
628.274
628.371
628.033
627.249
626.005
624.29
622.093
619.402
616.209
612.506
608.286
603.544
598.277
592.485
586.169
579.333
571.984
564.13
555.784
546.96
537.676
527.952
517.81
507.279
496.385
485.16
473.639
461.857
449.854
437.668
425.343
412.923
400.451
387.975
375.54
363.193
350.982
338.953
327.152
315.625
304.415
293.566
283.118
273.111
263.581
254.561
246.084
238.176
230.863
224.167
218.104
212.688
207.93
203.836
200.407
197.641
195.533
194.073
193.246
193.036
193.421
194.376
195.875
197.885
200.375
203.309
206.648
210.354
214.387
218.704
223.262
228.017
232.926
237.945
243.028
248.133
253.216
258.236
263.152
267.925
272.519
276.898
281.03
284.885
288.433
291.651
294.517
297.011
299.119
300.826
302.125
303.01
303.48
303.536
303.183
302.427
301.28
299.754
297.865
295.63
293.066
290.193
287.034
283.614
279.961
276.104
272.072
267.896
263.605
259.23
254.804
250.357
245.919
241.518
237.179
232.931
228.802
224.819
221.008
217.387
213.968
210.765
207.788
205.047
202.555
200.317
198.336
196.615
195.157
193.965
193.052
192.424
192.081
192.022
192.236
192.73
193.528
194.644
196.093
197.858
199.869
202.08
204.455
206.953
209.576
212.257
214.825
217.245
219.586
221.898
224.304
226.717
228.755
230.266
231.312
231.747
231.365
229.806
226.406
221.024
214.091
205.805
196.248
185.653
174.298
163.012
153.227
145.927
141.598
140.631
143.257
149.63
159.544
171.881
184.733
195.985
203.642
206.088
201.894
189.78
169.373
141.265
106.923
68.746
29.305
-8.988
-43.449
-71.649
-92.209
-104.519
-108.862
-106.611
-99.342
-88.889
-77.699
-67.933
-61.049
-58.009
-59.033
-63.639
-71.221
-80.884
-91.308
-101.481
-110.763
-118.739
-125.388
-130.925
-135.587
-139.715
-143.748
-147.89
-152.142
-156.474
-160.769
-164.934
-168.94
-172.73
-176.234
-179.463
-182.48
-185.342
-188.109
-190.786
-193.318
-195.684
-197.889
-199.964
-201.972
-203.956
-205.936
-207.941
-210.002
-212.137
-214.356
-216.642
-218.955
-221.271
-223.579
-225.876
-228.172
-230.469
-232.763
-235.045
-237.305
-239.531
-241.711
-243.828
-245.862
-247.797
-249.622
-251.332
-252.927
-254.404
-255.759
-256.989
-258.089
-259.056
-259.887
-260.578
-261.123
-261.521
-261.77
-261.871
-261.828
-261.644
-261.323
-260.869
-260.29
-259.59
-258.778
-257.859
-256.841
-255.731
-254.537
-253.267
-251.929
-250.532
-249.085
-247.597
-246.077
-244.536
-242.983
-241.426
-239.873
-238.334
-236.816
-235.326
-233.87
-232.455
-231.086
-229.769
-228.51
-227.311
-226.178
-225.111
-224.114
-223.186
-222.329
-221.542
-220.823
-220.171
-219.584
