Name,Criss Capps
Date of Birth,"Feb 5, 1952"
Recorded Date,2021-11-18 15:29:04 -0400
Classification,Sinus Rhythm
Symptoms,
Software Version,1.90
Device,"Watch5,4"
Sample Rate,512.844 hertz


Lead,Lead I
Unit,µV

681.141
920.187
1084.119
1160.335
1168.055
1144.201
1118.881
1102.359
1090.942
1074.153
1048.011
1020.798
1001.129
996.116
1007.236
1024.354
1037.643
1037.05
1012.54
965.332
899.079
819.714
736.649
651.404
565.593
483.505
409.316
350.945
312.336
290.635
279.49
272.766
268.828
268.117
269.754
267.028
249.15
208.82
146.073
69.523
-10.385
-88.402
-166.624
-253.549
-355.921
-471.422
-588.832
-691.55
-764.874
-808.695
-837.518
-872.983
-936.822
-1034.913
-1157.892
-1289.459
-1412.937
-1523.657
-1623.79
-1716.335
-1799.698
-1861.892
-1889.964
-1875.159
-1820.503
-1741.961
-1660.398
-1596.816
-1559.834
-1545.916
-1541.916
-1527.747
-1491.356
-1428.292
-1343.22
-1249.277
-1154.974
-1065.793
-982.87
-902.265
-823.607
-747.864
-676.358
-612.332
-557.085
-510.157
-470.944
-437.674
-408.04
-380.684
-354.656
-329.169
-304.008
-279.121
-254.49
-230.679
-208.467
-187.993
-169.355
-152.595
-137.219
-123.241
-110.028
-95.406
-79.202
-62.702
-48.141
-40.937
-42.221
-46.668
-47.835
-36.296
-7.463
31.548
71.072
100.949
113.938
114.655
111.919
112.289
121.236
137.365
155.219
172.052
185.771
196.032
204.614
211.98
217.966
222.664
225.798
227.31
227.506
226.56
224.577
221.748
218.233
214.117
209.509
204.528
199.289
193.956
188.705
183.659
178.923
174.61
170.808
167.595
165.034
163.144
161.918
161.332
161.321
161.781
162.604
163.666
164.853
166.055
167.14
167.976
168.422
168.339
167.648
166.262
164.052
160.991
157.132
152.69
148.164
144.101
140.939
139.187
139.388
141.875
146.88
154.202
162.941
172.215
181.369
189.608
196.187
200.671
202.622
203.201
205.952
214.183
230.913
256.904
288.471
323.117
360.974
405.601
467.378
554.594
669.037
806.989
953.38
1091.043
1206.451
1285.609
1322.43
1312.77
1250.879
1138.007
976.284
774.402
551.183
327.504
127.3
-30.938
-139.429
-199.936
-221.539
-213.269
-184.612
-142.098
-93.508
-51.508
-22.227
-8.484
-6.535
-3.78
5.417
21.754
42.671
59.92
70.182
74.787
75.166
74.458
74.752
76.038
78.678
83.221
89.557
97.449
106.71
116.859
127.309
137.676
147.338
155.485
161.801
166.246
168.88
169.993
169.871
168.711
166.807
164.514
162.03
159.462
156.895
154.321
151.749
149.216
146.74
144.331
142.048
139.965
138.119
136.533
135.205
134.105
133.235
132.6
132.193
132.001
132.002
132.171
132.502
132.996
133.631
134.372
135.166
135.942
136.669
137.339
137.948
138.505
139.017
139.487
139.932
140.382
140.859
141.383
141.964
142.608
143.332
144.162
145.129
146.27
147.608
149.15
150.902
152.864
155.031
157.397
159.945
162.651
165.499
168.472
171.558
174.746
178.018
181.354
184.73
188.123
191.508
194.864
198.168
201.399
204.535
207.559
210.456
213.215
215.825
218.272
220.545
222.633
224.527
226.222
227.714
228.999
230.075
230.947
231.619
232.096
232.384
232.486
232.402
232.126
231.651
230.954
230.015
228.815
227.33
225.549
223.463
221.072
218.381
215.406
212.161
208.665
204.938
200.973
196.769
192.349
187.76
183.106
178.503
174.033
169.789
165.91
162.5
159.62
157.202
154.956
152.582
149.944
146.972
143.616
139.825
135.526
131.017
127.058
124.351
122.567
120.352
116.258
109.764
103.609
101.66
105.615
113.944
117.991
107.416
76.346
23.674
-40.217
-100.297
-145.742
-168.554
-172.601
-168.985
-165.41
-168.957
-179.403
-190.599
-199.895
-205.709
-208.504
-211.197
-214.335
-217.144
-219.503
-221.024
-221.436
-220.773
-218.527
-214.03
-207.11
-197.752
-185.7
-171.631
-157.607
-145.788
-137.548
-131.844
-125.868
-117.871
-110.265
-111.355
-129.606
-171.549
-238.825
-321.687
-408.035
-484.461
-536.269
-560.54
-560.274
-542.254
-519.376
-498.29
-480.565
-466.047
-451.008
-434.1
-416.524
-399.551
-384.983
-373.214
-363.419
-354.577
-345.379
-335.204
-323.984
-311.702
-298.622
-285.04
-271.175
-257.409
-244.157
-231.585
-219.725
-208.517
-197.782
-187.38
-177.206
-167.111
-156.947
-146.623
-136.095
-125.365
-114.481
-103.482
-92.392
-81.25
-70.104
-59.017
-48.059
-37.298
-26.796
-16.617
-6.831
2.494
11.286
19.489
27.065
33.985
40.231
45.792
50.657
54.825
58.299
61.079
63.172
64.59
65.345
65.451
64.932
63.822
62.162
60.016
57.441
54.5
51.25
47.745
44.043
40.207
36.302
32.397
28.556
24.83
21.275
17.949
14.891
12.125
9.629
7.326
5.125
2.934
0.666
-1.746
-4.389
-7.376
-10.805
-14.769
-19.334
-24.514
-30.397
-37.141
-44.778
-53.246
-62.299
-71.392
-79.986
-87.613
-93.599
-97.179
-97.847
-95.221
-89.343
-81.11
-71.585
-61.759
-53.143
-46.411
-40.538
-34.659
-27.511
-18.981
-12.754
-10.82
-10.651
-4.68
21.402
79.847
173.498
296.29
434.21
573.043
704.307
823.804
928.292
1009.936
1058.043
1062.22
1015.544
921.891
789.256
625.871
443.453
250.345
57.964
-115.808
-257.637
-357.79
-414.433
-436.003
-430.68
-405.158
-364.724
-313.674
-259.764
-211.688
-175.494
-152.162
-136.839
-124.267
-111.631
-99.176
-90.502
-87.586
-89.393
-93.635
-96.548
-95.414
-89.772
-79.932
-66.709
-51.191
-34.37
-17.24
-1.103
12.813
23.94
32.112
37.438
40.308
41.125
40.278
38.345
35.936
33.402
30.954
28.718
26.74
25.178
24.225
23.97
24.438
25.635
27.547
30.175
33.52
37.513
42.05
47.021
52.314
57.861
63.612
69.494
75.418
81.268
86.915
92.278
97.309
101.972
106.252
110.14
113.634
116.768
119.594
122.153
124.485
126.616
128.561
130.349
132.019
133.615
135.19
136.78
138.412
140.111
141.898
143.786
145.789
147.904
150.124
152.444
154.865
157.386
160.013
162.744
165.576
168.503
171.52
174.62
177.797
181.041
184.343
187.693
191.083
194.502
197.942
201.394
204.845
208.282
211.693
215.062
218.376
221.622
224.783
227.847
230.8
233.631
236.326
238.875
241.267
243.493
245.542
247.407
249.08
250.553
251.82
252.875
253.714
254.333
254.728
254.898
254.841
254.558
254.051
253.321
252.372
251.21
249.837
248.262
246.49
244.53
242.388
240.075
237.598
234.97
232.199
229.298
226.277
223.148
219.924
216.616
213.235
209.795
206.306
202.782
199.234
195.675
192.116
188.569
185.046
181.559
178.119
174.736
171.419
168.178
165.021
161.955
158.987
156.124
153.37
150.73
148.208
145.806
143.528
141.374
139.344
137.438
135.652
133.985
132.432
130.988
129.647
128.403
127.25
126.18
125.185
124.257
123.387
122.567
121.785
121.034
120.301
119.578
118.852
118.114
117.355
116.564
115.734
114.854
113.917
112.915
111.841
110.689
109.451
108.121
106.695
105.169
103.542
101.812
99.98
98.047
96.017
93.896
91.69
89.407
87.051
84.633
82.161
79.643
77.087
74.502
71.896
69.281
66.67
64.078
61.521
59.013
56.57
54.21
51.949
49.802
47.784
45.9
44.163
42.585
41.182
39.973
38.971
38.179
37.601
37.24
37.09
37.139
37.363
37.721
38.184
38.737
39.369
40.084
40.879
41.746
42.685
43.692
44.766
45.912
47.127
48.393
49.719
51.121
52.641
54.349
56.281
58.439
60.809
63.354
66.026
68.776
71.529
74.188
76.672
78.909
80.843
82.444
83.647
84.37
84.514
83.951
82.594
80.411
77.387
73.543
68.942
63.659
57.819
51.589
45.101
38.474
31.81
25.188
18.722
12.543
6.779
1.577
-2.951
-6.741
-9.758
-12.014
-13.597
-14.61
-15.186
-15.511
-15.738
-16.033
-16.572
-17.5
-18.946
-21.058
-24.023
-27.962
-32.921
-38.765
-45.08
-51.393
-57.251
-62.128
-65.432
-66.697
-65.603
-62.263
-57.571
-52.481
-47.705
-44.156
-42.602
-43.479
-47.296
-52.637
-55.623
-53.081
-42.123
-22.587
1.944
31.478
69.198
121.834
199.334
304.091
430.642
568.279
702.435
823.575
927.852
1011.47
1069.04
1092.492
1070.067
993.959
864.512
686.232
473.392
246.119
25.076
-166.347
-312.938
-409.13
-457.987
-469.783
-452.797
-415.735
-364.995
-307.804
-256.647
-217.955
-194.578
-184.334
-177.153
-168.332
-157.238
-145.114
-137.646
-136.672
-140.458
-146.965
-152.447
-154.566
-152.888
-147.412
-138.877
-128.194
-116.09
-103.381
-91.026
-79.961
-71.02
-64.627
-60.762
-59.189
-59.53
-61.396
-64.407
-68.133
-72.143
-76.152
-80.018
-83.658
-87.014
-90.004
-92.508
-94.425
-95.715
-96.358
-96.343
-95.689
-94.426
-92.603
-90.297
-87.591
-84.544
-81.209
-77.632
-73.849
-69.929
-65.943
-61.966
-58.091
-54.384
-50.882
-47.615
-44.586
-41.782
-39.19
-36.783
-34.526
-32.394
-30.364
-28.421
-26.555
-24.749
-22.976
-21.205
-19.395
-17.515
-15.545
-13.468
-11.275
-8.964
-6.534
-3.99
-1.347
1.384
4.195
7.08
10.036
13.057
16.134
19.255
22.408
25.579
28.757
31.929
35.081
38.201
41.278
44.301
47.263
50.153
52.962
55.678
58.29
60.787
63.159
65.395
67.485
69.421
71.193
72.794
74.22
75.463
76.521
77.389
78.063
78.541
78.823
78.906
78.79
78.475
77.963
77.253
76.349
75.253
73.969
72.499
70.85
69.026
67.033
64.876
62.562
60.097
57.489
54.745
51.874
48.883
45.782
42.58
39.285
35.909
32.461
28.95
25.387
21.782
18.143
14.482
10.808
7.131
3.461
-0.192
-3.817
-7.406
-10.947
-14.431
-17.849
-21.192
-24.45
-27.616
-30.681
-33.637
-36.477
-39.193
-41.781
-44.234
-46.547
-48.717
-50.74
-52.614
-54.338
-55.912
-57.338
-58.616
-59.751
-60.744
-61.602
-62.328
-62.929
-63.41
-63.777
-64.039
-64.204
-64.279
-64.273
-64.196
-64.057
-63.867
-63.636
-63.374
-63.092
-62.801
-62.511
-62.234
-61.98
-61.759
-61.583
-61.461
-61.402
-61.414
-61.505
-61.681
-61.946
-62.303
-62.754
-63.297
-63.932
-64.655
-65.465
-66.355
-67.324
-68.364
-69.471
-70.641
-71.867
-73.141
-74.455
-75.799
-77.159
-78.524
-79.879
-81.211
-82.503
-83.738
-84.901
-85.978
-86.956
-87.819
-88.548
-89.121
-89.521
-89.739
-89.769
-89.607
-89.258
-88.727
-88.028
-87.188
-86.234
-85.189
-84.074
-82.89
-81.641
-80.333
-78.974
-77.577
-76.145
-74.66
-73.098
-71.443
-69.674
-67.771
-65.704
-63.406
-60.826
-57.932
-54.704
-51.164
-47.349
-43.293
-39.039
-34.648
-30.197
-25.803
-21.598
-17.681
-14.148
-11.092
-8.616
-6.868
-5.985
-6.064
-7.171
-9.327
-12.527
-16.759
-21.987
-28.125
-35.044
-42.576
-50.529
-58.752
-67.113
-75.478
-83.701
-91.593
-98.971
-105.684
-111.626
-116.721
-120.914
-124.174
-126.507
-127.995
-128.783
-129.041
-128.963
-128.717
-128.455
-128.35
-128.583
-129.318
-130.738
-133.052
-136.347
-140.647
-145.852
-151.599
-157.505
-163.203
-168.158
-171.781
-173.65
-173.4
-171.077
-167.472
-163.269
-158.982
-155.365
-152.962
-152.141
-153.556
-156.318
-157.112
-152.933
-140.986
-120.287
-94.266
-65.331
-32.045
9.935
69.783
156.075
268.745
401.62
543.107
677.505
795.275
890.134
955.006
985.982
974.607
912.078
797.695
633.541
432.009
213.205
-5.002
-201.256
-361.457
-481.071
-556.356
-593.027
-596.245
-566.416
-511.582
-438.934
-359.775
-292.962
-247.069
-224.283
-220.352
-221.508
-220.568
-216.259
-210.208
-208.848
-214.332
-224.398
-235.802
-244.109
-246.948
-244.456
-237.403
-226.959
-214.26
-200.268
-186.148
-173.13
-162.221
-153.888
-148.104
-144.639
-143.1
-143.071
-144.143
-145.826
-147.675
-149.451
-151.065
-152.495
-153.741
-154.726
-155.336
-155.482
-155.119
-154.225
-152.788
-150.804
-148.286
-145.281
-141.86
-138.105
-134.08
-129.823
-125.364
-120.73
-115.971
-111.163
-106.388
-101.738
-97.281
-93.06
-89.103
-85.422
-82.015
-78.864
-75.943
-73.211
-70.64
-68.209
-65.903
-63.712
-61.617
-59.587
-57.585
-55.568
-53.499
-51.351
-49.1
-46.73
-44.228
-41.587
-38.808
-35.899
-32.865
-29.707
-26.425
-23.018
-19.487
-15.835
-12.07
-8.2
-4.235
-0.183
3.944
8.135
12.378
16.662
20.975
25.309
29.653
33.992
38.314
42.603
46.844
51.022
55.123
59.13
63.029
66.805
70.446
73.937
77.268
80.428
83.405
86.189
88.772
91.146
93.302
95.235
96.939
98.408
99.638
100.627
101.373
101.875
102.132
102.146
101.92
101.456
100.759
99.834
98.687
97.325
95.758
93.993
92.041
89.914
87.621
85.177
82.593
79.884
77.063
74.143
71.139
68.065
64.937
61.767
58.571
55.363
52.158
48.969
45.811
42.698
39.641
36.655
33.751
30.942
28.237
25.648
23.184
20.854
18.665
16.625
14.738
13.009
11.441
10.037
8.796
7.719
6.803
6.046
5.444
4.991
4.683
4.511
4.468
4.545
4.734
5.023
5.403
5.864
6.392
6.978
7.61
8.275
8.962
9.658
10.353
11.035
11.692
12.313
12.887
13.405
13.857
14.235
14.532
14.74
14.854
14.87
14.786
14.6
14.31
13.919
13.429
12.843
12.166
11.404
10.564
9.655
8.686
7.666
6.608
5.521
4.419
3.315
2.221
1.151
0.119
-0.861
-1.775
-2.61
-3.351
-3.985
-4.499
-4.88
-5.116
-5.197
-5.11
-4.848
-4.402
-3.765
-2.933
-1.902
-0.669
0.765
2.399
4.229
6.249
8.453
10.831
13.374
16.069
18.902
21.856
24.916
28.062
31.271
34.521
37.789
41.048
44.273
47.439
50.517
53.482
56.311
58.979
61.463
63.739
65.784
67.574
69.089
70.31
71.221
71.807
72.056
71.959
71.517
70.729
69.597
68.12
66.288
64.098
61.553
58.658
55.427
51.878
48.031
43.919
39.592
35.1
30.497
25.833
21.145
16.479
11.89
7.441
3.211
-0.727
-4.313
-7.497
-10.241
-12.526
-14.351
-15.747
-16.783
-17.545
-18.138
-18.667
-19.233
-19.957
-20.962
-22.393
-24.443
-27.238
-30.812
-35.112
-39.929
-44.966
-49.92
-54.365
-57.761
-59.717
-60.006
-58.65
-56.117
-53.046
-50.129
-48.139
-47.737
-49.404
-53.372
-59.381
-66.646
-72.698
-73.482
-65.502
-45.527
-14.23
23.361
65.114
110.805
166.107
242.909
346.616
476.883
624.17
769.948
898.642
995.079
1048.857
1054.083
1003.715
897.724
739.672
538.866
314.472
87.137
-120.144
-286.762
-402.83
-468.972
-495.357
-496.653
-483.334
-457.628
-418.252
-365.346
-304.786
-248.153
-204.606
-176.94
-160.896
-149.324
-138.397
-128.322
-122.351
-122.765
-128.722
-137.442
-145.28
-149.792
-150.007
-145.911
-138.241
-127.823
-115.564
-102.589
-89.948
-78.626
-69.519
-63.004
-59.066
-57.494
-57.856
-59.691
-62.591
-66.125
-69.852
-73.509
-76.941
-80.015
-82.688
-84.888
-86.504
-87.49
-87.848
-87.57
-86.686
-85.239
-83.26
-80.813
-77.977
-74.804
-71.349
-67.661
-63.779
-59.773
-55.714
-51.677
-47.751
-44.002
-40.468
-37.177
-34.13
-31.312
-28.708
-26.288
-24.018
-21.872
-19.825
-17.86
-15.967
-14.126
-12.311
-10.491
-8.627
-6.685
-4.645
-2.488
-0.205
2.209
4.756
7.433
10.226
13.129
16.135
19.239
22.442
25.738
29.122
32.584
36.112
39.695
43.323
46.984
50.666
54.357
58.045
61.721
65.376
69.001
72.585
76.115
79.58
82.968
86.266
89.464
92.548
95.507
98.331
101.009
103.533
105.894
108.084
110.096
111.922
113.558
114.997
116.235
117.268
118.093
118.708
119.11
119.3
119.276
119.041
118.595
117.941
117.083
116.023
114.766
113.318
111.683
109.867
107.878
105.722
103.406
100.941
98.334
95.595
92.734
89.762
86.688
83.525
80.283
76.974
73.61
70.201
66.761
63.3
59.832
56.367
52.919
49.497
46.113
42.779
39.505
36.301
33.176
30.14
27.202
24.369
21.649
19.05
16.576
14.235
12.029
9.964
8.041
6.262
4.629
3.142
1.798
0.597
-0.464
-1.389
-2.184
-2.852
-3.401
-3.838
-4.17
-4.405
-4.553
-4.622
-4.623
-4.564
-4.457
-4.311
-4.136
-3.943
-3.743
-3.544
-3.357
-3.192
-3.059
-2.965
-2.92
-2.931
-3.004
-3.147
-3.364
-3.661
-4.039
-4.502
-5.052
-5.688
-6.41
-7.217
-8.105
-9.07
-10.108
-11.212
-12.376
-13.59
-14.847
-16.137
-17.449
-18.774
-20.101
-21.419
-22.715
-23.98
-25.2
-26.364
-27.461
-28.479
-29.406
-30.231
-30.945
-31.538
-32.002
-32.328
-32.509
-32.541
-32.418
-32.137
-31.696
-31.095
-30.334
-29.416
-28.347
-27.13
-25.776
-24.293
-22.694
-20.993
-19.206
-17.35
-15.442
-13.503
-11.554
-9.614
-7.706
-5.851
-4.068
-2.379
-0.805
0.633
1.911
3.009
3.906
4.584
5.023
5.206
5.121
4.76
4.116
3.184
1.958
0.427
-1.414
-3.569
-6.037
-8.811
-11.88
-15.227
-18.82
-22.616
-26.571
-30.636
-34.77
-38.936
-43.094
-47.204
-51.218
-55.075
-58.725
-62.118
-65.207
-67.957
-70.347
-72.377
-74.085
-75.547
-76.839
-78.038
-79.219
-80.455
-81.84
-83.477
-85.478
-87.949
-90.996
-94.764
-99.323
-104.673
-110.694
-117.049
-123.309
-129.011
-133.621
-136.591
-137.555
-136.267
-132.811
-127.89
-122.307
-116.972
-112.881
-110.613
-110.556
-113.098
-117.841
-123.257
-126.636
-123.871
-111.034
-86.122
-50.34
-6.464
43.451
99.557
167.639
253.507
359.579
484.536
617.398
743.992
848.562
914.349
931.57
894.557
806.269
676.714
515.425
334.903
144.505
-45.963
-220.392
-365.364
-470.008
-530.676
-554.892
-551.681
-529.046
-492.892
-447.388
-399.786
-358.019
-327.741
-309.148
-295.653
-281.186
-262.97
-241.965
-223.527
-211.035
-204.257
-202.015
-201.717
-201.165
-199.897
-197.514
-193.458
-187.842
-180.976
-172.994
-164.315
-155.532
-146.995
-139.305
-133.247
-129.016
-126.514
-125.597
-125.902
-127.162
-129.234
-131.786
-134.398
-136.807
-138.835
-140.401
-141.52
-142.121
-142.122
-141.512
-140.319
-138.618
-136.486
-133.974
-131.125
-127.973
-124.554
-120.922
-117.127
-113.211
-109.224
-105.213
-101.23
-97.366
-93.683
-90.219
-86.998
-84.006
-81.226
-78.647
-76.245
-73.989
-71.855
-69.814
-67.844
-65.934
-64.063
-62.207
-60.335
-58.401
-56.371
-54.222
-51.937
-49.506
-46.925
-44.188
-41.298
-38.269
-35.108
-31.824
-28.423
-24.905
-21.275
-17.543
-13.72
-9.819
-5.853
-1.834
2.225
6.309
10.406
14.501
18.584
22.644
26.669
30.646
34.561
38.401
42.151
45.798
49.33
52.732
55.993
59.102
62.048
64.824
67.421
69.831
72.048
74.068
75.884
77.494
78.894
80.081
81.054
81.81
82.352
82.677
82.789
82.688
82.379
81.864
81.148
80.237
79.136
77.853
76.394
74.767
72.982
71.047
68.971
66.765
64.439
62.004
59.471
56.85
54.152
51.388
48.57
45.707
42.812
39.895
36.966
34.038
31.121
28.226
25.364
22.546
19.783
17.084
14.46
11.92
9.473
7.127
4.89
2.77
0.771
-1.1
-2.839
-4.443
-5.908
-7.234
-8.42
-9.465
-10.37
-11.138
-11.77
-12.27
-12.642
-12.889
-13.018
-13.035
-12.944
-12.754
-12.471
-12.104
-11.66
-11.15
-10.581
-9.963
-9.306
-8.62
-7.916
-7.202
-6.488
-5.785
-5.102
-4.446
-3.825
-3.248
-2.72
-2.248
-1.834
-1.484
-1.2
-0.983
-0.835
-0.754
-0.739
-0.788
-0.897
-1.062
-1.276
-1.534
-1.829
-2.152
-2.496
-2.852
-3.211
-3.562
-3.895
-4.2
-4.465
-4.679
-4.83
-4.906
-4.896
-4.788
-4.573
-4.238
-3.776
-3.177
-2.434
-1.541
-0.491
0.719
2.092
3.629
5.329
7.19
9.208
11.375
13.683
16.122
18.678
21.336
24.081
26.894
29.756
32.648
35.548
38.436
41.29
44.089
46.809
49.428
51.92
54.261
56.427
58.394
60.137
61.633
62.862
63.804
64.449
64.783
64.794
64.472
63.8
62.766
61.369
59.605
57.476
54.99
52.163
49.027
45.629
42.016
38.235
34.329
30.333
26.288
22.243
18.246
14.355
10.624
7.093
3.811
0.824
-1.842
-4.181
-6.233
-8.083
-9.819
-11.523
-13.264
-15.105
-17.128
-19.435
-22.133
-25.331
-29.091
-33.48
-38.619
-44.573
-51.32
-58.679
-66.18
-73.258
-79.433
-84.179
-86.947
-87.342
-85.059
-80.206
-73.648
-66.35
-59.123
-52.912
-48.482
-46.338
-47.076
-49.578
-50.366
-46.184
-33.843
-12.898
13.136
43.346
79.71
128.462
199.958
298.227
419.895
555.53
690.595
815.05
923.381
1009.327
1066.186
1082.692
1046.183
952.582
805.245
617.337
409.241
198.178
1.808
-166.96
-301.964
-396.204
-450.462
-467.595
-448.729
-403.265
-339.54
-268.428
-206.597
-161.162
-134.719
-124.529
-119.228
-113.552
-106.783
-100.288
-99.967
-107.605
-120.742
-136.3
-149.918
-158.896
-163.063
-162.852
-159.034
-152.524
-144.142
-134.804
-125.607
-117.593
-111.248
-106.633
-103.649
-101.93
-101.063
-100.675
-100.272
-99.402
-97.866
-95.633
-92.783
-89.51
-85.986
-82.332
-78.692
-75.171
-71.807
-68.606
-65.521
-62.522
-59.622
-56.857
-54.275
-51.912
-49.775
-47.851
-46.111
-44.501
-42.942
-41.362
-39.693
-37.906
-36.003
-34.009
-31.975
-29.939
-27.922
-25.939
-23.984
-22.051
-20.129
-18.21
-16.282
-14.349
-12.429
-10.538
-8.691
-6.889
-5.114
-3.34
-1.53
0.35
2.331
4.437
6.684
9.079
11.624
14.314
17.137
20.087
23.159
26.349
29.655
33.071
36.584
40.183
43.851
47.571
51.324
55.092
58.857
62.603
66.315
69.979
73.583
77.116
80.564
83.913
87.149
90.257
93.223
96.032
98.67
101.122
103.376
105.422
107.247
108.845
110.206
111.324
112.195
112.813
113.177
113.285
113.136
112.73
112.069
111.157
109.996
108.593
106.952
105.081
102.987
100.679
98.166
95.456
92.562
89.492
86.259
82.874
79.349
75.699
71.936
68.076
64.134
60.125
56.064
51.966
47.849
43.726
39.613
35.525
31.476
27.48
23.551
19.702
15.945
12.291
8.752
5.338
2.057
-1.082
-4.071
-6.903
-9.574
-12.077
-14.409
-16.565
-18.545
-20.346
-21.968
-23.411
-24.676
-25.768
-26.689
-27.443
-28.037
-28.476
-28.769
-28.923
-28.947
-28.851
-28.645
-28.34
-27.945
-27.473
-26.936
-26.344
-25.708
-25.041
-24.354
-23.657
-22.961
-22.276
-21.614
-20.982
-20.391
-19.849
-19.363
-18.942
-18.591
-18.317
-18.123
-18.013
-17.991
-18.057
-18.212
-18.455
-18.786
-19.2
-19.695
-20.264
-20.903
-21.603
-22.357
-23.156
-23.989
-24.846
-25.715
-26.586
-27.446
-28.283
-29.085
-29.84
-30.534
-31.156
-31.692
-32.132
-32.462
-32.671
-32.749
-32.686
-32.471
-32.098
-31.56
-30.85
-29.964
-28.9
-27.656
-26.23
-24.624
-22.841
-20.886
-18.765
-16.488
-14.065
-11.508
-8.834
-6.061
-3.209
-0.297
2.653
5.619
8.576
11.496
14.354
17.124
19.784
22.306
24.666
26.835
28.789
30.506
31.969
33.159
34.059
34.652
34.918
34.852
34.452
33.718
32.648
31.233
29.462
27.337
24.868
22.064
18.943
15.519
11.809
7.858
3.711
-0.574
-4.934
-9.329
-13.725
-18.089
-22.395
-26.582
-30.569
-34.292
-37.682
-40.699
-43.351
-45.618
-47.468
-48.975
-50.265
-51.588
-53.333
-55.711
-58.748
-62.446
-66.781
-71.735
-77.287
-83.023
-88.115
-91.974
-94.32
-95.166
-94.758
-93.102
-90.137
-86.325
-82.719
-80.432
-80.375
-82.857
-87.656
-94.677
-103.787
-114.501
-125.762
-135.927
-142.089
-140.726
-129.235
-105.118
-69.087
-25.197
25.356
82.1
148.299
233.371
339.942
465.879
605.011
740.81
860.92
956.436
1016.745
1038.74
1017.721
948.17
832.155
672.333
477.85
265.246
51.855
-141.909
-299.762
-413.077
-480.928
-509.303
-505.2
-477.764
-434.379
-383.677
-338.009
-302.932
-280.592
-267.458
-253.183
-234.178
-211.339
-188.01
-171.2
-163.122
-162.023
-166.05
-171.941
-177.258
-181.071
-182.281
-180.432
-175.932
-169.316
-161.089
-151.936
-142.662
-134.117
-127.328
-122.944
-121.015
-121.172
-122.872
-125.763
-129.45
-133.462
-137.525
-140.411
-141.116
-140.637
-139.327
-139.285
-142.966
-147.673
-151.657
-152.27
-145.866
-135.831
-125.026
-115.447
-110.362
-107.605
-104.998
-102.159
-97.792
-92.781
-88.224
-83.942
-80.085
-76.598
-73.272
-70.229
-67.554
-65.172
-63.042
-61.153
-59.468
-57.944
-56.531
-55.156
-53.755
-52.308
-50.801
-49.214
-47.534
-45.745
-43.836
-41.812
-39.673
-37.419
-35.043
-32.539
-29.903
-27.135
-24.238
-21.217
-18.074
-14.813
-11.436
-7.95
-4.361
-0.677
3.097
6.952
10.882
14.874
18.916
22.994
27.093
31.201
35.301
39.379
43.419
47.405
51.325
55.165
58.91
62.548
66.065
69.448
72.686
75.766
78.677
81.408
83.947
86.285
88.412
90.32
92.002
93.45
94.658
95.622
96.339
96.806
97.023
96.989
96.707
96.177
95.406
94.396
93.154
91.686
90
88.103
86.004
83.713
81.239
78.593
75.785
72.828
69.733
66.513
63.18
59.748
56.232
52.645
49.003
45.322
41.617
37.904
34.199
30.517
26.874
23.285
19.764
16.325
12.981
9.744
6.627
3.639
0.79
-1.911
-4.455
-6.837
-9.051
-11.091
-12.954
-14.637
-16.138
-17.457
-18.593
-19.547
-20.322
-20.921
-21.348
-21.609
-21.71
-21.66
-21.467
-21.142
-20.696
-20.139
-19.485
-18.746
-17.934
-17.061
-16.143
-15.191
-14.219
-13.24
-12.267
-11.313
-10.389
-9.507
-8.678
-7.912
-7.217
-6.603
-6.077
-5.646
-5.316
-5.093
-4.981
-4.982
-5.101
-5.337
-5.689
-6.156
-6.734
-7.417
-8.201
-9.075
-10.03
-11.057
-12.144
-13.282
-14.458
-15.663
-16.883
-18.106
-19.32
-20.512
-21.669
-22.773
-23.807
-24.754
-25.6
-26.331
-26.934
-27.398
-27.709
-27.858
-27.84
-27.648
-27.274
-26.706
-25.925
-24.923
-23.705
-22.279
-20.662
-18.872
-16.921
-14.833
-12.638
-10.358
-8.009
-5.593
-3.094
-0.513
2.136
4.829
7.521
10.184
12.813
15.401
17.951
20.465
22.938
25.388
27.854
30.339
32.822
35.245
37.509
39.541
41.299
42.752
43.894
44.708
45.15
45.186
44.78
43.886
42.472
40.478
37.809
34.435
30.373
25.693
20.542
15.039
9.269
3.315
-2.761
-8.895
-14.995
-20.979
-26.772
-32.275
-37.402
-42.052
-46.092
-49.461
-52.16
-54.256
-55.908
-57.253
-58.402
-59.475
-60.592
-61.883
-63.5
-65.556
-68.166
-71.516
-75.727
-80.867
-86.884
-93.414
-100.019
-106.268
-111.583
-115.354
-117.115
-116.475
-113.541
-109.234
-104.493
-100.148
-97.204
-96.359
-98.185
-103.424
-110.818
-116.735
-118.1
-111.655
-96.748
-76.542
-50.599
-15.824
33.756
107.458
208.099
331.486
468.958
607.868
737.908
852.703
946.232
1011.192
1039.968
1023.854
956.811
840.105
678.141
481.04
264.58
45.558
-155.076
-319.109
-436.923
-506.756
-536.947
-538.075
-516.677
-477.546
-423.657
-361.559
-303.895
-260.21
-234.603
-224.011
-217.848
-209.37
-197.234
-183.727
-174.693
-172.271
-175.105
-180.685
-185.387
-187.242
-185.682
-180.647
-172.848
-163.038
-151.8
-139.98
-128.387
-117.797
-109.125
-102.804
-98.826
-97.023
-97.017
-98.391
-100.815
-103.905
-107.191
-110.391
-113.343
-115.903
-118.041
-119.695
-120.743
-121.147
-120.913
-120.042
-118.57
-116.547
-114
-110.995
-107.615
-103.912
-99.949
-95.776
-91.43
-86.981
-82.498
-78.055
-73.743
-69.629
-65.751
-62.141
-58.801
-55.716
-52.873
-50.244
-47.791
-45.487
-43.306
-41.226
-39.235
-37.311
-35.426
-33.547
-31.628
-29.635
-27.543
-25.332
-22.988
-20.505
-17.877
-15.105
-12.201
-9.17
-6.017
-2.744
0.649
4.16
7.784
11.51
15.33
19.231
23.204
27.237
31.318
35.433
39.572
43.722
47.875
52.02
56.142
60.229
64.266
68.238
72.132
75.934
79.628
83.202
86.642
89.937
93.076
96.05
98.849
101.462
103.882
106.101
108.112
109.909
111.486
112.838
113.96
114.851
115.507
115.927
116.112
116.061
115.777
115.261
114.517
113.55
112.364
110.965
109.361
107.559
105.567
103.396
101.054
98.553
95.904
93.118
90.206
87.181
84.056
80.841
77.551
74.199
70.798
67.361
63.902
60.434
56.973
53.53
50.121
46.757
43.452
40.218
37.068
34.013
31.065
28.233
25.528
22.959
20.533
18.258
16.139
14.18
12.387
10.76
9.303
8.014
6.894
5.941
5.152
4.524
4.053
3.732
3.556
3.516
3.605
3.814
4.132
4.55
5.056
5.639
6.287
6.987
7.727
8.495
9.277
10.061
10.834
11.583
12.297
12.963
13.57
14.109
14.569
14.941
15.219
15.396
15.466
15.424
15.269
14.996
14.607
14.1
13.479
12.745
11.903
10.958
9.918
8.791
7.584
6.31
4.979
3.602
2.193
0.765
-0.668
-2.093
-3.494
-4.856
-6.164
-7.403
-8.558
-9.614
-10.556
-11.37
-12.042
-12.561
-12.915
-13.094
-13.088
-12.889
-12.491
-11.887
-11.075
-10.052
-8.817
-7.373
-5.722
-3.871
-1.827
0.399
2.796
5.35
8.043
10.857
13.774
16.771
19.825
22.914
26.01
29.091
32.13
35.102
37.981
40.74
43.353
45.793
48.035
50.053
51.822
53.32
54.525
55.419
55.991
56.225
56.114
55.645
54.805
53.587
51.99
50.012
47.66
44.944
41.882
38.505
34.861
30.994
26.949
22.771
18.494
14.162
9.822
5.521
1.321
-2.727
-6.577
-10.177
-13.491
-16.494
-19.179
-21.581
-23.781
-25.856
-27.89
-29.951
-32.09
-34.382
-36.919
-39.803
-43.142
-47
-51.44
-56.573
-62.459
-69.082
-76.274
-83.594
-90.505
-96.539
-101.198
-103.954
-104.408
-102.246
-97.569
-91.188
-84.033
-76.904
-70.725
-66.316
-64.334
-65.532
-68.729
-70.316
-67.086
-55.736
-36.322
-13.536
11.539
40.093
78.294
139.707
230.465
350.709
494.268
642.097
778.978
892.29
968.193
1003.427
993.98
935.798
833.601
690.036
511.538
312.149
106.014
-88.059
-251.1
-372.452
-450.838
-493.845
-512.427
-516.546
-508.574
-486.182
-451.068
-404.677
-353.207
-305.967
-264.668
-231.026
-205.492
-185.198
-171.426
-164.514
-162.713
-165.311
-169.709
-173.072
-173.953
-171.038
-164.04
-153.681
-140.81
-126.462
-111.75
-97.702
-85.324
-75.507
-68.685
-64.821
-63.615
-64.587
-67.232
-71.082
-75.641
-80.42
-85.081
-89.383
-93.167
-96.341
-98.787
-100.419
-101.206
-101.151
-100.28
-98.628
-96.241
-93.183
-89.546
-85.429
-80.923
-76.108
-71.054
-65.854
-60.607
-55.416
-50.396
-45.619
-41.135
-36.982
-33.171
-29.698
-26.549
-23.693
-21.086
-18.692
-16.479
-14.417
-12.487
-10.66
-8.901
-7.17
-5.421
-3.62
-1.743
0.231
2.315
4.515
6.836
9.274
11.816
14.457
17.191
20.014
22.927
25.927
29.006
32.157
35.37
38.635
41.943
45.285
48.65
52.026
55.405
58.775
62.131
65.461
68.755
72
75.184
78.294
81.318
84.243
87.057
89.747
92.303
94.715
96.973
99.07
100.996
102.745
104.309
105.683
106.861
107.838
108.611
109.176
109.529
109.67
109.598
109.311
108.812
108.102
107.183
106.059
104.736
103.217
101.51
99.621
97.557
95.327
92.94
90.405
87.731
84.93
82.011
78.986
75.866
72.662
69.386
66.048
62.661
59.236
55.783
52.314
48.841
45.374
41.924
38.503
35.121
31.789
28.517
25.315
22.192
19.156
16.215
13.378
10.649
8.035
5.542
3.173
0.932
-1.177
-3.153
-4.994
-6.701
-8.273
-9.713
-11.022
-12.204
-13.263
-14.204
-15.032
-15.751
-16.368
-16.888
-17.319
-17.665
-17.935
-18.136
-18.275
-18.361
-18.401
-18.404
-18.378
-18.333
-18.275
-18.213
-18.155
-18.109
-18.082
-18.081
-18.113
-18.185
-18.303
-18.474
-18.701
-18.988
-19.338
-19.752
-20.231
-20.773
-21.374
-22.031
-22.741
-23.499
-24.301
-25.143
-26.021
-26.929
-27.866
-28.828
-29.807
-30.797
-31.788
-32.769
-33.731
-34.662
-35.55
-36.38
-37.141
-37.82
-38.413
-38.909
-39.298
-39.565
-39.691
-39.663
-39.475
-39.127
-38.616
-37.946
-37.126
-36.174
-35.128
-34.02
-32.871
-31.69
-30.469
-29.21
-27.913
-26.583
-25.224
-23.825
-22.364
-20.833
-19.229
-17.55
-15.776
-13.864
-11.739
-9.347
-6.665
-3.703
-0.498
2.914
6.49
10.168
13.868
17.476
20.885
24.018
26.82
29.236
31.193
32.579
33.253
33.104
32.07
30.126
27.274
23.526
18.92
13.536
7.511
1.015
-5.801
-12.827
-19.98
-27.174
-34.305
-41.231
-47.786
-53.845
-59.307
-64.094
-68.148
-71.42
-73.911
-75.685
-76.879
-77.648
-78.121
-78.399
-78.569
-78.741
-79.038
-79.611
-80.595
-82.114
-84.332
-87.345
-91.163
-95.687
-100.591
-105.438
-109.772
-113.063
-114.758
-114.508
-112.119
-107.702
-101.984
-95.792
-90.007
-85.596
-83.141
-83.015
-85.487
-90.073
-95.374
-98.703
-95.886
-83.233
-58.1
-21.166
23.548
73.818
128.521
191.74
272.016
372.753
493.918
627.242
756.5
867.005
943.542
975.29
956.521
883.687
759.817
591.344
390.927
176.687
-32.6
-216.894
-362.912
-464.687
-523.3
-545.981
-538.66
-508.775
-462.409
-406.706
-353.616
-309.876
-279.169
-260.245
-244.641
-228.522
-211.525
-195.186
-184.827
-182.004
-184.83
-190.971
-196.618
-199.25
-198.109
-192.966
-184.404
-173.333
-160.615
-147.2
-134.087
-122.253
-112.592
-105.572
-101.219
-99.317
-99.451
-101.187
-104.119
-107.777
-111.682
-115.525
-119.103
-122.263
-124.923
-126.966
-128.29
-128.874
-128.73
-127.88
-126.356
-124.19
-121.426
-118.146
-114.439
-110.393
-106.081
-101.556
-96.891
-92.177
-87.513
-83.007
-78.735
-74.735
-71.038
-67.655
-64.588
-61.824
-59.335
-57.076
-55.01
-53.105
-51.335
-49.682
-48.119
-46.609
-45.115
-43.589
-41.996
-40.314
-38.52
-36.6
-34.543
-32.343
-30.002
-27.53
-24.932
-22.211
-19.368
-16.403
-13.317
-10.116
-6.807
-3.398
0.101
3.681
7.334
11.046
14.808
18.608
22.437
26.285
30.142
33.994
37.829
41.632
45.388
49.085
52.707
56.242
59.674
62.993
66.186
69.243
72.155
74.912
77.505
79.925
82.166
84.22
86.081
87.744
89.204
90.457
91.498
92.327
92.942
93.341
93.525
93.495
93.254
92.803
92.148
91.293
90.242
89.003
87.583
85.99
84.231
82.316
80.255
78.056
75.73
73.287
70.737
68.09
65.357
62.549
59.676
56.749
53.78
50.779
47.758
44.729
41.702
38.69
35.702
32.751
29.846
26.999
24.219
21.516
18.899
16.377
13.957
11.647
9.452
7.379
5.431
3.612
1.927
0.375
-1.041
-2.321
-3.465
-4.474
-5.349
-6.094
-6.71
-7.203
-7.575
-7.834
-7.984
-8.031
-7.983
-7.848
-7.633
-7.346
-6.997
-6.593
-6.146
-5.663
-5.156
-4.633
-4.105
-3.58
-3.069
-2.579
-2.12
-1.698
-1.321
-0.995
-0.726
-0.518
-0.376
-0.301
-0.297
-0.365
-0.505
-0.716
-0.997
-1.346
-1.758
-2.23
-2.755
-3.328
-3.941
-4.588
-5.259
-5.945
-6.638
-7.327
-8.001
-8.65
-9.262
-9.826
-10.33
-10.762
-11.112
-11.367
-11.517
-11.552
-11.463
-11.241
-10.879
-10.369
-9.708
-8.89
-7.914
-6.776
-5.478
-4.021
-2.409
-0.648
1.255
3.292
5.452
7.72
10.081
12.52
15.017
17.553
20.108
22.659
25.184
27.661
30.069
32.384
34.584
36.644
38.539
40.246
41.74
43
44.004
44.734
45.174
45.313
45.142
44.654
43.841
42.687
41.185
39.326
37.107
34.533
31.611
28.362
24.814
21.011
16.997
12.819
8.522
4.143
-0.276
-4.691
-9.052
-13.288
-17.336
-21.131
-24.612
-27.733
-30.467
-32.811
-34.799
-36.503
-37.999
-39.357
-40.656
-41.97
-43.398
-45.047
-47.044
-49.507
-52.572
-56.432
-61.192
-66.849
-73.25
-79.98
-86.548
-92.472
-97.205
-100.162
-100.963
-99.418
-95.759
-90.914
-85.859
-81.512
-78.739
-77.946
-79.423
-83.354
-88.787
-93.672
-94.959
-88.322
-71.147
-42.446
-2.007
48.055
108.834
183.352
272.547
378.228
495.6
614.706
728.522
828.486
910.269
973.422
1011.287
1016.016
978.296
888.095
744.98
557.943
343.212
123.365
-78.631
-246.919
-373.068
-454.569
-497.673
-507.745
-486.98
-442.621
-380.312
-310.024
-248.817
-204.898
-180.928
-173.383
-169.638
-163.148
-153.077
-141.257
-133.932
-133.428
-138.226
-145.908
-152.761
-156.682
-157.181
-154.349
-149.057
-142.152
-134.236
-126.092
-118.398
-111.812
-107.105
-104.583
-104.165
-105.58
-108.358
-112.003
-116.083
-120.176
-123.828
-126.766
-128.849
-129.982
-130.191
-129.512
-127.968
-125.624
-122.571
-118.879
-114.619
-109.896
-104.813
-99.507
-94.141
-88.823
-83.638
-78.657
-73.929
-69.508
-65.433
-61.711
-58.329
-55.276
-52.541
-50.111
-47.974
-46.091
-44.412
-42.886
-41.451
-40.064
-38.691
-37.299
-35.864
-34.364
-32.782
-31.111
-29.352
-27.498
-25.542
-23.476
-21.288
-18.977
-16.542
-13.983
-11.304
-8.505
-5.589
-2.561
0.576
3.819
7.163
10.604
14.14
17.763
21.464
25.234
29.059
32.927
36.824
40.735
44.644
48.537
52.398
56.212
59.964
63.641
67.228
70.711
74.077
77.312
80.405
83.343
86.116
88.712
91.123
93.34
95.355
97.16
98.75
100.119
101.264
102.179
102.864
103.316
103.535
103.522
103.277
102.804
102.107
101.189
100.057
98.717
97.176
95.442
93.524
91.431
89.172
86.757
84.198
81.504
78.688
75.761
72.734
69.619
66.429
63.176
59.872
56.53
53.161
49.778
46.393
43.019
39.667
36.35
33.079
29.865
26.719
23.652
20.672
17.79
15.014
12.352
9.811
7.398
5.118
2.976
0.976
-0.88
-2.589
-4.15
-5.564
-6.832
-7.954
-8.933
-9.774
-10.478
-11.052
-11.5
-11.827
-12.042
-12.149
-12.158
-12.076
-11.911
-11.672
-11.369
-11.011
-10.608
-10.169
-9.705
-9.226
-8.741
-8.261
-7.796
-7.356
-6.949
-6.585
-6.272
-6.017
-5.827
-5.708
-5.664
-5.7
-5.818
-6.02
-6.309
-6.682
-7.141
-7.683
-8.305
-9.003
-9.774
-10.611
-11.508
-12.458
-13.453
-14.483
-15.541
-16.615
-17.696
-18.772
-19.832
-20.865
-21.857
-22.797
-23.672
-24.468
-25.173
-25.773
-26.257
-26.612
-26.828
-26.894
-26.802
-26.543
-26.11
-25.498
-24.702
-23.721
-22.551
-21.192
-19.648
-17.921
-16.016
-13.943
-11.709
-9.328
-6.815
-4.185
-1.457
1.352
4.222
7.132
10.061
12.982
15.873
18.706
21.455
24.092
26.588
28.913
31.04
32.943
34.6
35.989
37.088
37.879
38.343
38.464
38.232
37.641
36.679
35.343
33.637
31.562
29.131
26.361
23.269
19.881
16.233
12.357
8.291
4.077
-0.242
-4.622
-9.022
-13.412
-17.768
-22.061
-26.254
-30.298
-34.138
-37.734
-41.097
-44.231
-47.134
-49.872
-52.553
-55.353
-58.594
-62.537
-67.235
-72.733
-79.02
-85.861
-93.05
-100.222
-106.604
-111.564
-114.805
-116.086
-115.466
-113.361
-109.937
-105.581
-101.247
-97.701
-95.567
-95.457
-97.354
-100.826
-105.903
-112.344
-119.318
-126.241
-131.346
-131.42
-124.037
-106.867
-78.993
-43.746
-3.99
39.705
89.12
153.094
240.692
354.731
493.151
643.319
787.164
910.591
1000.331
1048.962
1055.634
1016.953
932.141
802.953
629.954
423.12
199.298
-21.431
-214.577
-363.951
-463.158
-514.878
-528.605
-511.414
-471.384
-415.003
-350.855
-293.506
-250.698
-225.607
-215.177
-207.89
-198.299
-185.867
-172.599
-165.13
-165.741
-172.611
-183.268
-193.404
-200.238
-203.009
-201.456
-196.135
-187.803
-177.059
-164.709
-151.805
-139.417
-128.58
-119.903
-113.468
-109.127
-106.56
-105.395
-105.28
-105.801
-106.52
-107.204
-107.792
-108.276
-108.722
-109.14
-109.444
-109.588
-109.531
-109.185
-108.499
-107.439
-105.973
-104.131
-101.967
-99.522
-96.834
-93.928
-90.802
-87.473
-83.952
-80.254
-76.424
-72.512
-68.586
-64.735
-61.02
-57.477
-54.126
-50.963
-47.972
-45.141
-42.452
-39.877
-37.402
-35.012
-32.697
-30.454
-28.263
-26.099
-23.928
-21.705
-19.393
-16.971
-14.418
-11.726
-8.891
-5.909
-2.785
0.465
3.834
7.313
10.897
14.584
18.368
22.238
26.181
30.182
34.227
38.301
42.39
46.478
50.55
54.593
58.594
62.544
66.43
70.24
73.96
77.577
81.076
84.448
87.677
90.752
93.661
96.395
98.943
101.298
103.452
105.4
107.135
108.653
109.951
111.025
111.874
112.497
112.894
113.064
113.01
112.735
112.24
111.532
110.614
109.492
108.172
106.661
104.966
103.096
101.058
98.861
96.514
94.027
91.409
88.672
85.825
82.88
79.849
76.741
73.57
70.346
67.081
63.786
60.473
57.154
53.839
50.539
47.265
44.028
40.837
37.702
34.632
31.635
28.721
25.897
23.169
20.544
18.029
15.629
13.349
11.193
9.163
7.265
5.499
3.867
2.37
1.008
-0.221
-1.318
-2.286
-3.129
-3.852
-4.46
-4.959
-5.356
-5.656
-5.867
-5.998
-6.055
-6.047
-5.982
-5.868
-5.715
-5.53
-5.323
-5.103
-4.877
-4.654
-4.443
-4.252
-4.087
-3.958
-3.869
-3.83
-3.845
-3.921
-4.062
-4.274
-4.558
-4.918
-5.352
-5.86
-6.44
-7.086
-7.795
-8.562
-9.381
-10.246
-11.151
-12.091
-13.059
-14.049
-15.056
-16.068
-17.076
-18.067
-19.03
-19.953
-20.821
-21.62
-22.335
-22.952
-23.463
-23.858
-24.125
-24.25
-24.213
-24.001
-23.609
-23.034
-22.275
-21.339
-20.228
-18.963
-17.576
-16.095
-14.553
-12.966
-11.331
-9.654
-7.941
-6.2
-4.444
-2.669
-0.851
1.025
2.966
4.983
7.083
9.302
11.71
14.357
17.279
20.484
23.938
27.609
31.466
35.456
39.515
43.549
47.425
51.04
54.324
57.198
59.595
61.408
62.485
62.708
61.994
60.292
57.601
53.929
49.287
43.746
37.417
30.452
23.044
15.348
7.471
-0.468
-8.358
-16.049
-23.349
-30.102
-36.193
-41.53
-46.05
-49.71
-52.495
-54.468
-55.773
-56.58
-57.069
-57.39
-57.666
-58.037
-58.664
-59.727
-61.375
-63.753
-67.027
-71.282
-76.535
-82.628
-89.124
-95.497
-101.245
-105.794
-108.528
-109.027
-107.034
-102.767
-97.168
-91.198
-85.597
-81.234
-78.919
-79.183
-82.479
-87.294
-89.752
-86.56
-74.652
-54.068
-28.716
1.11
37.308
85.944
158.424
258.234
382.825
524.275
664.956
792.799
899.599
975.464
1017.15
1017.388
966.573
864.238
711.716
518.846
304.93
87.053
-114.77
-284.494
-415.197
-501.867
-548.484
-561.433
-543.905
-504.005
-447.415
-381.977
-321.554
-273.003
-239.88
-220.883
-206.728
-192.985
-179.042
-166.049
-159.091
-159.655
-165.407
-173.464
-179.79
-181.772
-179.156
-172.413
-162.448
-150.346
-137.138
-123.875
-111.74
-101.904
-94.912
-90.816
-89.464
-90.39
-93.071
-97.05
-101.751
-106.563
-111.118
-115.152
-118.441
-120.924
-122.547
-123.25
-123.078
-122.079
-120.279
-117.735
-114.511
-110.673
-106.328
-101.583
-96.525
-91.256
-85.87
-80.477
-75.216
-70.186
-65.45
-61.051
-57.002
-53.314
-49.999
-47.041
-44.399
-42.033
-39.9
-37.963
-36.202
-34.58
-33.059
-31.592
-30.127
-28.624
-27.057
-25.404
-23.648
-21.773
-19.766
-17.625
-15.356
-12.964
-10.449
-7.811
-5.044
-2.15
0.866
4
7.244
10.592
14.038
17.576
21.194
24.885
28.639
32.447
36.302
40.194
44.11
48.037
51.961
55.867
59.742
63.57
67.335
71.023
74.62
78.112
81.486
84.73
87.832
90.781
93.566
96.176
98.603
100.838
102.872
104.698
106.312
107.706
108.878
109.822
110.537
111.021
111.271
111.29
111.076
110.633
109.961
109.065
107.949
106.618
105.079
103.336
101.398
99.273
96.969
94.495
91.86
89.075
86.148
83.091
79.915
76.63
73.248
69.781
66.241
62.639
58.989
55.304
51.594
47.874
44.155
40.45
36.773
33.134
29.546
26.022
22.572
19.208
15.941
12.779
9.732
6.809
4.018
1.365
-1.144
-3.502
-5.706
-7.751
-9.635
-11.355
-12.912
-14.305
-15.535
-16.604
-17.515
-18.271
-18.879
-19.342
-19.667
-19.862
-19.935
-19.894
-19.748
-19.508
-19.184
-18.788
-18.331
-17.824
-17.28
-16.71
-16.127
-15.541
-14.965
-14.409
-13.884
-13.401
-12.968
-12.594
-12.287
-12.054
-11.902
-11.834
-11.856
-11.97
-12.176
-12.477
-12.872
-13.358
-13.934
-14.594
-15.334
-16.148
-17.028
-17.966
-18.952
-19.975
-21.025
-22.089
-23.154
-24.209
-25.239
-26.23
-27.169
-28.041
-28.833
-29.532
-30.124
-30.597
-30.939
-31.139
-31.187
-31.076
-30.797
-30.345
-29.717
-28.908
-27.919
-26.75
-25.402
-23.881
-22.191
-20.34
-18.339
-16.198
-13.931
-11.555
-9.09
-6.555
-3.971
-1.362
1.249
3.836
6.375
8.842
11.215
13.469
15.58
17.52
19.265
20.793
22.083
23.114
23.869
24.332
24.49
24.341
23.88
23.104
22.005
20.57
18.788
16.658
14.183
11.371
8.237
4.796
1.076
-2.878
-7.017
-11.294
-15.663
-20.092
-24.541
-28.956
-33.269
-37.402
-41.279
-44.842
-48.046
-50.851
-53.234
-55.19
-56.744
-57.954
-58.903
-59.683
-60.389
-61.127
-62.013
-63.166
-64.751
-66.98
-70
-73.844
-78.419
-83.457
-88.641
-93.7
-98.22
-101.662
-103.646
-103.973
-102.779
-100.733
-98.588
-96.904
-96.393
-97.69
-100.954
-106.26
-113.127
-120.007
-125.175
-126.113
-119.119
-101.244
-70.159
-26.096
27.31
87.385
152.067
223.592
308.367
408.835
525.198
650.714
771.47
874.922
946.842
976.012
955.841
881.413
754.713
581.681
374.595
152.182
-65.689
-256.542
-404.787
-505.3
-560.533
-582.018
-579.708
-557.127
-516.384
-458.335
-389.082
-322.456
-269.352
-235.29
-218.555
-209.085
-199.94
-189.132
-178.052
-171.962
-172.854
-179.253
-188.394
-196.292
-200.658
-200.816
-196.782
-189.388
-179.46
-167.655
-154.916
-142.148
-130.186
-119.951
-111.874
-105.933
-101.954
-99.566
-98.35
-98.018
-98.272
-98.745
-99.256
-99.712
-100.029
-100.246
-100.393
-100.428
-100.334
-100.078
-99.565
-98.763
-97.674
-96.291
-94.65
-92.767
-90.624
-88.234
-85.616
-82.791
-79.801
-76.668
-73.392
-70.005
-66.554
-63.103
-59.736
-56.5
-53.401
-50.446
-47.628
-44.941
-42.391
-39.962
-37.629
-35.373
-33.176
-31.03
-28.932
-26.867
-24.805
-22.715
-20.553
-18.29
-15.914
-13.41
-10.772
-7.996
-5.079
-2.028
1.141
4.419
7.799
11.276
14.848
18.506
22.239
26.034
29.875
33.749
37.641
41.536
45.42
49.278
53.099
56.87
60.582
64.225
67.787
71.257
74.623
77.874
80.999
83.988
86.829
89.514
92.034
94.382
96.551
98.536
100.331
101.931
103.333
104.533
105.528
106.315
106.893
107.26
107.416
107.362
107.1
106.632
105.961
105.091
104.028
102.777
101.344
99.736
97.959
96.021
93.931
91.695
89.323
86.824
84.208
81.483
78.66
75.749
72.761
69.705
66.594
63.436
60.244
57.029
53.801
50.573
47.355
44.158
40.995
37.876
34.811
31.811
28.885
26.043
23.291
20.639
18.092
15.657
13.339
11.142
9.071
7.127
5.313
3.63
2.08
0.661
-0.627
-1.786
-2.819
-3.729
-4.52
-5.198
-5.767
-6.233
-6.604
-6.887
-7.091
-7.222
-7.292
-7.308
-7.28
-7.219
-7.134
-7.035
-6.931
-6.831
-6.745
-6.68
-6.645
-6.646
-6.689
-6.78
-6.924
-7.123
-7.382
-7.703
-8.086
-8.531
-9.039
-9.606
-10.231
-10.909
-11.636
-12.405
-13.21
-14.044
-14.897
-15.761
-16.626
-17.482
-18.318
-19.123
-19.885
-20.592
-21.231
-21.792
-22.26
-22.626
-22.877
-23.004
-22.997
-22.847
-22.545
-22.087
-21.465
-20.677
-19.719
-18.589
-17.287
-15.816
-14.18
-12.382
-10.43
-8.334
-6.105
-3.757
-1.307
1.228
3.83
6.477
9.147
11.819
14.468
17.073
19.611
22.06
24.394
26.589
28.618
30.458
32.085
33.477
34.613
35.472
36.04
36.307
36.265
35.905
35.217
34.183
32.79
31.033
28.909
26.421
23.58
20.404
16.921
13.178
9.224
5.107
0.878
-3.427
-7.765
-12.083
-16.323
-20.41
-24.271
-27.852
-31.095
-33.957
-36.424
-38.496
-40.209
-41.651
-42.902
-44.054
-45.218
-46.484
-47.968
-49.812
-52.124
-55.048
-58.761
-63.341
-68.815
-75.117
-81.95
-88.945
-95.749
-101.852
-106.693
-109.895
-111.142
-110.403
-108.195
-105.186
-101.952
-99.117
-97.334
-97
-98.388
-101.541
-104.601
-104.187
-97.512
-81.71
-56.762
-26.212
9.523
52.152
106.78
182.733
283.182
404.819
539.442
673.527
796.175
900.475
980.214
1029.428
1041.465
1007.937
922.066
783.511
597.545
378.236
149.463
-63.587
-238.221
-360.617
-432.382
-463.729
-467
-452.904
-425.629
-387.551
-344.461
-302.608
-267.952
-242.673
-222.545
-203.474
-183.917
-165.267
-152.063
-146.798
-148.711
-155.497
-163.614
-170.363
-174.438
-174.912
-171.648
-165.086
-155.834
-144.813
-133.026
-121.425
-110.966
-102.518
-96.512
-92.933
-91.528
-91.865
-93.502
-96.032
-99.029
-102.071
-104.895
-107.373
-109.418
-110.965
-111.92
-112.204
-111.796
-110.722
-109.02
-106.713
-103.844
-100.473
-96.688
-92.59
-88.259
-83.741
-79.069
-74.288
-69.461
-64.681
-60.045
-55.615
-51.434
-47.533
-43.924
-40.616
-37.603
-34.854
-32.322
-29.972
-27.774
-25.708
-23.765
-21.924
-20.157
-18.427
-16.691
-14.916
-13.079
-11.153
-9.12
-6.964
-4.675
-2.251
0.299
2.973
5.77
8.69
11.737
14.909
18.202
21.61
25.126
28.742
32.45
36.238
40.097
44.014
47.98
51.983
56.014
60.063
64.118
68.164
72.187
76.173
80.107
83.974
87.759
91.447
95.024
98.475
101.788
104.95
107.948
110.772
113.41
115.852
118.089
120.113
121.917
123.495
124.841
125.952
126.825
127.457
127.847
127.995
127.904
127.573
127.006
126.207
125.181
123.932
122.467
120.793
118.918
116.85
114.599
112.173
109.586
106.846
103.967
100.961
97.839
94.616
91.304
87.918
84.47
80.976
77.448
73.901
70.349
66.804
63.28
59.789
56.344
52.957
49.639
46.402
43.254
40.207
37.27
34.451
31.758
29.198
26.778
24.502
22.375
20.401
18.582
16.92
15.415
14.068
12.876
11.838
10.949
10.205
9.601
9.131
8.787
8.562
8.446
8.432
8.51
8.67
8.903
9.198
9.546
9.935
10.356
10.798
11.25
11.703
12.146
12.57
12.967
13.326
13.641
13.905
14.11
14.252
14.324
14.325
14.25
14.098
13.868
13.562
13.18
12.726
12.203
11.618
10.976
10.285
9.553
8.789
8.001
7.201
6.397
5.601
4.824
4.077
3.371
2.719
2.131
1.619
1.193
0.865
0.644
0.539
0.559
0.71
0.999
1.432
2.012
2.741
3.621
4.652
5.83
7.153
8.613
10.204
11.915
13.735
15.649
17.64
19.691
21.783
23.894
26.003
28.086
30.117
32.074
33.932
35.671
37.264
38.69
39.922
40.939
41.719
42.243
42.489
42.44
42.079
41.39
40.372
39.021
37.334
35.306
32.927
30.188
27.092
23.642
19.844
15.715
11.272
6.541
1.575
-3.575
-8.852
-14.197
-19.577
-24.953
-30.276
-35.496
-40.526
-45.277
-49.694
-53.715
-57.294
-60.437
-63.097
-65.26
-67.075
-68.664
-70.175
-71.815
-73.582
-75.461
-77.648
-80.286
-83.364
-86.993
-91.053
-95.296
-99.902
-104.858
-109.812
-114.534
-118.736
-121.936
-124.1
-125.341
-125.353
-124.356
-122.911
-121.312
-119.991
-119.547
-120.083
-121.503
-123.988
-126.002
-124.263
-115.927
-98.018
-69.821
-35.382
2.287
42.786
88.911
151.343
239.938
357.6
501.481
656.566
803.213
926.137
1011.818
1054.352
1052.447
1002.419
902.563
752.954
558.57
334.09
100.872
-115.999
-296.048
-428.376
-510.37
-549.796
-554.857
-529.955
-483.018
-419.822
-349.942
-289.699
-246.849
-223.772
-216.879
-214.138
-209.724
-203.064
-195.922
-194.02
-198.92
-208.291
-219.148
-227.396
-230.67
-228.867
-222.49
-212.541
-200.132
-186.167
-171.705
-157.937
-145.977
-136.459
-129.505
-125.001
-122.579
-121.822
-122.349
-123.662
-125.269
-126.908
-128.472
-129.913
-131.269
-132.519
-133.556
-134.33
-134.788
-134.833
-134.408
-133.469
-131.982
-129.989
-127.559
-124.753
-121.633
-118.235
-114.578
-110.693
-106.613
-102.366
-98.01
-93.602
-89.213
-84.943
-80.86
-77.003
-73.398
-70.04
-66.911
-63.998
-61.279
-58.724
-56.316
-54.036
-51.871
-49.814
-47.843
-45.932
-44.044
-42.132
-40.156
-38.092
-35.916
-33.617
-31.186
-28.617
-25.912
-23.082
-20.132
-17.066
-13.886
-10.591
-7.183
-3.67
-0.06
3.636
7.406
11.239
15.123
19.045
22.992
26.953
30.916
34.87
38.806
42.709
46.566
50.361
54.081
57.712
61.237
64.642
67.913
71.035
73.996
76.784
79.389
81.798
84.003
85.996
87.768
89.314
90.628
91.704
92.538
93.128
93.472
93.569
93.42
93.024
92.386
91.508
90.395
89.053
87.488
85.707
83.718
81.531
79.154
76.6
73.879
71.003
67.986
64.842
61.585
58.228
54.789
51.28
47.717
44.115
40.49
36.855
33.226
29.616
26.039
22.51
19.042
15.646
12.336
9.123
6.018
3.031
0.173
-2.55
-5.127
-7.554
-9.822
-11.927
-13.865
-15.633
-17.228
-18.651
-19.901
-20.981
-21.893
-22.643
-23.236
-23.678
-23.975
-24.137
-24.171
-24.086
-23.893
-23.6
-23.217
-22.756
-22.227
-21.64
-21.007
-20.339
-19.647
-18.942
-18.235
-17.538
-16.86
-16.213
-15.607
-15.052
-14.557
-14.131
-13.781
-13.516
-13.34
-13.258
-13.273
-13.386
-13.595
-13.897
-14.291
-14.772
-15.334
-15.972
-16.679
-17.45
-18.28
-19.162
-20.087
-21.047
-22.032
-23.031
-24.031
-25.02
-25.984
-26.908
-27.775
-28.572
-29.285
-29.9
-30.402
-30.774
-30.994
-31.046
-30.92
-30.611
-30.116
-29.437
-28.582
-27.568
-26.421
-25.165
-23.825
-22.42
-20.963
-19.465
-17.934
-16.379
-14.816
-13.248
-11.663
-10.043
-8.36
-6.584
-4.686
-2.623
-0.334
2.234
5.12
8.347
11.917
15.812
20.001
24.443
29.091
33.871
38.687
43.423
47.946
52.137
55.883
59.059
61.52
63.129
63.77
63.36
61.851
59.225
55.491
50.687
44.877
38.166
30.692
22.614
14.108
5.351
-3.495
-12.264
-20.766
-28.819
-36.273
-42.957
-48.736
-53.609
-57.588
-60.729
-63.173
-64.943
-66.042
-66.688
-67.099
-67.28
-67.32
-67.211
-66.869
-66.738
-67.35
-68.826
-71.278
-74.829
-79.212
-84.337
-90.174
-95.828
-100.345
-103.234
-103.966
-102.462
-99.499
-95.667
-91.491
-88.12
-86.449
-86.991
-90.303
-96.144
-102.01
-104.324
-99.886
-85.017
-59.395
-26.007
15.509
65.785
128.024
210.846
315.73
439.861
577.675
714.307
838.841
942.73
1014.585
1049.084
1038.431
974.433
857.362
689.571
482.56
256.694
33.08
-164.695
-320.198
-427.292
-487.956
-511.979
-507.943
-482.64
-441.11
-388.036
-333.286
-286.789
-254.891
-238.672
-231.273
-224.256
-213.547
-199.007
-184.826
-175.879
-172.989
-174.947
-179.433
-183.483
-185.91
-186.282
-183.997
-179.268
-172.545
-164.106
-154.555
-144.533
-134.523
-125.25
-117.515
-111.663
-107.686
-105.42
-104.513
-104.637
-105.592
-107.086
-108.746
-110.34
-111.734
-112.847
-113.692
-114.257
-114.463
-114.243
-113.576
-112.448
-110.883
-108.933
-106.624
-103.993
-101.078
-97.903
-94.505
-90.927
-87.198
-83.35
-79.423
-75.455
-71.509
-67.673
-64.006
-60.54
-57.291
-54.243
-51.385
-48.707
-46.193
-43.816
-41.552
-39.378
-37.278
-35.244
-33.26
-31.3
-29.331
-27.306
-25.192
-22.965
-20.607
-18.11
-15.467
-12.671
-9.723
-6.637
-3.418
-0.073
3.394
6.984
10.693
14.51
18.426
22.425
26.495
30.624
34.796
38.996
43.211
47.426
51.627
55.805
59.946
64.035
68.059
72.001
75.846
79.581
83.19
86.659
89.973
93.119
96.086
98.863
101.438
103.804
105.951
107.871
109.559
111.008
112.214
113.173
113.881
114.339
114.544
114.498
114.203
113.661
112.877
111.855
110.603
109.126
107.432
105.531
103.43
101.141
98.674
96.04
93.25
90.318
87.257
84.079
80.799
77.43
73.988
70.484
66.935
63.354
59.754
56.15
52.556
48.984
45.448
41.961
38.536
35.183
31.915
28.741
25.671
22.714
19.879
17.172
14.6
12.17
9.885
7.75
5.768
3.941
2.271
0.757
-0.603
-1.808
-2.864
-3.773
-4.542
-5.174
-5.677
-6.058
-6.323
-6.48
-6.538
-6.506
-6.392
-6.206
-5.959
-5.66
-5.32
-4.949
-4.557
-4.154
-3.751
-3.355
-2.978
-2.626
-2.31
-2.038
-1.816
-1.653
-1.554
-1.526
-1.573
-1.697
-1.901
-2.185
-2.548
-2.988
-3.501
-4.082
-4.728
-5.432
-6.189
-6.993
-7.839
-8.72
-9.629
-10.559
-11.499
-12.438
-13.362
-14.258
-15.111
-15.905
-16.628
-17.267
-17.808
-18.242
-18.561
-18.754
-18.811
-18.717
-18.455
-18.011
-17.377
-16.553
-15.541
-14.354
-13.013
-11.54
-9.962
-8.3
-6.568
-4.769
-2.895
-0.936
1.117
3.262
5.478
7.75
10.062
12.405
14.774
17.18
19.643
22.195
24.88
27.719
30.716
33.84
37.028
40.203
43.27
46.157
48.815
51.2
53.271
54.995
56.336
57.242
57.653
57.482
56.621
54.995
52.556
49.303
45.291
40.606
35.379
29.729
23.749
17.522
11.107
4.572
-1.992
-8.495
-14.841
-20.902
-26.553
-31.657
-36.036
-39.659
-42.642
-45.132
-47.377
-49.507
-51.415
-53.133
-54.855
-56.545
-58.072
-59.29
-59.858
-59.92
-60.221
-61.178
-62.918
-65.662
-69.397
-74.116
-80.096
-86.851
-93.115
-98.019
-100.988
-101.692
-100.544
-98.044
-94.341
-90.103
-86.59
-84.839
-85.628
-89.077
-93.125
-94.241
-89.549
-77.041
-57.194
-31.962
-0.423
42.045
102.94
188.083
296.954
421.565
549.372
670.594
779.445
873.005
947.376
992.342
994.62
943.113
835.004
677.64
486.334
279.607
72.817
-119.569
-285.968
-418.622
-510.898
-563.429
-581.761
-571.374
-538.358
-487.047
-421.005
-348.525
-281.775
-229.647
-197.164
-182.089
-174.65
-168.784
-162.086
-155.098
-152.698
-156.312
-163.883
-172.846
-179.415
-181.356
-178.784
-172.344
-162.97
-151.732
-139.532
-127.238
-115.872
-106.397
-99.221
-94.32
-91.488
-90.272
-90.217
-91.011
-92.265
-93.569
-94.712
-95.565
-96.062
-96.275
-96.247
-95.962
-95.426
-94.622
-93.492
-92.037
-90.277
-88.224
-85.931
-83.421
-80.699
-77.793
-74.73
-71.544
-68.269
-64.917
-61.484
-57.994
-54.489
-51.026
-47.684
-44.494
-41.466
-38.604
-35.897
-33.343
-30.942
-28.676
-26.517
-24.447
-22.448
-20.513
-18.641
-16.814
-15.004
-13.176
-11.287
-9.308
-7.221
-5.01
-2.664
-0.175
2.46
5.236
8.141
11.167
14.309
17.563
20.928
24.397
27.959
31.603
35.316
39.083
42.892
46.73
50.581
54.433
58.273
62.09
65.873
69.612
73.293
76.903
80.428
83.855
87.168
90.356
93.403
96.297
99.027
101.582
103.951
106.128
108.103
109.872
111.427
112.764
113.879
114.768
115.429
115.86
116.061
116.031
115.771
115.283
114.57
113.634
112.48
111.114
109.539
107.763
105.792
103.635
101.299
98.795
96.132
93.32
90.372
87.299
84.115
80.832
77.463
74.022
70.52
66.971
63.388
59.784
56.171
52.561
48.967
45.4
41.872
38.396
34.982
31.64
28.38
25.213
22.146
19.189
16.35
13.635
11.052
8.605
6.3
4.141
2.131
0.271
-1.439
-2.998
-4.409
-5.674
-6.799
-7.787
-8.643
-9.374
-9.986
-10.486
-10.88
-11.176
-11.383
-11.509
-11.562
-11.551
-11.485
-11.376
-11.23
-11.058
-10.869
-10.671
-10.475
-10.288
-10.12
-9.978
-9.871
-9.807
-9.792
-9.834
-9.936
-10.103
-10.336
-10.637
-11.004
-11.436
-11.927
-12.475
-13.074
-13.721
-14.409
-15.133
-15.889
-16.671
-17.474
-18.293
-19.118
-19.938
-20.744
-21.523
-22.264
-22.954
-23.578
-24.122
-24.573
-24.924
-25.165
-25.286
-25.273
-25.105
-24.771
-24.267
-23.59
-22.743
-21.732
-20.564
-19.262
-17.862
-16.395
-14.896
-13.381
-11.849
-10.303
-8.75
-7.197
-5.656
-4.122
-2.57
-0.987
0.634
2.306
4.038
5.872
7.883
10.128
12.647
15.452
18.511
21.792
25.268
28.882
32.567
36.229
39.737
42.998
45.95
48.521
50.643
52.209
53.058
53.069
52.158
50.266
47.388
43.53
38.701
32.983
26.508
19.434
11.953
4.197
-3.757
-11.796
-19.784
-27.543
-34.845
-41.527
-47.492
-52.625
-56.81
-59.998
-62.241
-63.781
-64.947
-65.961
-66.896
-67.752
-68.626
-69.62
-70.684
-71.584
-72.064
-72.072
-71.925
-72.09
-72.631
-73.476
-74.683
-76.377
-78.736
-81.746
-84.894
-87.625
-90.124
-92.768
-95.906
-99.814
-104.342
-109.41
-115.216
-121.523
-127.243
-129.842
-125.378
-110.526
-82.789
-43.041
4.314
56.77
113.457
179.442
264.669
373.893
506.678
651.761
790.064
905.676
983.965
1018.656
1008.632
950.644
846.453
697.579
509.264
297.096
79.352
-121.607
-284.824
-400.795
-470.519
-503.792
-514.264
-510.214
-491.915
-457.867
-408.994
-352.09
-299.432
-259.683
-234.439
-219.144
-206.746
-193.747
-181.106
-172.56
-170.652
-174.973
-183.08
-191.209
-196.702
-198.342
-195.791
-189.591
-180.41
-168.912
-155.965
-142.569
-129.771
-118.581
-109.572
-102.864
-98.324
-95.618
-94.365
-94.175
-94.64
-95.356
-96.086
-96.748
-97.308
-97.77
-98.137
-98.394
-98.529
-98.541
-98.384
-97.963
-97.233
-96.18
-94.821
-93.209
-91.367
-89.288
-86.978
-84.451
-81.725
-78.835
-75.8
-72.617
-69.316
-65.938
-62.546
-59.223
-56.016
-52.933
-49.979
-47.145
-44.425
-41.822
-39.325
-36.907
-34.551
-32.241
-29.969
-27.733
-25.518
-23.296
-21.033
-18.686
-16.226
-13.638
-10.909
-8.033
-5.007
-1.831
1.488
4.93
8.485
12.143
15.896
19.738
23.66
27.646
31.681
35.748
39.83
43.911
47.975
52.006
55.99
59.912
63.761
67.527
71.2
74.766
78.215
81.533
84.707
87.727
90.581
93.258
95.746
98.038
100.125
102.002
103.662
105.103
106.319
107.309
108.071
108.604
108.908
108.984
108.834
108.459
107.864
107.052
106.027
104.795
103.361
101.732
99.914
97.914
95.739
93.397
90.897
88.248
85.459
82.541
79.504
76.359
73.118
69.792
66.395
62.938
59.432
55.891
52.326
48.75
45.173
41.609
38.069
34.564
31.105
27.704
24.37
21.114
17.945
14.874
11.908
9.058
6.33
3.734
1.276
-1.038
-3.202
-5.212
-7.064
-8.755
-10.286
-11.656
-12.865
-13.916
-14.811
-15.553
-16.147
-16.597
-16.91
-17.092
-17.15
-17.093
-16.928
-16.666
-16.316
-15.888
-15.392
-14.838
-14.236
-13.598
-12.934
-12.255
-11.573
-10.898
-10.242
-9.615
-9.028
-8.489
-8.007
-7.588
-7.238
-6.961
-6.758
-6.63
-6.577
-6.601
-6.699
-6.871
-7.113
-7.423
-7.8
-8.239
-8.737
-9.283
-9.87
-10.485
-11.117
-11.756
-12.386
-12.992
-13.559
-14.077
-14.534
-14.922
-15.225
-15.429
-15.51
-15.453
-15.253
-14.904
-14.404
-13.754
-12.958
-12.037
-11.022
-9.945
-8.827
-7.673
-6.476
-5.237
-3.959
-2.648
-1.311
0.063
1.49
2.977
4.524
6.13
7.811
9.61
11.595
13.82
16.303
19.03
21.96
25.058
28.28
31.566
34.837
37.98
40.892
43.502
45.756
47.601
48.962
49.722
49.738
48.906
47.165
44.493
40.901
36.401
31.041
24.913
18.158
10.949
3.44
-4.259
-12.056
-19.852
-27.521
-34.897
-41.804
-48.112
-53.716
-58.543
-62.552
-65.711
-68.049
-69.67
-70.706
-71.333
-71.712
-71.967
-72.24
-72.69
-73.469
-74.777
-76.83
-79.738
-83.544
-88.19
-93.426
-98.935
-104.34
-109.109
-112.669
-114.606
-114.652
-112.853
-109.686
-105.804
-101.969
-99
-97.527
-97.957
-100.54
-104.977
-110.152
-113.333
-110.354
-97.708
-73.298
-38.627
2.383
48.999
103.957
174.129
267.399
383.914
516.167
651.757
776.61
882.012
963.595
1016.515
1034.626
1008.832
930.481
797.874
617.487
404.797
181.859
-28.539
-207.278
-343.065
-433.957
-485.542
-505.609
-500.076
-472.801
-426.203
-365.943
-302.764
-247.215
-206.922
-183.347
-170.52
-162.383
-155.816
-150.71
-150.667
-157.592
-169.804
-184.099
-196.109
-202.787
-203.544
-198.828
-189.602
-177.044
-162.37
-146.951
-132.321
-119.825
-110.104
-103.273
-99.183
-97.452
-97.642
-99.298
-101.839
-104.679
-107.498
-110.169
-112.654
-114.971
-117.061
-118.772
-119.991
-120.671
-120.776
-120.287
-119.198
-117.488
-115.183
-112.363
-109.115
-105.531
-101.675
-97.576
-93.262
-88.781
-84.205
-79.632
-75.171
-70.889
-66.83
-63.027
-59.493
-56.236
-53.252
-50.508
-47.96
-45.571
-43.315
-41.179
-39.154
-37.221
-35.349
-33.501
-31.632
-29.709
-27.71
-25.612
-23.397
-21.054
-18.575
-15.963
-13.231
-10.383
-7.423
-4.353
-1.171
2.119
5.512
8.999
12.573
16.222
19.939
23.711
27.527
31.375
35.244
39.123
43.002
46.871
50.715
54.523
58.278
61.968
65.578
69.094
72.501
75.787
78.939
81.944
84.792
87.473
89.976
92.292
94.413
96.331
98.039
99.531
100.803
101.849
102.666
103.251
103.602
103.717
103.597
103.242
102.654
101.836
100.791
99.523
98.039
96.345
94.448
92.356
90.078
87.623
85.002
82.225
79.303
76.249
73.075
69.792
66.414
62.954
59.424
55.839
52.211
48.553
44.88
41.204
37.539
33.898
30.294
26.74
23.248
19.832
16.502
13.269
10.145
7.14
4.262
1.52
-1.079
-3.529
-5.823
-7.957
-9.929
-11.737
-13.378
-14.853
-16.163
-17.311
-18.298
-19.13
-19.812
-20.349
-20.749
-21.018
-21.165
-21.199
-21.13
-20.966
-20.718
-20.398
-20.015
-19.581
-19.108
-18.607
-18.089
-17.567
-17.052
-16.554
-16.084
-15.653
-15.27
-14.942
-14.679
-14.486
-14.369
-14.333
-14.381
-14.515
-14.736
-15.044
-15.437
-15.911
-16.464
-17.089
-17.779
-18.528
-19.326
-20.165
-21.033
-21.92
-22.816
-23.707
-24.582
-25.428
-26.232
-26.98
-27.659
-28.255
-28.754
-29.144
-29.411
-29.543
-29.528
-29.357
-29.019
-28.505
-27.81
-26.926
-25.85
-24.58
-23.115
-21.456
-19.606
-17.573
-15.362
-12.983
-10.449
-7.773
-4.972
-2.065
0.931
3.992
7.096
10.219
13.335
16.418
19.444
22.387
25.221
27.919
30.456
32.804
34.937
36.83
38.458
39.797
40.828
41.532
41.899
41.917
41.579
40.877
39.798
38.336
36.484
34.24
31.607
28.594
25.217
21.508
17.506
13.258
8.811
4.212
-0.497
-5.269
-10.057
-14.807
-19.45
-23.919
-28.148
-32.07
-35.628
-38.787
-41.532
-43.89
-45.928
-47.716
-49.324
-50.833
-52.32
-53.892
-55.67
-57.772
-60.303
-63.384
-67.198
-71.892
-77.513
-83.933
-90.777
-97.58
-103.88
-109.158
-112.797
-114.284
-113.314
-110.058
-105.362
-100.164
-95.443
-92.291
-91.555
-94.051
-99.596
-105.99
-110.311
-109.479
-102.139
-90.038
-73.76
-51.156
-16.232
41.222
127.811
243.321
380.63
526.303
668.01
796.789
907.054
994.908
1053.66
1076.357
1054.807
982.741
860.919
692.349
487.711
264.939
43.256
-153.84
-309.061
-416.589
-478.28
-504.97
-506.771
-487.511
-449.985
-396.751
-335.103
-278.601
-236.936
-213.569
-204.826
-200.38
-193.967
-184.403
-173.832
-167.419
-166.741
-170.012
-174.554
-176.906
-175.317
-169.994
-161.666
-151.381
-140.155
-128.734
-117.926
-108.636
-101.678
-97.434
-95.862
-96.702
-99.486
-103.732
-109.011
-114.794
-120.537
-125.861
-130.486
-134.223
-137.015
-138.818
-139.601
-139.397
-138.258
-136.232
-133.396
-129.834
-125.636
-120.914
-115.778
-110.342
-104.726
-99.047
-93.44
-88.021
-82.867
-78.032
-73.541
-69.406
-65.637
-62.23
-59.157
-56.382
-53.864
-51.567
-49.463
-47.519
-45.696
-43.949
-42.224
-40.482
-38.696
-36.844
-34.909
-32.88
-30.742
-28.491
-26.13
-23.661
-21.086
-18.401
-15.602
-12.685
-9.654
-6.512
-3.265
0.084
3.532
7.073
10.702
14.411
18.193
22.042
25.952
29.916
33.922
37.96
42.016
46.078
50.133
54.168
58.167
62.117
66.003
69.812
73.532
77.15
80.65
84.022
87.252
90.328
93.239
95.973
98.52
100.869
103.012
104.94
106.646
108.123
109.365
110.368
111.128
111.642
111.909
111.927
111.698
111.222
110.503
109.543
108.348
106.921
105.27
103.401
101.322
99.041
96.568
93.912
91.085
88.098
84.962
81.692
78.3
74.799
71.204
67.529
63.79
60
56.176
52.331
48.482
44.642
40.828
37.052
33.33
29.674
26.099
22.615
19.236
15.972
12.833
9.83
6.97
4.263
1.714
-0.668
-2.881
-4.918
-6.779
-8.46
-9.963
-11.288
-12.438
-13.416
-14.227
-14.875
-15.366
-15.708
-15.907
-15.972
-15.912
-15.735
-15.451
-15.072
-14.606
-14.067
-13.464
-12.809
-12.113
-11.387
-10.644
-9.893
-9.147
-8.416
-7.71
-7.041
-6.419
-5.853
-5.352
-4.922
-4.571
-4.302
-4.118
-4.021
-4.008
-4.081
-4.236
-4.472
-4.786
-5.174
-5.633
-6.161
-6.754
-7.406
-8.111
-8.858
-9.639
-10.442
-11.255
-12.065
-12.859
-13.621
-14.338
-14.998
-15.59
-16.1
-16.511
-16.801
-16.952
-16.955
-16.805
-16.498
-16.038
-15.429
-14.685
-13.835
-12.904
-11.917
-10.892
-9.828
-8.726
-7.587
-6.417
-5.223
-4.003
-2.732
-1.382
0.069
1.648
3.379
5.301
7.488
9.996
12.865
16.118
19.736
23.685
27.934
32.438
37.132
41.935
46.724
51.361
55.741
59.757
63.307
66.283
68.53
69.913
70.33
69.703
68.004
65.234
61.394
56.515
50.674
43.98
36.598
28.721
20.5
12.075
3.581
-4.845
-13.024
-20.781
-27.972
-34.472
-40.196
-45.083
-49.076
-52.153
-54.355
-55.779
-56.587
-56.965
-57.064
-57.02
-56.973
-57.082
-57.53
-58.482
-60.084
-62.501
-65.852
-70.21
-75.529
-81.523
-87.806
-93.963
-99.476
-103.774
-106.327
-106.697
-104.862
-101.449
-97.207
-92.809
-89.119
-87.03
-87.511
-91.706
-98.492
-104.044
-105.042
-98.247
-84.73
-70.802
-57.62
-42.355
-15.402
41.455
136.727
269.496
430.444
596.841
750.959
881.38
977.397
1036.352
1054.56
1025.221
947.418
822.258
653.617
453.906
238.135
23.566
-168.643
-323.832
-434.977
-502.313
-534.398
-539.083
-521.63
-485.71
-435.24
-378.662
-325.399
-282.995
-253.767
-233.074
-216.205
-200.708
-186.806
-178.306
-177.009
-181.663
-189.87
-197.701
-202.225
-202.241
-197.397
-188.271
-175.831
-161.115
-145.248
-129.421
-114.834
-102.57
-93.219
-86.894
-83.412
-82.317
-83.129
-85.385
-88.554
-92.15
-95.862
-99.499
-102.95
-106.157
-109.034
-111.478
-113.415
-114.765
-115.464
-115.476
-114.784
-113.417
-111.434
-108.905
-105.907
-102.503
-98.745
-94.692
-90.404
-85.939
-81.37
-76.763
-72.194
-67.761
-63.532
-59.549
-55.832
-52.369
-49.144
-46.142
-43.338
-40.699
-38.2
-35.816
-33.53
-31.331
-29.196
-27.098
-25.003
-22.868
-20.658
-18.351
-15.933
-13.394
-10.733
-7.945
-5.036
-2.019
1.098
4.308
7.608
10.996
14.47
18.021
21.638
25.311
29.027
32.776
36.547
40.327
44.105
47.868
51.609
55.318
58.986
62.602
66.153
69.628
73.014
76.3
79.473
82.522
85.434
88.198
90.806
93.249
95.518
97.605
99.504
101.208
102.711
104.01
105.098
105.973
106.631
107.07
107.288
107.285
107.061
106.619
105.959
105.085
104.001
102.711
101.221
99.536
97.663
95.609
93.382
90.991
88.443
85.75
82.921
79.968
76.901
73.732
70.473
67.135
63.73
60.27
56.767
53.235
49.685
46.13
42.584
39.058
35.566
32.12
28.731
25.411
22.17
19.02
15.97
13.029
10.206
7.508
4.942
2.515
0.231
-1.904
-3.888
-5.719
-7.395
-8.916
-10.282
-11.496
-12.559
-13.475
-14.248
-14.883
-15.385
-15.761
-16.019
-16.166
-16.211
-16.165
-16.036
-15.835
-15.573
-15.261
-14.909
-14.529
-14.132
-13.728
-13.328
-12.942
-12.582
-12.255
-11.97
-11.737
-11.561
-11.448
-11.404
-11.433
-11.537
-11.718
-11.978
-12.316
-12.73
-13.219
-13.779
-14.406
-15.094
-15.836
-16.625
-17.452
-18.307
-19.179
-20.058
-20.932
-21.789
-22.617
-23.402
-24.133
-24.795
-25.377
-25.865
-26.246
-26.508
-26.64
-26.631
-26.472
-26.154
-25.669
-25.013
-24.181
-23.171
-21.981
-20.611
-19.064
-17.342
-15.452
-13.401
-11.197
-8.853
-6.381
-3.798
-1.122
1.629
4.432
7.267
10.108
12.933
15.718
18.438
21.069
23.589
25.973
28.196
30.232
32.057
33.649
34.983
36.041
36.805
37.259
37.397
37.21
36.696
35.846
34.651
33.104
31.201
28.941
26.33
23.379
20.108
16.548
12.744
8.745
4.599
0.353
-3.955
-8.281
-12.578
-16.793
-20.862
-24.723
-28.319
-31.596
-34.503
-37.018
-39.142
-40.914
-42.419
-43.741
-44.956
-46.15
-47.411
-48.845
-50.586
-52.759
-55.453
-58.78
-62.89
-67.863
-73.721
-80.302
-87.163
-93.825
-99.846
-104.719
-107.905
-109.022
-107.804
-104.446
-99.882
-95.055
-90.673
-87.608
-86.659
-88.27
-92.932
-99.32
-103.442
-101.78
-91.227
-71.166
-45.719
-17.002
16.171
58.441
121.007
211.865
331.749
476.156
629.936
776.175
901.098
989.517
1033.107
1026.02
962.705
846.205
681.571
479.394
258.275
37.384
-161.392
-319.701
-429.512
-492.694
-519.385
-522.307
-510.79
-486.353
-449.735
-404.049
-353.404
-307.559
-272.029
-245.493
-227.098
-212.797
-200.596
-193.147
-190.556
-192.125
-196.545
-200.233
-200.83
-197.4
-189.568
-178.07
-164.034
-148.525
-132.654
-117.519
-104.116
-93.292
-85.473
-80.664
-78.618
-78.877
-80.949
-84.354
-88.554
-93.042
-97.488
-101.659
-105.371
-108.51
-110.936
-112.538
-113.301
-113.232
-112.351
-110.692
-108.288
-105.199
-101.525
-97.379
-92.873
-88.099
-83.126
-78.035
-72.932
-67.923
-63.122
-58.603
-54.404
-50.55
-47.055
-43.917
-41.124
-38.643
-36.425
-34.426
-32.61
-30.944
-29.407
-27.968
-26.589
-25.229
-23.839
-22.386
-20.845
-19.196
-17.421
-15.51
-13.454
-11.255
-8.92
-6.456
-3.862
-1.139
1.714
4.696
7.8
11.021
14.35
17.779
21.299
24.9
28.572
32.303
36.083
39.902
43.75
47.617
51.49
55.355
59.199
63.006
66.762
70.454
74.064
77.58
80.986
84.271
87.42
90.423
93.267
95.942
98.436
100.74
102.844
104.74
106.42
107.878
109.108
110.105
110.865
111.386
111.665
111.703
111.5
111.057
110.376
109.462
108.319
106.952
105.367
103.571
101.573
99.381
97.004
94.455
91.742
88.879
85.876
82.748
79.506
76.164
72.737
69.237
65.679
62.078
58.447
54.802
51.157
47.527
43.925
40.364
36.86
33.423
30.068
26.805
23.645
20.599
17.676
14.885
12.233
9.727
7.372
5.174
3.135
1.258
-0.456
-2.007
-3.395
-4.622
-5.692
-6.607
-7.374
-7.998
-8.485
-8.842
-9.079
-9.202
-9.222
-9.149
-8.992
-8.762
-8.469
-8.125
-7.74
-7.325
-6.892
-6.45
-6.01
-5.583
-5.177
-4.801
-4.464
-4.173
-3.934
-3.752
-3.634
-3.581
-3.597
-3.683
-3.841
-4.068
-4.365
-4.727
-5.152
-5.635
-6.17
-6.751
-7.37
-8.019
-8.69
-9.372
-10.057
-10.734
-11.393
-12.022
-12.61
-13.146
-13.619
-14.017
-14.329
-14.543
-14.65
-14.639
-14.503
-14.231
-13.818
-13.257
-12.543
-11.672
-10.642
-9.453
-8.103
-6.596
-4.934
-3.123
-1.171
0.915
3.124
5.444
7.86
10.356
12.913
15.513
18.135
20.757
23.357
25.912
28.401
30.801
33.09
35.246
37.245
39.065
40.681
42.071
43.215
44.092
44.685
44.979
44.965
44.635
43.987
43.012
41.698
40.036
38.021
35.649
32.923
29.852
26.45
22.75
18.794
14.631
10.313
5.885
1.388
-3.133
-7.631
-12.05
-16.32
-20.377
-24.161
-27.615
-30.688
-33.348
-35.598
-37.478
-39.085
-40.506
-41.819
-43.113
-44.48
-46.038
-47.922
-50.258
-53.138
-56.698
-61.152
-66.633
-73.153
-80.553
-88.398
-96.183
-103.455
-109.62
-113.922
-115.828
-115.129
-112.035
-107.417
-102.366
-97.823
-94.906
-95.037
-98.208
-102.829
-107.221
-108.549
-106.589
-104.625
-101.744
-94.006
-72.523
-22.596
61.657
176.904
313.265
452.695
584.083
704.669
812.089
907.355
985.5
1033.718
1043.158
1005.85
918.482
786.711
616.08
416.761
204.164
-5.216
-191.966
-341.42
-445.73
-505.235
-525.978
-512.986
-474.654
-418.308
-353.484
-295.568
-252.581
-227.858
-218.373
-212.328
-203.79
-191.715
-178.083
-169.897
-169.78
-176.137
-186.453
-196.169
-202.415
-204.473
-202.113
-195.944
-186.757
-175.202
-162.2
-148.861
-136.247
-125.319
-116.583
-110.101
-105.752
-103.222
-102.133
-102.098
-102.654
-103.379
-104.067
-104.65
-105.136
-105.569
-105.92
-106.148
-106.266
-106.275
-106.154
-105.851
-105.264
-104.34
-103.09
-101.545
-99.759
-97.758
-95.53
-93.075
-90.408
-87.544
-84.52
-81.356
-78.051
-74.634
-71.144
-67.641
-64.206
-60.885
-57.686
-54.613
-51.659
-48.82
-46.102
-43.495
-40.976
-38.529
-36.137
-33.791
-31.489
-29.214
-26.938
-24.626
-22.236
-19.739
-17.118
-14.362
-11.461
-8.412
-5.214
-1.873
1.595
5.177
8.867
12.657
16.542
20.51
24.549
28.641
32.77
36.919
41.073
45.215
49.327
53.396
57.407
61.345
65.201
68.963
72.615
76.144
79.537
82.778
85.856
88.756
91.467
93.976
96.275
98.353
100.205
101.823
103.204
104.343
105.238
105.887
106.29
106.448
106.362
106.034
105.47
104.672
103.647
102.4
100.939
99.27
97.402
95.344
93.104
90.693
88.119
85.395
82.532
79.541
76.436
73.228
69.932
66.56
63.125
59.642
56.123
52.582
49.029
45.478
41.941
38.428
34.951
31.52
28.144
24.833
21.596
18.441
15.375
12.406
9.541
6.785
4.145
1.627
-0.765
-3.027
-5.153
-7.143
-8.993
-10.703
-12.273
-13.703
-14.996
-16.155
-17.183
-18.084
-18.863
-19.524
-20.073
-20.517
-20.86
-21.11
-21.273
-21.356
-21.368
-21.316
-21.206
-21.048
-20.847
-20.613
-20.352
-20.072
-19.782
-19.489
-19.202
-18.929
-18.678
-18.457
-18.273
-18.133
-18.041
-18.003
-18.021
-18.096
-18.228
-18.417
-18.66
-18.957
-19.305
-19.703
-20.146
-20.633
-21.162
-21.731
-22.333
-22.963
-23.61
-24.265
-24.919
-25.562
-26.18
-26.762
-27.293
-27.763
-28.165
-28.491
-28.729
-28.862
-28.87
-28.738
-28.461
-28.034
-27.454
-26.723
-25.847
-24.845
-23.751
-22.595
-21.396
-20.161
-18.881
-17.552
-16.174
-14.749
-13.282
-11.763
-10.174
-8.507
-6.762
-4.938
-3.019
-0.963
1.299
3.825
6.641
9.734
13.068
16.602
20.284
24.054
27.834
31.516
34.997
38.199
41.067
43.548
45.578
47.048
47.819
47.767
46.809
44.912
42.072
38.302
33.649
28.187
22.029
15.329
8.218
0.809
-6.784
-14.455
-22.084
-29.531
-36.648
-43.269
-49.203
-54.342
-58.699
-62.397
-65.629
-68.496
-70.965
-73.029
-74.799
-76.343
-77.573
-78.161
-77.7
-76.145
-73.956
-71.867
-70.452
-70.101
-71.212
-74.305
-79.829
-87.744
-97.285
-107.084
-115.88
-122.779
-127.077
-128.387
-126.826
-122.848
-117.348
-111.872
-107.77
-105.942
-107.222
-110.406
-112.058
-109.26
-98.702
-79.854
-56.31
-27.888
7.71
56.585
130.527
233.459
362.843
510.879
660.191
797.651
914.148
999.91
1051.073
1062.864
1028.32
946.529
819.495
652.058
457.433
250.043
43.755
-144.231
-303.297
-426.493
-507.581
-548.24
-549.567
-515.013
-455.852
-383.356
-312.914
-258.98
-225.275
-210.266
-205.942
-201.474
-193.341
-181.837
-170.278
-164.119
-164.347
-169.14
-175.748
-180.379
-181.034
-177.682
-170.844
-161.537
-150.772
-139.261
-127.843
-117.526
-109.257
-103.536
-100.403
-99.655
-100.861
-103.575
-107.383
-111.773
-116.22
-120.381
-124.034
-127.005
-129.217
-130.606
-131.119
-130.78
-129.643
-127.743
-125.121
-121.837
-117.96
-113.596
-108.853
-103.821
-98.584
-93.226
-87.843
-82.557
-77.472
-72.656
-68.149
-63.969
-60.129
-56.642
-53.5
-50.673
-48.12
-45.797
-43.671
-41.719
-39.913
-38.217
-36.591
-34.984
-33.357
-31.686
-29.946
-28.123
-26.201
-24.164
-22.007
-19.735
-17.352
-14.858
-12.251
-9.527
-6.684
-3.726
-0.657
2.518
5.793
9.164
12.627
16.172
19.791
23.476
27.22
31.015
34.853
38.722
42.61
46.504
50.388
54.251
58.077
61.852
65.56
69.188
72.722
76.15
79.46
82.638
85.673
88.554
91.27
93.81
96.167
98.329
100.29
102.043
103.58
104.898
105.99
106.853
107.485
107.882
108.044
107.972
107.664
107.124
106.354
105.358
104.14
102.707
101.063
99.217
97.175
94.948
92.543
89.971
87.242
84.366
81.355
78.22
74.974
71.63
68.2
64.697
61.136
57.529
53.89
50.234
46.573
42.921
39.292
35.699
32.155
28.674
25.267
21.947
18.726
15.614
12.622
9.759
7.034
4.454
2.027
-0.241
-2.344
-4.279
-6.043
-7.632
-9.046
-10.286
-11.352
-12.248
-12.977
-13.545
-13.958
-14.22
-14.341
-14.327
-14.186
-13.929
-13.563
-13.1
-12.549
-11.921
-11.228
-10.481
-9.693
-8.876
-8.041
-7.2
-6.364
-5.546
-4.757
-4.006
-3.305
-2.664
-2.091
-1.596
-1.186
-0.866
-0.642
-0.516
-0.491
-0.565
-0.737
-1.002
-1.357
-1.797
-2.317
-2.911
-3.573
-4.296
-5.076
-5.906
-6.777
-7.68
-8.602
-9.53
-10.45
-11.349
-12.21
-13.016
-13.751
-14.402
-14.958
-15.409
-15.741
-15.937
-15.977
-15.846
-15.539
-15.051
-14.381
-13.531
-12.508
-11.334
-10.044
-8.673
-7.245
-5.769
-4.244
-2.672
-1.059
0.587
2.257
3.962
5.716
7.524
9.383
11.294
13.27
15.351
17.609
20.094
22.828
25.798
28.966
32.297
35.746
39.252
42.736
46.082
49.188
51.98
54.406
56.413
57.923
58.819
58.959
58.236
56.589
53.996
50.467
46.018
40.7
34.612
27.898
20.735
13.276
5.628
-2.123
-9.881
-17.523
-24.884
-31.787
-38.103
-43.737
-48.613
-52.697
-55.967
-58.469
-60.323
-61.684
-62.726
-63.596
-64.403
-65.266
-66.318
-67.691
-69.546
-72.073
-75.389
-79.548
-84.5
-89.962
-95.577
-100.959
-105.587
-108.885
-110.372
-109.693
-106.882
-102.591
-97.588
-92.553
-88.318
-85.654
-85.231
-87.773
-92.377
-96.11
-96.165
-89.675
-76.569
-60.008
-39.912
-13.802
25.464
88.944
179.84
295.204
425.18
554.181
673.609
777.814
863.654
929.682
967.292
968.644
927.185
838.588
707.5
539.806
345.192
138.517
-64.681
-245.76
-389.375
-486.976
-538.751
-551.491
-532.41
-491.549
-436.211
-374.432
-318.939
-275.745
-247.513
-232.089
-219.582
-205.333
-188.963
-172.187
-160.944
-157.402
-159.991
-166.474
-172.888
-176.582
-176.708
-172.969
-165.931
-156.391
-145.012
-132.634
-120.249
-108.87
-99.482
-92.614
-88.295
-86.307
-86.265
-87.75
-90.38
-93.731
-97.317
-100.823
-104.08
-106.951
-109.394
-111.343
-112.673
-113.332
-113.322
-112.64
-111.313
-109.39
-106.896
-103.897
-100.479
-96.7
-92.624
-88.309
-83.799
-79.169
-74.497
-69.863
-65.361
-61.061
-57.005
-53.228
-49.733
-46.507
-43.537
-40.795
-38.243
-35.854
-33.6
-31.458
-29.414
-27.445
-25.52
-23.605
-21.656
-19.639
-17.529
-15.306
-12.958
-10.479
-7.864
-5.116
-2.245
0.742
3.839
7.043
10.355
13.771
17.284
20.887
24.57
28.32
32.13
35.988
39.882
43.8
47.732
51.666
55.593
59.504
63.384
67.221
71.001
74.711
78.336
81.863
85.278
88.567
91.718
94.72
97.562
100.234
102.726
105.031
107.139
109.044
110.74
112.221
113.482
114.518
115.327
115.905
116.251
116.364
116.245
115.894
115.313
114.506
113.476
112.228
110.767
109.099
107.232
105.173
102.931
100.513
97.931
95.195
92.315
89.302
86.169
82.928
79.589
76.166
72.671
69.117
65.516
61.881
58.225
54.56
50.9
47.256
43.642
40.07
36.551
33.096
29.717
26.425
23.229
20.138
17.161
14.305
11.578
8.986
6.534
4.226
2.065
0.054
-1.805
-3.512
-5.069
-6.475
-7.735
-8.85
-9.825
-10.665
-11.376
-11.963
-12.434
-12.795
-13.056
-13.225
-13.311
-13.322
-13.27
-13.164
-13.013
-12.829
-12.622
-12.402
-12.179
-11.962
-11.763
-11.588
-11.448
-11.349
-11.299
-11.304
-11.37
-11.499
-11.697
-11.964
-12.303
-12.714
-13.195
-13.744
-14.36
-15.037
-15.771
-16.555
-17.385
-18.25
-19.144
-20.057
-20.979
-21.901
-22.812
-23.701
-24.556
-25.366
-26.118
-26.8
-27.4
-27.906
-28.306
-28.588
-28.743
-28.759
-28.628
-28.341
-27.892
-27.276
-26.487
-25.523
-24.383
-23.066
-21.576
-19.914
-18.088
-16.104
-13.97
-11.698
-9.301
-6.793
-4.193
-1.517
1.215
3.982
6.762
9.532
12.269
14.952
17.558
20.064
22.446
24.678
26.736
28.596
30.236
31.634
32.77
33.626
34.187
34.446
34.394
34.026
33.333
32.3
30.92
29.187
27.104
24.674
21.911
18.834
15.47
11.865
8.063
4.108
0.046
-4.09
-8.26
-12.417
-16.506
-20.46
-24.212
-27.71
-30.901
-33.742
-36.223
-38.342
-40.132
-41.67
-43.024
-44.272
-45.515
-46.838
-48.343
-50.159
-52.394
-55.181
-58.694
-63.021
-68.171
-74.072
-80.458
-86.979
-93.273
-98.84
-103.131
-105.773
-106.544
-105.475
-103.032
-99.862
-96.675
-94.242
-93.198
-93.971
-96.707
-101.071
-106.229
-109.633
-107.269
-96.009
-72.995
-39.039
0.79
45.289
95.22
155.113
235.359
338.318
460.102
593.091
722.162
836.426
927.015
983.142
996.146
956.495
859.85
709.869
518.211
304.872
90.829
-103.367
-262.419
-380.759
-459.503
-505.411
-525.763
-524.922
-505.03
-468.947
-423.781
-377.635
-337.53
-305.88
-278.257
-250.529
-221.34
-192.489
-169.313
-155.003
-149.127
-149.616
-153.347
-157.874
-162.062
-164.978
-165.705
-163.944
-159.942
-154.213
-147.41
-140.225
-133.216
-127.048
-122.577
-120.154
-119.653
-120.755
-122.907
-125.625
-128.594
-131.43
-133.673
-135.024
-135.333
-134.564
-132.831
-130.236
-126.834
-122.713
-117.976
-112.744
-107.158
-101.367
-95.512
-89.711
-84.055
-78.618
-73.464
-68.654
-64.23
-60.207
-56.571
-53.304
-50.388
-47.813
-45.566
-43.609
-41.89
-40.352
-38.928
-37.572
-36.247
-34.916
-33.548
-32.118
-30.605
-28.999
-27.301
-25.508
-23.609
-21.596
-19.457
-17.189
-14.791
-12.264
-9.609
-6.828
-3.921
-0.893
2.252
5.51
8.878
12.351
15.927
19.599
23.359
27.196
31.099
35.054
39.049
43.068
47.098
51.121
55.125
59.094
63.014
66.87
70.649
74.337
77.921
81.387
84.723
87.917
90.957
93.834
96.537
99.056
101.385
103.514
105.437
107.149
108.644
109.919
110.97
111.794
112.392
112.761
112.903
112.82
112.513
111.986
111.244
110.29
109.132
107.774
106.223
104.487
102.572
100.488
98.241
95.842
93.3
90.623
87.823
84.91
81.894
78.785
75.596
72.338
69.021
65.658
62.261
58.842
55.412
51.985
48.571
45.183
41.833
38.53
35.286
32.11
29.014
26.005
23.092
20.285
17.59
15.015
12.566
10.248
8.065
6.022
4.121
2.363
0.748
-0.722
-2.049
-3.235
-4.282
-5.192
-5.97
-6.62
-7.147
-7.558
-7.86
-8.06
-8.169
-8.194
-8.145
-8.032
-7.866
-7.655
-7.41
-7.142
-6.861
-6.577
-6.3
-6.041
-5.811
-5.617
-5.469
-5.374
-5.339
-5.37
-5.469
-5.64
-5.885
-6.203
-6.595
-7.058
-7.593
-8.197
-8.869
-9.605
-10.403
-11.258
-12.165
-13.114
-14.097
-15.1
-16.112
-17.117
-18.102
-19.053
-19.956
-20.799
-21.57
-22.26
-22.856
-23.345
-23.71
-23.932
-23.995
-23.889
-23.608
-23.154
-22.535
-21.767
-20.87
-19.866
-18.771
-17.595
-16.336
-14.982
-13.521
-11.939
-10.235
-8.425
-6.521
-4.535
-2.472
-0.336
1.886
4.215
6.684
9.335
12.188
15.243
18.469
21.806
25.176
28.486
31.658
34.636
37.367
39.805
41.906
43.629
44.917
45.705
45.908
45.42
44.161
42.084
39.183
35.495
31.095
26.093
20.6
14.725
8.569
2.218
-4.247
-10.756
-17.231
-23.582
-29.696
-35.428
-40.65
-45.262
-49.194
-52.414
-54.941
-56.85
-58.246
-59.277
-60.082
-60.765
-61.438
-62.206
-63.184
-64.513
-66.339
-68.784
-71.989
-76.124
-81.269
-87.423
-94.39
-101.684
-108.769
-115.135
-120.208
-123.398
-124.295
-122.642
-118.646
-113.222
-107.31
-101.643
-97.076
-94.382
-93.993
-96.288
-100.011
-101.469
-97.094
-83.615
-60.011
-29.659
5.105
44.581
92.477
159.026
252.444
374.116
519.333
672.41
815.328
934.721
1019.025
1063.496
1065.306
1018.589
920.153
769.506
573.405
348.626
117.145
-96.391
-273.426
-404.665
-487.455
-528.908
-536.139
-513.001
-467.769
-406.227
-337.435
-276.861
-231.571
-204.285
-192.719
-186.245
-179.844
-172.842
-166.226
-164.964
-170.182
-179.461
-189.922
-197.505
-199.857
-196.887
-189.129
-177.696
-163.884
-148.786
-133.602
-119.634
-107.973
-99.162
-93.267
-90.092
-89.201
-90.129
-92.421
-95.513
-98.895
-102.281
-105.521
-108.553
-111.346
-113.797
-115.771
-117.178
-117.965
-118.102
-117.576
-116.376
-114.517
-112.06
-109.097
-105.729
-102.036
-98.07
-93.873
-89.482
-84.959
-80.387
-75.852
-71.443
-67.229
-63.254
-59.547
-56.122
-52.974
-50.082
-47.412
-44.922
-42.577
-40.356
-38.24
-36.216
-34.265
-32.356
-30.454
-28.52
-26.519
-24.427
-22.222
-19.889
-17.42
-14.809
-12.061
-9.185
-6.19
-3.081
0.14
3.47
6.905
10.438
14.059
17.759
21.525
25.347
29.213
33.11
37.026
40.948
44.867
48.771
52.651
56.493
60.285
64.012
67.662
71.22
74.674
78.01
81.213
84.273
87.176
89.914
92.475
94.849
97.03
99.007
100.776
102.33
103.665
104.778
105.664
106.323
106.752
106.952
106.922
106.665
106.181
105.474
104.548
103.406
102.055
100.499
98.746
96.802
94.675
92.373
89.906
87.284
84.516
81.615
78.592
75.459
72.228
68.913
65.525
62.078
58.585
55.059
51.512
47.956
44.404
40.868
37.361
33.894
30.478
27.124
23.842
20.644
17.538
14.534
11.64
8.866
6.217
3.702
1.326
-0.905
-2.988
-4.918
-6.694
-8.314
-9.78
-11.092
-12.253
-13.267
-14.138
-14.87
-15.47
-15.944
-16.3
-16.544
-16.685
-16.732
-16.693
-16.579
-16.399
-16.163
-15.881
-15.563
-15.219
-14.858
-14.493
-14.13
-13.782
-13.457
-13.164
-12.913
-12.713
-12.57
-12.492
-12.482
-12.546
-12.686
-12.902
-13.193
-13.556
-13.989
-14.489
-15.051
-15.671
-16.342
-17.06
-17.821
-18.617
-19.44
-20.279
-21.121
-21.955
-22.766
-23.54
-24.262
-24.916
-25.487
-25.964
-26.34
-26.603
-26.739
-26.735
-26.568
-26.227
-25.706
-25
-24.106
-23.03
-21.782
-20.385
-18.878
-17.289
-15.632
-13.916
-12.136
-10.29
-8.384
-6.421
-4.403
-2.331
-0.199
1.988
4.214
6.483
8.811
11.238
13.836
16.639
19.646
22.844
26.188
29.627
33.108
36.551
39.854
42.927
45.69
48.085
50.081
51.621
52.624
52.984
52.565
51.279
49.087
45.965
41.923
37.006
31.28
24.875
17.964
10.698
3.201
-4.428
-12.116
-19.764
-27.247
-34.416
-41.119
-47.233
-52.667
-57.344
-61.212
-64.274
-66.589
-68.305
-69.604
-70.639
-71.536
-72.402
-73.356
-74.544
-76.12
-78.21
-80.935
-84.447
-88.844
-94.162
-100.288
-106.831
-113.29
-119.149
-123.834
-126.752
-127.452
-125.612
-121.301
-115.313
-108.571
-101.872
-96.163
-92.206
-90.504
-91.61
-94.378
-95.423
-91.605
-79.814
-59.432
-33.505
-2.534
35.516
86.158
158.666
256.752
377.222
511.27
644.986
766.618
869.341
948.322
999.086
1017.47
996.499
929.693
816.406
658.163
463.781
249.88
35.01
-159.276
-315.816
-425.792
-489.077
-511.928
-501.334
-466.911
-416.054
-357.788
-305.725
-266.387
-242.908
-232.789
-225.306
-215.461
-202.476
-187.971
-178.327
-175.793
-178.693
-184.776
-190.034
-191.97
-190.081
-184.324
-175.41
-164.257
-151.671
-138.569
-125.928
-114.669
-105.607
-99.147
-95.291
-93.831
-94.371
-96.492
-99.776
-103.741
-107.931
-112.051
-115.92
-119.407
-122.401
-124.756
-126.353
-127.154
-127.164
-126.404
-124.889
-122.633
-119.686
-116.136
-112.087
-107.648
-102.896
-97.884
-92.684
-87.383
-82.096
-76.946
-72.018
-67.357
-63.002
-58.971
-55.278
-51.927
-48.892
-46.128
-43.6
-41.271
-39.118
-37.127
-35.271
-33.515
-31.818
-30.131
-28.416
-26.653
-24.816
-22.888
-20.855
-18.705
-16.44
-14.068
-11.594
-9.016
-6.335
-3.546
-0.65
2.349
5.447
8.638
11.916
15.276
18.71
22.209
25.767
29.375
33.026
36.714
40.429
44.161
47.9
51.631
55.342
59.021
62.652
66.223
69.718
73.126
76.432
79.626
82.695
85.628
88.413
91.039
93.497
95.777
97.87
99.768
101.462
102.948
104.218
105.267
106.09
106.685
107.049
107.18
107.077
106.741
106.173
105.375
104.351
103.104
101.641
99.966
98.087
96.012
93.75
91.311
88.704
85.94
83.032
79.99
76.827
73.556
70.19
66.742
63.225
59.654
56.043
52.406
48.756
45.109
41.478
37.877
34.319
30.817
27.384
24.031
20.772
17.615
14.573
11.654
8.867
6.22
3.72
1.372
-0.819
-2.849
-4.717
-6.421
-7.962
-9.34
-10.558
-11.618
-12.526
-13.284
-13.899
-14.377
-14.724
-14.949
-15.061
-15.068
-14.98
-14.808
-14.562
-14.253
-13.891
-13.487
-13.052
-12.597
-12.132
-11.669
-11.217
-10.788
-10.391
-10.036
-9.731
-9.483
-9.299
-9.184
-9.141
-9.172
-9.278
-9.458
-9.71
-10.034
-10.426
-10.882
-11.4
-11.976
-12.605
-13.282
-14
-14.75
-15.522
-16.303
-17.079
-17.836
-18.56
-19.237
-19.854
-20.399
-20.861
-21.23
-21.495
-21.643
-21.66
-21.525
-21.223
-20.744
-20.085
-19.246
-18.238
-17.076
-15.781
-14.376
-12.879
-11.3
-9.638
-7.883
-6.023
-4.045
-1.949
0.25
2.536
4.9
7.333
9.834
12.413
15.093
17.906
20.892
24.072
27.448
30.989
34.633
38.304
41.909
45.37
48.63
51.638
54.347
56.712
58.69
60.225
61.252
61.686
61.422
60.381
58.514
55.813
52.316
48.096
43.262
37.919
32.169
26.107
19.817
13.378
6.858
0.337
-6.104
-12.353
-18.268
-23.724
-28.614
-32.865
-36.449
-39.38
-41.722
-43.565
-45.031
-46.233
-47.267
-48.236
-49.234
-50.374
-51.775
-53.58
-55.935
-59.005
-63.003
-68.025
-74.056
-80.923
-88.19
-95.362
-101.957
-107.401
-111.092
-112.667
-111.92
-109.066
-105.012
-100.65
-96.839
-94.495
-94.079
-95.818
-99.894
-105.571
-110.914
-113.01
-107.763
-91.358
-61.945
-20.639
29.93
87.639
152.48
229.713
324.249
437.297
566.405
699.815
824.148
927.483
996.518
1024.145
1004.706
934.097
815.95
655.362
462.375
252.18
40.044
-154.641
-314.806
-430.976
-500.628
-531.416
-533.916
-514.975
-479.685
-431.068
-374.613
-320.96
-278.414
-250.347
-233.741
-219.994
-203.94
-184.809
-165.438
-151.374
-144.269
-143.174
-146.316
-150.192
-152.958
-154.059
-152.644
-148.932
-143.576
-136.729
-128.85
-120.703
-112.788
-105.839
-100.73
-97.678
-96.549
-97.137
-98.999
-101.769
-105.21
-108.918
-112.412
-115.359
-117.523
-118.814
-119.291
-118.976
-117.876
-116.034
-113.506
-110.389
-106.792
-102.808
-98.514
-93.962
-89.197
-84.288
-79.321
-74.401
-69.643
-65.113
-60.843
-56.865
-53.193
-49.84
-46.812
-44.077
-41.588
-39.307
-37.197
-35.237
-33.414
-31.697
-30.049
-28.43
-26.793
-25.105
-23.345
-21.493
-19.528
-17.438
-15.21
-12.845
-10.353
-7.737
-4.997
-2.132
0.86
3.977
7.215
10.568
14.029
17.591
21.247
24.988
28.802
32.679
36.61
40.583
44.589
48.618
52.656
56.689
60.703
64.683
68.615
72.484
76.274
79.971
83.562
87.032
90.371
93.565
96.603
99.476
102.172
104.682
106.998
109.11
111.012
112.697
114.159
115.393
116.394
117.159
117.685
117.973
118.021
117.831
117.403
116.742
115.85
114.733
113.396
111.844
110.086
108.127
105.977
103.644
101.139
98.472
95.652
92.691
89.6
86.392
83.077
79.668
76.177
72.617
69.001
65.342
61.653
57.948
54.239
50.541
46.866
43.228
39.637
36.107
32.649
29.273
25.99
22.81
19.742
16.794
13.974
11.289
8.746
6.349
4.104
2.013
0.077
-1.7
-3.321
-4.786
-6.097
-7.257
-8.271
-9.141
-9.875
-10.476
-10.954
-11.314
-11.564
-11.714
-11.771
-11.747
-11.649
-11.49
-11.278
-11.023
-10.737
-10.43
-10.111
-9.791
-9.481
-9.191
-8.93
-8.708
-8.534
-8.417
-8.363
-8.378
-8.467
-8.634
-8.88
-9.204
-9.606
-10.082
-10.631
-11.249
-11.933
-12.678
-13.48
-14.335
-15.238
-16.184
-17.165
-18.169
-19.185
-20.204
-21.212
-22.195
-23.14
-24.028
-24.848
-25.592
-26.25
-26.809
-27.254
-27.559
-27.713
-27.714
-27.549
-27.212
-26.703
-26.017
-25.182
-24.243
-23.221
-22.133
-21.022
-19.905
-18.799
-17.738
-16.704
-15.669
-14.652
-13.669
-12.589
-11.269
-9.772
-8.079
-6.122
-4.116
-1.221
3.36
8.549
13.975
17.608
17.023
14.811
12.671
13.135
19.677
29.005
38.342
45.751
48.096
47.451
45.875
43.743
42.324
40.783
38.119
34.542
29.946
24.476
18.449
11.87
4.822
-2.515
-10.024
-17.582
-25.07
-32.335
-39.191
-45.492
-51.106
-55.926
-59.92
-63.067
-65.38
-66.982
-67.975
-68.428
-68.565
-68.662
-68.971
-69.827
-71.366
-73.529
-76.471
-80.409
-85.27
-90.77
-96.317
-101.044
-104.563
-106.887
-107.721
-106.723
-103.832
-99.364
-94.437
-90.672
-88.995
-89.601
-92.872
-99.132
-108.404
-120.297
-132.118
-139.279
-138.276
-126.272
-103.365
-73.064
-35.555
10.533
69.618
151.188
257.747
386.468
530.109
671.755
797.822
898.903
965.134
993.825
984.015
931.61
836.314
698.708
518.059
303.937
74.62
-147.783
-334.075
-465.001
-539.558
-566.428
-564.691
-550.185
-525.32
-489.391
-441.249
-384.215
-329.427
-285.632
-255.279
-235.157
-218.893
-202.856
-187.556
-176.174
-170.863
-171.16
-174.796
-178.241
-179.11
-176.506
-170.39
-161.594
-150.997
-139.32
-127.41
-116.196
-106.586
-99.421
-95.075
-93.423
-94.11
-96.64
-100.512
-105.265
-110.391
-115.342
-119.689
-123.17
-125.656
-127.139
-127.635
-127.145
-125.695
-123.35
-120.193
-116.326
-111.866
-106.911
-101.558
-95.923
-90.123
-84.286
-78.561
-73.067
-67.885
-63.067
-58.64
-54.616
-51.008
-47.811
-44.994
-42.513
-40.321
-38.376
-36.645
-35.093
-33.672
-32.331
-31.01
-29.666
-28.268
-26.794
-25.226
-23.55
-21.751
-19.826
-17.777
-15.61
-13.325
-10.921
-8.393
-5.741
-2.967
-0.077
2.923
6.028
9.235
12.539
15.933
19.409
22.96
26.58
30.262
33.997
37.775
41.583
45.408
49.236
53.053
56.845
60.598
64.296
67.926
71.475
74.93
78.279
81.509
84.608
87.565
90.368
93.009
95.477
97.762
99.857
101.754
103.446
104.928
106.194
107.24
108.062
108.658
109.026
109.165
109.076
108.76
108.218
107.454
106.472
105.277
103.874
102.269
100.47
98.484
96.319
93.985
91.491
88.846
86.062
83.15
80.121
76.987
73.76
70.454
67.08
63.652
60.182
56.685
53.172
49.657
46.153
42.672
39.228
35.833
32.498
29.234
26.054
22.967
19.982
17.108
14.355
11.728
9.235
6.881
4.672
2.611
0.701
-1.056
-2.659
-4.109
-5.409
-6.56
-7.568
-8.436
-9.172
-9.78
-10.269
-10.646
-10.918
-11.093
-11.181
-11.191
-11.133
-11.018
-10.854
-10.654
-10.426
-10.183
-9.933
-9.685
-9.45
-9.236
-9.052
-8.905
-8.805
-8.757
-8.767
-8.842
-8.986
-9.202
-9.49
-9.851
-10.282
-10.78
-11.341
-11.957
-12.622
-13.328
-14.068
-14.834
-15.619
-16.415
-17.213
-18.006
-18.784
-19.534
-20.246
-20.904
-21.493
-21.998
-22.408
-22.709
-22.891
-22.943
-22.855
-22.622
-22.237
-21.69
-20.972
-20.067
-18.961
-17.657
-16.159
-14.48
-12.644
-10.671
-8.584
-6.418
-4.2
-1.948
0.327
2.634
4.981
7.362
9.761
12.147
14.491
16.783
19.017
21.188
23.312
25.396
27.455
29.53
31.64
33.769
35.882
37.905
39.748
41.35
42.667
43.668
44.327
44.601
44.455
43.86
42.775
41.162
38.976
36.15
32.656
28.518
23.788
18.573
13
7.174
1.189
-4.86
-10.887
-16.798
-22.516
-27.974
-33.103
-37.841
-42.124
-45.893
-49.147
-51.934
-54.318
-56.402
-58.304
-60.142
-62.049
-64.17
-66.647
-69.583
-73.077
-77.26
-82.178
-87.815
-94.055
-100.527
-106.75
-112.28
-116.591
-119.114
-119.478
-117.366
-112.774
-106.422
-99.182
-91.899
-85.481
-80.638
-77.87
-77.69
-80.07
-82.638
-81.512
-73.208
-54.126
-24.712
10.495
50.787
96.714
152.837
230.749
334.072
460.833
604.97
749.128
879.851
985.992
1053.77
1077.034
1049.021
965.56
832.088
655.239
448.08
227.869
11.283
-182.17
-337.889
-446.749
-507.265
-525.515
-508.237
-466.695
-410.615
-349.705
-297.131
-257.551
-231.831
-216.826
-202.989
-187.375
-171.155
-156.604
-149.293
-150.457
-157.663
-168.3
-178.431
-185.396
-188.299
-186.774
-181.235
-172.428
-161.12
-148.266
-134.986
-122.469
-111.811
-103.598
-97.923
-94.607
-93.274
-93.526
-94.976
-97.142
-99.544
-101.902
-104.091
-106.079
-107.872
-109.396
-110.535
-111.201
-111.356
-110.984
-110.08
-108.642
-106.678
-104.234
-101.379
-98.193
-94.736
-91.045
-87.145
-83.061
-78.84
-74.554
-70.284
-66.12
-62.128
-58.35
-54.811
-51.523
-48.48
-45.666
-43.051
-40.598
-38.275
-36.063
-33.949
-31.923
-29.967
-28.054
-26.148
-24.207
-22.198
-20.096
-17.879
-15.535
-13.053
-10.43
-7.67
-4.784
-1.779
1.339
4.568
7.907
11.351
14.894
18.525
22.234
26.007
29.834
33.7
37.593
41.499
45.403
49.296
53.166
57.001
60.789
64.517
68.169
71.733
75.196
78.544
81.765
84.845
87.774
90.54
93.135
95.549
97.774
99.802
101.625
103.237
104.634
105.809
106.759
107.481
107.972
108.23
108.256
108.049
107.612
106.947
106.056
104.945
103.619
102.085
100.348
98.416
96.298
94.001
91.536
88.911
86.137
83.224
80.183
77.025
73.763
70.407
66.97
63.464
59.902
56.297
52.661
49.008
45.351
41.703
38.077
34.487
30.945
27.463
24.053
20.727
17.496
14.369
11.355
8.463
5.699
3.071
0.583
-1.759
-3.952
-5.994
-7.883
-9.617
-11.198
-12.626
-13.903
-15.032
-16.016
-16.862
-17.573
-18.157
-18.62
-18.969
-19.214
-19.362
-19.424
-19.409
-19.329
-19.194
-19.014
-18.802
-18.568
-18.323
-18.078
-17.843
-17.626
-17.437
-17.284
-17.174
-17.113
-17.106
-17.159
-17.274
-17.455
-17.703
-18.017
-18.396
-18.838
-19.341
-19.899
-20.507
-21.157
-21.842
-22.557
-23.292
-24.038
-24.787
-25.527
-26.25
-26.944
-27.599
-28.199
-28.73
-29.178
-29.53
-29.774
-29.899
-29.893
-29.747
-29.449
-28.994
-28.38
-27.6
-26.644
-25.504
-24.17
-22.642
-20.935
-19.061
-17.027
-14.845
-12.529
-10.098
-7.583
-4.999
-2.349
0.364
3.14
5.962
8.795
11.608
14.371
17.066
19.693
22.242
24.685
27.013
29.219
31.306
33.292
35.155
36.831
38.265
39.405
40.221
40.716
40.88
40.694
40.134
39.164
37.768
35.951
33.696
30.976
27.767
24.038
19.834
15.256
10.397
5.34
0.146
-5.145
-10.473
-15.759
-20.921
-25.884
-30.592
-34.996
-39.034
-42.635
-45.748
-48.365
-50.566
-52.488
-54.25
-55.938
-57.626
-59.408
-61.4
-63.743
-66.569
-69.934
-73.938
-78.773
-84.535
-91.201
-98.57
-106.129
-113.273
-119.515
-124.228
-126.655
-126.333
-123.103
-117.27
-109.807
-101.876
-94.473
-88.726
-86.07
-86.496
-88.375
-90.002
-88.516
-83.596
-78.415
-72.053
-60.54
-35.287
17.783
104.2
220.252
355.729
492.824
620.627
736.508
839.625
931.852
1007.36
1052.689
1054.997
1002.82
893.824
734.648
536.706
317.075
94.46
-110.845
-280.22
-402.551
-475.481
-506.78
-507.768
-486.82
-449.721
-399.226
-340.587
-284.78
-240.775
-213.794
-202.547
-197.84
-193.371
-186.742
-178.768
-174.548
-175.816
-181
-187.69
-192.028
-191.868
-187.268
-178.763
-167.415
-154.405
-140.611
-127.022
-114.746
-104.728
-97.432
-92.89
-90.916
-91.095
-92.994
-96.2
-100.181
-104.426
-108.629
-112.617
-116.268
-119.507
-122.22
-124.256
-125.56
-126.127
-125.952
-125.052
-123.443
-121.153
-118.262
-114.872
-111.086
-106.985
-102.627
-98.057
-93.343
-88.575
-83.848
-79.265
-74.893
-70.774
-66.941
-63.409
-60.179
-57.238
-54.554
-52.082
-49.785
-47.634
-45.608
-43.692
-41.862
-40.086
-38.327
-36.54
-34.692
-32.759
-30.718
-28.552
-26.252
-23.811
-21.23
-18.522
-15.69
-12.74
-9.673
-6.488
-3.188
0.219
3.729
7.33
11.014
14.771
18.59
22.459
26.367
30.302
34.253
38.211
42.165
46.101
50.007
53.866
57.666
61.393
65.031
68.565
71.983
75.271
78.416
81.407
84.234
86.886
89.355
91.631
93.707
95.575
97.231
98.667
99.881
100.866
101.621
102.143
102.43
102.482
102.3
101.884
101.239
100.366
99.272
97.96
96.437
94.71
92.785
90.673
88.381
85.92
83.299
80.531
77.627
74.599
71.459
68.22
64.894
61.493
58.031
54.52
50.973
47.403
43.822
40.245
36.685
33.153
29.664
26.229
22.862
19.573
16.374
13.275
10.287
7.419
4.679
2.076
-0.383
-2.693
-4.847
-6.842
-8.674
-10.343
-11.847
-13.188
-14.367
-15.387
-16.251
-16.965
-17.532
-17.959
-18.251
-18.416
-18.461
-18.394
-18.224
-17.961
-17.615
-17.197
-16.718
-16.188
-15.62
-15.023
-14.41
-13.791
-13.178
-12.581
-12.012
-11.481
-10.997
-10.571
-10.211
-9.924
-9.715
-9.588
-9.547
-9.592
-9.723
-9.937
-10.233
-10.606
-11.053
-11.57
-12.153
-12.796
-13.496
-14.245
-15.036
-15.86
-16.706
-17.561
-18.411
-19.24
-20.034
-20.779
-21.461
-22.066
-22.584
-23.003
-23.313
-23.499
-23.547
-23.437
-23.152
-22.685
-22.031
-21.194
-20.183
-19.018
-17.72
-16.316
-14.825
-13.26
-11.623
-9.906
-8.098
-6.189
-4.183
-2.097
0.055
2.259
4.507
6.794
9.132
11.543
14.06
16.724
19.557
22.559
25.697
28.911
32.125
35.246
38.198
40.927
43.383
45.526
47.318
48.721
49.683
50.137
49.997
49.16
47.555
45.137
41.907
37.91
33.227
27.975
22.274
16.229
9.935
3.473
-3.092
-9.689
-16.235
-22.635
-28.763
-34.471
-39.641
-44.167
-47.98
-51.073
-53.474
-55.273
-56.593
-57.545
-58.237
-58.782
-59.28
-59.845
-60.613
-61.702
-63.276
-65.555
-68.681
-72.722
-77.629
-83.116
-88.799
-94.25
-98.895
-102.112
-103.441
-102.608
-99.718
-95.436
-90.613
-86.217
-83.293
-82.691
-85.079
-90.768
-99.235
-109.09
-117.442
-119.972
-112.734
-92.192
-58.007
-13.334
40.02
100.97
173.421
265.646
380.963
518.439
667.877
810.788
931.27
1014.971
1053.559
1045.326
987.896
880.908
726.188
529.056
302.815
67.848
-151.75
-334.998
-467.721
-545.731
-575.227
-563.988
-521.668
-459.662
-386.976
-316.629
-261.185
-225
-207.707
-201.612
-195.78
-186.092
-172.901
-160.238
-153.976
-155.334
-162.583
-172.654
-181.591
-187.324
-189.042
-186.576
-180.626
-171.864
-160.892
-148.633
-135.98
-123.869
-113.337
-104.913
-98.683
-94.526
-92.086
-90.965
-90.822
-91.279
-91.933
-92.571
-93.102
-93.478
-93.726
-93.852
-93.825
-93.629
-93.24
-92.586
-91.613
-90.304
-88.658
-86.714
-84.518
-82.088
-79.435
-76.576
-73.53
-70.321
-66.978
-63.513
-59.945
-56.317
-52.689
-49.142
-45.732
-42.479
-39.387
-36.446
-33.647
-30.987
-28.454
-26.024
-23.68
-21.405
-19.189
-17.031
-14.916
-12.822
-10.714
-8.549
-6.296
-3.938
-1.461
1.143
3.88
6.751
9.753
12.872
16.097
19.423
22.844
26.359
29.962
33.64
37.382
41.173
44.998
48.845
52.7
56.547
60.374
64.168
67.918
71.614
75.247
78.803
82.272
85.64
88.896
92.027
95.023
97.871
100.56
103.081
105.425
107.585
109.552
111.321
112.886
114.241
115.383
116.308
117.012
117.494
117.751
117.784
117.593
117.177
116.541
115.685
114.614
113.331
111.842
110.153
108.269
106.196
103.944
101.519
98.932
96.19
93.305
90.287
87.147
83.897
80.548
77.113
73.605
70.035
66.418
62.767
59.094
55.413
51.737
48.08
44.454
40.873
37.349
33.895
30.522
27.241
24.064
21
18.059
15.248
12.576
10.049
7.673
5.453
3.391
1.491
-0.246
-1.821
-3.233
-4.485
-5.58
-6.523
-7.317
-7.969
-8.487
-8.877
-9.149
-9.313
-9.378
-9.356
-9.257
-9.093
-8.876
-8.618
-8.332
-8.029
-7.722
-7.423
-7.143
-6.894
-6.687
-6.53
-6.434
-6.406
-6.454
-6.583
-6.799
-7.105
-7.503
-7.996
-8.582
-9.261
-10.03
-10.885
-11.821
-12.831
-13.909
-15.045
-16.229
-17.45
-18.696
-19.955
-21.214
-22.459
-23.676
-24.852
-25.971
-27.02
-27.983
-28.848
-29.599
-30.223
-30.708
-31.041
-31.211
-31.21
-31.029
-30.659
-30.098
-29.339
-28.383
-27.228
-25.875
-24.327
-22.59
-20.67
-18.578
-16.323
-13.919
-11.382
-8.731
-5.987
-3.171
-0.307
2.581
5.467
8.326
11.132
13.861
16.488
18.991
21.344
23.52
25.494
27.241
28.74
29.968
30.907
31.538
31.848
31.83
31.483
30.801
29.778
28.401
26.659
24.551
22.081
19.256
16.095
12.617
8.857
4.871
0.714
-3.559
-7.895
-12.254
-16.595
-20.865
-25.002
-28.937
-32.599
-35.939
-38.918
-41.493
-43.654
-45.413
-46.822
-47.977
-48.978
-49.92
-50.909
-52.051
-53.467
-55.289
-57.619
-60.574
-64.314
-68.902
-74.345
-80.536
-87.113
-93.688
-99.906
-105.263
-109.21
-111.351
-111.336
-109.226
-105.777
-101.662
-97.426
-93.853
-91.561
-91.061
-93.082
-96.694
-98.642
-96.065
-86.078
-67.704
-44.492
-18.509
11.076
47.628
101.127
180.751
288.784
422.59
569.483
711.415
834.021
923.834
973.045
980.37
943.223
861.89
738.869
575.088
378.671
163.866
-51.666
-243.807
-393.936
-494.59
-547.382
-563.986
-556.171
-530.293
-489.839
-437.75
-380.852
-328.289
-287.187
-259.162
-239.137
-221.5
-203.586
-186.084
-173.292
-167.8
-168.915
-174.393
-180.423
-184.069
-184.05
-179.98
-172.345
-161.941
-149.578
-136.163
-122.728
-110.367
-100.122
-92.587
-87.864
-85.75
-85.823
-87.605
-90.625
-94.383
-98.358
-102.182
-105.633
-108.526
-110.758
-112.268
-113.001
-112.956
-112.18
-110.695
-108.525
-105.733
-102.386
-98.573
-94.408
-89.961
-85.293
-80.482
-75.609
-70.787
-66.136
-61.731
-57.616
-53.823
-50.368
-47.262
-44.504
-42.062
-39.885
-37.93
-36.156
-34.533
-33.04
-31.643
-30.302
-28.973
-27.605
-26.163
-24.62
-22.953
-21.143
-19.176
-17.041
-14.739
-12.282
-9.673
-6.916
-4.011
-0.959
2.238
5.571
9.034
12.617
16.311
20.107
23.992
27.954
31.982
36.061
40.182
44.331
48.498
52.666
56.82
60.943
65.019
69.03
72.961
76.793
80.511
84.098
87.541
90.824
93.936
96.865
99.598
102.126
104.439
106.529
108.388
110.01
111.389
112.521
113.401
114.028
114.4
114.517
114.379
113.987
113.346
112.457
111.327
109.96
108.364
106.546
104.514
102.277
99.846
97.232
94.445
91.499
88.407
85.18
81.833
78.378
74.829
71.199
67.503
63.754
59.965
56.15
52.323
48.496
44.685
40.9
37.156
33.465
29.838
26.287
22.825
19.46
16.204
13.066
10.055
7.18
4.447
1.862
-0.569
-2.841
-4.953
-6.903
-8.69
-10.314
-11.778
-13.082
-14.23
-15.225
-16.072
-16.775
-17.339
-17.772
-18.08
-18.271
-18.353
-18.336
-18.227
-18.036
-17.773
-17.448
-17.071
-16.652
-16.201
-15.729
-15.247
-14.766
-14.296
-13.848
-13.43
-13.05
-12.717
-12.436
-12.212
-12.049
-11.946
-11.905
-11.928
-12.014
-12.162
-12.371
-12.64
-12.968
-13.354
-13.795
-14.284
-14.816
-15.379
-15.965
-16.563
-17.159
-17.743
-18.301
-18.823
-19.298
-19.721
-20.08
-20.363
-20.554
-20.633
-20.587
-20.407
-20.084
-19.616
-19.008
-18.271
-17.429
-16.512
-15.535
-14.507
-13.432
-12.294
-11.088
-9.805
-8.434
-6.981
-5.447
-3.829
-2.137
-0.374
1.474
3.429
5.538
7.865
10.431
13.238
16.274
19.484
22.813
26.191
29.517
32.713
35.714
38.45
40.883
42.978
44.665
45.874
46.507
46.435
45.588
43.924
41.413
38.083
33.979
29.178
23.821
18.043
11.95
5.644
-0.805
-7.344
-13.876
-20.307
-26.525
-32.375
-37.755
-42.585
-46.78
-50.311
-53.162
-55.347
-56.992
-58.242
-59.221
-60.067
-60.818
-61.479
-62.229
-63.221
-64.632
-66.716
-69.471
-72.868
-77.145
-82.399
-88.414
-94.894
-101.09
-106.093
-109.663
-111.553
-111.191
-108.366
-103.133
-95.849
-87.891
-80.821
-75.245
-71.635
-70.605
-72.311
-76.667
-82.929
-87.911
-87.219
-77.77
-57.347
-26.329
13.022
61.167
120.584
195.25
288.815
399.412
520.741
643.998
759.813
861.98
943.802
996.06
1009.711
974.156
883.874
743.004
559.151
346.854
124.629
-90.386
-278.719
-424.206
-518.093
-559.292
-553.865
-513.088
-451.276
-380.996
-315.616
-266.194
-235.259
-220.915
-215.432
-208.879
-198.208
-184.48
-171.671
-164.962
-164.976
-169.772
-176.545
-181.902
-184.196
-182.836
-177.764
-169.764
-159.626
-148.029
-135.839
-123.801
-112.683
-103.393
-96.364
-91.611
-88.951
-87.977
-88.286
-89.563
-91.458
-93.59
-95.725
-97.728
-99.519
-101.092
-102.41
-103.413
-104.044
-104.244
-103.974
-103.215
-101.977
-100.301
-98.24
-95.848
-93.171
-90.24
-87.086
-83.745
-80.251
-76.637
-72.945
-69.212
-65.503
-61.903
-58.47
-55.236
-52.211
-49.377
-46.716
-44.22
-41.865
-39.625
-37.478
-35.403
-33.385
-31.418
-29.487
-27.568
-25.628
-23.622
-21.517
-19.292
-16.93
-14.424
-11.769
-8.96
-6.001
-2.906
0.317
3.66
7.12
10.694
14.379
18.163
22.035
25.98
29.985
34.036
38.119
42.218
46.32
50.409
54.474
58.503
62.484
66.403
70.245
73.997
77.643
81.169
84.563
87.808
90.891
93.802
96.528
99.059
101.386
103.501
105.394
107.061
108.495
109.691
110.646
111.356
111.819
112.035
112.003
111.726
111.203
110.44
109.439
108.207
106.749
105.072
103.184
101.093
98.809
96.342
93.702
90.9
87.949
84.86
81.646
78.32
74.897
71.389
67.81
64.175
60.497
56.791
53.07
49.349
45.641
41.958
38.314
34.722
31.193
27.74
24.372
21.101
17.936
14.887
11.962
9.167
6.509
3.993
1.623
-0.597
-2.667
-4.585
-6.351
-7.966
-9.43
-10.746
-11.917
-12.947
-13.841
-14.604
-15.242
-15.762
-16.173
-16.483
-16.699
-16.833
-16.891
-16.884
-16.822
-16.715
-16.571
-16.402
-16.216
-16.023
-15.834
-15.656
-15.499
-15.368
-15.272
-15.213
-15.198
-15.228
-15.303
-15.425
-15.593
-15.808
-16.067
-16.37
-16.715
-17.1
-17.522
-17.981
-18.47
-18.983
-19.511
-20.043
-20.57
-21.08
-21.56
-21.996
-22.374
-22.684
-22.916
-23.063
-23.113
-23.05
-22.855
-22.514
-22.022
-21.376
-20.575
-19.62
-18.517
-17.286
-15.959
-14.569
-13.135
-11.663
-10.147
-8.585
-6.978
-5.334
-3.658
-1.941
-0.167
1.67
3.568
5.526
7.557
9.701
12.027
14.589
17.406
20.467
23.733
27.163
30.712
34.324
37.924
41.406
44.674
47.658
50.305
52.567
54.372
55.607
56.131
55.827
54.628
52.506
49.47
45.543
40.777
35.257
29.099
22.438
15.406
8.112
0.659
-6.835
-14.239
-21.418
-28.195
-34.373
-39.841
-44.557
-48.603
-52.224
-55.589
-58.741
-61.733
-64.634
-67.445
-70.144
-72.478
-73.879
-74.115
-73.382
-72.102
-70.873
-70.141
-70.317
-72.152
-76.419
-83.528
-92.718
-101.81
-109.734
-116.378
-122.87
-133.032
-146.879
-160.516
-169.28
-164.553
-143.088
-110.698
-74.735
-46.246
-32.282
-29.559
-33.315
-37.824
-38.328
-33.948
-19.992
12.418
72.561
167.729
295.017
443.029
597.812
743.447
870.749
974.412
1046.055
1080.485
1069.904
1006.609
892.805
732.474
535.621
318.722
95.627
-115.554
-297.852
-439.445
-529.892
-568.428
-560.016
-512.965
-441.047
-356.949
-273.255
-201.561
-149.569
-120.976
-115.693
-129.934
-155.704
-184.651
-207.713
-218.083
-215.741
-204.45
-191.82
-184.425
-183.559
-187.133
-189.999
-188.424
-182.201
-172.901
-163.464
-155.88
-150.397
-146.721
-144.339
-142.875
-142.171
-141.956
-141.774
-141.165
-139.884
-137.867
-135.122
-131.704
-127.661
-123.03
-117.937
-112.594
-107.18
-101.856
-96.751
-91.931
-87.466
-83.427
-79.851
-76.728
-74.031
-71.709
-69.715
-68.04
-66.652
-65.509
-64.553
-63.681
-62.8
-61.839
-60.732
-59.427
-57.897
-56.122
-54.112
-51.923
-49.602
-47.185
-44.699
-42.146
-39.531
-36.87
-34.174
-31.461
-28.745
-26.03
-23.324
-20.635
-17.962
-15.296
-12.612
-9.867
-7.029
-4.078
-0.999
2.208
5.544
9.011
12.604
16.307
20.109
23.996
27.959
31.989
36.076
40.203
44.351
48.498
52.624
56.71
60.739
64.695
68.562
72.325
75.973
79.498
82.89
86.137
89.229
92.152
94.897
97.452
99.807
101.952
103.876
105.574
107.037
108.261
109.243
109.978
110.465
110.701
110.688
110.426
109.918
109.166
108.174
106.948
105.493
103.816
101.926
99.83
97.538
95.058
92.402
89.58
86.602
83.48
80.224
76.848
73.364
69.784
66.122
62.391
58.606
54.782
50.932
47.071
43.214
39.374
35.566
31.801
28.094
24.457
20.901
17.438
14.079
10.832
7.707
4.713
1.857
-0.856
-3.42
-5.831
-8.087
-10.184
-12.122
-13.902
-15.523
-16.988
-18.299
-19.458
-20.47
-21.34
-22.071
-22.671
-23.146
-23.504
-23.752
-23.899
-23.955
-23.93
-23.832
-23.673
-23.462
-23.209
-22.924
-22.618
-22.301
-21.983
-21.673
-21.38
-21.113
-20.881
-20.689
-20.543
-20.448
-20.407
-20.421
-20.492
-20.617
-20.797
-21.029
-21.312
-21.644
-22.022
-22.443
-22.906
-23.407
-23.942
-24.503
-25.082
-25.667
-26.251
-26.819
-27.361
-27.862
-28.307
-28.684
-28.984
-29.197
-29.312
-29.312
-29.178
-28.894
-28.457
-27.862
-27.11
-26.204
-25.15
-23.966
-22.684
-21.334
-19.943
-18.526
-17.077
-15.597
-14.088
-12.554
-11.005
-9.436
-7.819
-6.137
-4.382
-2.538
-0.596
1.484
3.775
6.332
9.193
12.366
15.817
19.51
23.412
27.465
31.606
35.735
39.72
43.454
46.861
49.863
52.39
54.336
55.545
55.89
55.278
53.654
51.015
47.363
42.71
37.12
30.696
23.596
16.023
8.141
0.075
-8.055
-16.139
-24.028
-31.529
-38.47
-44.716
-50.163
-54.746
-58.41
-61.127
-62.931
-63.934
-64.317
-64.291
-64.042
-63.731
-63.512
-63.549
-64.039
-65.164
-67.104
-70.072
-74.161
-79.382
-85.636
-92.549
-99.654
-106.497
-112.454
-116.839
-119.196
-119.172
-116.819
-112.941
-108.401
-103.943
-100.354
-98.258
-98.088
-100.188
-104.212
-107.491
-106.107
-96.849
-76.517
-45.482
-7.433
37.771
91
156.099
242.66
352.43
482.166
625.268
764.775
888.231
986.988
1050.384
1075.576
1057.899
990.712
874.948
711.431
507.696
281.29
51.436
-157.357
-324.11
-439.815
-504.401
-528.55
-525.023
-500.696
-460.111
-405.753
-343.311
-284.944
-239.889
-212.089
-198.947
-190.757
-181.476
-170.162
-159.037
-153.35
-154.719
-161.364
-170.395
-178.054
-182.27
-182.433
-178.545
-171.338
-161.608
-150.066
-137.711
-125.517
-114.414
-105.339
-98.702
-94.483
-92.476
-92.281
-93.464
-95.649
-98.438
-101.402
-104.287
-106.957
-109.317
-111.35
-113.018
-114.235
-114.928
-115.064
-114.621
-113.597
-112.032
-109.953
-107.405
-104.453
-101.146
-97.533
-93.667
-89.593
-85.357
-81.018
-76.634
-72.276
-68.037
-63.986
-60.163
-56.591
-53.262
-50.164
-47.288
-44.61
-42.102
-39.737
-37.491
-35.345
-33.289
-31.302
-29.357
-27.419
-25.441
-23.388
-21.237
-18.967
-16.569
-14.036
-11.36
-8.543
-5.595
-2.524
0.667
3.974
7.401
10.943
14.593
18.341
22.175
26.084
30.055
34.077
38.136
42.218
46.31
50.401
54.48
58.535
62.552
66.515
70.409
74.22
77.932
81.53
85
88.326
91.496
94.496
97.317
99.945
102.372
104.586
106.58
108.344
109.873
111.16
112.198
112.983
113.513
113.785
113.798
113.552
113.048
112.29
111.28
110.024
108.526
106.794
104.835
102.658
100.272
97.688
94.916
91.969
88.858
85.598
82.202
78.683
75.056
71.334
67.534
63.669
59.754
55.807
51.84
47.872
43.916
39.988
36.104
32.277
28.521
24.851
21.278
17.815
14.473
11.263
8.194
5.275
2.514
-0.082
-2.509
-4.763
-6.841
-8.74
-10.462
-12.008
-13.378
-14.576
-15.606
-16.471
-17.177
-17.729
-18.135
-18.404
-18.543
-18.562
-18.473
-18.287
-18.014
-17.668
-17.259
-16.802
-16.306
-15.786
-15.252
-14.717
-14.193
-13.691
-13.223
-12.8
-12.43
-12.123
-11.884
-11.721
-11.638
-11.636
-11.716
-11.879
-12.123
-12.446
-12.847
-13.322
-13.869
-14.484
-15.162
-15.9
-16.689
-17.521
-18.384
-19.265
-20.15
-21.023
-21.87
-22.675
-23.424
-24.103
-24.701
-25.206
-25.607
-25.89
-26.038
-26.031
-25.852
-25.491
-24.945
-24.213
-23.306
-22.241
-21.039
-19.724
-18.314
-16.82
-15.243
-13.571
-11.794
-9.899
-7.888
-5.776
-3.577
-1.304
1.035
3.437
5.914
8.488
11.192
14.067
17.135
20.395
23.815
27.335
30.876
34.342
37.657
40.764
43.61
46.151
48.347
50.153
51.515
52.364
52.61
52.151
50.911
48.843
45.945
42.263
37.875
32.903
27.465
21.665
15.602
9.358
3.005
-3.383
-9.725
-15.929
-21.872
-27.417
-32.445
-36.857
-40.595
-43.651
-46.06
-47.923
-49.374
-50.539
-51.538
-52.483
-53.471
-54.619
-56.058
-57.916
-60.31
-63.377
-67.286
-72.135
-77.956
-84.63
-91.773
-98.933
-105.672
-111.467
-115.772
-118.187
-118.344
-116.233
-112.577
-108.1
-103.415
-99.363
-96.554
-95.394
-96.614
-99.532
-101.037
-98.225
-88.301
-69.949
-46.297
-19.717
11.322
50.725
107.13
189.251
297.253
426.149
566.131
702.073
824.057
923.676
990.573
1019.09
1000.907
929.16
805.654
633.739
425.236
199.428
-23.863
-221.462
-376.494
-481.543
-537.898
-554.705
-540.722
-505.535
-456.205
-400.204
-349.553
-310.362
-285.319
-271.542
-258.596
-241.775
-220.847
-198.497
-181.615
-172.511
-169.645
-171.121
-173.397
-174.403
-173.732
-170.583
-164.877
-157.164
-147.865
-137.582
-127.106
-117.007
-107.932
-100.771
-95.945
-93.412
-92.986
-94.238
-96.714
-100.129
-104.108
-108.161
-111.958
-115.252
-117.856
-119.718
-120.802
-121.052
-120.478
-119.126
-117.037
-114.286
-110.955
-107.117
-102.866
-98.282
-93.429
-88.374
-83.196
-77.991
-72.86
-67.905
-63.192
-58.765
-54.659
-50.89
-47.463
-44.363
-41.555
-38.999
-36.655
-34.494
-32.492
-30.626
-28.864
-27.171
-25.506
-23.823
-22.088
-20.276
-18.362
-16.328
-14.163
-11.86
-9.419
-6.849
-4.153
-1.331
1.615
4.687
7.883
11.198
14.628
18.163
21.796
25.518
29.32
33.191
37.121
41.099
45.114
49.157
53.218
57.282
61.336
65.364
69.349
73.277
77.131
80.895
84.552
88.088
91.488
94.739
97.828
100.744
103.475
106.01
108.34
110.455
112.347
114.01
115.437
116.623
117.563
118.254
118.694
118.883
118.819
118.504
117.94
117.128
116.074
114.782
113.257
111.507
109.539
107.361
104.985
102.42
99.677
96.769
93.707
90.505
87.176
83.732
80.186
76.554
72.848
69.082
65.271
61.428
57.567
53.703
49.848
46.016
42.22
38.472
34.785
31.171
27.64
24.205
20.874
17.658
14.565
11.604
8.781
6.103
3.575
1.2
-1.019
-3.079
-4.98
-6.722
-8.306
-9.734
-11.009
-12.135
-13.116
-13.959
-14.669
-15.253
-15.719
-16.075
-16.329
-16.49
-16.568
-16.572
-16.511
-16.395
-16.234
-16.039
-15.82
-15.585
-15.345
-15.11
-14.886
-14.684
-14.51
-14.371
-14.273
-14.221
-14.219
-14.27
-14.375
-14.536
-14.753
-15.023
-15.345
-15.713
-16.125
-16.573
-17.052
-17.554
-18.071
-18.595
-19.117
-19.626
-20.114
-20.569
-20.981
-21.339
-21.632
-21.849
-21.978
-22.011
-21.936
-21.744
-21.426
-20.974
-20.381
-19.641
-18.75
-17.704
-16.501
-15.141
-13.626
-11.959
-10.146
-8.194
-6.114
-3.917
-1.619
0.765
3.217
5.718
8.248
10.786
13.309
15.795
18.225
20.573
22.817
24.933
26.896
28.681
30.264
31.623
32.735
33.581
34.144
34.411
34.372
34.017
33.337
32.315
30.942
29.212
27.121
24.674
21.878
18.751
15.322
11.632
7.725
3.647
-0.562
-4.864
-9.221
-13.587
-17.914
-22.136
-26.193
-30.029
-33.591
-36.835
-39.738
-42.295
-44.538
-46.538
-48.366
-50.09
-51.786
-53.526
-55.401
-57.517
-59.986
-62.922
-66.447
-70.717
-75.815
-81.729
-88.317
-95.238
-102.06
-108.324
-113.502
-117.008
-118.418
-117.53
-114.473
-109.897
-104.603
-99.422
-95.226
-92.708
-92.415
-94.626
-98.881
-103.967
-107.11
-104.065
-91.23
-65.505
-27.422
18.593
70.318
126.823
192.911
278.694
388.636
522.651
670.968
814.909
937.735
1022.586
1058.836
1042.126
969.395
844.432
673.082
465.919
240.517
16.087
-185.47
-346.986
-459.465
-523.056
-545.851
-536.453
-505.248
-459.521
-406.193
-356.393
-315.462
-286.473
-268.005
-251.143
-232.258
-211.293
-190.293
-175.537
-168.927
-168.676
-172.844
-177.759
-181.086
-182.185
-180.122
-174.762
-166.682
-156.456
-144.852
-132.82
-121.129
-110.553
-102.014
-95.96
-92.382
-91.082
-91.647
-93.612
-96.601
-100.205
-103.945
-107.506
-110.684
-113.287
-115.223
-116.434
-116.861
-116.515
-115.445
-113.678
-111.253
-108.238
-104.7
-100.73
-96.429
-91.858
-87.073
-82.145
-77.152
-72.204
-67.417
-62.864
-58.586
-54.616
-50.967
-47.649
-44.659
-41.964
-39.516
-37.276
-35.206
-33.283
-31.49
-29.798
-28.173
-26.574
-24.954
-23.281
-21.53
-19.68
-17.713
-15.617
-13.381
-11.009
-8.51
-5.89
-3.151
-0.292
2.686
5.782
8.989
12.302
15.712
19.212
22.793
26.444
30.155
33.914
37.71
41.534
45.375
49.222
53.063
56.884
60.672
64.412
68.091
71.695
75.209
78.62
81.915
85.082
88.11
90.989
93.707
96.255
98.624
100.805
102.792
104.576
106.151
107.513
108.656
109.576
110.27
110.735
110.97
110.976
110.752
110.3
109.624
108.727
107.613
106.288
104.758
103.029
101.11
99.008
96.731
94.29
91.694
88.953
86.078
83.081
79.973
76.766
73.471
70.101
66.668
63.184
59.662
56.116
52.557
48.999
45.454
41.935
38.454
35.024
31.655
28.359
25.146
22.025
19.005
16.094
13.3
10.629
8.086
5.676
3.402
1.269
-0.724
-2.574
-4.282
-5.849
-7.277
-8.569
-9.728
-10.758
-11.665
-12.454
-13.131
-13.702
-14.176
-14.559
-14.86
-15.087
-15.249
-15.353
-15.409
-15.425
-15.409
-15.37
-15.313
-15.247
-15.177
-15.11
-15.05
-15.003
-14.97
-14.956
-14.961
-14.987
-15.034
-15.099
-15.181
-15.276
-15.381
-15.491
-15.599
-15.701
-15.79
-15.858
-15.897
-15.9
-15.857
-15.761
-15.602
-15.371
-15.059
-14.659
-14.163
-13.562
-12.85
-12.021
-11.07
-9.993
-8.786
-7.447
-5.976
-4.372
-2.639
-0.78
1.199
3.292
5.488
7.776
10.141
12.568
15.04
17.54
20.046
22.539
24.998
27.401
29.729
31.96
34.072
36.041
37.845
39.461
40.864
42.035
42.952
43.595
43.949
44.003
43.748
43.175
42.276
41.034
39.44
37.486
35.171
32.496
29.471
26.112
22.45
18.531
14.402
10.116
5.721
1.256
-3.232
-7.697
-12.084
-16.323
-20.353
-24.116
-27.56
-30.644
-33.345
-35.666
-37.647
-39.38
-40.957
-42.474
-44.031
-45.715
-47.636
-49.918
-52.698
-56.089
-60.212
-65.218
-71.173
-78.075
-85.804
-93.978
-102.108
-109.697
-116.155
-120.861
-123.391
-123.41
-120.922
-116.65
-111.455
-106.163
-101.635
-98.553
-97.431
-98.727
-102.29
-105.582
-104.492
-95.429
-75.039
-44.088
-7.307
34.485
82.439
142.049
225.264
335.56
469.343
617.765
761.438
886.649
985.027
1047.766
1073.051
1054.915
985.464
864.433
692.999
483.359
256.699
32.571
-165.672
-323.338
-437.09
-505.909
-538.409
-542.313
-518.77
-472.852
-408.769
-333.87
-264.135
-211.796
-182.234
-174.93
-179.628
-184.898
-185.807
-181.441
-175.227
-172.27
-173.571
-177.316
-181.067
-182
-178.946
-172.53
-163.71
-153.463
-142.595
-131.795
-121.649
-112.787
-105.888
-101.122
-98.334
-97.3
-97.634
-98.96
-101.018
-103.486
-105.976
-108.284
-110.295
-111.893
-113.069
-113.773
-113.899
-113.422
-112.361
-110.728
-108.577
-105.969
-102.94
-99.556
-95.892
-91.996
-87.921
-83.711
-79.396
-75.033
-70.681
-66.405
-62.284
-58.376
-54.712
-51.314
-48.179
-45.288
-42.627
-40.168
-37.876
-35.725
-33.691
-31.754
-29.903
-28.12
-26.376
-24.64
-22.868
-21.025
-19.088
-17.034
-14.85
-12.529
-10.062
-7.451
-4.704
-1.827
1.177
4.306
7.559
10.935
14.428
18.028
21.724
25.504
29.357
33.271
37.23
41.223
45.233
49.25
53.261
57.254
61.213
65.125
68.973
72.741
76.414
79.977
83.414
86.71
89.851
92.823
95.616
98.217
100.617
102.806
104.776
106.518
108.028
109.299
110.327
111.107
111.639
111.919
111.948
111.726
111.256
110.54
109.583
108.39
106.968
105.323
103.464
101.4
99.14
96.695
94.075
91.292
88.359
85.288
82.093
78.786
75.383
71.896
68.341
64.73
61.077
57.397
53.703
50.007
46.324
42.666
39.045
35.474
31.965
28.528
25.175
21.914
18.755
15.704
12.768
9.953
7.264
4.703
2.274
-0.021
-2.181
-4.204
-6.093
-7.847
-9.47
-10.964
-12.334
-13.585
-14.721
-15.75
-16.677
-17.509
-18.253
-18.915
-19.504
-20.027
-20.491
-20.906
-21.278
-21.616
-21.927
-22.219
-22.499
-22.77
-23.04
-23.31
-23.584
-23.862
-24.145
-24.431
-24.722
-25.015
-25.311
-25.607
-25.902
-26.193
-26.478
-26.751
-27.008
-27.239
-27.436
-27.585
-27.678
-27.705
-27.656
-27.524
-27.298
-26.972
-26.541
-25.999
-25.338
-24.547
-23.608
-22.51
-21.25
-19.831
-18.262
-16.563
-14.749
-12.837
-10.857
-8.829
-6.762
-4.661
-2.511
-0.298
1.977
4.302
6.652
8.997
11.33
13.647
15.946
18.246
20.557
22.899
25.314
27.824
30.413
33.046
35.643
38.106
40.371
42.387
44.118
45.546
46.629
47.327
47.607
47.413
46.689
45.372
43.361
40.591
37.052
32.772
27.845
22.41
16.575
10.437
4.09
-2.4
-8.952
-15.485
-21.933
-28.204
-34.201
-39.814
-44.904
-49.359
-53.127
-56.203
-58.658
-60.637
-62.266
-63.661
-64.949
-66.226
-67.611
-69.239
-71.226
-73.671
-76.691
-80.459
-85.112
-90.728
-97.207
-104.16
-111.108
-117.548
-122.921
-126.642
-128.223
-127.273
-123.859
-118.841
-113.146
-107.612
-103.232
-100.728
-100.74
-104.089
-109.605
-113.642
-112.979
-104.338
-87.337
-65.821
-40.181
-7.601
38.602
109.423
209.562
335.671
478.291
622.599
755.719
869.996
960.062
1020.633
1046.747
1031.211
967.521
855.394
696.955
500.785
283.039
61.803
-140.113
-303.018
-417.524
-483.116
-509.684
-509.078
-487.772
-449.316
-395.214
-331.081
-269.794
-222.354
-194.95
-185.856
-184.458
-183.02
-178.403
-171.589
-168.365
-171.094
-178.434
-187.762
-194.896
-197.494
-195.557
-189.689
-180.982
-170.511
-159.068
-147.573
-137.067
-128.519
-122.399
-118.727
-117.336
-117.823
-119.755
-122.748
-126.292
-129.87
-133.182
-136.039
-138.297
-139.927
-140.861
-141.032
-140.468
-139.21
-137.287
-134.742
-131.609
-127.932
-123.811
-119.344
-114.62
-109.727
-104.732
-99.716
-94.789
-90.038
-85.531
-81.317
-77.411
-73.827
-70.581
-67.664
-65.058
-62.731
-60.641
-58.754
-57.046
-55.485
-54.041
-52.675
-51.338
-49.99
-48.603
-47.153
-45.622
-43.992
-42.247
-40.377
-38.384
-36.266
-34.023
-31.654
-29.152
-26.514
-23.744
-20.843
-17.818
-14.675
-11.416
-8.048
-4.579
-1.017
2.627
6.345
10.13
13.969
17.85
21.76
25.681
29.598
33.496
37.357
41.165
44.901
48.551
52.099
55.529
58.828
61.981
64.975
67.798
70.437
72.881
75.121
77.148
78.951
80.526
81.864
82.963
83.816
84.421
84.776
84.881
84.734
84.34
83.699
82.816
81.697
80.349
78.778
76.994
75.006
72.824
70.458
67.921
65.225
62.381
59.404
56.305
53.099
49.799
46.419
42.974
39.475
35.938
32.376
28.803
25.233
21.677
18.15
14.664
11.232
7.865
4.575
1.373
-1.732
-4.731
-7.616
-10.38
-13.018
-15.525
-17.897
-20.131
-22.224
-24.176
-25.984
-27.65
-29.175
-30.559
-31.805
-32.917
-33.898
-34.753
-35.488
-36.109
-36.621
-37.032
-37.348
-37.576
-37.725
-37.802
-37.815
-37.774
-37.686
-37.561
-37.408
-37.233
-37.045
-36.849
-36.65
-36.454
-36.263
-36.078
-35.901
-35.733
-35.575
-35.427
-35.291
-35.164
-35.049
-34.946
-34.854
-34.772
-34.694
-34.613
-34.523
-34.416
-34.284
-34.115
-33.899
-33.627
-33.291
-32.887
-32.408
-31.845
-31.184
-30.41
-29.51
-28.484
-27.327
-26.038
-24.624
-23.096
-21.478
-19.809
-18.116
-16.413
-14.708
-12.996
-11.273
-9.544
-7.808
-6.063
-4.308
-2.533
-0.739
1.063
2.881
4.737
6.674
8.766
11.054
13.54
16.214
19.038
21.966
24.947
27.909
30.751
33.393
35.761
37.801
39.487
40.76
41.538
41.72
41.178
39.825
37.624
34.554
30.629
25.901
20.446
14.386
7.89
1.095
-5.891
-12.969
-20.072
-27.1
-33.919
-40.397
-46.388
-51.771
-56.461
-60.396
-63.546
-65.952
-67.715
-68.969
-69.879
-70.591
-71.223
-71.912
-72.798
-74.025
-75.729
-78.044
-81.15
-85.161
-90.106
-95.86
-102.022
-108.094
-113.593
-117.968
-120.603
-121.086
-119.17
-115.016
-109.558
-103.822
-98.643
-95.008
-93.747
-95.284
-100.019
-106.768
-111.857
-111.575
-102.337
-82.538
-55.061
-22.125
16.61
64.448
131.014
224.492
346.235
492.18
648.072
795.984
922.195
1013.503
1062.504
1067.298
1024.031
932.894
796.899
618.704
409.412
185.036
-35.226
-227.617
-376.016
-473.027
-520.737
-530.997
-513.74
-477.061
-427.02
-367.032
-305.339
-252.714
-216.69
-200.968
-202.788
-211.697
-218.081
-216.599
-204.674
-187.386
-172.062
-162.245
-160.365
-164.162
-168.128
-169.382
-166.321
-159.208
-150.299
-140.756
-131.167
-122.131
-113.948
-107.295
-102.693
-100.133
-99.422
-100.212
-102.128
-104.906
-108.215
-111.615
-114.808
-117.596
-119.811
-121.39
-122.277
-122.406
-121.779
-120.444
-118.433
-115.801
-112.624
-108.968
-104.922
-100.564
-95.94
-91.1
-86.106
-81.032
-75.982
-71.062
-66.34
-61.863
-57.669
-53.775
-50.194
-46.925
-43.935
-41.181
-38.629
-36.249
-34.022
-31.933
-29.955
-28.056
-26.195
-24.326
-22.417
-20.441
-18.374
-16.196
-13.894
-11.456
-8.886
-6.191
-3.374
-0.439
2.614
5.788
9.079
12.481
15.988
19.592
23.284
27.056
30.897
34.796
38.744
42.729
46.742
50.773
54.812
58.848
62.866
66.853
70.794
74.677
78.487
82.21
85.832
89.34
92.721
95.963
99.054
101.983
104.74
107.315
109.698
111.883
113.863
115.632
117.186
118.523
119.64
120.539
121.218
121.68
121.927
121.961
121.785
121.404
120.819
120.036
119.06
117.897
116.556
115.046
113.376
111.556
109.594
107.5
105.286
102.961
100.532
98.009
95.402
92.726
90.001
87.243
84.457
81.643
78.8
75.921
72.997
70.011
66.936
63.749
60.43
56.971
53.377
49.649
45.777
41.745
37.53
33.125
28.548
23.833
19.014
14.14
9.267
4.479
-0.108
-4.383
-8.271
-11.718
-14.696
-17.174
-19.087
-20.355
-20.912
-20.706
-19.743
-18.063
-15.688
-12.653
-9.025
-4.893
-0.414
4.225
8.939
13.699
18.408
22.917
26.96
30.135
32.169
32.912
32.182
29.887
26.172
21.319
15.91
10.818
6.702
4.08
3.532
5.36
9.416
15.201
21.9
28.509
34.118
38.149
39.034
34.132
22.981
6.397
-12.05
-23.02
-21.104
-6.834
14.36
25.251
