Name,Criss Capps
Date of Birth,"Feb 5, 1952"
Recorded Date,2021-10-23 10:49:05 -0400
Classification,Sinus Rhythm
Symptoms,
Software Version,1.90
Device,"Watch5,4"
Sample Rate,512.844 hertz


Lead,Lead I
Unit,µV

-63.258
-86.08
-101.676
-105.519
-98.611
-86.322
-74.392
-67.572
-66.175
-66.746
-67.073
-65.925
-63.798
-62.667
-62.948
-63.999
-65.291
-66.267
-66.786
-67.006
-66.778
-65.853
-64.232
-62.131
-59.751
-57.199
-54.493
-51.553
-48.376
-45.076
-41.733
-38.399
-35.144
-32.002
-29.02
-26.297
-23.912
-21.94
-20.455
-19.457
-18.91
-18.81
-19.119
-19.801
-20.817
-22.015
-23.19
-24.202
-24.946
-25.267
-25.003
-23.81
-21.133
-16.638
-10.238
-1.871
8.476
20.703
34.778
50.214
65.64
80.07
93.151
104.585
115.262
126.129
136.596
147.496
159.382
172.387
189.373
210.986
238.479
273.486
313.936
359.949
407.621
450.073
481.364
490.344
471.484
425.495
355.463
273.088
186.89
100.616
19.935
-54.107
-117.815
-164.41
-193.689
-205.573
-201.807
-187.098
-162.051
-128.362
-89.59
-48.486
-9.354
24.631
52.308
72.508
85.083
91.045
91.713
89.147
85.592
82.287
80.041
79.704
81.518
85.188
90.111
95.082
98.829
100.796
100.705
98.304
93.672
87.008
78.656
69.308
59.638
49.996
40.588
31.538
22.916
14.878
7.54
0.898
-5.093
-10.473
-15.257
-19.431
-23.026
-26.146
-28.943
-31.578
-34.156
-36.723
-39.311
-41.943
-44.653
-47.488
-50.456
-53.541
-56.736
-60.029
-63.412
-66.881
-70.395
-73.891
-77.295
-80.529
-83.533
-86.272
-88.715
-90.836
-92.617
-94.043
-95.108
-95.82
-96.177
-96.177
-95.813
-95.079
-93.978
-92.522
-90.722
-88.595
-86.156
-83.42
-80.402
-77.122
-73.594
-69.835
-65.861
-61.687
-57.332
-52.819
-48.173
-43.42
-38.59
-33.709
-28.809
-23.919
-19.07
-14.291
-9.611
-5.057
-0.657
3.562
7.574
11.354
14.877
18.122
21.066
23.688
25.972
27.9
29.458
30.633
31.417
31.8
31.778
31.348
30.509
29.262
27.612
25.564
23.128
20.315
17.138
13.612
9.756
5.589
1.132
-3.59
-8.554
-13.734
-19.105
-24.64
-30.312
-36.093
-41.954
-47.868
-53.807
-59.743
-65.649
-71.496
-77.258
-82.911
-88.429
-93.788
-98.966
-103.942
-108.697
-113.212
-117.471
-121.459
-125.163
-128.572
-131.676
-134.467
-136.94
-139.092
-140.918
-142.42
-143.597
-144.452
-144.989
-145.212
-145.127
-144.742
-144.063
-143.1
-141.862
-140.357
-138.598
-136.594
-134.357
-131.898
-129.229
-126.362
-123.309
-120.081
-116.69
-113.149
-109.467
-105.657
-101.728
-97.692
-93.557
-89.334
-85.032
-80.658
-76.222
-71.73
-67.19
-62.609
-57.993
-53.348
-48.681
-43.999
-39.306
-34.61
-29.916
-25.232
-20.563
-15.917
-11.3
-6.72
-2.183
2.303
6.732
11.096
15.387
19.6
23.726
27.758
31.69
35.513
39.222
42.808
46.267
49.592
52.776
55.814
58.701
61.431
63.999
66.402
68.636
70.698
72.585
74.297
75.832
77.192
78.379
79.395
80.244
80.931
81.462
81.843
82.082
82.186
82.165
82.028
81.785
81.447
81.024
80.528
79.971
79.365
78.721
78.051
77.367
76.678
75.997
75.334
74.697
74.096
73.541
73.039
72.598
72.225
71.925
71.703
71.563
71.506
71.533
71.642
71.83
72.093
72.427
72.823
73.275
73.772
74.305
74.863
75.431
75.999
76.551
77.07
77.539
77.939
78.253
78.462
78.547
78.491
78.277
77.889
77.316
76.546
75.568
74.372
72.948
71.283
69.369
67.197
64.758
62.048
59.065
55.809
52.285
48.502
44.471
40.2
35.695
30.956
25.981
20.784
15.378
9.784
4.035
-1.837
-7.788
-13.763
-19.706
-25.566
-31.294
-36.86
-42.238
-47.404
-52.328
-56.96
-61.254
-65.188
-68.76
-71.989
-74.899
-77.517
-79.885
-82.075
-84.184
-86.316
-88.564
-90.993
-93.649
-96.546
-99.738
-103.353
-107.404
-111.787
-116.289
-120.509
-124.104
-126.884
-128.511
-128.514
-126.751
-123.293
-118.524
-113.43
-108.793
-105.058
-102.951
-103.09
-105.337
-109.145
-113.312
-115.64
-114.181
-107.233
-92.554
-68.043
-33.287
10.387
60.806
114.572
170.269
229.566
291.644
352.562
404.673
434.975
433.071
395.857
325.642
231.106
123.36
11.069
-97.27
-192.758
-268.8
-321.277
-350.18
-361.18
-360.268
-350.898
-334.824
-311.369
-281.155
-247.572
-214.447
-185.703
-163.934
-149.996
-143.735
-144.215
-149.801
-158.513
-168.548
-178.201
-186.19
-191.621
-193.925
-193.051
-189.5
-184.103
-177.8
-171.582
-166.075
-161.657
-158.592
-156.844
-156.242
-156.507
-157.187
-157.813
-158.125
-157.992
-157.371
-156.324
-154.874
-153.039
-150.91
-148.578
-146.108
-143.538
-140.869
-138.097
-135.248
-132.373
-129.53
-126.767
-124.1
-121.537
-119.079
-116.722
-114.465
-112.298
-110.195
-108.137
-106.108
-104.097
-102.095
-100.09
-98.059
-95.978
-93.822
-91.569
-89.2
-86.698
-84.048
-81.239
-78.259
-75.101
-71.76
-68.231
-64.505
-60.577
-56.442
-52.096
-47.538
-42.768
-37.79
-32.606
-27.226
-21.657
-15.911
-10.001
-3.939
2.26
8.578
14.997
21.499
28.061
34.664
41.283
47.895
54.474
60.998
67.438
73.772
79.972
86.013
91.871
97.521
102.939
108.102
112.988
117.576
121.845
125.778
129.357
132.566
135.392
137.822
139.846
141.456
142.645
143.41
143.749
143.661
143.148
142.215
140.867
139.111
136.958
134.419
131.506
128.235
124.621
120.683
116.438
111.906
107.108
102.064
96.797
91.329
85.682
79.88
73.944
67.898
61.765
55.566
49.325
43.062
36.798
30.554
24.348
18.2
12.127
6.145
0.269
-5.485
-11.105
-16.58
-21.898
-27.051
-32.031
-36.831
-41.447
-45.875
-50.111
-54.156
-58.008
-61.667
-65.136
-68.417
-71.511
-74.423
-77.158
-79.718
-82.11
-84.338
-86.408
-88.326
-90.096
-91.725
-93.219
-94.582
-95.821
-96.941
-97.947
-98.845
-99.639
-100.335
-100.936
-101.447
-101.871
-102.21
-102.468
-102.645
-102.744
-102.765
-102.708
-102.574
-102.361
-102.071
-101.7
-101.249
-100.717
-100.101
-99.402
-98.617
-97.747
-96.79
-95.747
-94.617
-93.401
-92.099
-90.713
-89.245
-87.694
-86.065
-84.359
-82.578
-80.725
-78.803
-76.817
-74.77
-72.668
-70.514
-68.315
-66.076
-63.804
-61.505
-59.188
-56.858
-54.523
-52.192
-49.872
-47.571
-45.298
-43.059
-40.862
-38.714
-36.621
-34.59
-32.626
-30.732
-28.913
-27.173
-25.514
-23.938
-22.447
-21.041
-19.722
-18.487
-17.337
-16.269
-15.28
-14.366
-13.522
-12.744
-12.025
-11.358
-10.738
-10.156
-9.604
-9.074
-8.558
-8.044
-7.525
-6.989
-6.429
-5.833
-5.193
-4.5
-3.746
-2.925
-2.03
-1.057
-0
1.144
2.379
3.706
5.126
6.639
8.245
9.941
11.724
13.588
15.525
17.525
19.578
21.673
23.797
25.938
28.082
30.217
32.33
34.413
36.452
38.434
40.345
42.17
43.892
45.497
46.971
48.298
49.468
50.471
51.3
51.952
52.426
52.714
52.809
52.694
52.354
51.79
51
49.993
48.787
47.399
45.859
44.21
42.495
40.754
39.022
37.318
35.657
34.057
32.544
31.163
29.952
28.923
28.069
27.366
26.786
26.3
25.859
25.382
24.762
23.888
22.666
21.039
18.969
16.445
13.426
9.816
5.626
0.987
-3.868
-8.569
-12.823
-16.468
-19.249
-20.805
-20.994
-19.826
-17.615
-15.097
-12.793
-10.975
-9.939
-9.746
-10.246
-11.212
-11.679
-10.201
-5.037
6.351
25.035
50.836
82.507
115.853
148.804
182.342
217.944
260.543
313.122
371.874
429.74
475.082
494.135
478.479
426.471
341.972
233.669
112.948
-10.389
-126.362
-223.338
-293.834
-334.443
-346
-335.027
-308.514
-272.245
-232.61
-196.337
-168.954
-153.585
-148.88
-149.237
-149.921
-148.431
-144.934
-142.087
-140.96
-141.176
-141.865
-141.062
-137.563
-131.47
-123.209
-113.878
-104.922
-97.006
-90.356
-85.177
-81.522
-79.479
-79.147
-80.278
-82.293
-84.687
-87.113
-89.366
-91.423
-93.248
-94.754
-95.896
-96.688
-97.183
-97.454
-97.528
-97.366
-96.899
-96.068
-94.881
-93.424
-91.83
-90.218
-88.657
-87.185
-85.838
-84.658
-83.684
-82.927
-82.358
-81.931
-81.627
-81.451
-81.431
-81.596
-81.942
-82.431
-83.016
-83.656
-84.324
-84.998
-85.65
-86.246
-86.76
-87.182
-87.52
-87.782
-87.964
-88.054
-88.034
-87.889
-87.611
-87.194
-86.634
-85.925
-85.06
-84.038
-82.86
-81.529
-80.046
-78.408
-76.61
-74.65
-72.526
-70.242
-67.8
-65.202
-62.453
-59.559
-56.53
-53.375
-50.104
-46.727
-43.254
-39.695
-36.065
-32.374
-28.635
-24.862
-21.069
-17.27
-13.479
-9.712
-5.983
-2.307
1.302
4.828
8.256
11.574
14.767
17.824
20.732
23.479
26.056
28.453
30.66
32.672
34.481
36.083
37.473
38.65
39.614
40.364
40.903
41.235
41.364
41.295
41.037
40.598
39.986
39.213
38.29
37.231
36.047
34.755
33.369
31.905
30.378
28.806
27.204
25.591
23.983
22.397
20.85
19.358
17.937
16.602
15.368
14.247
13.253
12.396
11.688
11.135
10.748
10.53
10.488
10.625
10.943
11.443
12.123
12.981
14.013
15.214
16.577
18.094
19.758
21.557
23.48
25.517
27.654
29.877
32.173
34.527
36.924
39.347
41.783
44.215
46.627
49.006
51.336
53.603
55.794
57.896
59.898
61.788
63.557
65.197
66.698
68.056
69.264
70.32
71.22
71.965
72.553
72.988
73.27
73.406
73.398
73.254
72.98
72.584
72.076
71.465
70.762
69.979
69.126
68.218
67.266
66.284
65.286
64.283
63.291
62.32
61.383
60.493
59.662
58.9
58.218
57.625
57.131
56.742
56.467
56.31
56.277
56.37
56.594
56.951
57.44
58.064
58.821
59.711
60.732
61.881
63.157
64.554
66.069
67.697
69.433
71.27
73.204
75.228
77.336
79.521
81.778
84.102
86.487
88.928
91.419
93.954
96.531
99.145
101.792
104.468
107.172
109.901
112.654
115.429
118.227
121.045
123.883
126.741
129.618
132.513
135.425
138.351
141.289
144.238
147.194
150.156
153.119
156.079
159.03
161.968
164.887
167.778
170.631
173.435
176.176
178.844
181.425
183.904
186.267
188.499
190.587
192.521
194.289
195.875
197.264
198.438
199.382
200.082
200.522
200.687
200.563
200.14
199.411
198.376
197.029
195.365
193.372
191.032
188.334
185.277
181.861
178.092
173.984
169.556
164.841
159.884
154.727
149.405
143.949
138.379
132.726
127.029
121.327
115.669
110.1
104.654
99.352
94.199
89.172
84.238
79.352
74.452
69.479
64.365
59.033
53.423
47.47
41.137
34.371
27.055
19.159
10.75
2.029
-6.588
-14.681
-21.97
-28.132
-32.754
-35.68
-36.959
-36.985
-36.774
-37.242
-38.891
-42.207
-47.503
-54.604
-62.969
-71.378
-77.498
-79.066
-74.427
-61.808
-39.798
-7.612
35.37
87.656
144.937
203.317
259.361
312.318
365.193
417.239
463.481
494.026
495.072
460.494
392.349
299.237
193.94
83.862
-26.555
-131.89
-225.017
-294.986
-333.125
-339.002
-319.158
-284.836
-247.88
-214.527
-186.942
-165.212
-146.431
-129.8
-115.833
-104.843
-99.309
-99.732
-104.789
-113.195
-122.167
-129.957
-136.081
-139.679
-140.616
-139.287
-136.071
-131.968
-128.142
-125.11
-123.133
-122.467
-123.088
-124.895
-127.728
-131.099
-134.443
-137.475
-140.046
-142.095
-143.678
-144.795
-145.424
-145.639
-145.531
-145.165
-144.588
-143.805
-142.809
-141.633
-140.333
-138.977
-137.622
-136.296
-135.009
-133.766
-132.565
-131.406
-130.28
-129.167
-128.051
-126.919
-125.763
-124.578
-123.36
-122.092
-120.758
-119.335
-117.805
-116.154
-114.373
-112.451
-110.383
-108.163
-105.789
-103.263
-100.583
-97.747
-94.752
-91.596
-88.276
-84.793
-81.147
-77.342
-73.38
-69.267
-65.01
-60.618
-56.101
-51.467
-46.728
-41.894
-36.98
-31.998
-26.962
-21.888
-16.793
-11.692
-6.603
-1.545
3.463
8.403
13.256
18.002
22.622
27.096
31.406
35.534
39.461
43.17
46.644
49.867
52.825
55.503
57.889
59.971
61.739
63.186
64.303
65.087
65.535
65.643
65.414
64.848
63.948
62.722
61.174
59.316
57.156
54.708
51.985
49.004
45.783
42.339
38.693
34.866
30.881
26.761
22.53
18.214
13.836
9.423
5.001
0.595
-3.768
-8.064
-12.268
-16.355
-20.302
-24.088
-27.69
-31.089
-34.267
-37.205
-39.889
-42.304
-44.437
-46.279
-47.819
-49.051
-49.971
-50.574
-50.861
-50.831
-50.487
-49.834
-48.878
-47.625
-46.087
-44.272
-42.194
-39.865
-37.3
-34.514
-31.522
-28.342
-24.991
-21.485
-17.841
-14.078
-10.212
-6.258
-2.235
1.845
5.965
10.111
14.271
18.433
22.586
26.719
30.823
34.892
38.918
42.896
46.822
50.693
54.506
58.261
61.957
65.595
69.175
72.701
76.174
79.598
82.976
86.312
89.61
92.873
96.105
99.309
102.488
105.645
108.779
111.893
114.984
118.053
121.096
124.11
127.09
130.032
132.927
135.769
138.548
141.254
143.876
146.403
148.821
151.118
153.279
155.291
157.139
158.807
160.282
161.548
162.592
163.398
163.953
164.243
164.256
163.98
163.405
162.521
161.322
159.8
157.951
155.772
153.264
150.427
147.264
143.78
139.982
135.88
131.485
126.809
121.87
116.682
111.266
105.643
99.834
93.865
87.76
81.545
75.246
68.892
62.509
56.128
49.775
43.479
37.269
31.174
25.221
19.436
13.847
8.477
3.349
-1.513
-6.09
-10.365
-14.322
-17.947
-21.228
-24.157
-26.725
-28.928
-30.766
-32.239
-33.351
-34.106
-34.515
-34.59
-34.347
-33.802
-32.976
-31.888
-30.56
-29.019
-27.287
-25.388
-23.345
-21.183
-18.927
-16.605
-14.243
-11.87
-9.513
-7.202
-4.964
-2.827
-0.815
1.052
2.76
4.291
5.631
6.76
7.657
8.305
8.694
8.814
8.661
8.242
7.573
6.684
5.617
4.406
3.088
1.69
0.234
-1.251
-2.747
-4.237
-5.692
-7.092
-8.417
-9.653
-10.803
-11.898
-12.986
-14.136
-15.447
-16.995
-18.852
-21.092
-23.773
-26.952
-30.677
-34.954
-39.772
-45.161
-51.155
-57.705
-64.673
-71.75
-78.495
-84.551
-89.581
-93.166
-94.961
-94.821
-92.808
-89.459
-85.659
-81.996
-78.987
-77.37
-77.404
-78.865
-81.348
-82.744
-80.628
-74.237
-61.931
-43.604
-19.939
11.185
48.967
92.815
142.723
194.966
250.029
306.675
359.168
401.865
421.206
405.049
349.912
257.117
139.11
12.263
-110.534
-217.385
-301.212
-358.677
-389.511
-397.9
-390.251
-374.531
-356.153
-337.413
-319.597
-301.844
-284.064
-267.646
-253.793
-243.899
-238.394
-235.983
-234.262
-231.101
-225.572
-217.456
-207.035
-194.642
-180.211
-164.249
-148.043
-132.647
-118.743
-106.696
-96.427
-87.965
-81.592
-77.299
-74.805
-73.809
-73.963
-75.034
-76.954
-79.596
-82.763
-86.268
-89.922
-93.595
-97.223
-100.732
-104.032
-107.003
-109.532
-111.562
-113.068
-114.063
-114.584
-114.662
-114.341
-113.696
-112.802
-111.754
-110.672
-109.623
-108.646
-107.771
-107.01
-106.395
-105.961
-105.706
-105.611
-105.65
-105.792
-106.013
-106.292
-106.581
-106.826
-106.967
-106.936
-106.688
-106.192
-105.417
-104.344
-102.953
-101.227
-99.163
-96.769
-94.05
-91.008
-87.645
-83.964
-79.976
-75.697
-71.148
-66.348
-61.318
-56.076
-50.646
-45.051
-39.31
-33.446
-27.481
-21.435
-15.331
-9.196
-3.057
3.057
9.117
15.096
20.963
26.691
32.25
37.616
42.762
47.666
52.306
56.66
60.708
64.433
67.819
70.85
73.514
75.801
77.701
79.209
80.319
81.03
81.341
81.255
80.774
79.904
78.653
77.031
75.047
72.717
70.054
67.075
63.8
60.246
56.435
52.389
48.131
43.683
39.071
34.317
29.447
24.486
19.456
14.384
9.293
4.206
-0.853
-5.862
-10.799
-15.642
-20.372
-24.968
-29.413
-33.689
-37.779
-41.669
-45.344
-48.792
-52.001
-54.962
-57.667
-60.107
-62.279
-64.177
-65.8
-67.145
-68.212
-69.002
-69.519
-69.764
-69.743
-69.462
-68.928
-68.147
-67.129
-65.883
-64.42
-62.749
-60.883
-58.833
-56.612
-54.233
-51.708
-49.053
-46.28
-43.405
-40.441
-37.404
-34.308
-31.167
-27.997
-24.81
-21.622
-18.446
-15.295
-12.183
-9.122
-6.125
-3.204
-0.37
2.367
4.996
7.508
9.895
12.149
14.262
16.229
18.044
19.701
21.198
22.53
23.695
24.691
25.518
26.174
26.662
26.981
27.134
27.124
26.954
26.628
26.149
25.523
24.755
23.851
22.817
21.661
20.389
19.01
17.531
15.961
14.309
12.582
10.789
8.938
7.039
5.097
3.123
1.122
-0.898
-2.928
-4.962
-6.994
-9.018
-11.027
-13.018
-14.984
-16.921
-18.826
-20.695
-22.525
-24.312
-26.053
-27.745
-29.386
-30.974
-32.505
-33.98
-35.397
-36.755
-38.055
-39.299
-40.487
-41.619
-42.698
-43.725
-44.702
-45.631
-46.513
-47.35
-48.144
-48.898
-49.615
-50.297
-50.946
-51.567
-52.159
-52.728
-53.275
-53.802
-54.311
-54.806
-55.288
-55.76
-56.227
-56.693
-57.163
-57.644
-58.142
-58.662
-59.213
-59.797
-60.42
-61.082
-61.785
-62.527
-63.307
-64.124
-64.975
-65.864
-66.793
-67.763
-68.774
-69.824
-70.909
-72.026
-73.171
-74.33
-75.496
-76.658
-77.816
-78.984
-80.168
-81.37
-82.586
-83.799
-84.991
-86.147
-87.239
-88.223
-89.057
-89.696
-90.111
-90.306
-90.279
-90.027
-89.53
-88.743
-87.64
-86.231
-84.535
-82.58
-80.403
-78.037
-75.543
-73.034
-70.619
-68.415
-66.514
-64.957
-63.788
-63.034
-62.767
-63.117
-64.081
-65.514
-67.133
-68.531
-69.36
-69.359
-68.166
-65.407
-60.994
-55.118
-48.503
-42.208
-37.039
-33.841
-33.271
-35.367
-39.92
-45.352
-49.08
-49.492
-44.565
-33.761
-17.19
8.329
44.341
92.261
152.085
216.377
278.345
332.063
372.917
402.997
423.05
430.368
419.486
382.147
313.826
217.032
102.535
-14.701
-119.887
-201.99
-258.389
-291.977
-309.109
-316.215
-315.468
-306.284
-286.89
-257.273
-220.541
-181.091
-143.388
-110.387
-83.411
-63.234
-49.912
-42.771
-40.533
-41.458
-43.732
-45.742
-46.326
-44.542
-39.84
-32.245
-22.257
-10.737
1.245
12.572
22.48
30.43
36.117
39.572
40.989
40.72
39.258
37.134
34.736
32.353
30.167
28.225
26.585
25.281
24.342
23.83
23.802
24.312
25.403
27.09
29.358
32.173
35.471
39.164
43.153
47.324
51.596
55.928
60.286
64.651
68.992
73.252
77.4
81.427
85.327
89.107
92.774
96.328
99.793
103.215
106.645
110.136
113.728
117.432
121.262
125.227
129.333
133.591
137.999
142.543
147.215
152.012
156.931
161.972
167.126
172.377
177.708
183.103
188.549
194.034
199.548
205.076
210.61
216.141
221.661
227.166
232.646
238.089
243.483
248.812
254.064
259.222
264.272
269.195
273.976
278.599
283.048
287.31
291.368
295.208
298.815
302.175
305.273
308.096
310.631
312.865
314.784
316.378
317.637
318.55
319.109
319.303
319.127
318.574
317.637
316.312
314.595
312.485
309.98
307.082
303.793
300.118
296.064
291.638
286.851
281.714
276.242
270.447
264.347
257.96
251.303
244.398
237.266
229.929
222.411
214.736
206.929
199.016
191.024
182.979
174.909
166.84
158.801
150.818
142.918
135.128
127.474
119.98
112.672
105.574
98.706
92.091
85.747
79.693
73.944
68.516
63.419
58.665
54.261
50.214
46.528
43.205
40.244
37.644
35.402
33.51
31.962
30.747
29.856
29.274
28.989
28.983
29.242
29.746
30.476
31.414
32.539
33.83
35.265
36.822
38.48
40.216
42.008
43.833
45.671
47.5
49.299
51.049
52.731
54.326
55.819
57.192
58.432
59.525
60.459
61.224
61.808
62.206
62.408
62.411
62.209
61.8
61.182
60.354
59.317
58.071
56.62
54.966
53.114
51.069
48.836
46.423
43.837
41.086
38.179
35.124
31.933
28.614
25.179
21.637
18
14.278
10.482
6.623
2.711
-1.241
-5.224
-9.228
-13.242
-17.255
-21.258
-25.242
-29.198
-33.116
-36.987
-40.803
-44.555
-48.234
-51.832
-55.341
-58.754
-62.062
-65.258
-68.336
-71.29
-74.113
-76.799
-79.344
-81.742
-83.988
-86.076
-88.003
-89.765
-91.358
-92.778
-94.024
-95.094
-95.986
-96.699
-97.233
-97.587
-97.762
-97.758
-97.578
-97.222
-96.693
-95.995
-95.132
-94.11
-92.936
-91.617
-90.161
-88.576
-86.871
-85.056
-83.142
-81.137
-79.054
-76.904
-74.7
-72.456
-70.189
-67.914
-65.648
-63.408
-61.21
-59.07
-57.004
-55.022
-53.138
-51.362
-49.703
-48.174
-46.784
-45.544
-44.463
-43.55
-42.814
-42.262
-41.897
-41.72
-41.733
-41.932
-42.317
-42.888
-43.646
-44.603
-45.763
-47.125
-48.683
-50.427
-52.342
-54.406
-56.589
-58.846
-61.129
-63.392
-65.591
-67.694
-69.674
-71.503
-73.148
-74.563
-75.714
-76.6
-77.229
-77.615
-77.77
-77.699
-77.448
-77.132
-76.891
-76.862
-77.165
-77.873
-79.065
-80.871
-83.341
-86.437
-90.017
-93.767
-97.406
-100.796
-103.776
-106.078
-107.58
-108.296
-108.417
-108.521
-109.078
-110.146
-111.804
-114.246
-117.38
-120.781
-123.642
-124.52
-121.967
-115.153
-103.271
-85.166
-59.887
-26.975
13.662
60.298
109.365
158.151
204.043
246.205
287.717
329.575
368.595
397.681
404.05
376.786
314.027
220.156
105.147
-17.622
-138.364
-247.922
-335.375
-393.939
-420.529
-415.98
-387.516
-343.267
-289.452
-233.213
-182.114
-142.195
-117.641
-108.061
-107.214
-108.959
-110.112
-110.196
-111.98
-117.116
-124.3
-131.259
-135.429
-135.521
-131.869
-125.407
-117.226
-108.375
-99.883
-92.519
-86.701
-82.576
-79.972
-78.593
-78.138
-78.179
-78.249
-78.063
-77.468
-76.438
-75.055
-73.367
-71.4
-69.225
-66.914
-64.514
-62.062
-59.56
-57.009
-54.441
-51.906
-49.464
-47.163
-45.019
-43.042
-41.233
-39.591
-38.114
-36.795
-35.612
-34.553
-33.607
-32.768
-32.029
-31.378
-30.796
-30.26
-29.749
-29.241
-28.723
-28.181
-27.602
-26.978
-26.301
-25.566
-24.771
-23.91
-22.977
-21.965
-20.869
-19.684
-18.409
-17.041
-15.58
-14.026
-12.382
-10.651
-8.84
-6.952
-4.994
-2.972
-0.894
1.233
3.398
5.593
7.806
10.027
12.243
14.441
16.609
18.733
20.799
22.794
24.703
26.514
28.212
29.785
31.219
32.502
33.622
34.568
35.329
35.894
36.255
36.403
36.33
36.03
35.498
34.731
33.724
32.478
30.99
29.262
27.295
25.091
22.655
19.991
17.105
14.004
10.696
7.191
3.498
-0.37
-4.401
-8.583
-12.901
-17.342
-21.89
-26.53
-31.246
-36.021
-40.84
-45.685
-50.54
-55.387
-60.21
-64.993
-69.72
-74.374
-78.943
-83.41
-87.763
-91.99
-96.078
-100.015
-103.793
-107.402
-110.832
-114.077
-117.131
-119.988
-122.645
-125.099
-127.348
-129.392
-131.231
-132.867
-134.303
-135.542
-136.589
-137.45
-138.131
-138.639
-138.984
-139.173
-139.217
-139.125
-138.908
-138.576
-138.141
-137.611
-136.998
-136.312
-135.562
-134.757
-133.908
-133.022
-132.107
-131.172
-130.224
-129.268
-128.311
-127.358
-126.414
-125.481
-124.564
-123.664
-122.784
-121.925
-121.088
-120.273
-119.479
-118.705
-117.949
-117.209
-116.482
-115.763
-115.05
-114.338
-113.623
-112.9
-112.166
-111.416
-110.648
-109.858
-109.043
-108.2
-107.329
-106.428
-105.495
-104.531
-103.535
-102.508
-101.452
-100.369
-99.26
-98.129
-96.978
-95.811
-94.631
-93.441
-92.247
-91.051
-89.858
-88.674
-87.502
-86.349
-85.219
-84.118
-83.051
-82.024
-81.042
-80.11
-79.231
-78.41
-77.65
-76.953
-76.32
-75.754
-75.252
-74.816
-74.443
-74.131
-73.876
-73.675
-73.522
-73.412
-73.338
-73.294
-73.272
-73.264
-73.262
-73.257
-73.241
-73.206
-73.142
-73.041
-72.893
-72.691
-72.424
-72.084
-71.661
-71.148
-70.535
-69.816
-68.983
-68.03
-66.95
-65.74
-64.396
-62.917
-61.301
-59.55
-57.665
-55.649
-53.507
-51.245
-48.872
-46.395
-43.824
-41.171
-38.45
-35.678
-32.871
-30.044
-27.215
-24.402
-21.624
-18.899
-16.242
-13.668
-11.192
-8.831
-6.602
-4.522
-2.608
-0.874
0.662
1.986
3.085
3.948
4.57
4.951
5.087
4.977
4.614
3.989
3.096
1.94
0.523
-1.143
-3.042
-5.155
-7.447
-9.879
-12.414
-15.018
-17.662
-20.323
-22.966
-25.566
-28.096
-30.512
-32.78
-34.871
-36.763
-38.458
-39.981
-41.347
-42.592
-43.758
-44.876
-46.004
-47.202
-48.524
-50.044
-51.774
-53.736
-56.022
-58.668
-61.642
-64.811
-67.819
-70.24
-71.817
-72.279
-71.285
-68.66
-64.335
-58.578
-52.219
-46.249
-41.408
-38.208
-37.251
-38.968
-43.261
-49.463
-55.238
-56.934
-52.701
-41.59
-23.528
-0.635
29.133
69.268
120.458
184.798
258.269
333.703
409.494
480.894
543.58
593.215
615.351
598.113
536.466
430.524
295.121
149.48
9.737
-108.992
-200.312
-262.803
-296.549
-304.812
-291.02
-260.603
-220.644
-179.674
-145.407
-120.275
-102.82
-87.429
-68.828
-46.812
-24.232
-5.848
5.082
8.593
6.445
1.152
-5.424
-11.856
-16.821
-19.669
-20.088
-18.056
-13.959
-8.164
-1.056
6.563
13.741
19.882
24.702
28.218
30.71
32.426
33.536
34.331
35.162
36.23
37.637
39.383
41.349
43.448
45.642
47.875
50.092
52.263
54.352
56.334
58.198
59.911
61.445
62.789
63.929
64.864
65.604
66.156
66.545
66.801
66.948
67.001
66.977
66.887
66.75
66.593
66.437
66.308
66.228
66.219
66.303
66.501
66.828
67.296
67.914
68.687
69.624
70.732
72.017
73.485
75.139
76.978
79.005
81.218
83.612
86.181
88.918
91.812
94.854
98.031
101.332
104.741
108.244
111.825
115.466
119.149
122.855
126.563
130.253
133.904
137.493
140.999
144.4
147.674
150.8
153.757
156.525
159.086
161.423
163.518
165.357
166.927
168.215
169.212
169.908
170.296
170.371
170.13
169.569
168.69
167.493
165.982
164.162
162.038
159.621
156.918
153.943
150.708
147.229
143.521
139.602
135.493
131.214
126.787
122.235
117.582
112.852
108.071
103.262
98.452
93.666
88.927
84.26
79.688
75.235
70.921
66.768
62.795
59.023
55.467
52.146
49.074
46.264
43.73
41.483
39.53
37.88
36.539
35.51
34.796
34.396
34.309
34.531
35.056
35.876
36.981
38.36
39.999
41.885
44
46.328
48.85
51.549
54.403
57.394
60.5
63.702
66.979
70.31
73.673
77.05
80.419
83.76
87.054
90.282
93.426
96.468
99.392
102.183
104.825
107.306
109.613
111.736
113.667
115.396
116.92
118.233
119.334
120.222
120.897
121.362
121.621
121.678
121.54
121.214
120.707
120.029
119.188
118.194
117.058
115.791
114.405
112.91
111.32
109.647
107.902
106.1
104.251
102.368
100.465
98.552
96.641
94.744
92.872
91.033
89.238
87.495
85.811
84.191
82.643
81.169
79.774
78.459
77.225
76.074
75.005
74.018
73.112
72.285
71.535
70.86
70.257
69.723
69.254
68.846
68.496
68.199
67.951
67.745
67.579
67.446
67.341
67.261
67.198
67.149
67.109
67.073
67.037
66.997
66.949
66.892
66.823
66.741
66.646
66.537
66.416
66.284
66.142
65.992
65.835
65.673
65.508
65.342
65.177
65.014
64.856
64.706
64.565
64.437
64.324
64.229
64.154
64.102
64.074
64.072
64.098
64.153
64.239
64.356
64.505
64.686
64.898
65.14
65.411
65.706
66.021
66.349
66.682
67.011
67.328
67.624
67.888
68.114
68.293
68.42
68.491
68.501
68.444
68.316
68.107
67.81
67.415
66.912
66.294
65.554
64.688
63.691
62.567
61.315
59.935
58.422
56.762
54.942
52.958
50.808
48.495
46.04
43.464
40.796
38.083
35.365
32.683
30.073
27.55
25.122
22.799
20.592
18.532
16.654
14.961
13.446
12.088
10.842
9.664
8.488
7.206
5.723
3.946
1.786
-0.806
-3.863
-7.423
-11.484
-16.097
-21.331
-27.12
-33.304
-39.615
-45.619
-50.948
-55.282
-58.153
-59.179
-58.275
-55.55
-51.581
-47.305
-43.446
-40.698
-39.752
-40.82
-43.668
-47.572
-50.916
-51.768
-48.278
-38.301
-19.932
8.229
46.237
91.887
141.996
193.067
243.181
293.839
345.562
396.06
439.57
463.173
454.178
405.991
317.483
198.741
66.102
-64.673
-177.685
-262.958
-315.986
-336.593
-330.498
-304.547
-268.39
-231.338
-198.371
-173.843
-156.112
-139.726
-122.263
-101.376
-78.879
-60.204
-47.45
-41.318
-41.057
-44.014
-48.917
-55.079
-61.138
-66.124
-69.493
-70.904
-70.541
-68.766
-65.718
-61.733
-57.587
-53.966
-51.249
-49.591
-48.812
-48.648
-48.99
-49.658
-50.339
-50.823
-50.988
-50.785
-50.316
-49.687
-48.945
-48.157
-47.389
-46.679
-46.07
-45.593
-45.26
-45.083
-45.072
-45.229
-45.557
-46.05
-46.696
-47.48
-48.377
-49.36
-50.409
-51.506
-52.638
-53.79
-54.943
-56.073
-57.158
-58.176
-59.108
-59.935
-60.634
-61.187
-61.579
-61.798
-61.835
-61.681
-61.322
-60.75
-59.953
-58.924
-57.659
-56.152
-54.401
-52.406
-50.17
-47.698
-44.997
-42.075
-38.943
-35.61
-32.089
-28.393
-24.537
-20.538
-16.411
-12.177
-7.853
-3.461
0.977
5.439
9.902
14.345
18.742
23.07
27.305
31.423
35.401
39.216
42.845
46.267
49.462
52.41
55.095
57.5
59.611
61.415
62.902
64.065
64.895
65.388
65.542
65.355
64.827
63.962
62.764
61.237
59.391
57.233
54.775
52.027
49.004
45.719
42.19
38.432
34.465
30.306
25.978
21.501
16.896
12.188
7.397
2.548
-2.336
-7.233
-12.12
-16.974
-21.775
-26.5
-31.13
-35.646
-40.03
-44.265
-48.335
-52.225
-55.921
-59.413
-62.689
-65.74
-68.558
-71.135
-73.467
-75.547
-77.374
-78.946
-80.261
-81.321
-82.127
-82.684
-82.997
-83.073
-82.918
-82.544
-81.959
-81.176
-80.208
-79.068
-77.77
-76.331
-74.766
-73.091
-71.324
-69.482
-67.583
-65.642
-63.679
-61.709
-59.75
-57.818
-55.929
-54.098
-52.34
-50.671
-49.103
-47.649
-46.324
-45.138
-44.101
-43.224
-42.515
-41.982
-41.63
-41.464
-41.487
-41.701
-42.107
-42.702
-43.485
-44.451
-45.594
-46.908
-48.382
-50.008
-51.775
-53.669
-55.678
-57.788
-59.983
-62.249
-64.569
-66.927
-69.308
-71.694
-74.069
-76.417
-78.72
-80.963
-83.13
-85.205
-87.173
-89.022
-90.737
-92.307
-93.72
-94.968
-96.04
-96.931
-97.635
-98.146
-98.463
-98.583
-98.507
-98.238
-97.779
-97.135
-96.312
-95.32
-94.167
-92.864
-91.424
-89.857
-88.178
-86.4
-84.538
-82.607
-80.621
-78.597
-76.549
-74.493
-72.445
-70.42
-68.433
-66.496
-64.624
-62.829
-61.121
-59.513
-58.012
-56.627
-55.364
-54.231
-53.232
-52.371
-51.652
-51.075
-50.64
-50.347
-50.195
-50.178
-50.294
-50.536
-50.897
-51.372
-51.955
-52.638
-53.415
-54.276
-55.215
-56.224
-57.295
-58.42
-59.591
-60.799
-62.037
-63.298
-64.577
-65.871
-67.175
-68.488
-69.81
-71.142
-72.486
-73.842
-75.209
-76.588
-77.978
-79.38
-80.793
-82.216
-83.647
-85.089
-86.544
-88.017
-89.508
-91.017
-92.542
-94.084
-95.644
-97.221
-98.809
-100.406
-102.009
-103.623
-105.263
-106.934
-108.634
-110.359
-112.1
-113.845
-115.585
-117.292
-118.918
-120.42
-121.745
-122.864
-123.771
-124.443
-124.861
-124.994
-124.808
-124.304
-123.509
-122.426
-121.054
-119.391
-117.451
-115.33
-113.178
-111.129
-109.325
-107.843
-106.761
-106.228
-106.285
-106.879
-107.873
-108.958
-109.884
-110.607
-110.975
-110.724
-109.842
-108.375
-106.6
-105.178
-104.326
-103.914
-104.03
-104.801
-106.119
-107.693
-108.524
-107.06
-102.554
-94.576
-82.481
-65.663
-43.21
-14.501
19.855
58.739
100.558
142.667
182.662
217.7
246.794
272.271
294.125
311.304
318.137
302.084
256.893
180.009
73.959
-45.833
-166.152
-273.418
-352.012
-400.003
-418.958
-414.089
-398.297
-375.807
-349.484
-323.862
-298.701
-278.805
-266.87
-259.37
-254.519
-248.412
-239.028
-229.137
-219.832
-211.635
-204.653
-197.259
-188.908
-180.085
-171.195
-162.897
-155.758
-150.099
-146.077
-143.674
-142.664
-142.637
-143.244
-144.249
-145.387
-146.398
-147.089
-147.298
-146.955
-146.093
-144.707
-142.762
-140.214
-136.994
-133.1
-128.601
-123.596
-118.222
-112.611
-106.865
-101.099
-95.433
-89.954
-84.721
-79.763
-75.065
-70.627
-66.465
-62.598
-59.06
-55.862
-52.988
-50.412
-48.088
-45.975
-44.038
-42.232
-40.511
-38.839
-37.186
-35.539
-33.9
-32.26
-30.607
-28.922
-27.184
-25.372
-23.472
-21.467
-19.345
-17.091
-14.693
-12.142
-9.432
-6.557
-3.508
-0.279
3.143
6.763
10.586
14.613
18.844
23.277
27.908
32.729
37.73
42.899
48.222
53.686
59.276
64.974
70.762
76.621
82.53
88.467
94.411
100.337
106.222
112.042
117.772
123.387
128.863
134.177
139.304
144.222
148.909
153.344
157.508
161.381
164.948
168.193
171.102
173.664
175.867
177.705
179.17
180.258
180.969
181.302
181.259
180.844
180.064
178.927
177.441
175.619
173.473
171.019
168.271
165.249
161.969
158.452
154.719
150.791
146.69
142.438
138.059
133.575
129.01
124.387
119.73
115.06
110.4
105.772
101.196
96.693
92.281
87.979
83.803
79.768
75.89
72.181
68.653
65.315
62.178
59.246
56.527
54.024
51.739
49.674
47.828
46.198
44.783
43.577
42.574
41.767
41.15
40.712
40.444
40.336
40.375
40.551
40.85
41.26
41.769
42.362
43.028
43.753
44.525
45.33
46.158
46.995
47.832
48.657
49.46
50.231
50.963
51.646
52.275
52.844
53.347
53.781
54.142
54.43
54.641
54.777
54.838
54.826
54.743
54.593
54.379
54.107
53.781
53.408
52.994
52.544
52.066
51.567
51.051
50.527
49.999
49.474
48.958
48.454
47.968
47.504
47.066
46.655
46.275
45.927
45.611
45.326
45.072
44.846
44.647
44.47
44.312
44.169
44.035
43.904
43.771
43.628
43.468
43.285
43.07
42.817
42.518
42.166
41.755
41.28
40.736
40.119
39.425
38.652
37.8
36.867
35.856
34.768
33.606
32.376
31.085
29.74
28.352
26.93
25.486
24.034
22.586
21.158
19.764
18.42
17.142
15.947
14.852
13.874
13.03
12.337
11.811
11.47
11.328
11.397
11.692
12.221
12.994
14.018
15.299
16.841
18.644
20.708
23.03
25.604
28.424
31.479
34.755
38.236
41.899
45.726
49.692
53.773
57.94
62.167
66.426
70.692
74.937
79.134
83.256
87.272
91.152
94.866
98.383
101.674
104.71
107.468
109.925
112.063
113.87
115.335
116.449
117.197
117.563
117.533
117.102
116.272
115.048
113.45
111.503
109.24
106.71
103.959
101.032
97.971
94.806
91.56
88.255
84.926
81.619
78.38
75.238
72.207
69.289
66.47
63.731
61.039
58.328
55.541
52.619
49.497
46.146
42.568
38.766
34.761
30.52
25.945
21.077
16.081
11.191
6.753
3.039
0.22
-1.314
-1.032
1.21
5.285
10.815
16.989
23.195
29.015
33.572
35.939
36.64
37.202
39.139
44.045
50.811
56.781
62.474
71.203
89.093
122.913
174.563
240.869
315.301
390.432
460.028
517.309
555.944
569.79
552.615
504.512
429.483
331.988
220.767
103.44
-12.788
-115.214
-193.759
-243.525
-262.985
-260.146
-245.056
-222.491
-197.903
-172.113
-144.201
-117.838
-92.868
-69.768
-50.64
-34.628
-23.467
-18.451
-18.695
-23.761
-31.869
-41.041
-49.877
-57.008
-61.838
-64.241
-64.332
-62.658
-59.717
-56.065
-52.588
-49.919
-48.371
-48.104
-48.954
-50.592
-52.774
-55.198
-57.475
-59.395
-60.85
-61.782
-62.266
-62.383
-62.178
-61.73
-61.119
-60.378
-59.545
-58.652
-57.717
-56.786
-55.904
-55.091
-54.37
-53.746
-53.214
-52.774
-52.413
-52.11
-51.847
-51.608
-51.384
-51.17
-50.958
-50.731
-50.473
-50.162
-49.783
-49.32
-48.757
-48.08
-47.279
-46.343
-45.27
-44.055
-42.694
-41.178
-39.5
-37.652
-35.628
-33.421
-31.026
-28.438
-25.653
-22.671
-19.492
-16.117
-12.549
-8.79
-4.842
-0.71
3.601
8.083
12.73
17.533
22.484
27.571
32.781
38.103
43.523
49.027
54.6
60.228
65.892
71.579
77.27
82.949
88.6
94.204
99.744
105.203
110.562
115.805
120.914
125.871
130.66
135.265
139.669
143.857
147.816
151.53
154.987
158.174
161.08
163.694
166.007
168.01
169.697
171.06
172.096
172.801
173.172
173.208
172.91
172.279
171.316
170.027
168.416
166.488
164.25
161.711
158.878
155.762
152.375
148.726
144.83
140.7
136.351
131.796
127.053
122.137
117.065
111.855
106.524
101.089
95.57
89.983
84.347
78.679
72.998
67.32
61.663
56.042
50.473
44.972
39.552
34.227
29.01
23.913
18.946
14.12
9.445
4.928
0.578
-3.6
-7.6
-11.418
-15.049
-18.493
-21.746
-24.81
-27.684
-30.369
-32.869
-35.185
-37.322
-39.284
-41.077
-42.706
-44.177
-45.498
-46.677
-47.719
-48.635
-49.43
-50.115
-50.696
-51.181
-51.578
-51.896
-52.14
-52.319
-52.439
-52.506
-52.527
-52.508
-52.453
-52.368
-52.256
-52.122
-51.968
-51.799
-51.616
-51.423
-51.219
-51.009
-50.792
-50.57
-50.344
-50.114
-49.88
-49.642
-49.401
-49.156
-48.906
-48.652
-48.392
-48.126
-47.855
-47.579
-47.297
-47.01
-46.719
-46.425
-46.13
-45.835
-45.541
-45.253
-44.971
-44.699
-44.44
-44.196
-43.973
-43.773
-43.599
-43.454
-43.343
-43.268
-43.232
-43.238
-43.287
-43.381
-43.522
-43.711
-43.948
-44.234
-44.568
-44.951
-45.382
-45.86
-46.383
-46.949
-47.554
-48.195
-48.868
-49.569
-50.29
-51.028
-51.774
-52.522
-53.265
-53.996
-54.708
-55.392
-56.042
-56.647
-57.202
-57.699
-58.13
-58.488
-58.765
-58.957
-59.06
-59.069
-58.984
-58.8
-58.517
-58.135
-57.654
-57.075
-56.399
-55.628
-54.765
-53.813
-52.779
-51.67
-50.495
-49.262
-47.984
-46.674
-45.344
-44.006
-42.673
-41.354
-40.061
-38.802
-37.587
-36.424
-35.322
-34.29
-33.339
-32.478
-31.717
-31.062
-30.515
-30.079
-29.758
-29.551
-29.452
-29.461
-29.576
-29.802
-30.155
-30.645
-31.27
-32.029
-32.914
-33.914
-35.021
-36.207
-37.424
-38.626
-39.762
-40.802
-41.743
-42.569
-43.257
-43.774
-44.072
-44.135
-43.981
-43.606
-42.989
-42.104
-40.94
-39.562
-38.121
-36.762
-35.619
-34.773
-34.276
-34.26
-34.808
-35.896
-37.398
-39.003
-40.361
-41.319
-41.754
-41.425
-40.282
-38.449
-36.225
-34.386
-33.712
-34.592
-37.406
-42.571
-50.072
-59.396
-69.454
-78.325
-83.923
-84.652
-78.935
-64.984
-41.46
-7.831
35.629
86.445
140.507
194.638
245.207
290.67
332.553
368.988
397.21
411.408
400.154
358.322
284.676
181.913
63.848
-57.376
-169.745
-258.933
-321.361
-357.06
-369.7
-370.112
-363.535
-351.727
-335.427
-311.77
-281.417
-248.223
-215.662
-187.928
-167.621
-154.925
-149.475
-150.261
-155.536
-163.548
-172.615
-180.757
-186.341
-188.497
-186.699
-180.939
-171.858
-160.26
-147.083
-133.545
-120.539
-108.536
-97.906
-88.72
-80.826
-74.033
-67.972
-62.208
-56.573
-51.111
-45.922
-41.165
-36.927
-33.233
-30.177
-27.834
-26.198
-25.186
-24.629
-24.377
-24.365
-24.581
-25.031
-25.683
-26.44
-27.175
-27.796
-28.241
-28.469
-28.445
-28.114
-27.46
-26.519
-25.373
-24.139
-22.893
-21.666
-20.466
-19.296
-18.167
-17.111
-16.155
-15.3
-14.543
-13.885
-13.324
-12.866
-12.498
-12.179
-11.848
-11.435
-10.888
-10.176
-9.275
-8.165
-6.828
-5.251
-3.429
-1.369
0.923
3.448
6.207
9.203
12.433
15.883
19.538
23.38
27.393
31.561
35.87
40.302
44.842
49.476
54.191
58.974
63.812
68.686
73.577
78.463
83.324
88.138
92.883
97.535
102.074
106.478
110.727
114.802
118.685
122.359
125.808
129.018
131.974
134.664
137.077
139.203
141.033
142.562
143.783
144.693
145.29
145.574
145.545
145.206
144.562
143.618
142.38
140.856
139.056
136.992
134.676
132.121
129.344
126.36
123.187
119.842
116.345
112.714
108.967
105.125
101.206
97.228
93.21
89.17
85.125
81.091
77.086
73.124
69.22
65.386
61.635
57.976
54.421
50.976
47.649
44.447
41.373
38.431
35.624
32.952
30.415
28.013
25.742
23.6
21.583
19.684
17.899
16.22
14.64
13.153
11.749
10.423
9.164
7.965
6.819
5.717
4.652
3.617
2.605
1.61
0.626
-0.35
-1.324
-2.299
-3.276
-4.258
-5.245
-6.239
-7.238
-8.242
-9.249
-10.258
-11.265
-12.268
-13.262
-14.244
-15.211
-16.156
-17.077
-17.968
-18.826
-19.646
-20.423
-21.156
-21.839
-22.47
-23.046
-23.565
-24.026
-24.427
-24.768
-25.05
-25.273
-25.439
-25.551
-25.611
-25.624
-25.594
-25.525
-25.424
-25.295
-25.146
-24.982
-24.811
-24.64
-24.476
-24.327
-24.201
-24.105
-24.047
-24.034
-24.073
-24.171
-24.333
-24.566
-24.874
-25.262
-25.734
-26.294
-26.944
-27.686
-28.521
-29.451
-30.473
-31.587
-32.791
-34.08
-35.452
-36.901
-38.423
-40.012
-41.661
-43.363
-45.112
-46.898
-48.715
-50.551
-52.398
-54.245
-56.082
-57.897
-59.68
-61.419
-63.104
-64.724
-66.269
-67.728
-69.091
-70.35
-71.493
-72.512
-73.4
-74.149
-74.751
-75.2
-75.491
-75.621
-75.588
-75.39
-75.026
-74.497
-73.804
-72.949
-71.934
-70.764
-69.443
-67.976
-66.369
-64.633
-62.777
-60.814
-58.758
-56.623
-54.423
-52.177
-49.9
-47.608
-45.314
-43.033
-40.777
-38.562
-36.402
-34.312
-32.305
-30.396
-28.598
-26.925
-25.388
-23.995
-22.749
-21.657
-20.718
-19.939
-19.323
-18.878
-18.616
-18.547
-18.67
-18.987
-19.494
-20.176
-21.016
-21.989
-23.054
-24.176
-25.317
-26.436
-27.504
-28.496
-29.379
-30.125
-30.687
-31.026
-31.135
-31.016
-30.674
-30.118
-29.348
-28.399
-27.365
-26.365
-25.51
-24.906
-24.612
-24.707
-25.328
-26.531
-28.293
-30.477
-32.771
-34.902
-36.726
-38.071
-38.656
-38.301
-36.99
-35.004
-33.043
-31.669
-31.059
-31.322
-32.669
-35.24
-38.776
-42.382
-44.435
-43.348
-38.148
-28.095
-12.122
11.019
42.078
81.157
126.649
175.449
225.107
273.269
318.51
362.223
404.828
443.754
473.831
484.689
465.502
412.488
327.543
218.112
96.844
-25.496
-139.336
-233.32
-300.91
-340.852
-355.114
-351.156
-335.047
-307.599
-270.118
-225.424
-179.613
-142.163
-118.978
-109.865
-109.582
-111.156
-110.582
-107.645
-105.037
-104.956
-107.196
-110.235
-111.711
-110.315
-106.227
-100.142
-93.026
-85.671
-78.688
-72.487
-67.331
-63.336
-60.398
-58.372
-57.065
-56.156
-55.289
-54.238
-52.87
-51.158
-49.182
-47
-44.671
-42.296
-39.995
-37.888
-36.111
-34.773
-33.925
-33.568
-33.663
-34.186
-35.134
-36.498
-38.263
-40.39
-42.828
-45.536
-48.478
-51.62
-54.91
-58.274
-61.61
-64.817
-67.821
-70.599
-73.175
-75.56
-77.754
-79.756
-81.544
-83.107
-84.477
-85.663
-86.648
-87.421
-87.944
-88.178
-88.171
-87.991
-87.535
-86.655
-85.389
-83.699
-81.543
-79.181
-75.858
-70.832
-65.116
-59.024
-54.465
-53.727
-54.335
-54.639
-52.165
-43.512
-31.706
-19.33
-8.162
-1.119
3.825
8.719
13.964
20.75
28.273
35.533
42.68
49.584
56.291
62.972
69.487
75.722
81.701
87.438
92.91
98.097
103.012
107.671
112.149
116.576
121.01
125.47
129.975
134.506
139.041
143.575
148.054
152.393
156.521
160.35
163.812
166.88
169.487
171.544
172.923
173.424
172.888
171.236
168.39
164.314
158.991
152.378
144.514
135.516
125.48
114.53
102.79
90.338
77.312
63.896
50.291
36.772
23.604
10.958
-0.991
-12.088
-22.22
-31.225
-39.001
-45.541
-50.797
-54.746
-57.4
-58.745
-58.828
-57.764
-55.664
-52.685
-49.017
-44.76
-40.017
-34.886
-29.409
-23.686
-17.829
-11.9
-6.014
-0.304
5.155
10.282
15.032
19.428
23.476
27.199
30.667
33.885
36.838
39.508
41.806
43.689
45.176
46.285
47.093
47.72
48.239
48.712
49.198
49.704
50.244
50.83
51.426
52.033
52.674
53.39
54.273
55.398
56.781
58.419
60.268
62.242
64.284
66.347
68.369
70.321
72.183
73.932
75.58
77.138
78.592
79.918
81.07
81.998
82.683
83.119
83.315
83.3
83.095
82.716
82.191
81.536
80.758
79.861
78.836
77.666
76.345
74.871
73.25
71.493
69.604
67.586
65.443
63.175
60.783
58.269
55.632
52.872
49.997
47.012
43.93
40.767
37.536
34.251
30.924
27.569
24.195
20.813
17.433
14.061
10.705
7.374
4.078
0.825
-2.375
-5.513
-8.578
-11.562
-14.454
-17.247
-19.932
-22.506
-24.963
-27.303
-29.523
-31.62
-33.594
-35.444
-37.167
-38.76
-40.217
-41.531
-42.699
-43.72
-44.591
-45.314
-45.886
-46.308
-46.587
-46.722
-46.713
-46.554
-46.232
-45.736
-45.073
-44.253
-43.295
-42.228
-41.079
-39.873
-38.652
-37.44
-36.253
-35.093
-33.935
-32.753
-31.539
-30.297
-29.048
-27.816
-26.597
-25.383
-24.162
-22.899
-21.563
-20.12
-18.499
-16.662
-14.614
-12.379
-10.043
-7.718
-5.48
-3.394
-1.499
0.192
1.637
2.793
3.636
4.115
4.194
3.837
2.956
1.487
-0.577
-3.222
-6.351
-9.811
-13.486
-17.268
-21.082
-24.903
-28.685
-32.374
-35.957
-39.419
-42.784
-46.109
-49.368
-52.521
-55.553
-58.435
-61.239
-64.101
-67.123
-70.402
-73.976
-77.795
-81.859
-86.232
-90.867
-95.619
-100.166
-103.946
-106.568
-107.848
-107.549
-105.388
-101.151
-94.733
-86.449
-77.238
-67.919
-58.911
-50.786
-44.118
-39.056
-35.658
-32.698
-27.117
-17.275
-2.67
16.508
38.134
63.634
97.544
142.671
200.955
268.82
337.031
399.33
452.907
497.154
533.849
559.723
563.748
535.863
470.074
367.012
239.872
105.345
-21.692
-127.321
-205.607
-255.054
-276.682
-274.708
-253.082
-218.189
-177.167
-138.448
-110.413
-95.134
-90.102
-88.824
-84.367
-75.238
-63.992
-54.681
-49.888
-48.995
-49.728
-49.911
-48.714
-46.062
-41.729
-35.787
-28.469
-20.3
-12.236
-4.817
1.89
7.792
12.716
16.527
19.157
20.813
22.024
23.165
24.337
25.527
26.605
27.441
28.017
28.28
28.098
27.403
26.173
24.455
22.408
20.159
17.759
15.24
12.581
9.758
6.816
3.816
0.838
-1.997
-4.608
-6.925
-8.863
-10.378
-11.459
-12.132
-12.483
-12.592
-12.492
-12.203
-11.72
-11.028
-10.135
-9.049
-7.768
-6.317
-4.714
-2.976
-1.131
0.813
2.865
5.046
7.402
9.974
12.784
15.844
19.156
22.71
26.501
30.51
34.709
39.077
43.594
48.241
53.004
57.865
62.799
67.779
72.774
77.753
82.685
87.545
92.306
96.944
101.44
105.774
109.932
113.901
117.665
121.21
124.519
127.577
130.371
132.888
135.115
137.041
138.659
139.96
140.94
141.597
141.927
141.931
141.611
140.969
140.008
138.735
137.156
135.279
133.111
130.665
127.949
124.977
121.762
118.316
114.654
110.791
106.741
102.52
98.142
93.623
88.98
84.227
79.381
74.459
69.477
64.452
59.401
54.341
49.287
44.256
39.261
34.318
29.44
24.639
19.928
15.319
10.822
6.446
2.201
-1.906
-5.868
-9.68
-13.337
-16.835
-20.174
-23.351
-26.366
-29.22
-31.915
-34.453
-36.838
-39.073
-41.164
-43.117
-44.939
-46.636
-48.219
-49.694
-51.072
-52.362
-53.575
-54.72
-55.809
-56.85
-57.856
-58.836
-59.801
-60.76
-61.724
-62.702
-63.702
-64.734
-65.803
-66.917
-68.082
-69.303
-70.584
-71.929
-73.34
-74.819
-76.367
-77.985
-79.671
-81.425
-83.243
-85.122
-87.059
-89.048
-91.083
-93.16
-95.27
-97.407
-99.563
-101.731
-103.901
-106.065
-108.214
-110.34
-112.433
-114.483
-116.483
-118.423
-120.295
-122.091
-123.802
-125.423
-126.945
-128.363
-129.671
-130.863
-131.935
-132.882
-133.701
-134.389
-134.944
-135.364
-135.648
-135.797
-135.812
-135.693
-135.443
-135.064
-134.56
-133.933
-133.189
-132.331
-131.365
-130.296
-129.131
-127.875
-126.535
-125.119
-123.632
-122.083
-120.477
-118.822
-117.125
-115.392
-113.629
-111.844
-110.043
-108.232
-106.417
-104.605
-102.802
-101.012
-99.24
-97.491
-95.768
-94.074
-92.412
-90.782
-89.188
-87.63
-86.108
-84.624
-83.178
-81.768
-80.395
-79.057
-77.751
-76.476
-75.229
-74.007
-72.807
-71.625
-70.458
-69.304
-68.16
-67.022
-65.89
-64.758
-63.625
-62.487
-61.341
-60.185
-59.016
-57.833
-56.634
-55.417
-54.185
-52.94
-51.685
-50.424
-49.161
-47.899
-46.645
-45.403
-44.176
-42.965
-41.772
-40.598
-39.447
-38.323
-37.231
-36.177
-35.166
-34.204
-33.296
-32.444
-31.653
-30.922
-30.247
-29.625
-29.058
-28.551
-28.117
-27.768
-27.504
-27.327
-27.229
-27.196
-27.212
-27.251
-27.275
-27.247
-27.132
-26.899
-26.534
-26.025
-25.364
-24.535
-23.504
-22.241
-20.743
-19.024
-17.12
-15.071
-12.912
-10.697
-8.506
-6.443
-4.623
-3.148
-2.09
-1.505
-1.408
-1.855
-2.975
-4.775
-7.148
-9.868
-12.52
-14.774
-16.477
-17.33
-16.925
-15.125
-11.936
-7.705
-3.356
0.461
3.44
5.093
5.098
3.653
1.136
-1.387
-1.878
1.283
9.389
24.116
46.754
77.98
118.317
166.043
216.954
267.76
314.996
357.964
400.054
440.635
476.622
500.139
496.371
457.625
382.522
275.682
153.485
29.986
-83.49
-174.781
-240.788
-280.93
-295.821
-292.46
-275.644
-249.541
-220.634
-192.434
-168.864
-152.137
-139.448
-128.507
-117.279
-105.817
-97.213
-92.664
-91.878
-93.205
-94.042
-93.403
-90.994
-86.42
-79.893
-71.722
-62.496
-53.431
-45.283
-38.218
-32.35
-27.714
-24.322
-22.185
-21.051
-20.341
-19.601
-18.617
-17.29
-15.648
-13.7
-11.388
-8.705
-5.728
-2.548
0.762
4.156
7.642
11.217
14.845
18.47
22.02
25.42
28.63
31.632
34.414
36.974
39.309
41.419
43.322
45.05
46.63
48.081
49.416
50.644
51.784
52.862
53.906
54.941
55.986
57.056
58.164
59.325
60.55
61.848
63.225
64.683
66.226
67.862
69.597
71.436
73.384
75.443
77.615
79.903
82.306
84.822
87.449
90.183
93.018
95.95
98.973
102.079
105.261
108.512
111.821
115.179
118.578
122.005
125.451
128.902
132.349
135.779
139.18
142.539
145.844
149.082
152.242
155.309
158.273
161.121
163.839
166.417
168.842
171.103
173.189
175.088
176.792
178.289
179.573
180.633
181.465
182.059
182.411
182.516
182.37
181.969
181.31
180.393
179.216
177.781
176.088
174.14
171.941
169.495
166.809
163.888
160.742
157.378
153.806
150.038
146.084
141.958
137.673
133.244
128.684
124.01
119.238
114.384
109.465
104.498
99.501
94.49
89.484
84.499
79.551
74.658
69.836
65.098
60.461
55.938
51.541
47.284
43.175
39.227
35.446
31.841
28.418
25.181
22.134
19.279
16.618
14.15
11.873
9.785
7.88
6.155
4.602
3.214
1.984
0.901
-0.044
-0.863
-1.565
-2.163
-2.669
-3.094
-3.452
-3.755
-4.013
-4.241
-4.448
-4.645
-4.844
-5.054
-5.284
-5.543
-5.838
-6.175
-6.561
-7
-7.496
-8.052
-8.669
-9.349
-10.092
-10.896
-11.76
-12.681
-13.656
-14.68
-15.749
-16.857
-17.997
-19.164
-20.35
-21.547
-22.749
-23.948
-25.135
-26.304
-27.447
-28.556
-29.626
-30.648
-31.619
-32.531
-33.38
-34.162
-34.873
-35.511
-36.072
-36.557
-36.962
-37.289
-37.538
-37.708
-37.802
-37.821
-37.767
-37.644
-37.454
-37.2
-36.886
-36.516
-36.095
-35.625
-35.112
-34.559
-33.97
-33.349
-32.7
-32.026
-31.329
-30.614
-29.882
-29.135
-28.373
-27.597
-26.808
-26.005
-25.186
-24.348
-23.489
-22.606
-21.696
-20.756
-19.78
-18.766
-17.71
-16.607
-15.455
-14.25
-12.987
-11.664
-10.278
-8.826
-7.308
-5.72
-4.064
-2.338
-0.545
1.314
3.236
5.216
7.251
9.335
11.462
13.622
15.807
18.006
20.209
22.401
24.568
26.693
28.756
30.742
32.632
34.407
36.047
37.534
38.85
39.983
40.918
41.638
42.13
42.378
42.369
42.088
41.524
40.662
39.493
38.009
36.208
34.093
31.664
28.926
25.88
22.52
18.853
14.885
10.627
6.095
1.311
-3.692
-8.867
-14.158
-19.516
-24.893
-30.247
-35.545
-40.744
-45.816
-50.735
-55.461
-59.968
-64.23
-68.224
-71.946
-75.422
-78.686
-81.795
-84.83
-87.846
-90.898
-94.04
-97.317
-100.781
-104.457
-108.359
-112.487
-116.862
-121.546
-126.497
-131.559
-136.447
-140.724
-143.976
-145.894
-146.106
-144.189
-140.071
-133.889
-126.105
-117.79
-109.822
-102.76
-97.337
-94.026
-92.599
-92.588
-92.867
-91.18
-85.614
-74.597
-56.136
-28.916
7.393
52.893
105.762
161.775
217.29
268.537
313.388
353
386.374
410.042
417.323
398.707
349.853
272.894
175.258
67.573
-42.207
-148.193
-244.217
-322.62
-375.098
-397.702
-392.335
-367.259
-333.413
-297.941
-264.671
-233.882
-204.007
-175.872
-151.266
-132.11
-120.26
-115.531
-116.249
-120.597
-126.457
-132.02
-136.289
-138.406
-137.86
-134.739
-129.445
-122.644
-115.284
-108.274
-102.127
-97.183
-93.586
-91.213
-89.902
-89.368
-89.144
-88.782
-88.021
-86.727
-84.883
-82.546
-79.73
-76.464
-72.837
-68.945
-64.868
-60.656
-56.327
-51.895
-47.402
-42.913
-38.497
-34.207
-30.069
-26.096
-22.292
-18.663
-15.215
-11.941
-8.824
-5.852
-3.016
-0.314
2.255
4.697
7.027
9.261
11.415
13.503
15.536
17.521
19.468
21.382
23.268
25.128
26.966
28.785
30.591
32.39
34.191
35.998
37.817
39.653
41.51
43.39
45.297
47.229
49.188
51.174
53.187
55.227
57.291
59.379
61.488
63.615
65.757
67.911
70.07
72.229
74.383
76.524
78.646
80.74
82.8
84.817
86.782
88.686
90.522
92.28
93.95
95.525
96.993
98.348
99.581
100.682
101.645
102.461
103.124
103.627
103.966
104.134
104.127
103.941
103.573
103.02
102.28
101.35
100.229
98.918
97.417
95.727
93.849
91.787
89.543
87.122
84.527
81.763
78.837
75.753
72.519
69.14
65.625
61.98
58.213
54.333
50.349
46.267
42.097
37.849
33.529
29.147
24.711
20.23
15.712
11.165
6.597
2.016
-2.57
-7.154
-11.728
-16.285
-20.819
-25.322
-29.789
-34.214
-38.59
-42.913
-47.177
-51.378
-55.509
-59.568
-63.548
-67.447
-71.261
-74.985
-78.616
-82.152
-85.588
-88.923
-92.154
-95.278
-98.292
-101.195
-103.984
-106.656
-109.209
-111.642
-113.952
-116.139
-118.199
-120.133
-121.938
-123.613
-125.158
-126.571
-127.852
-129.001
-130.016
-130.899
-131.648
-132.266
-132.752
-133.107
-133.332
-133.429
-133.399
-133.243
-132.963
-132.56
-132.036
-131.393
-130.633
-129.758
-128.771
-127.674
-126.47
-125.162
-123.753
-122.246
-120.644
-118.952
-117.173
-115.311
-113.369
-111.352
-109.264
-107.109
-104.892
-102.617
-100.288
-97.91
-95.486
-93.023
-90.523
-87.993
-85.437
-82.859
-80.265
-77.66
-75.05
-72.44
-69.836
-67.243
-64.668
-62.117
-59.595
-57.109
-54.664
-52.265
-49.919
-47.631
-45.405
-43.246
-41.159
-39.147
-37.213
-35.362
-33.595
-31.916
-30.326
-28.827
-27.419
-26.104
-24.881
-23.749
-22.706
-21.75
-20.878
-20.087
-19.372
-18.728
-18.15
-17.632
-17.168
-16.749
-16.369
-16.018
-15.689
-15.371
-15.056
-14.734
-14.397
-14.035
-13.638
-13.199
-12.711
-12.166
-11.557
-10.877
-10.121
-9.283
-8.359
-7.347
-6.245
-5.049
-3.76
-2.381
-0.917
0.627
2.243
3.926
5.667
7.456
9.283
11.138
13.014
14.903
16.793
18.671
20.523
22.333
24.088
25.774
27.372
28.867
30.244
31.491
32.604
33.574
34.389
35.032
35.485
35.731
35.764
35.577
35.166
34.536
33.699
32.68
31.52
30.254
28.907
27.504
26.061
24.605
23.171
21.783
20.469
19.251
18.137
17.143
16.275
15.491
14.732
13.93
12.99
11.852
10.468
8.743
6.609
3.99
0.796
-2.983
-7.374
-12.46
-18.214
-24.532
-31.224
-37.871
-44.059
-49.538
-53.928
-56.837
-58.194
-57.986
-56.482
-54.437
-52.392
-50.65
-49.701
-49.842
-50.814
-52.146
-52.81
-51.058
-45.458
-34.745
-17.513
7.354
40.446
81.757
130.365
183.496
237.386
288.37
333.331
371.966
405.495
433.487
452.784
455.237
432.1
379.155
297.29
196.082
88.604
-13.331
-97.51
-157.216
-191.402
-201.846
-195.882
-181.597
-162.971
-142.437
-120.138
-94.859
-68.253
-42.669
-19.886
-2.242
9.232
15.161
16.686
15.725
14.472
14.052
14.846
17.3
21.819
28.468
36.992
46.573
55.922
64.298
71.496
77.363
81.837
84.908
86.59
87.172
87.227
87.165
87.177
87.354
87.674
88.129
88.776
89.621
90.596
91.631
92.671
93.688
94.699
95.714
96.706
97.636
98.447
99.082
99.514
99.737
99.751
99.563
99.18
98.611
97.878
97.02
96.068
95.047
93.977
92.873
91.761
90.672
89.641
88.698
87.865
87.163
86.61
86.223
86.018
86.004
86.189
86.577
87.172
87.982
89.01
90.262
91.739
93.44
95.363
97.507
99.868
102.437
105.207
108.167
111.307
114.615
118.078
121.682
125.411
129.25
133.182
137.191
141.258
145.364
149.492
153.622
157.735
161.814
165.84
169.794
173.659
177.419
181.058
184.559
187.908
191.09
194.092
196.9
199.503
201.888
204.046
205.965
207.637
209.054
210.208
211.092
211.702
212.031
212.077
211.835
211.303
210.48
209.363
207.953
206.251
204.256
201.972
199.399
196.543
193.404
189.988
186.298
182.339
178.115
173.632
168.894
163.907
158.678
153.213
147.519
141.602
135.471
129.134
122.6
115.877
108.976
101.906
94.679
87.306
79.798
72.168
64.429
56.592
48.673
40.684
32.64
24.554
16.441
8.315
0.191
-7.917
-15.993
-24.022
-31.99
-39.88
-47.679
-55.369
-62.937
-70.367
-77.643
-84.752
-91.678
-98.408
-104.927
-111.224
-117.286
-123.101
-128.659
-133.951
-138.967
-143.699
-148.142
-152.29
-156.139
-159.684
-162.925
-165.86
-168.489
-170.813
-172.835
-174.558
-175.987
-177.127
-177.984
-178.566
-178.882
-178.942
-178.757
-178.338
-177.699
-176.852
-175.813
-174.597
-173.22
-171.698
-170.049
-168.289
-166.436
-164.508
-162.522
-160.496
-158.446
-156.388
-154.34
-152.317
-150.332
-148.401
-146.536
-144.749
-143.053
-141.456
-139.969
-138.599
-137.354
-136.239
-135.259
-134.417
-133.715
-133.154
-132.732
-132.448
-132.298
-132.278
-132.38
-132.599
-132.924
-133.346
-133.854
-134.435
-135.077
-135.766
-136.487
-137.226
-137.967
-138.695
-139.395
-140.052
-140.649
-141.172
-141.605
-141.935
-142.146
-142.227
-142.163
-141.943
-141.556
-140.993
-140.244
-139.302
-138.159
-136.809
-135.249
-133.475
-131.483
-129.274
-126.847
-124.205
-121.351
-118.289
-115.028
-111.573
-107.935
-104.123
-100.149
-96.022
-91.758
-87.368
-82.867
-78.268
-73.587
-68.839
-64.04
-59.206
-54.355
-49.504
-44.667
-39.863
-35.106
-30.414
-25.801
-21.284
-16.876
-12.593
-8.451
-4.466
-0.656
2.965
6.382
9.582
12.551
15.278
17.754
19.975
21.936
23.636
25.068
26.231
27.12
27.732
28.064
28.116
27.884
27.37
26.579
25.516
24.194
22.62
20.801
18.74
16.434
13.883
11.094
8.077
4.847
1.428
-2.155
-5.864
-9.654
-13.483
-17.307
-21.092
-24.808
-28.433
-31.951
-35.338
-38.558
-41.587
-44.41
-47.029
-49.478
-51.791
-53.993
-56.132
-58.262
-60.463
-62.842
-65.493
-68.493
-71.903
-75.731
-80.031
-84.918
-90.371
-96.273
-102.387
-108.296
-113.689
-118.445
-122.301
-124.901
-126.156
-126.119
-125.185
-124.153
-123.514
-123.392
-124.034
-125.744
-128.389
-131.487
-133.964
-134.138
-130.755
-123.047
-110.005
-90.313
-63.119
-28.023
13.784
58.909
104.263
147.105
186.552
225.424
265.567
306.024
341.26
357.395
340.819
284.534
188.953
67.801
-60.466
-180.442
-279.106
-351.724
-398.077
-419.135
-417.764
-396.572
-360.557
-316.548
-273.385
-239.488
-217.604
-205.966
-198.437
-188.919
-176.009
-161.634
-150.067
-144.095
-143.445
-146.228
-149.484
-151.368
-151.221
-148.744
-144.179
-137.882
-130.232
-121.9
-113.689
-106.112
-99.537
-94.165
-89.964
-86.812
-84.465
-82.56
-80.697
-78.637
-76.278
-73.588
-70.614
-67.389
-63.95
-60.379
-56.767
-53.175
-49.63
-46.148
-42.735
-39.427
-36.284
-33.348
-30.645
-28.187
-25.967
-23.976
-22.207
-20.641
-19.246
-17.993
-16.855
-15.81
-14.842
-13.929
-13.044
-12.154
-11.226
-10.23
-9.136
-7.92
-6.557
-5.026
-3.31
-1.395
0.73
3.076
5.657
8.484
11.566
14.913
18.528
22.415
26.576
31.009
35.709
40.668
45.876
51.323
56.995
62.877
68.953
75.202
81.606
88.141
94.784
101.511
108.295
115.108
121.922
128.71
135.442
142.09
148.625
155.016
161.237
167.26
173.057
178.604
183.875
188.847
193.498
197.809
201.762
205.339
208.526
211.311
213.684
215.636
217.162
218.257
218.92
219.153
218.956
218.336
217.3
215.856
214.016
211.792
209.198
206.252
202.971
199.374
195.483
191.319
186.906
182.269
177.431
172.418
167.258
161.975
156.595
151.146
145.654
140.142
134.638
129.164
123.746
118.407
113.168
108.051
103.077
98.264
93.631
89.194
84.968
80.968
77.206
73.693
70.439
67.451
64.737
62.3
60.145
58.272
56.681
55.372
54.339
53.579
53.085
52.85
52.864
53.118
53.6
54.298
55.201
56.293
57.56
58.988
60.562
62.264
64.08
65.992
67.985
70.04
72.142
74.275
76.421
78.565
80.691
82.783
84.827
86.809
88.715
90.532
92.249
93.856
95.342
96.7
97.922
99.001
99.934
100.716
101.345
101.82
102.14
102.307
102.321
102.187
101.907
101.487
100.933
100.251
99.447
98.53
97.509
96.393
95.19
93.912
92.57
91.173
89.734
88.263
86.772
85.273
83.777
82.296
80.839
79.418
78.044
76.724
75.47
74.288
73.187
72.173
71.253
70.431
69.712
69.1
68.597
68.206
67.927
67.762
67.711
67.771
67.943
68.223
68.608
69.096
69.681
70.358
71.122
71.967
72.886
73.874
74.922
76.023
77.169
78.352
79.563
80.793
82.033
83.275
84.508
85.726
86.918
88.078
89.197
90.268
91.284
92.238
93.122
93.931
94.657
95.293
95.835
96.275
96.61
96.833
96.94
96.927
96.79
96.526
96.13
95.599
94.93
94.118
93.16
92.054
90.797
89.387
87.822
86.101
84.222
82.187
79.993
77.641
75.127
72.449
69.604
66.589
63.402
60.04
56.501
52.786
48.897
44.838
40.615
36.233
31.695
27.006
22.171
17.195
12.084
6.843
1.481
-3.993
-9.566
-15.225
-20.954
-26.741
-32.575
-38.448
-44.362
-50.316
-56.296
-62.291
-68.286
-74.259
-80.184
-86.03
-91.751
-97.302
-102.64
-107.723
-112.523
-117.018
-121.18
-124.978
-128.365
-131.306
-133.802
-135.866
-137.515
-138.761
-139.603
-140.081
-140.295
-140.376
-140.455
-140.644
-141.013
-141.645
-142.68
-144.191
-146.162
-148.444
-150.696
-152.587
-153.919
-154.506
-154.082
-152.545
-150.011
-146.848
-143.858
-141.8
-141.032
-141.83
-144.489
-148.865
-154.272
-159.49
-162.595
-161.673
-155.401
-142.472
-121.619
-92.099
-53.808
-7.602
44.77
100.44
155.734
207.076
250.823
286.55
316.939
342.784
363.223
370.864
353.026
302.441
217.015
104.964
-16.095
-130.156
-222.596
-286.611
-324.559
-342.315
-349.296
-350.999
-348.146
-339.507
-321.95
-296.482
-267.128
-237.415
-211.258
-190.463
-175.022
-165.548
-161.937
-162.798
-166.688
-172.091
-177.412
-181.995
-185.514
-187.204
-186.773
-184.557
-181.07
-177.129
-173.625
-170.864
-168.939
-168.066
-168.229
-169.28
-171.009
-172.984
-174.75
-176.099
-176.949
-177.253
-177.042
-176.326
-175.108
-173.473
-171.527
-169.338
-166.95
-164.39
-161.676
-158.854
-155.995
-153.15
-150.352
-147.62
-144.955
-142.353
-139.814
-137.329
-134.88
-132.45
-130.024
-127.59
-125.143
-122.675
-120.171
-117.612
-114.979
-112.252
-109.416
-106.457
-103.363
-100.126
-96.737
-93.192
-89.488
-85.621
-81.584
-77.37
-72.971
-68.381
-63.595
-58.609
-53.42
-48.027
-42.432
-36.639
-30.654
-24.483
-18.132
-11.611
-4.929
1.901
8.867
15.954
23.148
30.431
37.785
45.191
52.626
60.07
67.5
74.892
82.224
89.469
96.603
103.602
110.44
117.092
123.532
129.737
135.681
141.34
146.692
151.715
156.387
160.69
164.605
168.118
171.216
173.885
176.117
177.904
179.24
180.123
180.55
180.524
180.046
179.124
177.763
175.976
173.773
171.169
168.181
164.825
161.122
157.092
152.758
148.144
143.274
138.174
132.871
127.392
121.766
116.02
110.183
104.283
98.348
92.405
86.482
80.603
74.794
69.077
63.475
58.009
52.698
47.558
42.607
37.858
33.323
29.013
24.936
21.097
17.503
14.155
11.054
8.2
5.592
3.225
1.094
-0.807
-2.484
-3.947
-5.204
-6.266
-7.145
-7.851
-8.397
-8.796
-9.059
-9.199
-9.23
-9.162
-9.008
-8.779
-8.486
-8.14
-7.75
-7.326
-6.876
-6.407
-5.926
-5.438
-4.948
-4.461
-3.979
-3.506
-3.041
-2.588
-2.147
-1.717
-1.3
-0.893
-0.498
-0.111
0.266
0.637
1.001
1.362
1.719
2.073
2.427
2.779
3.132
3.484
3.836
4.187
4.537
4.885
5.228
5.566
5.898
6.219
6.529
6.825
7.103
7.361
7.597
7.807
7.988
8.138
8.255
8.337
8.381
8.387
8.354
8.281
8.169
8.019
7.832
7.612
7.361
7.083
6.783
6.466
6.138
5.805
5.474
5.155
4.854
4.581
4.346
4.157
4.025
3.959
3.97
4.067
4.261
4.561
4.976
5.516
6.19
7.006
7.973
9.098
10.388
11.85
13.489
15.308
17.311
19.499
21.873
24.431
27.173
30.093
33.187
36.45
39.873
43.448
47.166
51.012
54.974
59.037
63.184
67.399
71.663
75.956
80.26
84.553
88.816
93.028
97.167
101.212
105.139
108.924
112.543
115.972
119.186
122.159
124.868
127.291
129.407
131.2
132.653
133.754
134.49
134.851
134.828
134.408
133.585
132.353
130.708
128.653
126.191
123.328
120.074
116.447
112.46
108.13
103.465
98.464
93.133
87.487
81.548
75.344
68.908
62.27
55.474
48.579
41.647
34.737
27.897
21.148
14.515
8.029
1.74
-4.286
-10.003
-15.402
-20.493
-25.273
-29.75
-33.925
-37.819
-41.538
-45.198
-48.903
-52.74
-56.751
-60.945
-65.386
-70.212
-75.461
-81.058
-86.778
-92.203
-97.014
-101.054
-104.065
-105.702
-105.845
-104.56
-102.277
-100.037
-98.695
-98.727
-100.73
-105.057
-111.374
-119.088
-126.944
-132.571
-133.903
-129.3
-116.778
-94.867
-63.164
-21.737
27.415
79.957
132.119
180.829
224.899
264.861
298.762
321.765
325.813
302.654
249.903
170.249
70.611
-38.726
-149.161
-251.596
-335.429
-394.819
-427.943
-439.102
-437.447
-428.017
-412.318
-388.156
-354.138
-315.353
-278.857
-252.71
-240.454
-238.614
-242.841
-247.699
-250.369
-252.261
-253.846
-255.699
-257.641
-257.386
-253.941
-247.555
-238.785
-229.099
-219.793
-211.236
-203.668
-197.372
-192.361
-188.604
-185.986
-184.057
-182.278
-180.348
-178.095
-175.431
-172.397
-168.989
-165.172
-160.992
-156.534
-151.872
-147.07
-142.152
-137.112
-131.959
-126.734
-121.491
-116.301
-111.226
-106.3
-101.542
-96.964
-92.576
-88.387
-84.398
-80.596
-76.955
-73.457
-70.092
-66.849
-63.72
-60.686
-57.72
-54.796
-51.892
-48.989
-46.072
-43.122
-40.126
-37.07
-33.942
-30.734
-27.44
-24.051
-20.557
-16.949
-13.219
-9.361
-5.37
-1.242
3.026
7.436
11.987
16.675
21.498
26.448
31.521
36.709
42.001
47.388
52.858
58.399
63.997
69.636
75.302
80.977
86.643
92.283
97.878
103.409
108.855
114.196
119.413
124.487
129.396
134.122
138.645
142.947
147.008
150.812
154.342
157.581
160.515
163.131
165.415
167.358
168.949
170.182
171.049
171.545
171.667
171.412
170.779
169.769
168.383
166.623
164.495
162.004
159.157
155.963
152.433
148.576
144.406
139.935
135.179
130.153
124.874
119.358
113.624
107.692
101.579
95.308
88.897
82.369
75.743
69.041
62.284
55.492
48.686
41.885
35.11
28.38
21.714
15.13
8.646
2.279
-3.953
-10.035
-15.951
-21.688
-27.233
-32.573
-37.696
-42.594
-47.257
-51.678
-55.85
-59.767
-63.427
-66.826
-69.962
-72.837
-75.45
-77.805
-79.905
-81.754
-83.36
-84.728
-85.867
-86.784
-87.489
-87.992
-88.305
-88.438
-88.404
-88.215
-87.886
-87.429
-86.86
-86.192
-85.441
-84.62
-83.745
-82.83
-81.89
-80.938
-79.988
-79.054
-78.148
-77.282
-76.468
-75.717
-75.038
-74.44
-73.93
-73.516
-73.203
-72.996
-72.899
-72.915
-73.044
-73.289
-73.649
-74.123
-74.708
-75.403
-76.201
-77.1
-78.092
-79.171
-80.33
-81.561
-82.856
-84.204
-85.598
-87.027
-88.481
-89.951
-91.425
-92.894
-94.347
-95.774
-97.166
-98.512
-99.803
-101.031
-102.187
-103.262
-104.25
-105.144
-105.936
-106.622
-107.196
-107.653
-107.99
-108.203
-108.289
-108.246
-108.072
-107.767
-107.33
-106.76
-106.059
-105.229
-104.269
-103.182
-101.97
-100.636
-99.181
-97.609
-95.921
-94.12
-92.208
-90.189
-88.064
-85.836
-83.509
-81.086
-78.569
-75.963
-73.27
-70.494
-67.638
-64.705
-61.699
-58.623
-55.482
-52.278
-49.017
-45.702
-42.338
-38.932
-35.488
-32.013
-28.511
-24.989
-21.454
-17.913
-14.375
-10.846
-7.337
-3.856
-0.418
2.966
6.281
9.514
12.652
15.682
18.589
21.361
23.987
26.459
28.769
30.907
32.863
34.627
36.19
37.544
38.678
39.586
40.261
40.698
40.898
40.865
40.601
40.109
39.388
38.431
37.236
35.808
34.154
32.289
30.233
28.016
25.678
23.272
20.844
18.441
16.104
13.868
11.77
9.84
8.105
6.604
5.37
4.425
3.783
3.436
3.337
3.447
3.702
4.017
4.327
4.541
4.554
4.289
3.665
2.628
1.178
-0.73
-3.19
-6.166
-9.541
-13.084
-16.361
-19.045
-20.945
-21.707
-20.946
-18.517
-14.374
-8.802
-2.57
3.823
10.149
15.978
21.027
25.441
29.501
34.069
40.835
51.088
65.855
86.54
114.224
149.437
192.608
242.33
295.066
347.991
398.01
443.885
487.504
527.702
560.869
579.992
574.161
537.794
471.848
381.867
278.038
169.742
63.765
-31.406
-106.245
-155.059
-175.595
-172.023
-155.085
-131.912
-106.225
-79.583
-49.698
-17.104
15.212
45.056
69.683
87.59
99.26
105.843
108.977
110.642
112.49
115.348
119.766
126.37
135.326
146.378
159.015
172.19
184.803
196.368
206.628
215.335
222.501
228.198
232.567
236.099
239.361
242.647
246.113
249.818
253.696
257.751
262.006
266.38
270.763
275.072
279.24
283.248
287.106
290.781
294.216
297.339
300.066
302.352
304.177
305.528
306.405
306.809
306.742
306.227
305.298
303.984
302.31
300.291
297.943
295.29
292.365
289.201
285.835
282.298
278.615
274.814
270.92
266.956
262.942
258.898
254.839
250.782
246.748
242.755
238.823
234.971
231.214
227.567
224.045
220.66
217.423
214.341
211.422
208.67
206.091
203.686
201.458
199.404
197.523
195.813
194.267
192.879
191.641
190.543
189.574
188.723
187.975
187.316
186.731
186.202
185.714
185.249
184.789
184.315
183.808
183.251
182.623
181.907
181.084
180.136
179.046
177.795
176.37
174.756
172.939
170.908
168.652
166.161
163.429
160.449
157.217
153.731
149.989
145.992
141.743
137.247
132.51
127.54
122.347
116.942
111.34
105.552
99.597
93.489
87.248
80.891
74.439
67.912
61.33
54.715
48.089
41.472
34.886
28.352
21.89
15.52
9.261
3.129
-2.858
-8.686
-14.34
-19.809
-25.082
-30.15
-35.006
-39.645
-44.064
-48.261
-52.236
-55.991
-59.531
-62.86
-65.985
-68.915
-71.659
-74.228
-76.633
-78.888
-81.005
-82.999
-84.885
-86.677
-88.39
-90.04
-91.641
-93.207
-94.754
-96.293
-97.837
-99.398
-100.985
-102.609
-104.277
-105.994
-107.767
-109.599
-111.492
-113.445
-115.459
-117.53
-119.655
-121.828
-124.042
-126.29
-128.562
-130.85
-133.142
-135.427
-137.694
-139.929
-142.12
-144.255
-146.319
-148.302
-150.189
-151.968
-153.629
-155.159
-156.549
-157.789
-158.871
-159.787
-160.53
-161.095
-161.479
-161.678
-161.693
-161.521
-161.167
-160.631
-159.919
-159.036
-157.989
-156.786
-155.435
-153.947
-152.333
-150.604
-148.773
-146.852
-144.856
-142.798
-140.693
-138.555
-136.399
-134.239
-132.089
-129.964
-127.877
-125.842
-123.872
-121.979
-120.175
-118.471
-116.877
-115.403
-114.057
-112.848
-111.781
-110.862
-110.096
-109.487
-109.036
-108.744
-108.612
-108.64
-108.825
-109.165
-109.657
-110.295
-111.074
-111.989
-113.033
-114.196
-115.472
-116.85
-118.32
-119.873
-121.497
-123.183
-124.919
-126.693
-128.495
-130.313
-132.137
-133.954
-135.752
-137.522
-139.252
-140.932
-142.551
-144.101
-145.571
-146.954
-148.242
-149.431
-150.514
-151.486
-152.343
-153.082
-153.702
-154.202
-154.581
-154.841
-154.984
-155.014
-154.938
-154.767
-154.508
-154.172
-153.769
-153.311
-152.812
-152.281
-151.73
-151.165
-150.597
-150.04
-149.508
-149.013
-148.568
-148.187
-147.884
-147.673
-147.568
-147.58
-147.713
-147.973
-148.367
-148.907
-149.606
-150.484
-151.551
-152.811
-154.266
-155.913
-157.746
-159.75
-161.897
-164.146
-166.465
-168.824
-171.196
-173.561
-175.881
-178.128
-180.27
-182.271
-184.105
-185.761
-187.244
-188.566
-189.767
-190.875
-191.928
-193.009
-194.198
-195.588
-197.278
-199.338
-201.827
-204.822
-208.437
-212.7
-217.555
-222.81
-228.12
-233.183
-237.793
-241.737
-244.699
-246.471
-247.063
-246.774
-246.306
-246.205
-246.606
-247.555
-249.16
-251.434
-254.082
-256.234
-256.323
-252.888
-245.109
-232.44
-214.117
-189.199
-156.954
-117.169
-71.654
-23.717
24.327
70.325
114.548
160.267
207.126
251.637
285.495
294.696
270.262
210.266
120.828
15.649
-92.073
-191.354
-275.464
-341.121
-387.476
-417.72
-435.413
-442.673
-439.374
-422.324
-388.75
-342.064
-290.443
-243.004
-208.843
-189.921
-182.042
-181.088
-181.773
-181.864
-183.112
-185.841
-189.974
-194.69
-197.392
-196.783
-192.919
-186.316
-178.174
-169.575
-161.239
-153.689
-147.349
-142.424
-138.855
-136.459
-134.886
-133.72
-132.595
-131.289
-129.697
-127.797
-125.639
-123.26
-120.714
-118.084
-115.458
-112.897
-110.425
-108.057
-105.801
-103.689
-101.781
-100.114
-98.713
-97.582
-96.711
-96.086
-95.694
-95.515
-95.516
-95.665
-95.932
-96.291
-96.721
-97.195
-97.68
-98.135
-98.519
-98.792
-98.917
-98.859
-98.586
-98.067
-97.276
-96.189
-94.787
-93.049
-90.954
-88.481
-85.613
-82.335
-78.633
-74.501
-69.929
-64.918
-59.467
-53.583
-47.274
-40.552
-33.429
-25.922
-18.05
-9.836
-1.303
7.52
16.606
25.922
35.436
45.111
54.911
64.797
74.73
84.672
94.58
104.414
114.134
123.699
133.071
142.211
151.081
159.645
167.869
175.72
183.169
190.188
196.751
202.834
208.419
213.489
218.029
222.028
225.479
228.375
230.714
232.498
233.727
234.409
234.552
234.165
233.262
231.859
229.972
227.621
224.828
221.614
218.005
214.024
209.699
205.056
200.123
194.929
189.5
183.866
178.053
172.091
166.005
159.822
153.567
147.266
140.94
134.614
128.307
122.039
115.831
109.698
103.657
97.723
91.91
86.23
80.694
75.312
70.094
65.046
60.176
55.489
50.99
46.683
42.572
38.658
34.944
31.43
28.118
25.007
22.098
19.39
16.883
14.575
12.467
10.557
8.845
7.328
6.007
4.88
3.945
3.202
2.649
2.284
2.106
2.113
2.302
2.672
3.219
3.941
4.833
5.893
7.116
8.497
10.031
11.712
13.534
15.49
17.572
19.774
22.087
24.502
27.009
29.599
32.262
34.987
37.762
40.578
43.421
46.28
49.143
51.999
54.834
57.637
60.396
63.1
65.736
68.293
70.762
73.13
75.388
77.528
79.538
81.413
83.143
84.723
86.146
87.406
88.499
89.422
90.17
90.742
91.136
91.351
91.387
91.244
90.924
90.428
89.76
88.922
87.918
86.753
85.431
83.958
82.338
80.579
78.687
76.668
74.53
72.281
69.928
67.48
64.946
62.334
59.655
56.918
54.133
51.31
48.459
45.591
42.717
39.849
36.998
34.176
31.395
28.67
26.012
23.434
20.95
18.573
16.315
14.19
12.211
10.391
8.743
7.279
6.013
4.957
4.123
3.521
3.164
3.061
3.221
3.652
4.36
5.352
6.63
8.199
10.06
12.215
14.661
17.396
20.415
23.713
27.282
31.111
35.188
39.496
44.018
48.737
53.635
58.689
63.878
69.18
74.575
80.043
85.562
91.109
96.659
102.187
107.667
113.072
118.375
123.551
128.576
133.428
138.09
142.548
146.787
150.793
154.548
158.028
161.216
164.097
166.664
168.912
170.851
172.495
173.871
175.017
175.967
176.752
177.402
177.938
178.379
178.746
179.056
179.343
179.638
179.966
180.342
180.762
181.187
181.583
181.896
182.047
181.98
181.616
180.869
179.681
177.996
175.777
173.03
169.722
165.761
161.183
156.119
150.819
145.733
141.23
137.546
135.057
134.167
135.002
137.517
141.316
145.458
149.241
152.287
154.044
154.16
152.871
150.632
148.548
148.701
152.789
162.139
178.449
202.963
236.127
278.242
327.579
380.061
432.32
480.492
522.957
561.874
596.227
623.968
639.141
628.853
586.333
508.558
397.321
268.261
136.22
16.363
-74.123
-132.016
-159.381
-162.361
-154.301
-140.85
-122.918
-100.604
-70.62
-33.622
6.078
44.772
78.382
104.048
121.327
130.725
133.249
130.349
123.686
114.635
104.732
95.972
89.516
85.763
84.83
86.238
89.28
93.511
98.205
102.294
105.235
106.814
106.982
106.094
104.459
102.21
99.633
97.075
94.7
92.602
90.78
89.078
87.404
85.718
83.948
82.043
79.958
77.637
75.048
72.169
68.982
65.48
61.662
57.528
53.092
48.371
43.393
38.198
32.815
27.269
21.584
15.776
9.869
3.896
-2.114
-8.125
-14.108
-20.032
-25.868
-31.585
-37.156
-42.558
-47.771
-52.778
-57.563
-62.103
-66.379
-70.373
-74.068
-77.45
-80.507
-83.225
-85.598
-87.619
-89.286
-90.599
-91.559
-92.168
-92.43
-92.352
-91.942
-91.209
-90.164
-88.821
-87.193
-85.297
-83.151
-80.775
-78.188
-75.411
-72.468
-69.38
-66.173
-62.87
-59.497
-56.076
-52.635
-49.197
-45.788
-42.431
-39.15
-35.969
-32.909
-29.992
-27.238
-24.665
-22.291
-20.131
-18.2
-16.51
-15.073
-13.899
-12.996
-12.37
-12.026
-11.968
-12.197
-12.714
-13.515
-14.599
-15.959
-17.59
-19.483
-21.629
-24.017
-26.636
-29.472
-32.511
-35.738
-39.137
-42.69
-46.38
-50.19
-54.1
-58.091
-62.146
-66.244
-70.366
-74.494
-78.608
-82.691
-86.724
-90.69
-94.57
-98.35
-102.012
-105.542
-108.925
-112.148
-115.199
-118.066
-120.738
-123.206
-125.462
-127.497
-129.307
-130.885
-132.228
-133.333
-134.197
-134.821
-135.205
-135.35
-135.258
-134.934
-134.38
-133.603
-132.607
-131.401
-129.99
-128.383
-126.589
-124.617
-122.477
-120.179
-117.735
-115.157
-112.455
-109.642
-106.732
-103.736
-100.668
-97.541
-94.368
-91.163
-87.939
-84.709
-81.487
-78.285
-75.116
-71.993
-68.927
-65.929
-63.012
-60.186
-57.46
-54.846
-52.351
-49.986
-47.758
-45.674
-43.743
-41.969
-40.36
-38.92
-37.653
-36.563
-35.652
-34.923
-34.376
-34.012
-33.831
-33.83
-34.009
-34.363
-34.889
-35.583
-36.44
-37.455
-38.62
-39.931
-41.38
-42.959
-44.662
-46.479
-48.403
-50.425
-52.535
-54.726
-56.986
-59.306
-61.678
-64.09
-66.533
-68.996
-71.47
-73.944
-76.408
-78.853
-81.268
-83.644
-85.971
-88.24
-90.442
-92.57
-94.615
-96.57
-98.425
-100.175
-101.812
-103.33
-104.72
-105.975
-107.09
-108.056
-108.869
-109.523
-110.013
-110.333
-110.479
-110.447
-110.234
-109.838
-109.254
-108.483
-107.522
-106.372
-105.033
-103.507
-101.796
-99.902
-97.83
-95.583
-93.169
-90.593
-87.862
-84.982
-81.964
-78.816
-75.552
-72.183
-68.723
-65.186
-61.588
-57.95
-54.292
-50.633
-46.993
-43.393
-39.855
-36.403
-33.056
-29.834
-26.756
-23.84
-21.107
-18.579
-16.273
-14.206
-12.399
-10.87
-9.635
-8.712
-8.11
-7.834
-7.891
-8.288
-9.032
-10.135
-11.602
-13.425
-15.6
-18.12
-20.968
-24.122
-27.54
-31.163
-34.944
-38.843
-42.819
-46.849
-50.888
-54.889
-58.817
-62.639
-66.331
-69.88
-73.261
-76.451
-79.469
-82.356
-85.183
-88.051
-91.024
-94.141
-97.443
-100.963
-104.758
-108.883
-113.351
-118.158
-123.266
-128.665
-134.408
-140.442
-146.57
-152.443
-157.557
-161.445
-163.814
-164.332
-162.6
-158.492
-152.086
-143.866
-134.861
-125.954
-117.729
-110.76
-105.402
-101.53
-98.74
-95.868
-90.86
-81.851
-67.102
-44.88
-14.077
25.882
74.297
128.276
184.182
238.104
287.769
334.348
377.891
416.576
445.619
453.48
430.042
371.093
276.661
157.549
30.26
-90.998
-190.741
-259.374
-297.001
-307.237
-299.905
-286.336
-271.222
-256.282
-240.377
-220.877
-199.246
-177.959
-158.693
-143.491
-132.555
-125.059
-120.631
-117.916
-115.043
-111.254
-106.343
-100.263
-93.402
-85.908
-77.545
-68.776
-60.646
-53.739
-48.375
-44.692
-42.436
-41.517
-42.066
-43.84
-46.288
-48.966
-51.508
-53.728
-55.674
-57.32
-58.546
-59.313
-59.618
-59.489
-58.969
-58.02
-56.571
-54.611
-52.183
-49.395
-46.417
-43.387
-40.398
-37.532
-34.835
-32.341
-30.08
-28.048
-26.224
-24.592
-23.146
-21.914
-20.922
-20.172
-19.646
-19.3
-19.065
-18.892
-18.733
-18.539
-18.27
-17.895
-17.388
-16.742
-15.957
-15.026
-13.936
-12.664
-11.187
-9.487
-7.549
-5.363
-2.92
-0.213
2.763
6.007
9.517
13.296
17.343
21.663
26.26
31.132
36.278
41.692
47.367
53.291
59.453
65.834
72.417
79.18
86.104
93.165
100.342
107.61
114.942
122.313
129.695
137.062
144.385
151.635
158.782
165.798
172.655
179.323
185.776
191.985
197.924
203.569
208.894
213.875
218.492
222.722
226.545
229.944
232.901
235.402
237.434
238.986
240.05
240.62
240.692
240.265
239.34
237.919
236.006
233.609
230.736
227.396
223.604
219.371
214.715
209.652
204.201
198.382
192.216
185.724
178.931
171.859
164.534
156.981
149.226
141.297
133.22
125.023
116.733
108.379
99.987
91.586
83.2
74.858
66.583
58.401
50.334
42.407
34.639
27.051
19.663
12.491
5.553
-1.138
-7.568
-13.724
-19.596
-25.176
-30.455
-35.427
-40.087
-44.431
-48.457
-52.163
-55.551
-58.621
-61.377
-63.822
-65.962
-67.803
-69.352
-70.619
-71.611
-72.339
-72.813
-73.045
-73.045
-72.827
-72.401
-71.781
-70.98
-70.009
-68.881
-67.609
-66.205
-64.681
-63.047
-61.315
-59.497
-57.601
-55.639
-53.619
-51.55
-49.441
-47.299
-45.131
-42.945
-40.745
-38.539
-36.329
-34.122
-31.921
-29.73
-27.552
-25.389
-23.246
-21.123
-19.025
-16.952
-14.907
-12.893
-10.912
-8.966
-7.057
-5.189
-3.364
-1.586
0.143
1.819
3.438
4.995
6.487
7.908
9.253
10.517
11.695
12.781
13.769
14.653
15.427
16.085
16.62
17.028
17.303
17.44
17.434
17.281
16.978
16.521
15.911
15.145
14.225
13.151
11.926
10.552
9.035
7.38
5.592
3.68
1.652
-0.483
-2.713
-5.028
-7.415
-9.859
-12.346
-14.861
-17.389
-19.912
-22.414
-24.878
-27.287
-29.625
-31.873
-34.015
-36.034
-37.915
-39.642
-41.201
-42.578
-43.761
-44.741
-45.509
-46.058
-46.383
-46.481
-46.35
-45.989
-45.402
-44.591
-43.561
-42.321
-40.877
-39.243
-37.43
-35.455
-33.337
-31.095
-28.749
-26.32
-23.833
-21.309
-18.771
-16.238
-13.73
-11.268
-8.873
-6.567
-4.371
-2.31
-0.403
1.329
2.866
4.195
5.301
6.175
6.814
7.211
7.362
7.26
6.89
6.241
5.313
4.11
2.644
0.938
-0.984
-3.089
-5.327
-7.653
-10.021
-12.387
-14.723
-17.005
-19.208
-21.301
-23.233
-24.965
-26.476
-27.768
-28.864
-29.79
-30.575
-31.264
-31.928
-32.665
-33.578
-34.752
-36.259
-38.147
-40.428
-43.16
-46.437
-50.234
-54.443
-58.834
-63.016
-66.711
-69.737
-71.778
-72.535
-71.923
-69.983
-67.098
-63.976
-61.023
-58.513
-56.843
-56.059
-55.844
-55.657
-54.346
-50.409
-42.794
-30.503
-12.311
12.47
44.089
82.52
125.878
170.774
214.65
254.814
290.938
326.02
359.571
388.027
403.893
395.3
356.378
289.037
199.915
100.031
-0.687
-96.346
-180.28
-245.177
-288.311
-309.037
-310.4
-299.353
-278.693
-250.394
-218.465
-187.762
-165.393
-155.864
-157.718
-164.671
-169.361
-167.62
-159.385
-147.971
-136.638
-126.59
-117.603
-108.562
-99.064
-89.627
-80.995
-73.938
-68.718
-65.272
-63.533
-63.347
-64.57
-67.044
-70.519
-74.725
-79.371
-84.177
-88.949
-93.55
-97.877
-101.869
-105.462
-108.58
-111.193
-113.256
-114.697
-115.482
-115.574
-114.962
-113.696
-111.857
-109.562
-106.959
-104.157
-101.227
-98.219
-95.151
-92.03
-88.868
-85.652
-82.372
-79.044
-75.678
-72.285
-68.881
-65.451
-61.966
-58.388
-54.661
-50.733
-46.573
-42.158
-37.477
-32.533
-27.328
-21.876
-16.197
-10.303
-4.204
2.09
8.575
15.24
22.067
29.038
36.128
43.307
50.549
57.829
65.12
72.399
79.643
86.831
93.944
100.965
107.871
114.64
121.25
127.678
133.899
139.893
145.637
151.11
156.292
161.166
165.714
169.923
173.778
177.266
180.378
183.102
185.43
187.356
188.874
189.98
190.673
190.952
190.819
190.278
189.335
187.997
186.274
184.177
181.718
178.911
175.772
172.317
168.565
164.534
160.245
155.719
150.98
146.049
140.952
135.713
130.356
124.905
119.386
113.822
108.238
102.657
97.103
91.598
86.165
80.824
75.596
70.5
65.554
60.775
56.179
51.779
47.586
43.613
39.866
36.352
33.077
30.043
27.251
24.7
22.387
20.308
18.456
16.823
15.399
14.174
13.135
12.268
11.559
10.991
10.549
10.216
9.973
9.802
9.686
9.607
9.546
9.485
9.407
9.296
9.135
8.909
8.604
8.208
7.71
7.099
6.368
5.51
4.522
3.4
2.145
0.757
-0.76
-2.401
-4.158
-6.023
-7.986
-10.034
-12.153
-14.327
-16.541
-18.777
-21.016
-23.24
-25.427
-27.557
-29.611
-31.566
-33.404
-35.102
-36.641
-38.003
-39.168
-40.119
-40.84
-41.316
-41.535
-41.485
-41.157
-40.542
-39.637
-38.437
-36.941
-35.151
-33.069
-30.701
-28.054
-25.138
-21.966
-18.549
-14.905
-11.05
-7.004
-2.787
1.579
6.071
10.666
15.337
20.059
24.807
29.553
34.271
38.934
43.516
47.991
52.333
56.517
60.521
64.32
67.895
71.226
74.294
77.084
79.58
81.771
83.646
85.195
86.411
87.291
87.83
88.027
87.884
87.403
86.589
85.45
83.992
82.227
80.165
77.82
75.205
72.337
69.231
65.904
62.376
58.664
54.79
50.774
46.636
42.399
38.083
33.71
29.301
24.876
20.455
16.056
11.697
7.395
3.167
-0.971
-5.005
-8.922
-12.709
-16.353
-19.845
-23.175
-26.338
-29.328
-32.14
-34.772
-37.222
-39.489
-41.576
-43.483
-45.213
-46.77
-48.159
-49.387
-50.463
-51.395
-52.195
-52.876
-53.452
-53.938
-54.349
-54.699
-55.002
-55.27
-55.516
-55.75
-55.983
-56.221
-56.474
-56.754
-57.074
-57.447
-57.884
-58.393
-58.982
-59.656
-60.42
-61.27
-62.199
-63.197
-64.261
-65.389
-66.594
-67.882
-69.247
-70.683
-72.178
-73.712
-75.261
-76.788
-78.232
-79.537
-80.661
-81.586
-82.319
-82.86
-83.199
-83.32
-83.191
-82.801
-82.156
-81.242
-80.043
-78.566
-76.838
-74.939
-73.007
-71.146
-69.424
-67.886
-66.525
-65.363
-64.42
-63.675
-63.134
-62.8
-62.597
-62.433
-62.162
-61.496
-60.161
-57.883
-54.21
-48.794
-41.567
-32.673
-22.701
-12.404
-2.326
6.763
14.08
19.278
22.193
24.069
27.025
31.893
40.045
51.745
66.826
89.049
119.675
158.644
206.261
256.293
306.382
358.232
407.96
453.913
488.199
493.871
463.678
395.475
293.618
175.32
53.125
-63.226
-162.552
-240.411
-292.174
-315.59
-315.05
-295.023
-261
-218.331
-171.347
-126.789
-90.794
-66.529
-53.435
-46.057
-39.143
-30.619
-21.147
-14.031
-11.42
-12.816
-16.41
-19.715
-21.142
-20.493
-18.115
-14.668
-10.784
-6.982
-3.888
-1.934
-1.316
-2.036
-3.879
-6.544
-9.723
-13.074
-16.21
-18.889
-20.978
-22.384
-23.092
-23.064
-22.266
-20.719
-18.497
-15.679
-12.367
-8.691
-4.756
-0.682
3.431
7.522
11.545
15.472
19.295
23.003
26.577
29.988
33.207
36.204
38.967
41.497
43.814
45.958
47.969
49.884
51.735
53.538
55.304
57.037
58.73
60.37
61.947
63.459
64.91
66.307
67.656
68.962
70.224
71.442
72.614
73.738
74.812
75.836
76.809
77.736
78.623
79.479
80.315
81.136
81.95
82.762
83.576
84.396
85.225
86.064
86.915
87.779
88.657
89.552
90.466
91.397
92.345
93.309
94.287
95.275
96.27
97.266
98.256
99.233
100.189
101.117
102.007
102.85
103.634
104.351
104.988
105.534
105.978
106.308
106.51
106.573
106.485
106.233
105.806
105.195
104.388
103.377
102.154
100.71
99.038
97.132
94.988
92.601
89.967
87.087
83.959
80.585
76.968
73.112
69.024
64.712
60.183
55.449
50.521
45.412
40.137
34.711
29.153
23.478
17.708
11.862
5.96
0.024
-5.924
-11.864
-17.773
-23.629
-29.41
-35.096
-40.664
-46.095
-51.368
-56.465
-61.368
-66.058
-70.522
-74.743
-78.71
-82.411
-85.837
-88.98
-91.833
-94.392
-96.653
-98.618
-100.285
-101.658
-102.742
-103.542
-104.068
-104.328
-104.335
-104.101
-103.64
-102.967
-102.098
-101.052
-99.845
-98.495
-97.023
-95.447
-93.788
-92.064
-90.296
-88.502
-86.703
-84.914
-83.155
-81.44
-79.786
-78.206
-76.712
-75.316
-74.027
-72.853
-71.802
-70.878
-70.084
-69.423
-68.893
-68.493
-68.22
-68.068
-68.03
-68.097
-68.26
-68.509
-68.83
-69.211
-69.638
-70.096
-70.57
-71.045
-71.503
-71.928
-72.305
-72.616
-72.848
-72.984
-73.013
-72.92
-72.696
-72.331
-71.817
-71.147
-70.317
-69.322
-68.162
-66.835
-65.344
-63.691
-61.883
-59.925
-57.827
-55.6
-53.257
-50.813
-48.282
-45.683
-43.034
-40.354
-37.665
-34.986
-32.34
-29.749
-27.235
-24.821
-22.53
-20.383
-18.401
-16.604
-15.01
-13.636
-12.495
-11.597
-10.952
-10.568
-10.45
-10.604
-11.032
-11.735
-12.715
-13.972
-15.503
-17.305
-19.368
-21.679
-24.221
-26.977
-29.925
-33.041
-36.3
-39.669
-43.125
-46.644
-50.204
-53.777
-57.333
-60.831
-64.244
-67.55
-70.731
-73.773
-76.665
-79.401
-81.99
-84.459
-86.835
-89.14
-91.381
-93.543
-95.618
-97.601
-99.486
-101.276
-102.95
-104.457
-105.76
-106.833
-107.638
-108.141
-108.275
-107.936
-107.048
-105.563
-103.462
-100.77
-97.514
-93.723
-89.453
-84.772
-79.786
-74.643
-69.474
-64.389
-59.519
-54.994
-50.979
-47.684
-45.271
-43.839
-43.465
-44.182
-45.992
-48.886
-52.811
-57.664
-63.323
-69.647
-76.486
-83.704
-91.147
-98.632
-105.96
-112.91
-119.296
-124.994
-129.899
-133.916
-137.003
-139.154
-140.414
-140.886
-140.666
-139.825
-138.444
-136.638
-134.573
-132.37
-130.071
-127.631
-124.848
-121.522
-117.578
-112.838
-107.012
-100.119
-92.365
-84.234
-76.807
-71.003
-67.33
-66.471
-68.922
-74.348
-82.074
-90.708
-97.715
-100.914
-98.552
-88.644
-69.699
-41.189
-3.055
43.81
96.024
149.232
199.618
242.892
278.025
307.637
330.956
345.931
347.4
324.16
271.664
190.393
83.921
-34.172
-151.169
-256.186
-336.229
-385.177
-402.685
-389.81
-352.764
-301.259
-242.243
-185.05
-140.085
-109.942
-94.993
-91.512
-90.022
-86.371
-79.936
-71.571
-65.709
-63.984
-64.894
-66.816
-67.293
-65.037
-60.398
-53.993
-46.596
-38.921
-31.591
-25.039
-19.576
-15.389
-12.41
-10.463
-9.304
-8.589
-7.943
-7.139
-6.064
-4.68
-3.033
-1.159
0.911
3.1
5.319
7.505
9.624
11.658
13.596
15.405
17.027
18.423
19.569
20.457
21.094
21.488
21.649
21.593
21.344
20.928
20.367
19.676
18.868
17.956
16.961
15.908
14.821
13.724
12.635
11.57
10.544
9.569
8.655
7.808
7.033
6.334
5.719
5.197
4.773
4.454
4.244
4.147
4.166
4.302
4.554
4.922
5.401
5.991
6.688
7.49
8.394
9.396
10.492
11.68
12.955
14.314
15.753
17.268
18.855
20.509
22.227
24.005
25.84
27.728
29.664
31.647
33.673
35.738
37.838
39.969
42.127
44.309
46.51
48.724
50.947
53.174
55.399
57.617
59.824
62.011
64.175
66.307
68.401
70.449
72.444
74.378
76.241
78.026
79.722
81.322
82.817
84.197
85.453
86.577
87.561
88.396
89.075
89.59
89.935
90.105
90.094
89.899
89.518
88.948
88.19
87.245
86.114
84.802
83.313
81.652
79.828
77.849
75.724
73.464
71.082
68.59
66.002
63.334
60.601
57.82
55.007
52.181
49.36
46.56
43.801
41.101
38.477
35.946
33.526
31.232
29.081
27.085
25.259
23.613
22.159
20.905
19.859
19.025
18.41
18.015
17.841
17.888
18.154
18.635
19.326
20.221
21.311
22.588
24.04
25.657
27.425
29.331
31.361
33.5
35.732
38.04
40.409
42.823
45.263
47.715
50.163
52.59
54.983
57.328
59.612
61.822
63.95
65.985
67.919
69.747
71.462
73.06
74.54
75.9
77.14
78.261
79.267
80.16
80.945
81.629
82.217
82.719
83.142
83.495
83.788
84.033
84.24
84.42
84.587
84.752
84.927
85.125
85.359
85.64
85.98
86.389
86.879
87.458
88.135
88.918
89.814
90.828
91.967
93.233
94.63
96.162
97.828
99.629
101.567
103.639
105.844
108.18
110.645
113.236
115.949
118.781
121.729
124.787
127.952
131.217
134.578
138.028
141.561
145.169
148.847
152.588
156.384
160.23
164.12
168.046
172.003
175.986
179.989
184.007
188.033
192.062
196.088
200.106
204.11
208.095
212.055
215.984
219.877
223.726
227.525
231.265
234.936
238.527
242.028
245.426
248.709
251.863
254.875
257.731
260.416
262.915
265.215
267.298
269.148
270.747
272.078
273.122
273.858
274.268
274.33
274.025
273.336
272.244
270.735
268.792
266.403
263.556
260.241
256.444
252.156
247.361
242.052
236.221
229.866
222.986
215.589
207.681
199.279
190.404
181.073
171.302
161.103
150.476
139.434
127.996
116.185
104.036
91.59
78.894
66.015
53.023
39.973
26.909
13.857
0.824
-12.164
-25.082
-37.892
-50.531
-62.951
-75.105
-86.936
-98.423
-109.566
-120.392
-130.982
-141.41
-151.725
-161.968
-172.134
-182.196
-192.132
-201.876
-211.402
-220.773
-229.947
-238.837
-247.329
-255.156
-262.115
-268.053
-272.6
-275.4
-276.408
-275.799
-274.08
-271.95
-269.898
-268.473
-268.386
-270.102
-272.956
-275.075
-274.496
-270.156
-263.598
-257.657
-252.682
-245.452
-229.53
-199.171
-153.645
-98.463
-42.463
8.716
51.904
86.195
111.208
118.918
100.312
50.53
-32.863
-141.553
-260.491
-376.125
-473.101
-541.016
-579.023
-590.058
-582.95
-568.311
-550.628
-531.539
-510.03
-483.825
-454.336
-424.078
-395.145
-369.665
-347.801
-328.5
-310.837
-293.382
-274.857
-254.933
-233.631
-211.285
-188.585
-166.175
-144.679
-124.855
-107.388
-92.619
-80.633
-71.327
-64.458
-59.815
-57.17
-56.22
-56.612
-57.987
-60.059
-62.564
-65.236
-67.819
-70.041
-71.682
-72.612
-72.75
-72.043
-70.473
-68.034
-64.748
-60.698
-55.975
-50.678
-44.938
-38.872
-32.621
-26.358
-20.228
-14.348
-8.813
-3.671
1.052
5.327
9.156
12.558
15.559
18.204
20.535
22.585
24.401
26.036
27.552
29.028
30.524
32.08
33.734
35.507
37.415
39.476
41.692
44.055
46.559
49.2
51.976
54.888
57.935
61.107
64.393
67.78
71.257
74.815
78.445
82.134
85.873
89.651
93.458
97.287
101.126
104.961
108.776
112.555
116.278
119.931
123.493
126.947
130.274
133.457
136.479
139.326
141.983
144.436
146.67
148.675
150.438
151.951
153.206
154.194
154.91
155.351
155.514
155.399
155.006
154.339
153.401
152.198
150.737
149.028
147.08
144.904
142.513
139.922
137.144
134.196
131.093
127.852
124.491
121.028
117.48
113.866
110.202
106.507
102.798
99.092
95.404
91.752
88.149
84.609
81.148
77.776
74.506
71.348
68.312
65.405
62.634
60.004
57.52
55.185
52.999
50.963
49.075
47.333
45.734
44.273
42.945
41.743
40.66
39.688
38.82
38.047
37.359
36.747
36.2
35.71
35.265
34.855
34.469
34.098
33.731
33.357
32.966
32.549
32.097
31.599
31.047
30.433
29.75
28.99
28.148
27.22
26.2
25.085
23.875
22.569
21.165
19.666
18.072
16.387
14.614
12.757
10.82
8.81
6.732
4.593
2.4
0.159
-2.12
-4.429
-6.761
-9.107
-11.458
-13.804
-16.135
-18.441
-20.713
-22.94
-25.114
-27.224
-29.263
-31.221
-33.09
-34.863
-36.535
-38.099
-39.551
-40.885
-42.097
-43.188
-44.159
-45.011
-45.749
-46.373
-46.884
-47.288
-47.589
-47.792
-47.907
-47.938
-47.893
-47.782
-47.619
-47.417
-47.192
-46.953
-46.711
-46.475
-46.25
-46.06
-45.927
-45.872
-45.924
-46.083
-46.349
-46.738
-47.256
-47.916
-48.747
-49.71
-50.758
-51.972
-53.405
-55.116
-57.202
-59.545
-61.987
-64.571
-67.32
-70.043
-72.637
-74.869
-76.436
-77.603
-78.675
-79.632
-80.536
-81.573
-82.792
-84.53
-87.174
-90.348
-93.665
-97.035
-100.247
-103.17
-105.789
-107.764
-108.737
-108.957
-108.654
-107.903
-106.885
-105.588
-103.949
-102.132
-100.29
-98.32
-96.149
-93.729
-90.971
-87.928
-84.668
-81.169
-77.43
-73.482
-69.35
-65.074
-60.704
-56.25
-51.724
-47.153
-42.563
-37.99
-33.473
-29.04
-24.723
-20.549
-16.546
-12.742
-9.161
-5.826
-2.759
0.015
2.474
4.599
6.374
7.786
8.826
9.487
9.764
9.657
9.173
8.317
7.09
5.488
3.504
1.137
-1.603
-4.701
-8.143
-11.915
-15.992
-20.33
-24.863
-29.519
-34.238
-38.984
-43.726
-48.426
-53.035
-57.496
-61.767
-65.829
-69.663
-73.227
-76.453
-79.287
-81.736
-83.872
-85.828
-87.746
-89.702
-91.784
-94.124
-96.771
-99.68
-102.692
-105.454
-107.619
-109.051
-109.585
-109.014
-107.468
-105.268
-102.976
-101.569
-101.764
-103.804
-108.018
-114.71
-123.476
-133.436
-143.065
-150.054
-152.567
-149.413
-139.269
-120.753
-93.101
-56.271
-11.254
38.998
90.776
141.179
187.859
230.785
271.438
308.583
337.462
349.01
334.464
291.992
226.912
151.092
74.263
-1.548
-76.399
-152.064
-224.595
-280.763
-310.538
-306.811
-269.814
-213.024
-150.196
-95.021
-57.964
-37.964
-30.142
-27.406
-23.13
-16.627
-10.08
-6.626
-8.175
-13.884
-21.406
-28.031
-32.042
-32.989
-31.055
-26.923
-21.333
-14.908
-8.419
-2.433
2.715
6.813
9.889
12.093
13.619
14.744
15.819
17.052
18.531
20.282
22.241
24.356
26.608
28.944
31.289
33.599
35.84
37.99
40.046
41.983
43.772
45.4
46.849
48.12
49.225
50.175
50.986
51.676
52.258
52.742
53.144
53.474
53.744
53.972
54.175
54.379
54.607
54.883
55.227
55.657
56.189
56.834
57.602
58.499
59.531
60.706
62.029
63.508
65.146
66.946
68.908
71.031
73.312
75.745
78.319
81.025
83.852
86.786
89.815
92.924
96.098
99.321
102.576
105.845
109.11
112.352
115.55
118.685
121.734
124.678
127.496
130.169
132.678
135.005
137.132
139.045
140.729
142.171
143.36
144.285
144.938
145.311
145.4
145.199
144.708
143.926
142.855
141.498
139.86
137.946
135.762
133.316
130.616
127.67
124.489
121.081
117.459
113.633
109.617
105.424
101.068
96.562
91.922
87.161
82.294
77.334
72.294
67.185
62.021
56.811
51.566
46.298
41.015
35.726
30.439
25.16
19.897
14.655
9.437
4.249
-0.907
-6.025
-11.101
-16.13
-21.105
-26.022
-30.871
-35.643
-40.332
-44.929
-49.428
-53.822
-58.105
-62.27
-66.316
-70.238
-74.03
-77.685
-81.192
-84.539
-87.715
-90.706
-93.497
-96.074
-98.424
-100.533
-102.393
-103.999
-105.34
-106.405
-107.178
-107.638
-107.771
-107.573
-107.038
-106.17
-104.982
-103.496
-101.751
-99.793
-97.65
-95.341
-92.876
-90.241
-87.431
-84.441
-81.255
-77.884
-74.329
-70.589
-66.677
-62.598
-58.332
-53.85
-49.087
-43.965
-38.451
-32.54
-26.248
-19.645
-12.804
-5.818
1.179
8.086
14.815
21.275
27.411
33.164
38.441
43.141
47.13
50.248
52.393
53.5
53.524
52.491
50.452
47.491
43.76
39.387
34.471
29.109
23.36
17.278
10.956
4.487
-2.022
-8.426
-14.616
-20.506
-26.013
-31.104
-35.773
-40.04
-43.981
-47.657
-51.099
-54.327
-57.335
-60.106
-62.642
-64.938
-66.987
-68.806
-70.404
-71.786
-72.968
-73.945
-74.696
-75.194
-75.387
-75.23
-74.699
-73.779
-72.468
-70.774
-68.709
-66.29
-63.548
-60.507
-57.191
-53.624
-49.823
-45.815
-41.63
-37.301
-32.866
-28.365
-23.833
-19.304
-14.811
-10.386
-6.057
-1.85
2.216
6.119
9.839
13.355
16.648
19.7
22.496
25.022
27.265
29.216
30.866
32.21
33.249
33.981
34.412
34.544
34.387
33.95
33.244
32.284
31.081
29.652
28.012
26.178
24.166
21.994
19.678
17.236
14.685
12.045
9.335
6.574
3.782
0.98
-1.812
-4.575
-7.293
-9.951
-12.538
-15.043
-17.458
-19.778
-21.99
-24.086
-26.054
-27.882
-29.555
-31.064
-32.401
-33.567
-34.574
-35.431
-36.143
-36.718
-37.155
-37.443
-37.564
-37.485
-37.168
-36.599
-35.769
-34.689
-33.393
-31.904
-30.251
-28.46
-26.525
-24.443
-22.214
-19.823
-17.266
-14.581
-11.837
-9.146
-6.654
-4.443
-2.551
-1.004
0.216
1.106
1.673
1.967
2.022
1.836
1.354
0.541
-0.547
-1.667
-2.404
-2.313
-1.038
1.619
5.824
11.554
18.46
25.942
32.978
38.434
41.596
42.22
40.344
36.553
31.958
27.845
26.189
29.367
39.226
57.082
82.731
113.923
147.884
181.571
214.619
249.481
286.275
323.343
351.67
355.103
323.144
250.352
142.369
18.84
-102.257
-204.568
-277.051
-321.385
-342.072
-346.657
-344.466
-338.471
-329.075
-314.896
-293.303
-265.59
-235.099
-205.023
-178.435
-156.328
-138.629
-125.643
-116.854
-111.282
-107.702
-104.598
-101.103
-96.976
-91.934
-85.57
-77.869
-69.23
-60.453
-52.603
-46.231
-41.42
-38.217
-36.651
-36.635
-37.925
-40.04
-42.351
-44.481
-46.304
-47.745
-48.76
-49.254
-49.088
-48.221
-46.699
-44.563
-41.83
-38.51
-34.622
-30.257
-25.586
-20.788
-15.994
-11.283
-6.693
-2.251
2.001
6.024
9.79
13.289
16.516
19.465
22.123
24.484
26.559
28.39
30.039
31.581
33.07
34.539
36.013
37.507
39.034
40.606
42.22
43.87
45.551
47.266
49.021
50.824
52.677
54.574
56.507
58.463
60.433
62.408
64.381
66.344
68.291
70.219
72.125
74.012
75.876
77.716
79.525
81.298
83.027
84.707
86.332
87.894
89.388
90.809
92.152
93.416
94.598
95.696
96.709
97.636
98.478
99.233
99.904
100.49
100.994
101.418
101.764
102.035
102.236
102.37
102.441
102.455
102.417
102.329
102.197
102.024
101.814
101.57
101.296
100.995
100.669
100.321
99.953
99.566
99.16
98.737
98.295
97.833
97.348
96.837
96.297
95.724
95.115
94.463
93.766
93.019
92.216
91.354
90.427
89.431
88.361
87.214
85.985
84.671
83.269
81.777
80.193
78.516
76.746
74.885
72.933
70.894
68.77
66.567
64.291
61.947
59.543
57.088
54.591
52.063
49.515
46.96
44.409
41.877
39.375
36.918
34.52
32.193
29.951
27.806
25.772
23.86
22.081
20.447
18.967
17.65
16.506
15.539
14.758
14.165
13.766
13.561
13.552
13.739
14.12
14.691
15.449
16.388
17.5
18.778
20.212
21.791
23.503
25.335
27.274
29.305
31.413
33.584
35.801
38.05
40.315
42.582
44.834
47.059
49.242
51.37
53.43
55.41
57.3
59.089
60.769
62.331
63.77
65.079
66.253
67.289
68.182
68.931
69.533
69.988
70.294
70.453
70.465
70.334
70.061
69.652
69.11
68.441
67.648
66.738
65.715
64.584
63.349
62.014
60.585
59.063
57.453
55.759
53.982
52.123
50.185
48.168
46.072
43.896
41.638
39.296
36.87
34.358
31.762
29.079
26.313
23.464
20.538
17.538
14.467
11.328
8.124
4.86
1.538
-1.838
-5.266
-8.745
-12.268
-15.824
-19.404
-22.994
-26.581
-30.151
-33.687
-37.17
-40.581
-43.905
-47.131
-50.244
-53.225
-56.051
-58.69
-61.122
-63.333
-65.316
-67.065
-68.576
-69.856
-70.925
-71.824
-72.59
-73.245
-73.791
-74.212
-74.499
-74.647
-74.652
-74.514
-74.206
-73.698
-72.97
-72.014
-70.816
-69.345
-67.536
-65.283
-62.504
-59.159
-55.256
-50.837
-45.948
-40.647
-35.018
-29.169
-23.259
-17.432
-11.8
-6.446
-1.447
3.096
7.033
10.173
12.364
13.502
13.537
12.465
10.284
7.028
2.784
-2.296
-7.995
-14.107
-20.48
-27.004
-33.59
-40.144
-46.531
-52.588
-58.191
-63.242
-67.678
-71.461
-74.543
-76.898
-78.557
-79.63
-80.311
-80.808
-81.288
-81.841
-82.5
-83.279
-84.223
-85.384
-86.79
-88.442
-90.269
-92.226
-94.34
-96.589
-98.866
-100.924
-102.283
-102.445
-101.152
-98.235
-93.562
-87.249
-79.445
-70.446
-61.057
-52.035
-43.693
-36.236
-29.63
-23.361
-16.949
-9.774
-0.569
11.924
28.575
50.219
77.415
109.031
142.723
176.439
207.336
235.647
265.348
296.352
326.36
347.759
345.228
310.755
242.377
143.776
31.113
-82.148
-184.549
-263.192
-316.1
-344.058
-350.593
-346.107
-335.406
-320.167
-301.136
-275.24
-242.928
-207.823
-173.233
-143.335
-120.676
-105.355
-96.989
-94.658
-96.883
-102.192
-109.062
-115.7
-120.632
-123.168
-123.017
-120.272
-115.504
-109.357
-102.542
-96.013
-90.468
-86.208
-83.372
-81.843
-81.312
-81.496
-82.069
-82.633
-82.964
-82.979
-82.638
-82.004
-81.159
-80.151
-79.058
-77.963
-76.903
-75.898
-74.968
-74.116
-73.375
-72.793
-72.396
-72.198
-72.202
-72.398
-72.779
-73.331
-74.029
-74.845
-75.753
-76.733
-77.772
-78.856
-79.966
-81.079
-82.171
-83.219
-84.199
-85.091
-85.876
-86.536
-87.058
-87.431
-87.645
-87.693
-87.566
-87.254
-86.747
-86.037
-85.117
-83.978
-82.617
-81.028
-79.208
-77.158
-74.877
-72.367
-69.629
-66.665
-63.479
-60.075
-56.458
-52.633
-48.606
-44.383
-39.973
-35.383
-30.623
-25.702
-20.63
-15.419
-10.08
-4.626
0.93
6.576
12.296
18.076
23.9
29.753
35.618
41.479
47.318
53.118
58.859
64.525
70.096
75.554
80.881
86.059
91.068
95.892
100.511
104.909
109.068
112.972
116.603
119.946
122.986
125.709
128.102
130.153
131.851
133.186
134.15
134.737
134.942
134.761
134.191
133.234
131.89
130.163
128.059
125.585
122.75
119.566
116.046
112.204
108.058
103.627
98.931
93.991
88.83
83.475
77.949
72.281
66.498
60.628
54.701
48.746
42.794
36.872
31.013
25.243
19.592
14.089
8.759
3.629
-1.277
-5.934
-10.321
-14.418
-18.205
-21.667
-24.788
-27.557
-29.963
-31.998
-33.658
-34.939
-35.841
-36.366
-36.518
-36.306
-35.737
-34.825
-33.583
-32.027
-30.176
-28.05
-25.672
-23.064
-20.253
-17.264
-14.125
-10.864
-7.512
-4.097
-0.65
2.799
6.218
9.577
12.845
15.993
18.99
21.808
24.42
26.798
28.917
30.753
32.284
33.49
34.352
34.853
34.979
34.717
34.057
32.992
31.516
29.627
27.323
24.607
21.482
17.956
14.036
9.735
5.063
0.038
-5.325
-11.006
-16.984
-23.237
-29.741
-36.471
-43.397
-50.494
-57.73
-65.075
-72.498
-79.967
-87.449
-94.911
-102.32
-109.642
-116.846
-123.898
-130.767
-137.421
-143.831
-149.968
-155.803
-161.31
-166.465
-171.243
-175.624
-179.587
-183.114
-186.189
-188.799
-190.932
-192.578
-193.731
-194.386
-194.54
-194.193
-193.348
-192.009
-190.183
-187.877
-185.106
-181.88
-178.218
-174.137
-169.656
-164.8
-159.593
-154.059
-148.225
-142.121
-135.776
-129.219
-122.483
-115.597
-108.595
-101.51
-94.373
-87.221
-80.084
-72.997
-65.991
-59.098
-52.348
-45.77
-39.393
-33.242
-27.344
-21.721
-16.4
-11.402
-6.749
-2.463
1.44
4.945
8.037
10.708
12.95
14.763
16.148
17.107
17.643
17.761
17.467
16.77
15.678
14.202
12.355
10.152
7.612
4.758
1.613
-1.8
-5.459
-9.345
-13.446
-17.745
-22.221
-26.849
-31.598
-36.432
-41.311
-46.187
-51.004
-55.706
-60.236
-64.541
-68.576
-72.305
-75.702
-78.734
-81.361
-83.551
-85.292
-86.594
-87.489
-88.006
-88.169
-88.007
-87.599
-87.052
-86.489
-86.037
-85.795
-85.82
-86.181
-86.97
-88.201
-89.798
-91.581
-93.226
-94.457
-95.115
-94.99
-93.877
-91.753
-88.721
-85.112
-81.429
-77.946
-74.778
-72.13
-70.068
-68.299
-66.151
-62.467
-56.078
-46.182
-32.038
-12.856
12.182
43.67
81.311
123.999
169.888
216.37
261
301.901
338.83
372.46
401.922
424.122
432.056
418.212
379.571
316.949
236.817
149.356
63.958
-9.257
-62.505
-93.385
-103.768
-100.022
-88.96
-74.703
-58.538
-39.709
-18.775
2.663
22.423
37.69
47.334
51.472
50.907
47.859
44.421
41.544
39.889
39.705
40.904
43.762
48.048
52.708
56.826
59.843
61.452
61.778
60.959
58.854
55.578
51.529
47.038
42.444
37.938
33.5
29.145
24.953
20.957
17.169
13.591
10.175
6.904
3.784
0.812
-2.014
-4.713
-7.322
-9.872
-12.397
-14.917
-17.43
-19.93
-22.403
-24.829
-27.194
-29.473
-31.629
-33.631
-35.448
-37.049
-38.414
-39.517
-40.322
-40.798
-40.913
-40.641
-39.966
-38.872
-37.344
-35.371
-32.947
-30.067
-26.734
-22.951
-18.719
-14.04
-8.92
-3.366
2.61
8.994
15.773
22.927
30.436
38.276
46.421
54.841
63.506
72.387
81.448
90.656
99.974
109.365
118.791
128.214
137.594
146.892
156.069
165.086
173.904
182.487
190.799
198.805
206.471
213.767
220.663
227.129
233.14
238.671
243.698
248.201
252.162
255.565
258.395
260.641
262.295
263.351
263.806
263.659
262.914
261.574
259.648
257.144
254.076
250.458
246.306
241.641
236.481
230.851
224.774
218.276
211.383
204.123
196.525
188.617
180.43
171.993
163.336
154.492
145.49
136.362
127.139
117.852
108.533
99.21
89.916
80.677
71.524
62.484
53.583
44.846
36.299
27.963
19.861
12.012
4.434
-2.855
-9.84
-16.507
-22.844
-28.841
-34.489
-39.779
-44.705
-49.262
-53.446
-57.254
-60.685
-63.739
-66.415
-68.717
-70.647
-72.21
-73.41
-74.255
-74.751
-74.908
-74.733
-74.238
-73.432
-72.328
-70.938
-69.273
-67.347
-65.173
-62.764
-60.135
-57.299
-54.269
-51.061
-47.687
-44.162
-40.5
-36.714
-32.82
-28.83
-24.76
-20.624
-16.436
-12.21
-7.961
-3.704
0.547
4.777
8.973
13.12
17.203
21.209
25.123
28.933
32.624
36.183
39.598
42.855
45.942
48.848
51.559
54.065
56.353
58.414
60.237
61.81
63.125
64.172
64.943
65.429
65.624
65.522
65.116
64.403
63.379
62.042
60.391
58.426
56.148
53.559
50.664
47.469
43.979
40.203
36.15
31.832
27.259
22.445
17.405
12.154
6.71
1.09
-4.686
-10.597
-16.623
-22.74
-28.926
-35.157
-41.406
-47.65
-53.862
-60.016
-66.086
-72.046
-77.868
-83.527
-88.997
-94.252
-99.267
-104.019
-108.484
-112.642
-116.471
-119.953
-123.07
-125.808
-128.15
-130.085
-131.601
-132.689
-133.342
-133.552
-133.318
-132.637
-131.51
-129.941
-127.934
-125.497
-122.638
-119.369
-115.703
-111.654
-107.239
-102.476
-97.385
-91.988
-86.308
-80.371
-74.204
-67.834
-61.289
-54.599
-47.792
-40.899
-33.949
-26.97
-19.991
-13.042
-6.151
0.652
7.336
13.871
20.228
26.378
32.295
37.953
43.328
48.402
53.159
57.584
61.666
65.393
68.755
71.743
74.349
76.566
78.39
79.82
80.859
81.512
81.787
81.696
81.25
80.462
79.336
77.871
76.067
73.93
71.476
68.724
65.702
62.443
58.984
55.381
51.696
47.987
44.311
40.71
37.217
33.861
30.689
27.752
25.102
22.757
20.703
18.921
17.389
16.082
14.973
13.965
12.921
11.711
10.193
8.252
5.843
2.872
-0.788
-5.164
-10.203
-15.691
-21.198
-26.375
-30.972
-34.65
-37.164
-38.426
-38.45
-37.704
-36.98
-36.84
-37.811
-40.388
-44.532
-49.803
-55.369
-59.538
-60.299
-55.889
-44.437
-24.189
5.784
45.708
95.075
151.262
210.273
268.344
321.077
366.418
405.556
437.306
459.648
467.81
451.987
408.089
336.588
241.492
135.333
29.075
-67.699
-143.806
-194.761
-219.231
-218.307
-199.114
-167.428
-128.761
-90.332
-56.247
-30.973
-15.754
-5.94
1.997
11.546
23.333
33.363
39.841
42.724
42.982
43.09
44.065
45.746
48.216
51.487
55.368
59.395
62.838
65.215
66.534
67.079
67.051
66.412
65.181
63.585
62.021
60.858
60.246
60.164
60.56
61.469
62.988
65.197
68.064
71.471
75.282
79.389
83.733
88.259
92.889
97.535
102.125
106.62
111.02
115.343
119.585
123.73
127.746
131.592
135.253
138.74
142.078
145.289
148.389
151.388
154.31
157.184
160.033
162.865
165.67
168.439
171.17
173.869
176.547
179.216
181.884
184.56
187.25
189.965
192.716
195.513
198.362
201.267
204.234
207.275
210.401
213.627
216.961
220.413
223.992
227.704
231.557
235.556
239.703
243.996
248.435
253.02
257.747
262.612
267.607
272.723
277.949
283.271
288.673
294.133
299.629
305.134
310.623
316.069
321.442
326.713
331.851
336.827
341.613
346.178
350.491
354.517
358.219
361.56
364.503
367.013
369.049
370.574
371.552
371.952
371.751
370.923
369.444
367.285
364.413
360.807
356.455
351.354
345.503
338.904
331.576
323.549
314.88
305.623
295.819
285.493
274.655
263.323
251.516
239.261
226.582
213.482
199.957
186.019
171.689
156.989
141.921
126.455
110.524
94.084
77.131
59.704
41.875
23.711
5.295
-13.271
-31.855
-50.28
-68.383
-86.034
-103.13
-119.571
-135.232
-149.946
-163.512
-175.768
-186.613
-195.99
-203.877
-210.26
-215.156
-218.632
-220.812
-221.877
-221.979
-221.229
-219.712
-217.512
-214.74
-211.545
-208.096
-204.522
-200.92
-197.369
-193.932
-190.674
-187.632
-184.798
-182.116
-179.498
-176.886
-174.263
-171.628
-168.987
-166.333
-163.645
-160.905
-158.121
-155.303
-152.465
-149.614
-146.753
-143.901
-141.097
-138.405
-135.893
-133.609
-131.585
-129.84
-128.389
-127.244
-126.417
-125.907
-125.701
-125.789
-126.166
-126.827
-127.773
-128.995
-130.477
-132.202
-134.149
-136.301
-138.644
-141.165
-143.848
-146.683
-149.659
-152.769
-156.012
-159.379
-162.862
-166.452
-170.139
-173.913
-177.765
-181.685
-185.661
-189.685
-193.749
-197.844
-201.964
-206.101
-210.249
-214.399
-218.545
-222.68
-226.795
-230.883
-234.935
-238.943
-242.9
-246.795
-250.621
-254.368
-258.026
-261.585
-265.034
-268.36
-271.552
-274.598
-277.484
-280.197
-282.725
-285.055
-287.176
-289.076
-290.743
-292.166
-293.334
-294.237
-294.864
-295.206
-295.252
-294.996
-294.428
-293.544
-292.339
-290.808
-288.949
-286.762
-284.246
-281.403
-278.235
-274.746
-270.941
-266.828
-262.415
-257.713
-252.735
-247.496
-242.011
-236.301
-230.382
-224.277
-218.006
-211.594
-205.063
-198.44
-191.748
-185.015
-178.27
-171.543
-164.865
-158.268
-151.784
-145.445
-139.283
-133.327
-127.607
-122.149
-116.977
-112.111
-107.573
-103.385
-99.565
-96.135
-93.114
-90.518
-88.361
-86.655
-85.406
-84.618
-84.292
-84.42
-84.995
-86.013
-87.469
-89.373
-91.724
-94.515
-97.728
-101.344
-105.331
-109.659
-114.288
-119.155
-124.2
-129.362
-134.586
-139.841
-145.105
-150.345
-155.513
-160.55
-165.395
-170.029
-174.46
-178.677
-182.675
-186.446
-189.988
-193.379
-196.743
-200.184
-203.79
-207.606
-211.617
-215.873
-220.518
-225.587
-230.996
-236.515
-241.73
-246.336
-250.22
-253.143
-254.716
-254.774
-253.343
-250.87
-248.271
-246.202
-245.153
-245.709
-248.304
-253.015
-258.628
-263.142
-265.175
-263.097
-256.873
-246.443
-227.76
-198.185
-156.024
-101.035
-39.551
22.668
83.095
140.754
196.113
246.988
284.531
295.612
272.168
213.441
128.51
33.592
-60.277
-148.188
-231.072
-310.847
-383.176
-441.052
-476.546
-487.007
-477.681
-454.941
-425.989
-395.27
-362.982
-330.321
-298.565
-269.3
-245.303
-227.985
-217.373
-212.745
-212.341
-214.325
-217.308
-219.965
-221.297
-220.554
-217.26
-211.462
-203.654
-194.588
-185.092
-175.981
-167.788
-160.855
-155.39
-151.353
-148.576
-146.763
-145.473
-144.274
-142.914
-141.272
-139.315
-137.086
-134.597
-131.879
-129.023
-126.127
-123.263
-120.471
-117.756
-115.124
-112.609
-110.268
-108.164
-106.345
-104.829
-103.62
-102.719
-102.12
-101.821
-101.805
-102.039
-102.496
-103.155
-103.994
-105.001
-106.152
-107.413
-108.752
-110.134
-111.526
-112.899
-114.226
-115.477
-116.628
-117.656
-118.537
-119.253
-119.78
-120.096
-120.178
-120.003
-119.551
-118.804
-117.745
-116.359
-114.634
-112.559
-110.127
-107.334
-104.174
-100.647
-96.752
-92.493
-87.874
-82.905
-77.593
-71.952
-65.996
-59.743
-53.212
-46.424
-39.401
-32.169
-24.755
-17.187
-9.495
-1.709
6.137
14.013
21.883
29.714
37.473
45.127
52.641
59.986
67.128
74.039
80.691
87.055
93.109
98.829
104.194
109.186
113.788
117.986
121.77
125.13
128.06
130.555
132.615
134.242
135.439
136.212
136.573
136.531
136.102
135.303
134.152
132.671
130.882
128.812
126.487
123.934
121.182
118.261
115.202
112.033
108.787
105.493
102.18
98.877
95.613
92.415
89.308
86.317
83.464
80.772
78.259
75.943
73.841
71.966
70.33
68.943
67.814
66.948
66.349
66.018
65.954
66.155
66.615
67.327
68.282
69.469
70.875
72.485
74.284
76.255
78.38
80.64
83.016
85.489
88.04
90.648
93.294
95.959
98.625
101.273
103.887
106.449
108.945
111.36
113.68
115.893
117.987
119.952
121.779
123.459
124.987
126.358
127.567
128.613
129.494
130.213
130.771
131.171
131.42
131.523
131.489
131.326
131.045
130.654
130.167
129.595
128.949
128.242
127.486
126.695
125.88
125.053
124.227
123.412
122.62
121.861
121.146
120.484
119.883
119.353
118.899
118.53
118.25
118.064
117.978
117.993
118.111
118.335
118.663
119.094
119.626
120.254
120.975
121.783
122.67
123.63
124.654
125.734
126.861
128.026
129.219
130.43
131.65
132.87
134.08
135.271
136.433
137.559
138.641
139.671
140.644
141.552
142.392
143.159
143.849
144.461
144.991
145.439
145.805
146.089
146.295
146.424
146.481
146.473
146.405
146.286
146.124
145.93
145.713
145.484
145.252
145.029
144.826
144.652
144.52
144.439
144.42
144.472
144.605
144.828
145.149
145.573
146.106
146.75
147.508
148.38
149.366
150.465
151.672
152.983
154.393
155.895
157.48
159.137
160.854
162.616
164.407
166.21
168.003
169.766
171.476
173.114
174.657
176.085
177.378
178.516
179.485
180.266
180.843
181.198
181.31
181.159
180.731
180.01
178.986
177.65
175.996
174.024
171.745
169.168
166.298
163.138
159.682
155.93
151.892
147.585
143.028
138.249
133.283
128.176
122.997
117.807
112.656
107.572
102.559
97.631
92.81
88.129
83.634
79.355
75.306
71.517
68.022
64.831
61.937
59.283
56.766
54.32
51.909
49.522
47.189
44.9
42.643
40.443
38.287
36.168
34.166
32.362
30.919
30.185
30.466
32.041
35.315
40.528
47.65
56.449
66.231
76.014
85.02
92.562
98.05
101.316
102.573
102.517
102.774
105.288
111.738
123.862
143.015
169.853
204.823
246.81
292.563
338.979
382.766
422.467
459.49
492.67
518.556
530.325
518.224
478.175
411.845
325.772
230.034
131.441
35.064
-54.254
-130.841
-186.379
-215.12
-214.256
-186.083
-139.739
-85.119
-33.251
7.416
35.353
52.504
64.175
75.085
85.98
95.269
99.456
96.601
87.618
74.75
61.425
50.15
41.675
36.165
33.228
32.164
32.456
33.471
34.313
34.358
33.342
31.158
27.966
24.071
19.712
15.199
10.916
7.059
3.716
0.942
-1.295
-3.011
-4.216
-5.011
-5.545
-5.926
-6.236
-6.533
-6.856
-7.265
-7.812
-8.52
-9.388
-10.397
-11.542
-12.832
-14.288
-15.936
-17.787
-19.821
-22.01
-24.324
-26.738
-29.224
-31.747
-34.264
-36.741
-39.155
-41.494
-43.75
-45.907
-47.944
-49.836
-51.556
-53.083
-54.393
-55.468
-56.285
-56.824
-57.066
-56.996
-56.603
-55.874
-54.796
-53.354
-51.536
-49.331
-46.734
-43.741
-40.351
-36.562
-32.382
-27.817
-22.881
-17.587
-11.952
-5.996
0.259
6.788
13.564
20.557
27.735
35.066
42.513
50.042
57.613
65.187
72.726
80.188
87.533
94.721
101.711
108.462
114.937
121.097
126.904
132.325
137.324
141.871
145.936
149.491
152.512
154.975
156.863
158.16
158.852
158.932
158.392
157.23
155.447
153.047
150.038
146.428
142.232
137.466
132.146
126.295
119.935
113.092
105.793
98.066
89.942
81.453
72.632
63.513
54.13
44.519
34.715
24.754
14.671
4.501
-5.72
-15.96
-26.184
-36.362
-46.461
-56.452
-66.308
-76.003
-85.511
-94.812
-103.884
-112.709
-121.271
-129.554
-137.546
-145.236
-152.614
-159.672
-166.403
-172.803
-178.867
-184.594
-189.982
-195.03
-199.741
-204.116
-208.157
-211.867
-215.251
-218.313
-221.058
-223.491
-225.618
-227.445
-228.978
-230.224
-231.188
-231.877
-232.298
-232.456
-232.356
-232.005
-231.408
-230.568
-229.492
-228.182
-226.645
-224.883
-222.901
-220.704
-218.296
-215.682
-212.866
-209.854
-206.652
-203.264
-199.698
-195.96
-192.057
-187.998
-183.79
-179.443
-174.967
-170.37
-165.664
-160.86
-155.968
-151.001
-145.969
-140.887
-135.765
-130.619
-125.46
-120.304
-115.163
-110.053
-104.987
-99.979
-95.045
-90.198
-85.451
-80.818
-76.312
-71.945
-67.73
-63.677
-59.797
-56.1
-52.592
-49.282
-46.175
-43.276
-40.589
-38.115
-35.855
-33.81
-31.977
-30.354
-28.937
-27.721
-26.7
-25.867
-25.212
-24.727
-24.401
-24.222
-24.178
-24.255
-24.441
-24.72
-25.077
-25.497
-25.963
-26.46
-26.969
-27.472
-27.954
-28.396
-28.781
-29.094
-29.318
-29.437
-29.438
-29.308
-29.035
-28.607
-28.013
-27.244
-26.294
-25.154
-23.819
-22.286
-20.551
-18.614
-16.475
-14.136
-11.602
-8.876
-5.965
-2.876
0.383
3.802
7.371
11.077
14.908
18.848
22.878
26.981
31.134
35.32
39.516
43.701
47.854
51.955
55.988
59.937
63.786
67.517
71.113
74.557
77.834
80.932
83.835
86.531
89.009
91.262
93.288
95.088
96.659
97.997
99.096
99.945
100.538
100.879
100.97
100.819
100.44
99.852
99.086
98.189
97.196
96.146
95.076
94.013
92.999
92.068
91.254
90.602
90.148
89.913
89.904
90.117
90.522
91.105
91.838
92.648
93.46
94.171
94.679
94.907
94.786
94.235
93.14
91.446
89.194
86.55
83.821
81.303
79.2
77.704
77.13
77.666
79.25
81.593
84.02
85.882
86.952
87.055
85.873
83.382
80.006
76.611
74.788
76.25
82.062
93.195
110.938
136.399
170.193
212.472
261.414
313.12
364.189
411.263
453.609
495.01
537.825
581.207
617.629
630.675
604.61
530.783
412.032
265.989
117.259
-11.718
-105.899
-162.221
-187.997
-193.253
-185.549
-168.718
-142.845
-109.235
-74.274
-45.181
-27.543
-22.516
-25.064
-30.116
-34.975
-39.767
-47.56
-59.93
-76.179
-94.373
-111.668
-126.264
-137.74
-146.188
-152.263
-156.756
-160.331
-163.797
-167.731
-172.458
-178.142
-184.702
-191.945
-199.591
-207.274
-214.581
-221.241
-227.125
-232.18
-236.448
-239.956
-242.722
-244.795
-246.248
-247.13
-247.466
-247.277
-246.567
-245.367
-243.731
-241.702
-239.319
-236.606
-233.574
-230.236
-226.603
-222.686
-218.489
-214.023
-209.297
-204.323
-199.121
-193.705
-188.087
-182.276
-176.276
-170.094
-163.738
-157.222
-150.558
-143.764
-136.855
-129.849
-122.768
-115.628
-108.446
-101.235
-94.009
-86.78
-79.562
-72.368
-65.211
-58.103
-51.059
-44.092
-37.216
-30.443
-23.787
-17.258
-10.868
-4.629
1.447
7.349
13.065
18.584
23.895
28.985
33.843
38.457
42.818
46.913
50.734
54.271
57.514
60.454
63.085
65.399
67.39
69.05
70.377
71.364
72.01
72.311
72.266
71.875
71.14
70.062
68.646
66.897
64.821
62.427
59.724
56.724
53.439
49.884
46.075
42.03
37.768
33.308
28.674
23.887
18.972
13.954
8.858
3.71
-1.464
-6.637
-11.782
-16.874
-21.886
-26.794
-31.571
-36.194
-40.64
-44.887
-48.914
-52.701
-56.231
-59.487
-62.455
-65.123
-67.481
-69.521
-71.237
-72.626
-73.688
-74.423
-74.837
-74.937
-74.731
-74.23
-73.449
-72.403
-71.11
-69.59
-67.863
-65.951
-63.879
-61.67
-59.348
-56.94
-54.47
-51.964
-49.447
-46.943
-44.476
-42.07
-39.747
-37.528
-35.432
-33.479
-31.684
-30.063
-28.628
-27.389
-26.355
-25.533
-24.927
-24.539
-24.368
-24.412
-24.666
-25.124
-25.777
-26.613
-27.622
-28.788
-30.098
-31.534
-33.08
-34.72
-36.435
-38.207
-40.019
-41.854
-43.694
-45.524
-47.327
-49.089
-50.796
-52.436
-53.999
-55.473
-56.851
-58.126
-59.294
-60.35
-61.294
-62.125
-62.844
-63.455
-63.963
-64.373
-64.694
-64.935
-65.105
-65.217
-65.283
-65.315
-65.327
-65.332
-65.344
-65.377
-65.442
-65.553
-65.721
-65.955
-66.267
-66.663
-67.151
-67.737
-68.425
-69.216
-70.114
-71.117
-72.223
-73.429
-74.731
-76.122
-77.594
-79.138
-80.744
-82.4
-84.092
-85.808
-87.532
-89.247
-90.938
-92.586
-94.175
-95.685
-97.099
-98.398
-99.564
-100.58
-101.429
-102.096
-102.567
-102.828
-102.868
-102.677
-102.247
-101.569
-100.64
-99.453
-98.008
-96.302
-94.336
-92.111
-89.631
-86.902
-83.929
-80.722
-77.29
-73.642
-69.792
-65.752
-61.538
-57.163
-52.645
-48
-43.247
-38.407
-33.5
-28.549
-23.575
-18.6
-13.646
-8.736
-3.89
0.871
5.53
10.066
14.461
18.697
22.755
26.617
30.265
33.681
36.846
39.744
42.362
44.689
46.713
48.427
49.823
50.898
51.648
52.074
52.176
51.952
51.402
50.53
49.343
47.85
46.062
43.984
41.625
38.999
36.121
33
29.644
26.041
22.187
18.087
13.745
9.173
4.387
-0.597
-5.751
-11.018
-16.341
-21.656
-26.902
-32.05
-37.069
-41.915
-46.551
-50.912
-54.948
-58.637
-61.945
-64.832
-67.29
-69.318
-70.977
-72.42
-73.776
-75.211
-76.937
-79.049
-81.583
-84.488
-87.534
-90.493
-93.195
-95.368
-96.729
-97.199
-96.862
-96.195
-96.071
-97.274
-100.482
-106.272
-115.035
-126.919
-141.598
-157.872
-173.761
-186.885
-194.707
-195.024
-185.889
-165.536
-132.846
-87.702
-31.131
33.744
102.228
169.953
233.022
289.905
340.683
383.063
412.418
421.706
403.929
357.392
285.707
195.608
95.323
-7.157
-104.08
-185.996
-243.498
-271.696
-270.182
-243.409
-199.547
-145.46
-88.017
-34.991
8.108
37.407
53.011
60.328
64.295
68.045
72.252
74.089
72.33
67.977
62.62
59.061
58.811
61.641
67.008
73.934
81.27
88.165
94.036
98.388
101.073
102.214
101.953
100.565
98.425
95.899
93.248
90.626
88.068
85.522
82.968
80.384
77.74
75.001
72.128
69.113
65.953
62.655
59.215
55.607
51.818
47.851
43.716
39.441
35.061
30.609
26.125
21.649
17.217
12.86
8.615
4.511
0.581
-3.137
-6.603
-9.776
-12.613
-15.077
-17.135
-18.761
-19.931
-20.624
-20.825
-20.522
-19.703
-18.358
-16.478
-14.056
-11.088
-7.575
-3.52
1.07
6.183
11.805
17.915
24.492
31.51
38.943
46.761
54.933
63.425
72.202
81.227
90.46
99.863
109.392
119.006
128.661
138.311
147.912
157.419
166.789
175.976
184.938
193.632
202.017
210.053
217.702
224.925
231.69
237.963
243.713
248.914
253.54
257.571
260.987
263.773
265.917
267.41
268.246
268.421
267.936
266.792
264.995
262.553
259.477
255.781
251.48
246.592
241.14
235.145
228.634
221.633
214.171
206.279
197.989
189.335
180.35
171.07
161.532
151.772
141.827
131.735
121.531
111.253
100.937
90.617
80.329
70.107
59.981
49.984
40.146
30.496
21.06
11.864
2.932
-5.713
-14.052
-22.065
-29.737
-37.052
-43.998
-50.566
-56.746
-62.532
-67.922
-72.913
-77.505
-81.702
-85.508
-88.93
-91.976
-94.657
-96.984
-98.97
-100.632
-101.983
-103.042
-103.827
-104.356
-104.65
-104.729
-104.613
-104.326
-103.887
-103.32
-102.645
-101.886
-101.062
-100.196
-99.307
-98.415
-97.54
-96.697
-95.905
-95.178
-94.529
-93.971
-93.514
-93.167
-92.935
-92.825
-92.839
-92.978
-93.242
-93.628
-94.133
-94.75
-95.473
-96.292
-97.198
-98.178
-99.22
-100.308
-101.428
-102.562
-103.694
-104.804
-105.874
-106.885
-107.817
-108.649
-109.364
-109.94
-110.359
-110.604
-110.656
-110.499
-110.119
-109.501
-108.635
-107.51
-106.117
-104.45
-102.504
-100.277
-97.767
-94.977
-91.908
-88.565
-84.956
-81.088
-76.972
-72.619
-68.045
-63.263
-58.292
-53.15
-47.856
-42.433
-36.902
-31.287
-25.611
-19.9
-14.179
-8.471
-2.802
2.803
8.319
13.724
18.995
24.112
29.054
33.803
38.343
42.658
46.736
50.565
54.134
57.436
60.463
63.21
65.674
67.852
69.742
71.347
72.669
73.711
74.479
74.981
75.224
75.218
74.974
74.503
73.819
72.933
71.859
70.611
69.203
67.65
65.966
64.165
62.258
60.257
58.173
56.015
53.791
51.508
49.171
46.785
44.352
41.878
39.364
36.813
34.225
31.602
28.943
26.248
23.515
20.743
17.928
15.066
12.156
9.194
6.178
3.105
-0.027
-3.218
-6.468
-9.773
-13.132
-16.536
-19.979
-23.451
-26.942
-30.438
-33.925
-37.39
-40.817
-44.192
-47.499
-50.724
-53.851
-56.86
-59.737
-62.474
-65.062
-67.511
-69.825
-71.998
-74.022
-75.885
-77.557
-79.014
-80.224
-81.134
-81.698
-81.871
-81.615
-80.928
-79.803
-78.213
-76.109
-73.409
-70.046
-66.009
-61.322
-56.028
-50.204
-43.919
-37.301
-30.602
-24.009
-17.584
-11.265
-4.781
2.138
9.572
17.572
26.275
35.638
45.338
54.73
62.688
68.098
70.335
69.007
63.752
54.634
42.386
28.383
14.882
4.427
-1.04
0.181
9.873
29.258
58.707
97.767
144.856
196.777
249.784
300.515
344.886
381.58
412.374
436.027
450.815
452.183
430.26
381.415
306.364
207.74
96.037
-19.092
-128.836
-220.668
-287.016
-325.375
-336.525
-326.915
-303.527
-270.812
-233.925
-199.158
-171.664
-154.873
-148.105
-145.735
-142.857
-137.546
-130.313
-124.072
-120.38
-118.601
-117.542
-115.567
-111.655
-105.453
-96.986
-86.759
-75.559
-64.277
-53.422
-43.117
-33.431
-24.52
-16.576
-9.721
-3.798
1.644
6.916
12.096
17.106
21.736
25.851
29.423
32.406
34.697
36.191
36.836
36.657
35.789
34.406
32.616
30.473
27.985
25.164
22.077
18.849
15.627
12.522
9.614
6.967
4.651
2.745
1.295
0.292
-0.324
-0.646
-0.725
-0.571
-0.171
0.491
1.411
2.573
3.959
5.581
7.452
9.583
11.982
14.645
17.589
20.853
24.497
28.584
33.158
38.237
43.831
49.94
56.563
63.694
71.315
79.395
87.904
96.817
106.109
115.756
125.726
135.975
146.452
157.102
167.873
178.712
189.567
200.387
211.122
221.725
232.154
242.373
252.341
262.012
271.334
280.253
288.718
296.689
304.131
311.019
317.339
323.09
328.277
332.91
336.994
340.523
343.482
345.838
347.561
348.618
348.996
348.7
347.735
346.105
343.809
340.84
337.173
332.769
327.58
321.548
314.641
306.856
298.231
288.845
278.803
268.232
257.238
245.902
234.3
222.501
210.578
198.608
186.685
174.919
163.438
152.394
141.905
132.057
122.877
114.34
106.381
98.892
91.785
84.994
78.46
72.146
66.012
60.024
54.137
48.301
42.439
36.448
30.242
23.755
16.961
9.876
2.55
-4.936
-12.513
-20.122
-27.719
-35.277
-42.782
-50.224
-57.598
-64.905
-72.127
-79.228
-86.175
-92.938
-99.504
-105.88
-112.085
-118.154
-124.116
-129.998
-135.819
-141.585
-147.297
-152.944
-158.512
-163.978
-169.324
-174.54
-179.616
-184.545
-189.317
-193.917
-198.328
-202.53
-206.503
-210.227
-213.682
-216.851
-219.72
-222.278
-224.517
-226.431
-228.015
-229.263
-230.17
-230.729
-230.934
-230.781
-230.264
-229.379
-228.123
-226.495
-224.497
-222.132
-219.405
-216.319
-212.884
-209.107
-204.999
-200.569
-195.831
-190.797
-185.481
-179.9
-174.069
-168.007
-161.732
-155.264
-148.623
-141.829
-134.905
-127.871
-120.751
-113.564
-106.335
-99.085
-91.837
-84.614
-77.439
-70.334
-63.322
-56.427
-49.67
-43.072
-36.654
-30.434
-24.43
-18.66
-13.138
-7.878
-2.894
1.803
6.203
10.297
14.079
17.542
20.684
23.502
25.996
28.169
30.022
31.563
32.795
33.727
34.368
34.726
34.815
34.643
34.226
33.577
32.709
31.64
30.384
28.958
27.378
25.661
23.824
21.881
19.85
17.744
15.578
13.366
11.119
8.85
6.571
4.29
2.017
-0.241
-2.478
-4.69
-6.874
-9.031
-11.166
-13.281
-15.382
-17.475
-19.569
-21.671
-23.791
-25.933
-28.103
-30.308
-32.558
-34.86
-37.226
-39.667
-42.193
-44.816
-47.548
-50.396
-53.371
-56.477
-59.715
-63.09
-66.606
-70.27
-74.102
-78.113
-82.306
-86.682
-91.235
-95.946
-100.797
-105.756
-110.771
-115.801
-120.798
-125.719
-130.536
-135.214
-139.719
-144.024
-148.079
-151.842
-155.299
-158.448
-161.31
-163.932
-166.355
-168.638
-170.876
-173.164
-175.621
-178.361
-181.465
-185.016
-189.054
-193.629
-198.856
-204.736
-211.141
-217.838
-224.414
-230.481
-235.82
-240.089
-242.823
-243.859
-243.182
-241.076
-238.347
-235.524
-232.834
-230.729
-229.538
-229.042
-228.798
-227.703
-223.872
-215.936
-202.62
-182.231
-153.517
-115.657
-69.135
-16.612
38.814
94.428
149.102
204.326
259.608
311.025
351.681
370.223
357.51
311.797
235.584
136.633
27.119
-83.987
-186.667
-268.878
-325.862
-355.416
-360.268
-350.885
-333.215
-310.118
-283.017
-249.56
-210.681
-170.432
-132.459
-100.635
-77.16
-62.083
-54.791
-53.873
-57.408
-63.248
-69.324
-74.192
-76.769
-76.481
-73.296
-67.506
-59.797
-51.232
-42.883
-35.423
-29.29
-24.632
-21.326
-19.21
-17.991
-17.23
-16.491
-15.502
-14.135
-12.376
-10.299
-7.948
-5.366
-2.632
0.17
2.974
5.745
8.461
11.108
13.651
16.033
18.214
20.166
21.88
23.358
24.609
25.644
26.478
27.132
27.627
27.976
28.194
28.29
28.281
28.186
28.029
27.838
27.639
27.455
27.31
27.222
27.211
27.29
27.475
27.776
28.209
28.788
29.53
30.45
31.562
32.88
34.415
36.176
38.172
40.408
42.886
45.609
48.578
51.79
55.245
58.94
62.867
67.022
71.396
75.979
80.761
85.727
90.864
96.154
101.581
107.125
112.767
118.486
124.258
130.062
135.873
141.667
147.419
153.103
158.693
164.162
169.483
174.631
179.579
184.3
188.77
192.965
196.862
200.437
203.671
206.543
209.033
211.124
212.801
214.048
214.851
215.201
215.085
214.498
213.434
211.889
209.861
207.35
204.359
200.892
196.955
192.557
187.707
182.419
176.707
170.588
164.082
157.209
149.993
142.459
134.633
126.543
118.22
109.692
100.992
92.153
83.207
74.189
65.134
56.076
47.052
38.095
29.241
20.523
11.975
3.629
-4.483
-12.332
-19.889
-27.125
-34.015
-40.534
-46.661
-52.373
-57.654
-62.486
-66.857
-70.756
-74.177
-77.113
-79.561
-81.526
-83.011
-84.026
-84.581
-84.684
-84.348
-83.589
-82.424
-80.875
-78.961
-76.706
-74.135
-71.279
-68.173
-64.853
-61.352
-57.699
-53.923
-50.054
-46.125
-42.173
-38.235
-34.338
-30.518
-26.813
-23.263
-19.912
-16.789
-13.896
-11.245
-8.849
-6.711
-4.847
-3.267
-1.953
-0.909
-0.147
0.381
0.704
0.83
0.794
0.598
0.198
-0.418
-1.24
-2.432
-4.174
-6.357
-8.896
-11.695
-14.24
-16.925
-20.489
-24.181
-27.671
