Name,Criss Capps
Date of Birth,"Feb 5, 1952"
Recorded Date,2024-03-26 20:38:57 -0400
Classification,Sinus Rhythm
Symptoms,
Software Version,1.90
Device,"Watch5,4"
Sample Rate,512.844 hertz


Lead,Lead I
Unit,µV

-37.958
-47.533
-55.271
-61.162
-65.236
-67.583
-68.337
-67.668
-65.764
-62.824
-59.1
-54.879
-50.437
-46.041
-41.907
-38.197
-35.08
-32.697
-31.176
-30.618
-31.109
-32.752
-35.564
-39.478
-44.295
-49.609
-54.957
-59.891
-63.874
-66.362
-67.02
-65.607
-62.184
-57.392
-51.816
-46.005
-40.697
-36.179
-32.45
-29.866
-28.014
-25.34
-20.576
-10.639
7.685
34.473
71.142
116.716
169.148
231.47
302.868
383.909
476.182
574.561
678.01
780.823
871.148
938.221
964.533
940.099
865.971
749.761
610.509
463.088
315.439
172.263
31.764
-104.087
-228.651
-335.836
-419.758
-477.839
-511.623
-523.649
-516.166
-492.364
-456.301
-412.099
-363.857
-315.057
-267.888
-224.256
-186.765
-157.172
-135.767
-122.113
-115.023
-113.087
-115.266
-120.16
-125.409
-128.793
-129.146
-126.105
-120.008
-111.543
-101.263
-89.902
-78.789
-69.357
-62.435
-58.293
-56.749
-57.339
-59.691
-63.459
-68.078
-72.883
-77.397
-81.333
-84.584
-87.175
-89.073
-90.218
-90.619
-90.33
-89.422
-87.975
-86.046
-83.679
-80.944
-77.92
-74.687
-71.331
-67.929
-64.557
-61.284
-58.187
-55.343
-52.814
-50.638
-48.836
-47.398
-46.302
-45.525
-45.031
-44.773
-44.709
-44.793
-44.982
-45.245
-45.54
-45.828
-46.062
-46.19
-46.165
-45.952
-45.523
-44.854
-43.929
-42.728
-41.242
-39.468
-37.4
-35.032
-32.356
-29.361
-26.039
-22.386
-18.4
-14.083
-9.438
-4.465
0.829
6.44
12.358
18.575
25.081
31.868
38.921
46.226
53.764
61.515
69.456
77.565
85.816
94.182
102.636
111.148
119.691
128.234
136.749
145.204
153.569
161.813
169.903
177.81
185.501
192.945
200.11
206.966
213.484
219.635
225.391
230.726
235.616
240.036
243.965
247.383
250.273
252.617
254.401
255.613
256.245
256.289
255.741
254.599
252.863
250.539
247.631
244.149
240.102
235.504
230.369
224.716
218.564
211.933
204.849
197.336
189.422
181.136
172.508
163.569
154.353
144.893
135.223
125.377
115.391
105.3
95.138
84.942
74.746
64.584
54.489
44.495
34.632
24.93
15.418
6.122
-2.934
-11.726
-20.234
-28.438
-36.322
-43.87
-51.07
-57.91
-64.382
-70.479
-76.195
-81.529
-86.479
-91.047
-95.233
-99.044
-102.484
-105.561
-108.282
-110.657
-112.697
-114.413
-115.819
-116.927
-117.752
-118.309
-118.614
-118.68
-118.525
-118.164
-117.611
-116.882
-115.991
-114.952
-113.778
-112.483
-111.078
-109.575
-107.984
-106.314
-104.576
-102.777
-100.923
-99.022
-97.079
-95.098
-93.085
-91.043
-88.975
-86.883
-84.771
-82.639
-80.489
-78.321
-76.137
-73.935
-71.717
-69.481
-67.226
-64.953
-62.661
-60.348
-58.015
-55.661
-53.286
-50.89
-48.473
-46.036
-43.578
-41.103
-38.61
-36.102
-33.581
-31.049
-28.51
-25.967
-23.422
-20.88
-18.343
-15.814
-13.298
-10.798
-8.316
-5.856
-3.422
-1.016
1.358
3.698
6.001
8.265
10.489
12.67
14.807
16.9
18.948
20.951
22.907
24.817
26.682
28.502
30.277
32.008
33.697
35.345
36.954
38.525
40.061
41.565
43.038
44.482
45.9
47.294
48.666
50.017
51.351
52.669
53.974
55.268
56.553
57.83
59.102
60.371
61.636
62.901
64.166
65.431
66.698
67.969
69.244
70.526
71.817
73.119
74.436
75.773
77.135
78.528
79.955
81.422
82.933
84.494
86.109
87.781
89.512
91.306
93.17
95.112
97.141
99.26
101.476
103.792
106.214
108.751
111.407
114.184
117.083
120.106
123.266
126.584
130.073
133.735
137.566
141.551
145.677
149.929
154.283
158.7
163.138
167.549
171.901
176.178
180.354
184.399
188.268
191.889
195.223
198.252
200.973
203.406
205.565
207.467
209.156
210.693
212.154
213.636
215.213
216.949
218.894
221.039
223.434
226.189
229.292
232.663
236.044
238.962
241.126
242.471
242.904
242.369
240.856
238.276
235.007
231.908
229.398
227.522
225.815
223.182
218.687
211.674
200.985
185.117
162.938
133.603
97.558
56.632
12.639
-32.631
-77.205
-119.201
-156.652
-187.522
-211.149
-228.25
-239.905
-247.631
-252.692
-255.877
-258.27
-261.176
-265.217
-270.39
-276.237
-281.797
-286.541
-290.464
-293.492
-295.542
-296.627
-296.809
-296.395
-295.956
-295.836
-296.133
-296.873
-297.971
-299.365
-301.044
-302.936
-304.904
-306.822
-308.57
-310.04
-311.157
-311.869
-312.135
-311.923
-311.206
-309.978
-308.254
-306.075
-303.501
-300.581
-297.355
-293.862
-290.139
-286.24
-282.227
-278.165
-274.116
-270.134
-266.259
-262.533
-258.995
-255.676
-252.597
-249.769
-247.195
-244.881
-242.838
-241.075
-239.603
-238.429
-237.556
-236.988
-236.728
-236.776
-237.132
-237.795
-238.756
-240.007
-241.536
-243.334
-245.395
-247.716
-250.296
-253.123
-256.184
-259.463
-262.936
-266.571
-270.327
-274.148
-277.98
-281.772
-285.476
-289.06
-292.488
-295.72
-298.706
-301.388
-303.71
-305.633
-307.126
-308.151
-308.706
-308.822
-308.559
-308.027
-307.329
-306.527
-305.696
-304.918
-304.281
-303.917
-303.949
-304.465
-305.605
-307.546
-310.359
-314.008
-318.238
-322.5
-326.209
-328.852
-329.847
-328.6
-324.778
-318.418
-310.164
-301.307
-293.198
-286.906
-283.364
-283.448
-287.463
-294.85
-303.874
-311.604
-314.674
-309.935
-294.462
-265.268
-220.147
-158.274
-80.499
10.361
109.995
213.254
314.337
406.435
482.522
536.273
562.376
557.004
519.643
452.91
360.231
247.131
116.239
-33.996
-199.744
-373.506
-539.796
-674.227
-762.635
-801.905
-800.788
-781.005
-757.034
-734.398
-713.318
-687.003
-653.195
-614.526
-573.547
-533.817
-497.152
-463.639
-433.475
-406.788
-383.419
-363.083
-345.839
-331.934
-321.132
-312.723
-305.672
-298.637
-290.969
-282.706
-273.742
-264.013
-253.696
-243.128
-233.043
-224.452
-217.819
-213.111
-210.212
-208.855
-208.784
-209.779
-211.369
-212.925
-214.042
-214.494
-214.167
-213.099
-211.298
-208.736
-205.485
-201.665
-197.389
-192.774
-187.909
-182.838
-177.622
-172.337
-167.066
-161.904
-156.937
-152.239
-147.893
-143.951
-140.447
-137.399
-134.791
-132.596
-130.783
-129.301
-128.097
-127.122
-126.326
-125.663
-125.093
-124.564
-124.024
-123.419
-122.688
-121.781
-120.66
-119.289
-117.642
-115.699
-113.439
-110.851
-107.931
-104.671
-101.063
-97.099
-92.765
-88.054
-82.964
-77.493
-71.644
-65.419
-58.82
-51.855
-44.531
-36.858
-28.847
-20.508
-11.853
-2.897
6.342
15.844
25.586
35.546
45.699
56.018
66.476
77.043
87.691
98.391
109.112
119.824
130.496
141.096
151.591
161.951
172.142
182.133
191.891
201.385
210.585
219.459
227.979
236.117
243.847
251.144
257.985
264.348
270.214
275.565
280.385
284.66
288.379
291.532
294.111
296.112
297.532
298.37
298.629
298.311
297.424
295.976
293.977
291.439
288.379
284.813
280.759
276.24
271.278
265.898
260.126
253.991
247.522
240.749
233.701
226.412
218.912
211.234
203.409
195.47
187.449
179.376
171.283
163.2
155.156
147.179
139.297
131.535
123.918
116.469
109.209
102.157
95.333
88.753
82.432
76.382
70.615
65.14
59.964
55.092
50.528
46.274
42.329
38.692
35.361
32.33
29.595
27.148
24.983
23.092
21.464
20.089
18.957
18.056
17.374
16.898
16.617
16.515
16.582
16.804
17.168
17.662
18.273
18.989
19.797
20.688
21.649
22.67
23.742
24.855
26.002
27.174
28.365
29.569
30.779
31.991
33.199
34.4
35.589
36.762
37.915
39.048
40.155
41.237
42.291
43.316
44.311
45.276
46.212
47.117
47.992
48.839
49.657
50.449
51.214
51.955
52.673
53.369
54.045
54.702
55.34
55.963
56.568
57.158
57.733
58.292
58.837
59.367
59.882
60.383
60.871
61.345
61.806
62.254
62.689
63.111
63.521
63.917
64.299
64.667
65.019
65.355
65.672
65.97
66.247
66.501
66.729
66.929
67.1
67.238
67.34
67.406
67.432
67.415
67.355
67.25
67.098
66.897
66.646
66.344
65.989
65.581
65.118
64.599
64.023
63.388
62.695
61.943
61.131
60.259
59.328
58.338
57.29
56.184
55.022
53.807
52.538
51.22
49.854
48.444
46.993
45.503
43.978
42.423
40.84
39.234
37.606
35.962
34.305
32.637
30.962
29.283
27.604
25.927
24.257
22.597
20.949
19.317
17.705
16.114
14.549
13.011
11.503
10.028
8.587
7.183
5.817
4.492
3.208
1.966
0.768
-0.386
-1.495
-2.56
-3.581
-4.557
-5.488
-6.376
-7.22
-8.02
-8.777
-9.491
-10.163
-10.794
-11.384
-11.934
-12.445
-12.92
-13.358
-13.763
-14.135
-14.476
-14.788
-15.073
-15.332
-15.568
-15.783
-15.978
-16.156
-16.319
-16.469
-16.608
-16.738
-16.86
-16.977
-17.089
-17.199
-17.308
-17.417
-17.528
-17.642
-17.761
-17.885
-18.017
-18.156
-18.304
-18.46
-18.625
-18.798
-18.978
-19.165
-19.356
-19.552
-19.749
-19.946
-20.14
-20.328
-20.507
-20.674
-20.825
-20.956
-21.063
-21.143
-21.19
-21.2
-21.17
-21.095
-20.972
-20.795
-20.562
-20.269
-19.911
-19.484
-18.986
-18.413
-17.763
-17.032
-16.22
-15.326
-14.348
-13.286
-12.141
-10.915
-9.609
-8.227
-6.773
-5.251
-3.667
-2.028
-0.342
1.384
3.138
4.911
6.691
8.463
10.214
11.93
13.595
15.195
16.714
18.137
19.451
20.641
21.695
22.599
23.341
23.905
24.277
24.445
24.398
24.127
23.623
22.883
21.906
20.692
19.245
17.566
15.65
13.498
11.109
8.487
5.643
2.595
-0.634
-4.008
-7.484
-11.019
-14.569
-18.093
-21.558
-24.926
-28.163
-31.227
-34.062
-36.615
-38.836
-40.675
-42.102
-43.108
-43.707
-43.948
-43.909
-43.659
-43.263
-42.794
-42.333
-41.987
-41.87
-42.098
-42.772
-44.019
-46.039
-48.94
-52.704
-57.161
-61.881
-66.409
-70.415
-73.508
-75.217
-75.313
-73.691
-70.547
-66.804
-63.291
-60.443
-58.756
-58.385
-59.06
-60.673
-62.558
-62.84
-59.73
-51.566
-36.479
-13.551
18.013
59.791
112.623
176.379
249.66
328.769
409.66
489.031
565.707
641.039
714.99
784.785
841.676
871.569
860.799
798.675
683.202
519.591
319.235
100.921
-115.325
-306.266
-451.331
-542.351
-581.997
-583.871
-567.027
-545.918
-525.713
-506.53
-485.576
-457.629
-423.054
-383.459
-339.309
-296.161
-257.713
-225.128
-200.377
-181.812
-167.146
-156.21
-148.636
-143.838
-140.971
-138.474
-134.728
-129.227
-122.264
-113.973
-104.502
-94.26
-83.794
-74.012
-66.038
-60.32
-56.76
-55.178
-55.213
-56.521
-58.818
-61.599
-64.237
-66.344
-67.703
-68.202
-67.894
-66.798
-64.902
-62.285
-59.051
-55.303
-51.158
-46.708
-42.019
-37.174
-32.254
-27.345
-22.55
-17.957
-13.653
-9.728
-6.236
-3.217
-0.706
1.302
2.826
3.899
4.581
4.937
5.021
4.897
4.628
4.263
3.854
3.44
3.042
2.701
2.456
2.347
2.43
2.734
3.262
4.018
4.991
6.159
7.516
9.034
10.663
12.391
14.227
16.211
18.428
20.933
23.753
26.907
30.394
34.225
38.434
43.043
48.066
53.53
59.453
65.881
72.896
80.523
88.747
97.508
106.689
116.2
125.982
135.976
146.131
156.393
166.691
176.974
187.21
197.349
207.333
217.078
226.466
235.42
243.902
251.903
259.456
266.573
273.245
279.471
285.25
290.579
295.456
299.862
303.76
307.13
309.964
312.271
314.078
315.397
316.223
316.542
316.328
315.566
314.249
312.37
309.916
306.887
303.286
299.13
294.45
289.268
283.606
277.483
270.915
263.924
256.537
248.784
240.694
232.3
223.634
214.729
205.623
196.352
186.947
177.44
167.857
158.227
148.58
138.944
129.346
119.813
110.37
101.043
91.857
82.835
73.999
65.367
56.959
48.789
40.874
33.226
25.856
18.775
11.991
5.51
-0.663
-6.523
-12.07
-17.301
-22.219
-26.823
-31.117
-35.105
-38.792
-42.184
-45.287
-48.109
-50.658
-52.942
-54.97
-56.751
-58.295
-59.61
-60.707
-61.596
-62.286
-62.789
-63.114
-63.271
-63.271
-63.124
-62.839
-62.427
-61.895
-61.253
-60.509
-59.671
-58.747
-57.743
-56.667
-55.526
-54.326
-53.074
-51.775
-50.436
-49.062
-47.658
-46.229
-44.781
-43.317
-41.843
-40.363
-38.881
-37.402
-35.93
-34.471
-33.027
-31.604
-30.204
-28.833
-27.492
-26.186
-24.917
-23.689
-22.504
-21.366
-20.278
-19.243
-18.264
-17.345
-16.489
-15.698
-14.975
-14.324
-13.746
-13.243
-12.817
-12.471
-12.206
-12.023
-11.924
-11.909
-11.979
-12.134
-12.374
-12.697
-13.103
-13.59
-14.157
-14.801
-15.521
-16.314
-17.178
-18.111
-19.11
-20.172
-21.293
-22.469
-23.696
-24.969
-26.283
-27.632
-29.012
-30.416
-31.839
-33.273
-34.714
-36.155
-37.59
-39.012
-40.416
-41.796
-43.145
-44.458
-45.73
-46.956
-48.132
-49.254
-50.318
-51.32
-52.258
-53.128
-53.928
-54.656
-55.31
-55.888
-56.389
-56.812
-57.157
-57.424
-57.614
-57.726
-57.763
-57.729
-57.626
-57.459
-57.233
-56.948
-56.609
-56.219
-55.782
-55.303
-54.788
-54.237
-53.658
-53.055
-52.436
-51.808
-51.177
-50.542
-49.907
-49.27
-48.636
-48.016
-47.417
-46.844
-46.305
-45.802
-45.342
-44.934
-44.581
-44.279
-44.023
-43.805
-43.622
-43.48
-43.384
-43.347
-43.363
-43.409
-43.46
-43.483
-43.47
-43.447
-43.418
-43.376
-43.317
-43.205
-43.065
-43.008
-43.001
-42.881
-42.509
-41.685
-40.423
-39.043
-37.667
-36.192
-34.794
-33.801
-33.589
-34.779
-37.382
-40.664
-44.234
-47.994
-51.599
-54.714
-56.821
-56.987
-55.142
-52.168
-48.602
-44.763
-41.024
-37.521
-34.645
-33.208
-33.313
-34.345
-35.902
-37.646
-39.35
-41.091
-42.741
-43.911
-44.545
-44.868
-45.048
-45.272
-45.613
-45.96
-46.291
-46.673
-47.109
-47.579
-48.058
-48.49
-48.865
-49.218
-49.57
-49.931
-50.303
-50.669
-51.017
-51.343
-51.64
-51.905
-52.132
-52.312
-52.438
-52.501
-52.493
-52.409
-52.24
-51.977
-51.612
-51.132
-50.533
-49.812
-48.967
-47.995
-46.895
-45.661
-44.292
-42.787
-41.147
-39.373
-37.465
-35.426
-33.259
-30.971
-28.568
-26.058
-23.448
-20.749
-17.972
-15.128
-12.232
-9.299
-6.345
-3.389
-0.451
2.448
5.289
8.05
10.708
13.242
15.631
17.856
19.898
21.739
23.359
24.739
25.861
26.707
27.262
27.514
27.452
27.066
26.351
25.311
23.948
22.269
20.274
17.96
15.326
12.378
9.125
5.581
1.77
-2.282
-6.541
-10.954
-15.47
-20.041
-24.62
-29.17
-33.658
-38.036
-42.251
-46.238
-49.929
-53.269
-56.213
-58.718
-60.772
-62.379
-63.573
-64.424
-64.996
-65.353
-65.578
-65.754
-65.976
-66.364
-67.018
-68.077
-69.756
-72.176
-75.365
-79.227
-83.403
-87.484
-91.118
-93.8
-94.957
-94.235
-91.443
-86.836
-81.386
-76.055
-71.689
-69.246
-69.422
-72.565
-78.71
-86.864
-94.796
-100.093
-100.089
-91.867
-72.94
-41.04
5.497
66.999
142.473
230.164
327.183
428.323
526.741
615.562
689.254
746.623
789.119
815.359
820.46
794.755
727.675
615.181
459.532
271.444
67.765
-133.007
-309.828
-447.264
-539.432
-589.437
-610.787
-616.666
-613.412
-601.853
-577.879
-539.522
-490.083
-435.549
-382.281
-334.122
-292.891
-259.199
-232.705
-213.306
-200.184
-191.612
-186.592
-184.276
-183.227
-182.443
-180.912
-177.369
-171.647
-164.223
-155.273
-145.202
-134.692
-124.201
-114.498
-106.571
-100.688
-96.756
-94.654
-94.009
-94.5
-95.909
-97.771
-99.544
-100.94
-101.796
-102.063
-101.805
-100.988
-99.57
-97.604
-95.173
-92.38
-89.314
-86.018
-82.523
-78.878
-75.142
-71.398
-67.716
-64.133
-60.697
-57.446
-54.432
-51.733
-49.395
-47.426
-45.825
-44.568
-43.627
-42.983
-42.602
-42.435
-42.438
-42.568
-42.786
-43.068
-43.381
-43.683
-43.931
-44.071
-44.056
-43.856
-43.439
-42.78
-41.854
-40.642
-39.132
-37.32
-35.202
-32.767
-30.006
-26.91
-23.472
-19.689
-15.552
-11.048
-6.175
-0.939
4.649
10.566
16.794
23.317
30.112
37.151
44.411
51.875
59.539
67.416
75.504
83.788
92.243
100.824
109.503
118.271
127.119
136.046
145.048
154.116
163.258
172.508
181.864
191.298
200.747
210.106
219.295
228.258
236.95
245.346
253.402
261.056
268.256
274.956
281.103
286.647
291.509
295.578
298.793
301.135
302.629
303.36
303.382
302.722
301.412
299.471
296.931
293.834
290.21
286.066
281.436
276.356
270.893
265.15
259.188
253.034
246.691
240.12
233.305
226.252
218.963
211.442
203.698
195.737
187.589
179.301
170.905
162.425
153.871
145.231
136.516
127.754
118.979
110.242
101.585
93.039
84.64
76.425
68.426
60.667
53.16
45.905
38.908
32.179
25.729
19.571
13.716
8.164
2.919
-2.022
-6.66
-10.998
-15.044
-18.805
-22.292
-25.509
-28.464
-31.16
-33.602
-35.8
-37.76
-39.492
-41.005
-42.308
-43.413
-44.332
-45.076
-45.656
-46.083
-46.365
-46.514
-46.538
-46.446
-46.247
-45.948
-45.558
-45.083
-44.53
-43.905
-43.215
-42.465
-41.66
-40.805
-39.904
-38.962
-37.983
-36.972
-35.931
-34.865
-33.778
-32.674
-31.556
-30.428
-29.294
-28.158
-27.023
-25.891
-24.766
-23.651
-22.547
-21.459
-20.389
-19.338
-18.311
-17.31
-16.336
-15.394
-14.486
-13.614
-12.782
-11.992
-11.247
-10.55
-9.904
-9.311
-8.773
-8.294
-7.874
-7.515
-7.218
-6.985
-6.815
-6.709
-6.668
-6.69
-6.776
-6.924
-7.133
-7.402
-7.729
-8.112
-8.55
-9.039
-9.579
-10.166
-10.8
-11.476
-12.193
-12.949
-13.74
-14.564
-15.418
-16.298
-17.201
-18.123
-19.062
-20.013
-20.973
-21.939
-22.907
-23.875
-24.839
-25.797
-26.745
-27.68
-28.6
-29.503
-30.386
-31.247
-32.085
-32.898
-33.686
-34.447
-35.18
-35.885
-36.56
-37.206
-37.822
-38.406
-38.96
-39.482
-39.972
-40.432
-40.861
-41.26
-41.629
-41.97
-42.283
-42.57
-42.832
-43.069
-43.284
-43.477
-43.651
-43.807
-43.947
-44.074
-44.189
-44.295
-44.393
-44.485
-44.572
-44.656
-44.739
-44.82
-44.902
-44.985
-45.07
-45.157
-45.247
-45.341
-45.439
-45.541
-45.647
-45.757
-45.871
-45.987
-46.107
-46.229
-46.352
-46.476
-46.601
-46.725
-46.848
-46.967
-47.081
-47.189
-47.288
-47.376
-47.451
-47.511
-47.555
-47.579
-47.583
-47.565
-47.523
-47.457
-47.366
-47.248
-47.103
-46.932
-46.734
-46.51
-46.261
-45.988
-45.691
-45.372
-45.034
-44.676
-44.301
-43.911
-43.508
-43.092
-42.668
-42.237
-41.801
-41.365
-40.929
-40.499
-40.078
-39.668
-39.274
-38.899
-38.546
-38.22
-37.923
-37.659
-37.429
-37.237
-37.084
-36.972
-36.902
-36.874
-36.888
-36.944
-37.041
-37.176
-37.349
-37.556
-37.795
-38.063
-38.358
-38.674
-39.009
-39.359
-39.719
-40.084
-40.449
-40.809
-41.157
-41.488
-41.796
-42.073
-42.312
-42.507
-42.65
-42.734
-42.752
-42.699
-42.566
-42.349
-42.042
-41.641
-41.141
-40.539
-39.833
-39.021
-38.101
-37.074
-35.941
-34.702
-33.361
-31.92
-30.383
-28.754
-27.04
-25.247
-23.38
-21.448
-19.461
-17.426
-15.354
-13.258
-11.15
-9.045
-6.96
-4.91
-2.914
-0.987
0.853
2.587
4.201
5.681
7.014
8.188
9.189
10.002
10.617
11.023
11.212
11.178
10.916
10.421
9.693
8.741
7.569
6.183
4.583
2.76
0.712
-1.555
-4.033
-6.708
-9.561
-12.571
-15.708
-18.921
-22.164
-25.388
-28.549
-31.622
-34.57
-37.345
-39.896
-42.149
-44.045
-45.551
-46.638
-47.294
-47.525
-47.348
-46.811
-46.004
-45.025
-43.985
-43
-42.17
-41.613
-41.44
-41.786
-42.849
-44.714
-47.369
-50.708
-54.436
-58.25
-61.909
-65.046
-67.235
-68.266
-67.989
-66.56
-64.701
-63.001
-62.016
-62.339
-64.032
-67.05
-71.583
-77.133
-82.297
-84.618
-80.103
-65.322
-39.492
-5.678
31.167
67.321
103.215
147.913
211.45
300.717
417.334
546.568
668.148
761.017
803.965
792.782
734.142
640.542
530.181
413.507
292.338
165.999
35.494
-95.055
-215.606
-315.203
-392.006
-446.612
-482.425
-505.753
-516.295
-513.828
-500.645
-478.1
-450.737
-422.983
-396.342
-372.072
-350.512
-331.452
-315.236
-301.695
-289.744
-278.235
-266.297
-253.082
-238.365
-222.16
-204.091
-184.201
-163.101
-141.533
-120.496
-101.1
-83.894
-69.186
-57.377
-48.562
-42.635
-39.391
-38.307
-38.738
-40.267
-42.607
-45.509
-48.811
-52.301
-55.754
-59.033
-62.05
-64.693
-66.83
-68.34
-69.125
-69.164
-68.502
-67.213
-65.38
-63.09
-60.421
-57.45
-54.267
-50.965
-47.626
-44.334
-41.171
-38.217
-35.571
-33.302
-31.445
-30.005
-28.963
-28.289
-27.952
-27.906
-28.096
-28.465
-28.961
-29.546
-30.174
-30.775
-31.277
-31.606
-31.694
-31.524
-31.063
-30.247
-29.077
-27.61
-25.886
-23.96
-21.844
-19.443
-16.724
-13.779
-10.508
-6.552
-1.827
3.553
9.627
16.019
23.383
33.933
47.27
61.303
72.741
75.263
68.997
60.318
55.491
63.43
85.01
111.685
136.817
153.344
159.741
162.327
165.054
170.51
179.573
189.632
199.419
209.002
218.251
227.515
236.876
245.949
254.592
262.833
270.634
277.949
284.763
291.065
296.861
302.188
307.044
311.38
315.171
318.404
321.065
323.146
324.638
325.527
325.809
325.487
324.565
323.048
320.946
318.267
315.022
311.227
306.896
302.05
296.708
290.893
284.628
277.938
270.85
263.393
255.595
247.487
239.1
230.466
221.616
212.583
203.401
194.103
184.72
175.286
165.833
156.391
146.991
137.661
128.429
119.32
110.36
101.572
92.975
84.591
76.436
68.527
60.877
53.498
46.402
39.596
33.088
26.883
20.984
15.395
10.115
5.144
0.48
-3.879
-7.939
-11.703
-15.18
-18.376
-21.3
-23.96
-26.366
-28.529
-30.458
-32.164
-33.658
-34.95
-36.051
-36.972
-37.723
-38.315
-38.757
-39.059
-39.231
-39.28
-39.215
-39.044
-38.772
-38.408
-37.956
-37.422
-36.811
-36.129
-35.38
-34.569
-33.698
-32.773
-31.796
-30.77
-29.699
-28.585
-27.43
-26.239
-25.013
-23.755
-22.468
-21.155
-19.82
-18.464
-17.092
-15.705
-14.308
-12.903
-11.493
-10.082
-8.672
-7.269
-5.874
-4.494
-3.131
-1.791
-0.476
0.807
2.056
3.266
4.433
5.553
6.622
7.636
8.591
9.484
10.311
11.07
11.757
12.372
12.912
13.377
13.764
14.075
14.309
14.467
14.548
14.553
14.483
14.34
14.124
13.838
13.483
13.062
12.576
12.03
11.426
10.767
10.055
9.295
8.49
7.644
6.76
5.842
4.895
3.923
2.928
1.917
0.892
-0.143
-1.184
-2.228
-3.273
-4.315
-5.354
-6.385
-7.408
-8.421
-9.422
-10.409
-11.381
-12.337
-13.276
-14.197
-15.1
-15.984
-16.849
-17.694
-18.52
-19.326
-20.113
-20.88
-21.628
-22.358
-23.069
-23.763
-24.442
-25.105
-25.755
-26.393
-27.018
-27.634
-28.24
-28.837
-29.425
-30.006
-30.58
-31.148
-31.709
-32.265
-32.815
-33.36
-33.9
-34.434
-34.963
-35.487
-36.004
-36.515
-37.018
-37.515
-38.004
-38.486
-38.959
-39.424
-39.879
-40.325
-40.761
-41.185
-41.596
-41.995
-42.38
-42.751
-43.108
-43.449
-43.776
-44.087
-44.384
-44.666
-44.934
-45.188
-45.429
-45.656
-45.872
-46.077
-46.273
-46.461
-46.642
-46.819
-46.994
-47.168
-47.343
-47.522
-47.705
-47.896
-48.096
-48.308
-48.532
-48.772
-49.031
-49.309
-49.61
-49.933
-50.282
-50.657
-51.059
-51.489
-51.947
-52.432
-52.945
-53.485
-54.053
-54.646
-55.262
-55.899
-56.553
-57.22
-57.898
-58.584
-59.274
-59.964
-60.648
-61.321
-61.979
-62.616
-63.223
-63.794
-64.317
-64.785
-65.194
-65.54
-65.819
-66.022
-66.137
-66.152
-66.06
-65.85
-65.517
-65.052
-64.445
-63.691
-62.792
-61.75
-60.574
-59.265
-57.821
-56.235
-54.496
-52.615
-50.617
-48.532
-46.397
-44.229
-42.011
-39.749
-37.462
-35.167
-32.913
-30.692
-28.41
-26.117
-23.986
-22.166
-20.87
-20.106
-19.58
-19.193
-19.063
-19.037
-18.821
-18.067
-16.19
-13.191
-9.783
-6.351
-2.995
-0.055
2.139
3.084
1.883
-1.528
-6.296
-11.894
-18.002
-24.244
-30.451
-36.205
-40.688
-43.767
-46.012
-47.787
-49.377
-50.963
-52.421
-53.83
-55.544
-57.596
-59.746
-61.798
-63.514
-64.803
-65.819
-66.65
-67.331
-67.895
-68.287
-68.595
-69.1
-70.027
-71.631
-73.999
-76.873
-80.254
-84.471
-89.465
-94.897
-100.17
-104.113
-106.085
-106.321
-104.65
-100.586
-94.147
-85.588
-76.008
-67.699
-62.215
-59.953
-61.403
-66.97
-76.554
-89.663
-104.276
-116.604
-122.921
-120.191
-105.748
-77.132
-32.259
30.305
110.548
205.033
307.656
412.565
513.666
608.5
699.134
782.834
853.53
898.778
898.512
843.878
737.458
591.263
427.656
258.869
87.174
-85.189
-255.807
-411.207
-532.628
-610.001
-643.474
-645.345
-630.646
-607.803
-579.52
-543.219
-497.737
-446.387
-393.424
-343.891
-301.491
-267.316
-241.424
-222.983
-210.373
-201.883
-196.347
-192.557
-188.996
-184.344
-177.4
-167.648
-155.554
-141.919
-127.44
-112.82
-98.819
-86.28
-76.158
-68.948
-64.663
-63.089
-63.731
-66.272
-70.674
-76.375
-82.588
-89.002
-94.793
-100.168
-107.263
-115.502
-122.718
-125.774
-117.334
-95.755
-68.233
-43.722
-35.533
-51.005
-80.837
-111.284
-127.842
-119.535
-92.745
-61.088
-34.899
-23.031
-23.973
-29.43
-35.138
-37.925
-37.357
-36.398
-35.886
-35.596
-35.66
-35.577
-35.178
-34.801
-34.484
-34.175
-34.025
-34.025
-33.952
-33.595
-32.689
-31.151
-29.252
-27.149
-24.713
-21.997
-19.301
-17.1
-16.189
-16.818
-18.382
-20.313
-22.283
-23.923
-24.757
-23.928
-19.991
-12.212
-0.995
12.936
28.428
44.658
61.179
76.734
90.943
103.803
113.764
121.112
124.114
120.129
113.47
107.227
106.189
116.592
133.897
153.637
172.114
184.02
192.367
200.318
208.387
218.234
228.411
237.45
245.941
253.951
261.648
269.287
276.556
283.266
289.504
295.266
300.467
305.037
308.936
312.164
314.782
316.846
318.346
319.261
319.58
319.298
318.42
316.958
314.922
312.316
309.148
305.43
301.172
296.394
291.112
285.348
279.117
272.442
265.345
257.858
250.016
241.853
233.404
224.701
215.777
206.668
197.407
188.032
178.574
169.068
159.545
150.039
140.58
131.2
121.927
112.789
103.81
95.016
86.428
78.067
69.954
62.105
54.537
47.263
40.295
33.644
27.316
21.318
15.654
10.326
5.334
0.676
-3.651
-7.652
-11.332
-14.701
-17.765
-20.536
-23.022
-25.236
-27.188
-28.89
-30.354
-31.592
-32.618
-33.442
-34.078
-34.538
-34.834
-34.978
-34.981
-34.855
-34.611
-34.26
-33.81
-33.272
-32.653
-31.963
-31.209
-30.397
-29.534
-28.624
-27.674
-26.686
-25.666
-24.615
-23.538
-22.435
-21.31
-20.165
-19
-17.82
-16.624
-15.417
-14.199
-12.973
-11.741
-10.507
-9.272
-8.04
-6.813
-5.595
-4.388
-3.195
-2.02
-0.866
0.263
1.365
2.435
3.469
4.463
5.414
6.317
7.168
7.963
8.699
9.37
9.974
10.507
10.965
11.345
11.646
11.864
11.998
12.048
12.013
11.893
11.689
11.402
11.034
10.586
10.062
9.464
8.795
8.059
7.259
6.4
5.485
4.519
3.506
2.451
1.36
0.236
-0.915
-2.087
-3.276
-4.476
-5.682
-6.889
-8.091
-9.285
-10.466
-11.628
-12.77
-13.886
-14.974
-16.032
-17.058
-18.051
-19.008
-19.931
-20.818
-21.67
-22.488
-23.272
-24.022
-24.741
-25.429
-26.088
-26.719
-27.324
-27.904
-28.462
-28.998
-29.515
-30.015
-30.5
-30.971
-31.43
-31.881
-32.323
-32.761
-33.194
-33.626
-34.057
-34.489
-34.923
-35.36
-35.799
-36.241
-36.685
-37.132
-37.58
-38.028
-38.475
-38.92
-39.361
-39.797
-40.227
-40.649
-41.062
-41.466
-41.858
-42.239
-42.607
-42.962
-43.303
-43.63
-43.942
-44.24
-44.523
-44.792
-45.046
-45.286
-45.512
-45.725
-45.925
-46.113
-46.29
-46.457
-46.617
-46.77
-46.918
-47.065
-47.212
-47.362
-47.518
-47.681
-47.856
-48.044
-48.249
-48.471
-48.714
-48.979
-49.268
-49.582
-49.922
-50.288
-50.68
-51.1
-51.545
-52.017
-52.512
-53.03
-53.568
-54.125
-54.698
-55.284
-55.879
-56.48
-57.083
-57.683
-58.276
-58.856
-59.418
-59.956
-60.463
-60.932
-61.357
-61.731
-62.045
-62.292
-62.466
-62.56
-62.566
-62.478
-62.291
-61.998
-61.594
-61.075
-60.436
-59.674
-58.785
-57.768
-56.621
-55.343
-53.935
-52.399
-50.735
-48.949
-47.043
-45.022
-42.892
-40.659
-38.332
-35.919
-33.43
-30.878
-28.274
-25.632
-22.967
-20.3
-17.646
-15.026
-12.456
-9.955
-7.544
-5.245
-3.076
-1.056
0.798
2.47
3.942
5.196
6.214
6.984
7.494
7.738
7.707
7.391
6.785
5.887
4.704
3.247
1.52
-0.478
-2.748
-5.282
-8.069
-11.087
-14.313
-17.724
-21.292
-24.977
-28.728
-32.496
-36.225
-39.87
-43.401
-46.795
-50.022
-53.049
-55.815
-58.245
-60.296
-61.94
-63.178
-64.058
-64.598
-64.765
-64.663
-64.525
-64.579
-65.107
-66.201
-67.669
-69.494
-71.914
-74.961
-78.427
-81.954
-84.831
-86.686
-87.856
-88.404
-87.962
-86.359
-83.619
-80.042
-76.719
-74.568
-73.504
-73.67
-75.571
-79.201
-84.465
-91.246
-98.089
-102.957
-104.795
-100.676
-87.368
-64.612
-30.804
13.073
64.003
125.022
197.58
283.003
383.066
488.354
587.301
670.067
727.168
760.655
777.298
779.358
764.104
719.45
628.792
482.471
286.968
63.49
-156.788
-340.603
-471.414
-549.211
-585.577
-601.947
-611.202
-615.848
-613.683
-597.739
-566.633
-525.032
-478.466
-432.814
-390.83
-353.038
-320.186
-292.35
-269.467
-251.129
-236.155
-223.954
-214.485
-207.183
-201.082
-195.113
-188.112
-179.733
-170.394
-160.28
-149.499
-138.423
-127.539
-117.625
-109.654
-103.99
-100.489
-98.949
-99.018
-100.376
-102.756
-105.672
-108.536
-110.996
-112.859
-114.051
-114.605
-114.473
-113.591
-111.994
-109.756
-106.983
-103.779
-100.214
-96.35
-92.263
-88.036
-83.769
-79.552
-75.442
-71.498
-67.769
-64.307
-61.192
-58.474
-56.166
-54.267
-52.755
-51.594
-50.757
-50.204
-49.879
-49.732
-49.711
-49.771
-49.88
-50
-50.086
-50.091
-49.96
-49.644
-49.111
-48.332
-47.281
-45.94
-44.288
-42.313
-40.013
-37.382
-34.412
-31.093
-27.416
-23.371
-18.956
-14.173
-9.021
-3.505
2.372
8.604
15.183
22.099
29.344
36.904
44.771
52.929
61.361
70.048
78.967
88.096
97.409
106.882
116.484
126.188
135.965
145.783
155.613
165.423
175.181
184.854
194.409
203.815
213.037
222.042
230.798
239.272
247.432
255.249
262.691
269.731
276.34
282.493
288.165
293.334
297.978
302.078
305.617
308.581
310.957
312.734
313.906
314.467
314.415
313.749
312.472
310.59
308.109
305.039
301.391
297.182
292.426
287.143
281.353
275.08
268.348
261.185
253.617
245.676
237.392
228.796
219.923
210.806
201.478
191.976
182.333
172.584
162.764
152.908
143.048
133.218
123.449
113.771
104.213
94.804
85.569
76.532
67.717
59.145
50.835
42.805
35.071
27.646
20.544
13.775
7.346
1.266
-4.462
-9.834
-14.849
-19.507
-23.809
-27.759
-31.361
-34.621
-37.548
-40.148
-42.433
-44.411
-46.096
-47.499
-48.632
-49.509
-50.143
-50.548
-50.736
-50.721
-50.517
-50.138
-49.595
-48.902
-48.072
-47.116
-46.049
-44.88
-43.623
-42.287
-40.883
-39.423
-37.915
-36.37
-34.796
-33.203
-31.597
-29.988
-28.382
-26.787
-25.207
-23.649
-22.118
-20.618
-19.153
-17.728
-16.344
-15.006
-13.716
-12.475
-11.288
-10.155
-9.079
-8.06
-7.102
-6.203
-5.367
-4.592
-3.881
-3.233
-2.648
-2.125
-1.666
-1.268
-0.931
-0.654
-0.435
-0.272
-0.164
-0.109
-0.104
-0.148
-0.238
-0.373
-0.549
-0.766
-1.02
-1.31
-1.633
-1.988
-2.372
-2.783
-3.22
-3.68
-4.16
-4.66
-5.177
-5.71
-6.256
-6.813
-7.381
-7.957
-8.541
-9.13
-9.725
-10.323
-10.924
-11.527
-12.133
-12.739
-13.347
-13.954
-14.563
-15.171
-15.78
-16.388
-16.995
-17.602
-18.208
-18.813
-19.417
-20.019
-20.618
-21.215
-21.81
-22.4
-22.986
-23.567
-24.142
-24.71
-25.271
-25.822
-26.364
-26.895
-27.414
-27.92
-28.411
-28.886
-29.345
-29.785
-30.206
-30.607
-30.986
-31.343
-31.677
-31.986
-32.271
-32.53
-32.763
-32.969
-33.148
-33.299
-33.422
-33.517
-33.583
-33.62
-33.63
-33.612
-33.567
-33.495
-33.399
-33.278
-33.135
-32.972
-32.79
-32.591
-32.378
-32.152
-31.917
-31.674
-31.426
-31.175
-30.925
-30.676
-30.431
-30.194
-29.965
-29.748
-29.544
-29.356
-29.186
-29.037
-28.911
-28.81
-28.736
-28.691
-28.679
-28.7
-28.756
-28.849
-28.98
-29.15
-29.358
-29.606
-29.893
-30.216
-30.576
-30.969
-31.395
-31.849
-32.329
-32.832
-33.353
-33.89
-34.438
-34.993
-35.549
-36.102
-36.646
-37.176
-37.686
-38.169
-38.619
-39.03
-39.396
-39.709
-39.964
-40.152
-40.267
-40.303
-40.252
-40.109
-39.868
-39.523
-39.07
-38.506
-37.828
-37.034
-36.122
-35.094
-33.95
-32.691
-31.321
-29.843
-28.262
-26.583
-24.815
-22.965
-21.043
-19.058
-17.024
-14.954
-12.862
-10.764
-8.675
-6.614
-4.597
-2.643
-0.769
1.009
2.672
4.203
5.585
6.802
7.835
8.67
9.291
9.682
9.832
9.729
9.367
8.742
7.854
6.701
5.283
3.594
1.634
-0.592
-3.078
-5.812
-8.777
-11.951
-15.297
-18.764
-22.303
-25.863
-29.4
-32.878
-36.255
-39.49
-42.535
-45.333
-47.84
-50.018
-51.836
-53.268
-54.302
-54.951
-55.277
-55.379
-55.362
-55.322
-55.326
-55.445
-55.776
-56.415
-57.485
-59.09
-61.295
-64.189
-67.904
-72.483
-77.862
-83.794
-89.774
-95.248
-99.737
-102.689
-103.531
-101.861
-97.54
-90.931
-82.924
-74.527
-66.608
-59.992
-55.516
-53.639
-54.194
-56.058
-57.154
-54.967
-46.987
-30.752
-3.615
36.481
90.578
158.338
237.711
325.473
417.512
508.824
593.397
664.919
717.289
745.277
744.961
714.837
656.314
571.695
465.009
337.767
188.664
22.279
-153.464
-322.698
-463.058
-564.199
-622.672
-643.241
-640.575
-618.955
-582.412
-538.806
-490.462
-446.849
-412.975
-382.903
-353.684
-320.613
-282.978
-248.02
-219.695
-199.806
-188.231
-181.632
-177.88
-175.718
-173.614
-170.45
-165.455
-158.34
-149.312
-138.651
-126.802
-114.414
-102.397
-91.98
-83.846
-78.05
-74.447
-72.672
-72.394
-73.379
-75.175
-77.131
-78.831
-80.075
-80.775
-81.008
-80.767
-79.941
-78.529
-76.594
-74.21
-71.486
-68.493
-65.253
-61.817
-58.246
-54.612
-51.01
-47.505
-44.128
-40.922
-37.92
-35.18
-32.788
-30.791
-29.198
-28
-27.168
-26.672
-26.49
-26.582
-26.898
-27.386
-27.997
-28.693
-29.447
-30.225
-30.984
-31.674
-32.234
-32.614
-32.781
-32.703
-32.354
-31.709
-30.747
-29.453
-27.825
-25.855
-23.533
-20.847
-17.782
-14.331
-10.49
-6.257
-1.634
3.376
8.769
14.541
20.68
27.178
34.024
41.207
48.716
56.534
64.645
73.028
81.66
90.517
99.573
108.8
118.169
127.649
137.208
146.816
156.44
166.047
175.602
185.073
194.425
203.624
212.635
221.425
229.96
238.207
246.135
253.712
260.909
267.697
274.05
279.943
285.353
290.258
294.638
298.476
301.756
304.465
306.593
308.13
309.072
309.414
309.156
308.3
306.851
304.814
302.2
299.02
295.288
291.02
286.234
280.95
275.192
268.983
262.349
255.319
247.92
240.184
232.14
223.821
215.259
206.487
197.537
188.443
179.237
169.954
160.625
151.282
141.956
132.678
123.477
114.38
105.413
96.602
87.969
79.537
71.325
63.351
55.632
48.183
41.015
34.141
27.568
21.303
15.353
9.719
4.404
-0.593
-5.271
-9.635
-13.689
-17.436
-20.885
-24.041
-26.915
-29.514
-31.849
-33.932
-35.772
-37.383
-38.777
-39.965
-40.96
-41.775
-42.422
-42.912
-43.259
-43.472
-43.564
-43.544
-43.424
-43.212
-42.917
-42.549
-42.114
-41.62
-41.073
-40.479
-39.845
-39.174
-38.473
-37.744
-36.993
-36.224
-35.438
-34.641
-33.834
-33.021
-32.204
-31.384
-30.564
-29.745
-28.929
-28.117
-27.311
-26.512
-25.722
-24.942
-24.174
-23.419
-22.681
-21.959
-21.258
-20.578
-19.923
-19.295
-18.698
-18.133
-17.604
-17.113
-16.663
-16.258
-15.898
-15.587
-15.326
-15.116
-14.959
-14.855
-14.806
-14.812
-14.873
-14.989
-15.16
-15.385
-15.665
-15.998
-16.383
-16.82
-17.306
-17.841
-18.422
-19.046
-19.713
-20.418
-21.158
-21.931
-22.733
-23.56
-24.408
-25.274
-26.152
-27.04
-27.932
-28.826
-29.718
-30.603
-31.48
-32.345
-33.195
-34.029
-34.844
-35.64
-36.413
-37.162
-37.887
-38.587
-39.259
-39.903
-40.517
-41.102
-41.656
-42.179
-42.67
-43.129
-43.557
-43.952
-44.317
-44.65
-44.954
-45.23
-45.477
-45.699
-45.896
-46.069
-46.22
-46.351
-46.463
-46.557
-46.634
-46.695
-46.74
-46.771
-46.788
-46.79
-46.78
-46.757
-46.721
-46.675
-46.619
-46.554
-46.482
-46.405
-46.325
-46.243
-46.161
-46.082
-46.008
-45.941
-45.883
-45.836
-45.801
-45.781
-45.778
-45.792
-45.825
-45.879
-45.955
-46.055
-46.179
-46.329
-46.505
-46.711
-46.946
-47.211
-47.509
-47.839
-48.202
-48.599
-49.029
-49.491
-49.984
-50.505
-51.052
-51.621
-52.209
-52.811
-53.422
-54.037
-54.65
-55.256
-55.847
-56.417
-56.96
-57.469
-57.936
-58.356
-58.72
-59.023
-59.256
-59.414
-59.489
-59.474
-59.363
-59.149
-58.827
-58.389
-57.83
-57.145
-56.329
-55.379
-54.29
-53.061
-51.691
-50.179
-48.526
-46.736
-44.811
-42.756
-40.578
-38.282
-35.878
-33.375
-30.782
-28.111
-25.374
-22.585
-19.756
-16.903
-14.041
-11.185
-8.355
-5.568
-2.845
-0.204
2.335
4.751
7.023
9.134
11.065
12.8
14.324
15.621
16.677
17.477
18.009
18.262
18.229
17.904
17.284
16.369
15.165
13.684
11.933
9.921
7.648
5.117
2.336
-0.684
-3.929
-7.375
-10.999
-14.764
-18.622
-22.52
-26.406
-30.232
-33.96
-37.549
-40.955
-44.122
-46.986
-49.48
-51.555
-53.163
-54.267
-54.863
-54.962
-54.613
-53.903
-52.911
-51.733
-50.48
-49.258
-48.191
-47.424
-47.069
-47.283
-48.285
-50.198
-53.07
-56.805
-61.039
-65.341
-69.297
-72.343
-73.844
-73.368
-70.657
-65.899
-59.989
-53.987
-48.91
-45.861
-45.783
-49.186
-56.152
-65.838
-76.038
-83.85
-86.092
-79.428
-60.645
-26.871
24.174
93.595
179.363
276.752
380.53
485.545
589.818
692.577
788.528
867.631
913.861
912.895
861.357
764.941
638.485
494.064
333.523
158.854
-27.668
-213.849
-375.104
-495.174
-567.154
-596.677
-603.026
-598.44
-587.322
-569.63
-539.475
-496.139
-444.35
-389.502
-337.893
-293.776
-258.806
-233.372
-216.705
-207.585
-204.396
-205.103
-207.738
-209.916
-209.267
-204.591
-195.536
-182.34
-165.911
-147.343
-127.694
-108.473
-91.267
-76.963
-65.987
-58.346
-53.612
-51.342
-51.104
-52.248
-54.11
-56.267
-58.429
-60.463
-62.371
-64.103
-65.607
-66.865
-67.855
-68.524
-68.803
-68.637
-68.002
-66.925
-65.464
-63.685
-61.641
-59.384
-56.983
-54.495
-51.974
-49.464
-46.988
-44.582
-42.3
-40.199
-38.346
-36.775
-35.489
-34.478
-33.718
-33.181
-32.837
-32.646
-32.559
-32.534
-32.531
-32.521
-32.477
-32.365
-32.142
-31.758
-31.161
-30.31
-29.175
-27.731
-25.959
-23.843
-21.371
-18.54
-15.353
-11.81
-7.907
-3.644
0.986
5.98
11.333
17.039
23.087
29.466
36.167
43.175
50.477
58.058
65.903
73.996
82.323
90.865
99.602
108.512
117.569
126.749
136.027
145.373
154.761
164.16
173.541
182.877
192.136
201.289
210.306
219.157
227.812
236.242
244.417
252.308
259.887
267.127
274.001
280.484
286.553
292.184
297.356
302.05
306.249
309.935
313.095
315.716
317.788
319.303
320.254
320.639
320.456
319.704
318.387
316.511
314.083
311.112
307.61
303.592
299.072
294.068
288.6
282.688
276.356
269.628
262.529
255.086
247.328
239.282
230.978
222.446
213.717
204.821
195.789
186.652
177.438
168.179
158.903
149.638
140.411
131.25
122.179
113.222
104.403
95.742
87.261
78.978
70.91
63.072
55.479
48.144
41.077
34.288
27.784
21.573
15.659
10.046
4.735
-0.273
-4.977
-9.381
-13.487
-17.299
-20.823
-24.064
-27.029
-29.726
-32.161
-34.344
-36.283
-37.986
-39.464
-40.725
-41.779
-42.636
-43.306
-43.799
-44.124
-44.291
-44.31
-44.19
-43.94
-43.57
-43.088
-42.504
-41.827
-41.063
-40.223
-39.313
-38.342
-37.315
-36.24
-35.123
-33.969
-32.784
-31.573
-30.341
-29.092
-27.832
-26.564
-25.293
-24.023
-22.758
-21.501
-20.257
-19.028
-17.819
-16.631
-15.469
-14.336
-13.233
-12.166
-11.134
-10.143
-9.192
-8.284
-7.422
-6.605
-5.836
-5.115
-4.444
-3.824
-3.255
-2.739
-2.277
-1.871
-1.521
-1.229
-0.996
-0.823
-0.711
-0.66
-0.671
-0.744
-0.881
-1.079
-1.341
-1.664
-2.05
-2.496
-3.001
-3.565
-4.185
-4.859
-5.586
-6.364
-7.19
-8.063
-8.981
-9.942
-10.943
-11.982
-13.058
-14.167
-15.306
-16.474
-17.666
-18.879
-20.111
-21.357
-22.613
-23.876
-25.143
-26.408
-27.669
-28.922
-30.162
-31.386
-32.59
-33.772
-34.928
-36.056
-37.153
-38.217
-39.247
-40.242
-41.199
-42.118
-42.998
-43.838
-44.636
-45.394
-46.109
-46.781
-47.411
-47.999
-48.543
-49.046
-49.507
-49.927
-50.307
-50.649
-50.953
-51.221
-51.456
-51.66
-51.833
-51.979
-52.101
-52.2
-52.28
-52.343
-52.391
-52.427
-52.455
-52.474
-52.486
-52.491
-52.489
-52.483
-52.48
-52.475
-52.464
-52.46
-52.473
-52.513
-52.593
-52.704
-52.826
-52.979
-53.18
-53.391
-53.583
-53.733
-53.803
-53.827
-53.869
-53.895
-53.842
-53.876
-54.192
-54.673
-55.33
-56.2
-56.862
-58.447
-62.058
-66.117
-70.147
-71.253
-65.969
-58.127
-50.277
-46.223
-51.185
-60.537
-70.359
-77.96
-78.898
-76.341
-73.498
-71.078
-71.034
-72.221
-73.169
-74.149
-74.967
-75.713
-76.675
-77.65
-78.474
-79.193
-79.807
-80.293
-80.648
-80.875
-80.975
-80.969
-80.887
-80.709
-80.419
-80.018
-79.502
-78.869
-78.12
-77.251
-76.258
-75.144
-73.912
-72.564
-71.104
-69.537
-67.867
-66.1
-64.244
-62.305
-60.295
-58.223
-56.101
-53.941
-51.758
-49.567
-47.384
-45.227
-43.112
-41.057
-39.08
-37.198
-35.428
-33.786
-32.287
-30.947
-29.779
-28.798
-28.02
-27.458
-27.125
-27.032
-27.192
-27.611
-28.297
-29.248
-30.466
-31.949
-33.698
-35.718
-38.01
-40.569
-43.386
-46.449
-49.74
-53.234
-56.888
-60.65
-64.463
-68.276
-72.042
-75.723
-79.276
-82.659
-85.819
-88.698
-91.248
-93.43
-95.214
-96.579
-97.517
-98.05
-98.254
-98.241
-98.13
-98.027
-98.001
-98.13
-98.516
-99.265
-100.507
-102.36
-104.886
-108.187
-112.404
-117.571
-123.606
-130.234
-136.887
-142.97
-147.991
-151.366
-152.482
-150.93
-146.55
-139.712
-131.393
-122.665
-114.38
-107.394
-102.602
-100.488
-100.935
-102.809
-103.802
-101.089
-92.062
-74.113
-44.108
0.298
60.264
135.742
223.171
317.645
415.902
512.521
603.204
684.199
745.221
778.604
777.705
735.945
658.026
550.37
420.594
279.679
132.491
-16.209
-160.24
-294.521
-411.84
-506.578
-576.663
-621.908
-644.527
-647.369
-632.777
-604.394
-566.386
-522.693
-477.114
-431.936
-388.111
-346.888
-309.79
-277.636
-250.922
-229.356
-211.809
-197.853
-187.508
-180.145
-174.715
-170.021
-164.679
-158.176
-150.838
-142.742
-133.931
-124.708
-115.477
-107.007
-100.304
-95.759
-93.25
-92.571
-93.345
-95.232
-97.955
-100.995
-103.731
-105.76
-106.849
-106.935
-106.109
-104.425
-101.917
-98.685
-94.855
-90.564
-85.946
-81.099
-76.1
-71.026
-65.954
-60.994
-56.254
-51.832
-47.827
-44.293
-41.249
-38.71
-36.667
-35.095
-33.964
-33.228
-32.821
-32.693
-32.794
-33.076
-33.501
-34.016
-34.565
-35.09
-35.53
-35.835
-35.971
-35.9
-35.594
-35.031
-34.188
-33.052
-31.617
-29.871
-27.802
-25.397
-22.64
-19.52
-16.03
-12.165
-7.923
-3.301
1.702
7.084
12.842
18.972
25.468
32.323
39.532
47.084
54.966
63.163
71.656
80.427
89.455
98.716
108.187
117.84
127.65
137.588
147.626
157.735
167.882
178.038
188.168
198.241
208.223
218.081
227.78
237.288
246.572
255.599
264.336
272.754
280.823
288.512
295.795
302.645
309.037
314.948
320.356
325.24
329.583
333.369
336.583
339.215
341.254
342.694
343.53
343.759
343.381
342.4
340.82
338.649
335.898
332.578
328.704
324.296
319.37
313.951
308.06
301.723
294.968
287.822
280.315
272.478
264.342
255.94
247.305
238.47
229.469
220.335
211.101
201.801
192.467
183.13
173.822
164.573
155.412
146.365
137.46
128.722
120.172
111.833
103.724
95.862
88.264
80.942
73.909
67.173
60.744
54.628
48.827
43.346
38.185
33.343
28.818
24.606
20.702
17.1
13.794
10.773
8.031
5.556
3.339
1.369
-0.367
-1.879
-3.179
-4.279
-5.192
-5.929
-6.502
-6.923
-7.202
-7.351
-7.379
-7.296
-7.111
-6.834
-6.472
-6.033
-5.524
-4.952
-4.323
-3.643
-2.917
-2.149
-1.344
-0.507
0.361
1.255
2.173
3.111
4.067
5.04
6.026
7.023
8.029
9.042
10.06
11.081
12.103
13.122
14.137
15.145
16.142
17.127
18.095
19.043
19.968
20.867
21.736
22.571
23.37
24.13
24.847
25.518
26.14
26.712
27.229
27.689
28.089
28.428
28.703
28.913
29.054
29.127
29.13
29.061
28.921
28.708
28.423
28.066
27.638
27.14
26.572
25.938
25.238
24.476
23.655
22.778
21.848
20.868
19.842
18.773
17.664
16.519
15.342
14.134
12.899
11.64
10.362
9.066
7.757
6.438
5.111
3.781
2.451
1.124
-0.198
-1.512
-2.815
-4.099
-5.363
-6.602
-7.814
-9.001
-10.155
-11.268
-12.35
-13.409
-14.449
-15.481
-16.495
-17.469
-18.418
-19.358
-20.249
-21.06
-21.765
-22.329
-22.778
-23.174
-23.482
-23.64
-23.806
-24.169
-24.616
-25.157
-25.829
-26.229
-27.446
-30.542
-34.004
-37.375
-37.876
-32.179
-23.972
-15.714
-11.063
-15.047
-23.223
-31.826
-38.277
-38.311
-34.98
-31.377
-28.19
-27.306
-27.632
-27.764
-27.973
-28.081
-28.183
-28.568
-29.05
-29.482
-29.915
-30.361
-30.804
-31.248
-31.705
-32.181
-32.702
-33.302
-33.964
-34.676
-35.44
-36.252
-37.11
-38.013
-38.953
-39.924
-40.923
-41.947
-42.992
-44.055
-45.13
-46.211
-47.293
-48.371
-49.437
-50.486
-51.509
-52.501
-53.453
-54.358
-55.208
-55.995
-56.713
-57.352
-57.905
-58.364
-58.723
-58.972
-59.107
-59.12
-59.007
-58.764
-58.386
-57.872
-57.219
-56.426
-55.494
-54.421
-53.21
-51.861
-50.378
-48.762
-47.019
-45.153
-43.17
-41.077
-38.882
-36.593
-34.22
-31.775
-29.266
-26.707
-24.111
-21.49
-18.86
-16.235
-13.632
-11.066
-8.557
-6.125
-3.793
-1.579
0.495
2.411
4.154
5.704
7.041
8.164
9.069
9.753
10.215
10.432
10.378
10.063
9.499
8.642
7.46
5.932
4.031
1.798
-0.694
-3.474
-6.61
-9.934
-13.236
-16.626
-20.075
-23.523
-27.375
-30.45
-31.583
-32.311
-33.061
-36.704
-46.7
-59.14
-71.392
-79.566
-78.316
-72.246
-65.274
-60.072
-61.097
-65.154
-69.01
-71.993
-72.221
-70.945
-69.761
-68.523
-67.529
-66.816
-66.221
-66.085
-66.767
-68.314
-70.705
-73.858
-77.508
-81.354
-85.129
-88.438
-90.764
-91.817
-91.415
-89.687
-87.287
-84.788
-82.789
-81.879
-82.264
-84.26
-88.276
-93.782
-99.539
-102.798
-98.591
-83.448
-56.463
-20.622
16.321
49.497
82.003
125.173
196.523
308.669
456.224
616.877
757.334
843.565
861.309
815.595
723.827
611.499
493.21
372.706
249.413
118.32
-19.47
-156.858
-285.915
-398.013
-487.9
-554.131
-596.968
-618.114
-619.6
-603.703
-573.895
-534.16
-488.418
-440.447
-393.014
-348.223
-308.434
-275.54
-250.128
-231.935
-220.02
-212.891
-209.369
-208.273
-207.619
-205.399
-200.514
-192.563
-181.817
-169.04
-154.86
-139.96
-125.54
-112.932
-102.941
-95.876
-91.613
-89.712
-89.796
-91.512
-94.32
-97.562
-100.747
-103.588
-105.943
-107.813
-109.164
-109.895
-109.974
-109.439
-108.341
-106.746
-104.715
-102.274
-99.483
-96.432
-93.206
-89.895
-86.586
-83.332
-80.194
-77.237
-74.524
-72.133
-70.12
-68.506
-67.29
-66.455
-65.972
-65.812
-65.936
-66.286
-66.809
-67.455
-68.176
-68.939
-69.706
-70.43
-71.062
-71.542
-71.825
-71.873
-71.658
-71.155
-70.342
-69.201
-67.72
-65.896
-63.724
-61.198
-58.31
-55.047
-51.404
-47.378
-42.97
-38.181
-33.016
-27.478
-21.574
-15.311
-8.699
-1.749
5.528
13.119
21.011
29.185
37.621
46.297
55.188
64.271
73.519
82.902
92.392
101.958
111.571
121.2
130.814
140.38
149.866
159.242
168.473
177.53
186.38
194.992
203.334
211.376
219.089
226.443
233.412
239.968
246.086
251.743
256.917
261.588
265.738
269.352
272.415
274.916
276.846
278.199
278.97
279.157
278.761
277.785
276.236
274.121
271.452
268.24
264.5
260.25
255.508
250.294
244.631
238.542
232.052
225.188
217.979
210.452
202.64
194.572
186.281
177.8
169.161
160.397
151.54
142.623
133.678
124.735
115.826
106.979
98.223
89.585
81.089
72.76
64.62
56.688
48.984
41.524
34.323
27.393
20.746
14.39
8.335
2.586
-2.853
-7.978
-12.787
-17.28
-21.459
-25.327
-28.888
-32.147
-35.11
-37.787
-40.184
-42.313
-44.184
-45.808
-47.195
-48.36
-49.312
-50.066
-50.634
-51.029
-51.262
-51.346
-51.293
-51.113
-50.818
-50.418
-49.921
-49.338
-48.675
-47.942
-47.146
-46.294
-45.392
-44.446
-43.464
-42.45
-41.41
-40.348
-39.269
-38.176
-37.074
-35.965
-34.852
-33.738
-32.625
-31.514
-30.408
-29.308
-28.215
-27.13
-26.054
-24.989
-23.935
-22.894
-21.866
-20.853
-19.857
-18.88
-17.923
-16.99
-16.082
-15.203
-14.354
-13.539
-12.759
-12.018
-11.317
-10.659
-10.045
-9.476
-8.955
-8.482
-8.059
-7.686
-7.365
-7.096
-6.879
-6.715
-6.604
-6.545
-6.537
-6.581
-6.676
-6.82
-7.012
-7.251
-7.536
-7.863
-8.231
-8.637
-9.077
-9.548
-10.047
-10.568
-11.109
-11.665
-12.231
-12.805
-13.382
-13.959
-14.532
-15.098
-15.654
-16.197
-16.724
-17.233
-17.722
-18.189
-18.632
-19.05
-19.443
-19.81
-20.15
-20.463
-20.75
-21.01
-21.244
-21.452
-21.635
-21.794
-21.932
-22.049
-22.148
-22.231
-22.301
-22.359
-22.41
-22.455
-22.496
-22.536
-22.577
-22.621
-22.669
-22.724
-22.786
-22.856
-22.937
-23.028
-23.129
-23.241
-23.363
-23.495
-23.636
-23.784
-23.939
-24.099
-24.262
-24.427
-24.593
-24.758
-24.92
-25.076
-25.226
-25.367
-25.497
-25.614
-25.716
-25.802
-25.87
-25.921
-25.952
-25.965
-25.959
-25.934
-25.89
-25.83
-25.754
-25.663
-25.559
-25.445
-25.323
-25.195
-25.066
-24.938
-24.815
-24.701
-24.598
-24.511
-24.443
-24.397
-24.376
-24.385
-24.425
-24.5
-24.612
-24.764
-24.957
-25.192
-25.469
-25.789
-26.149
-26.549
-26.986
-27.456
-27.955
-28.478
-29.021
-29.578
-30.142
-30.705
-31.261
-31.801
-32.317
-32.799
-33.237
-33.622
-33.944
-34.193
-34.36
-34.436
-34.411
-34.275
-34.021
-33.639
-33.121
-32.461
-31.65
-30.684
-29.556
-28.265
-26.806
-25.181
-23.389
-21.432
-19.313
-17.038
-14.613
-12.044
-9.341
-6.515
-3.578
-0.545
2.569
5.747
8.97
12.217
15.468
18.701
21.895
25.026
28.069
30.996
33.78
36.395
38.817
41.021
42.984
44.685
46.103
47.222
48.028
48.509
48.652
48.442
47.868
46.928
45.633
44
42.046
39.788
37.233
34.396
31.297
27.955
24.388
20.609
16.637
12.498
8.244
3.94
-0.358
-4.613
-8.813
-12.973
-17.089
-21.118
-25.001
-28.66
-32.019
-35.056
-37.71
-39.871
-41.539
-42.804
-43.858
-45.081
-46.787
-48.994
-51.691
-54.827
-58.058
-61.039
-63.354
-64.199
-62.94
-59.537
-54.058
-46.744
-38.422
-29.723
-21.168
-13.771
-8.303
-4.888
-3.744
-5.012
-8.077
-12.692
-18.834
-25.865
-33.359
-41.127
-48.247
-53.311
-55.15
-51.712
-40.577
-19.982
12.38
58.681
119.858
196.195
285.508
382.232
481.102
576.738
666.606
752.535
831.014
894.569
930.764
921.788
859.855
746.965
591.623
409.576
214.696
17.917
-166.585
-323.199
-441.611
-516.701
-553.229
-565.65
-563.494
-551.348
-530.048
-495.421
-448.091
-393.301
-336.734
-284.845
-241.924
-209.453
-187.609
-175.368
-171.097
-172.842
-178.306
-185.268
-191.203
-193.745
-191.776
-185.108
-174.179
-160.03
-143.814
-126.63
-109.989
-95.477
-83.929
-75.653
-70.539
-68.072
-67.78
-69.257
-71.889
-75.03
-78.259
-81.283
-83.981
-86.385
-88.45
-90.105
-91.306
-91.993
-92.138
-91.751
-90.839
-89.428
-87.569
-85.319
-82.756
-79.962
-77.008
-73.969
-70.906
-67.859
-64.884
-62.036
-59.377
-56.992
-54.931
-53.204
-51.814
-50.738
-49.95
-49.428
-49.132
-49.009
-49.017
-49.115
-49.268
-49.453
-49.637
-49.778
-49.83
-49.738
-49.46
-48.967
-48.232
-47.233
-45.954
-44.378
-42.499
-40.317
-37.83
-35.032
-31.917
-28.475
-24.703
-20.602
-16.174
-11.425
-6.36
-0.983
4.697
10.672
16.933
23.47
30.275
37.338
44.648
52.192
59.954
67.918
76.064
84.375
92.829
101.404
110.078
118.827
127.627
136.453
145.28
154.081
162.83
171.499
180.06
188.487
196.752
204.826
212.684
220.297
227.642
234.691
241.421
247.809
253.832
259.468
264.697
269.499
273.856
277.751
281.166
284.089
286.505
288.403
289.774
290.61
290.905
290.657
289.864
288.528
286.652
284.242
281.305
277.854
273.899
269.457
264.544
259.18
253.385
247.181
240.594
233.647
226.367
218.78
210.914
202.798
194.46
185.93
177.236
168.409
159.479
150.476
141.431
132.372
123.331
114.335
105.414
96.594
87.901
79.361
70.997
62.832
54.886
47.177
39.723
32.538
25.637
19.029
12.724
6.728
1.048
-4.314
-9.354
-14.073
-18.471
-22.549
-26.31
-29.759
-32.898
-35.735
-38.276
-40.529
-42.501
-44.203
-45.645
-46.838
-47.793
-48.522
-49.038
-49.355
-49.484
-49.44
-49.237
-48.886
-48.402
-47.798
-47.086
-46.28
-45.389
-44.425
-43.399
-42.32
-41.196
-40.036
-38.848
-37.638
-36.414
-35.183
-33.952
-32.726
-31.513
-30.318
-29.146
-28.003
-26.894
-25.822
-24.792
-23.806
-22.868
-21.982
-21.151
-20.376
-19.66
-19.004
-18.408
-17.875
-17.404
-16.992
-16.64
-16.347
-16.113
-15.94
-15.828
-15.777
-15.785
-15.848
-15.967
-16.139
-16.363
-16.635
-16.952
-17.311
-17.713
-18.163
-18.664
-19.215
-19.812
-20.448
-21.12
-21.832
-22.586
-23.39
-24.248
-25.157
-26.118
-27.139
-28.219
-29.364
-30.57
-31.817
-33.088
-34.386
-35.717
-37.101
-38.557
-40.058
-41.527
-42.888
-44.097
-45.096
-45.885
-46.497
-46.881
-47.023
-47.103
-47.321
-47.749
-48.599
-49.806
-50.709
-51.183
-51.312
-50.396
-49.45
-49.786
-50.064
-50.863
-49.859
-41.819
-29.141
-15.458
-9.975
-26.233
-65.105
-118.15
-165.177
-183.945
-166.237
-117.426
-60.309
-16.204
4.716
0.408
-15.468
-31.643
-43.869
-48.478
-50.274
-53.087
-56.908
-62.81
-68.766
-72.729
-74.493
-74.036
-72.477
-70.832
-69.313
-67.979
-66.709
-65.546
-64.831
-64.601
-64.6
-64.639
-64.546
-64.303
-64.065
-63.876
-63.689
-63.495
-63.294
-63.106
-62.982
-62.928
-62.909
-62.906
-62.9
-62.883
-62.868
-62.857
-62.847
-62.833
-62.805
-62.756
-62.688
-62.604
-62.512
-62.417
-62.32
-62.226
-62.138
-62.061
-62.003
-61.964
-61.943
-61.938
-61.948
-61.972
-62.015
-62.075
-62.153
-62.247
-62.356
-62.478
-62.612
-62.755
-62.906
-63.059
-63.212
-63.362
-63.504
-63.637
-63.756
-63.858
-63.937
-63.99
-64.011
-63.996
-63.939
-63.836
-63.68
-63.466
-63.189
-62.844
-62.426
-61.93
-61.352
-60.689
-59.936
-59.092
-58.153
-57.118
-55.985
-54.753
-53.422
-51.993
-50.466
-48.844
-47.129
-45.324
-43.434
-41.462
-39.415
-37.298
-35.117
-32.881
-30.598
-28.276
-25.926
-23.558
-21.184
-18.817
-16.472
-14.163
-11.907
-9.718
-7.614
-5.612
-3.726
-1.974
-0.37
1.074
2.344
3.428
4.312
4.983
5.431
5.644
5.613
5.332
4.795
4
2.948
1.645
0.096
-1.698
-3.739
-6.028
-8.559
-11.325
-14.314
-17.507
-20.88
-24.398
-28.016
-31.686
-35.361
-39.002
-42.576
-46.049
-49.385
-52.536
-55.447
-58.068
-60.352
-62.27
-63.794
-64.916
-65.658
-66.074
-66.255
-66.29
-66.253
-66.214
-66.256
-66.469
-66.959
-67.851
-69.233
-71.234
-74.034
-77.698
-82.208
-87.386
-92.799
-97.989
-102.541
-105.913
-107.52
-107.012
-104.215
-99.454
-93.681
-87.737
-82.391
-78.52
-76.823
-77.771
-81.432
-86.819
-91.849
-94.383
-91.999
-81.971
-61.928
-29.595
16.874
77.992
152.88
239.902
334.569
429.777
519.11
596.937
662.075
717.052
759.956
783.362
774.259
718.37
611.121
458.982
276.343
81.702
-109.457
-284.627
-432.161
-544.375
-616.578
-648.548
-647.319
-620.176
-576.153
-526.845
-479.196
-440.071
-411.508
-387.12
-362.662
-334.55
-302.865
-273.882
-251.008
-235.345
-226.176
-220.253
-215.668
-211.414
-206.396
-199.939
-191.667
-181.603
-170.161
-157.715
-144.623
-131.387
-118.722
-107.642
-98.77
-92.143
-87.577
-84.71
-83.191
-82.794
-83.17
-83.79
-84.276
-84.437
-84.186
-83.596
-82.738
-81.581
-80.129
-78.404
-76.393
-74.131
-71.665
-69.015
-66.232
-63.365
-60.449
-57.544
-54.715
-52.004
-49.442
-47.036
-44.772
-42.661
-40.73
-39.011
-37.546
-36.35
-35.412
-34.72
-34.252
-33.983
-33.889
-33.93
-34.056
-34.228
-34.415
-34.591
-34.74
-34.833
-34.831
-34.693
-34.368
-33.819
-33.016
-31.932
-30.543
-28.83
-26.78
-24.384
-21.641
-18.549
-15.102
-11.294
-7.117
-2.568
2.35
7.633
13.274
19.265
25.597
32.258
39.235
46.516
54.086
61.928
70.03
78.374
86.94
95.706
104.647
113.74
122.958
132.273
141.659
151.084
160.521
169.94
179.311
188.604
197.79
206.836
215.714
224.392
232.84
241.028
248.926
256.507
263.742
270.605
277.069
283.112
288.711
293.844
298.493
302.641
306.272
309.373
311.932
313.942
315.394
316.285
316.612
316.375
315.577
314.221
312.314
309.866
306.887
303.389
299.389
294.902
289.947
284.544
278.716
272.487
265.881
258.926
251.649
244.079
236.246
228.18
219.911
211.471
202.889
194.197
185.424
176.599
167.752
158.909
150.099
141.347
132.678
124.115
115.681
107.398
99.284
91.358
83.636
76.135
68.868
61.848
55.085
48.589
42.368
36.429
30.775
25.412
20.34
15.56
11.07
6.869
2.954
-0.681
-4.04
-7.13
-9.957
-12.529
-14.852
-16.935
-18.786
-20.415
-21.828
-23.036
-24.047
-24.87
-25.514
-25.988
-26.301
-26.461
-26.479
-26.361
-26.118
-25.758
-25.289
-24.719
-24.058
-23.313
-22.493
-21.604
-20.653
-19.648
-18.595
-17.499
-16.367
-15.203
-14.013
-12.803
-11.576
-10.339
-9.096
-7.851
-6.61
-5.377
-4.155
-2.951
-1.767
-0.609
0.521
1.618
2.678
3.698
4.675
5.606
6.489
7.321
8.1
8.827
9.498
10.114
10.674
11.177
11.623
12.012
12.344
12.618
12.835
12.995
13.098
13.145
13.137
13.074
12.957
12.788
12.569
12.299
11.983
11.62
11.214
10.765
10.278
9.753
9.193
8.601
7.979
7.328
6.65
5.948
5.224
4.478
3.712
2.927
2.126
1.308
0.475
-0.371
-1.229
-2.098
-2.976
-3.862
-4.755
-5.653
-6.554
-7.457
-8.36
-9.262
-10.161
-11.056
-11.945
-12.826
-13.698
-14.561
-15.412
-16.251
-17.076
-17.886
-18.68
-19.457
-20.216
-20.955
-21.674
-22.372
-23.047
-23.698
-24.325
-24.927
-25.503
-26.053
-26.576
-27.071
-27.539
-27.98
-28.393
-28.781
-29.143
-29.481
-29.795
-30.088
-30.361
-30.615
-30.852
-31.074
-31.284
-31.484
-31.676
-31.862
-32.046
-32.229
-32.414
-32.605
-32.803
-33.01
-33.231
-33.465
-33.717
-33.988
-34.28
-34.595
-34.936
-35.303
-35.698
-36.123
-36.578
-37.064
-37.582
-38.13
-38.71
-39.319
-39.958
-40.624
-41.317
-42.034
-42.772
-43.529
-44.302
-45.086
-45.878
-46.673
-47.466
-48.253
-49.027
-49.785
-50.518
-51.223
-51.894
-52.523
-53.105
-53.634
-54.103
-54.506
-54.835
-55.087
-55.253
-55.329
-55.31
-55.19
-54.966
-54.632
-54.185
-53.622
-52.939
-52.135
-51.207
-50.154
-48.977
-47.677
-46.253
-44.71
-43.05
-41.277
-39.396
-37.414
-35.336
-33.17
-30.925
-28.612
-26.239
-23.819
-21.365
-18.891
-16.413
-13.946
-11.506
-9.113
-6.782
-4.532
-2.38
-0.344
1.56
3.318
4.912
6.328
7.55
8.564
9.356
9.913
10.222
10.273
10.056
9.567
8.805
7.771
6.467
4.894
3.048
0.932
-1.449
-4.085
-6.963
-10.065
-13.368
-16.833
-20.408
-24.044
-27.689
-31.3
-34.845
-38.284
-41.581
-44.689
-47.557
-50.14
-52.403
-54.317
-55.857
-57.013
-57.796
-58.268
-58.528
-58.683
-58.836
-59.048
-59.379
-59.909
-60.717
-61.918
-63.626
-65.892
-68.809
-72.504
-77.03
-82.362
-88.29
-94.284
-99.728
-104.101
-106.808
-107.269
-105.075
-100.013
-92.432
-83.365
-74.109
-65.75
-59.233
-55.675
-55.755
-59.435
-65.946
-71.902
-73.135
-67.706
-52.795
-28.087
5.731
54.24
119.994
204.652
309.611
423.784
536.227
638.622
719.196
776.442
810.381
814.511
788.464
728.75
630.415
498.583
337.165
154.498
-32.525
-208.153
-355.991
-465.329
-537.367
-580.748
-605.784
-619.273
-621.708
-608.998
-579.765
-536.854
-485.325
-431.877
-380.829
-334.061
-293.679
-261.167
-236.854
-220.5
-210.999
-206.595
-205.943
-207.658
-209.449
-209.08
-205.354
-197.853
-186.932
-173.462
-158.155
-141.833
-125.904
-111.859
-100.588
-92.436
-87.258
-84.59
-84.049
-85.259
-87.634
-90.482
-93.296
-95.781
-97.803
-99.361
-100.406
-100.821
-100.559
-99.642
-98.109
-96.015
-93.412
-90.321
-86.801
-82.946
-78.845
-74.596
-70.293
-66.003
-61.801
-57.768
-53.987
-50.552
-47.536
-44.973
-42.874
-41.229
-40.016
-39.208
-38.769
-38.643
-38.777
-39.12
-39.624
-40.253
-40.963
-41.705
-42.421
-43.049
-43.537
-43.845
-43.938
-43.789
-43.374
-42.671
-41.665
-40.352
-38.721
-36.763
-34.465
-31.811
-28.792
-25.401
-21.635
-17.493
-12.977
-8.085
-2.822
2.808
8.797
15.137
21.819
28.834
36.169
43.808
51.732
59.92
68.349
76.996
85.836
94.842
103.984
113.235
122.566
131.947
141.348
150.736
160.081
169.349
178.509
187.53
196.377
205.02
213.425
221.564
229.404
236.917
244.074
250.847
257.212
263.143
268.62
273.62
278.126
282.12
285.588
288.517
290.898
292.721
293.982
294.676
294.801
294.36
293.355
291.792
289.678
287.023
283.839
280.14
275.943
271.265
266.126
260.548
254.555
248.171
241.423
234.339
226.946
219.275
211.357
203.222
194.903
186.43
177.836
169.153
160.411
151.642
142.875
134.141
125.467
116.881
108.409
100.076
91.906
83.921
76.141
68.585
61.27
54.21
47.42
40.911
34.692
28.772
23.157
17.85
12.856
8.176
3.808
-0.248
-3.996
-7.441
-10.588
-13.445
-16.02
-18.322
-20.361
-22.149
-23.695
-25.012
-26.112
-27.007
-27.709
-28.232
-28.588
-28.788
-28.845
-28.771
-28.576
-28.272
-27.868
-27.373
-26.796
-26.145
-25.427
-24.647
-23.813
-22.929
-22
-21.03
-20.022
-18.979
-17.905
-16.8
-15.667
-14.506
-13.32
-12.108
-10.871
-9.61
-8.325
-7.017
-5.685
-4.332
-2.957
-1.56
-0.143
1.294
2.748
4.22
5.707
7.206
8.716
10.233
11.754
13.274
14.791
16.299
17.795
19.272
20.726
22.152
23.544
24.898
26.208
27.468
28.674
29.822
30.906
31.923
32.869
33.741
34.535
35.25
35.882
36.431
36.896
37.275
37.567
37.774
37.895
37.93
37.882
37.75
37.538
37.247
36.88
36.439
35.926
35.347
34.703
33.999
33.239
32.427
31.566
30.662
29.719
28.739
27.727
26.687
25.622
24.535
23.428
22.304
21.166
20.013
18.849
17.674
16.488
15.293
14.087
12.871
11.645
10.408
9.16
7.9
6.629
5.345
4.049
2.74
1.417
0.082
-1.267
-2.63
-4.007
-5.399
-6.804
-8.223
-9.656
-11.103
-12.561
-14.032
-15.513
-17.003
-18.5
-20.004
-21.511
-23.02
-24.529
-26.033
-27.531
-29.019
-30.494
-31.952
-33.391
-34.807
-36.197
-37.558
-38.888
-40.185
-41.446
-42.671
-43.858
-45.006
-46.113
-47.181
-48.207
-49.193
-50.139
-51.046
-51.913
-52.743
-53.536
-54.295
-55.02
-55.713
-56.377
-57.012
-57.622
-58.208
-58.773
-59.32
-59.85
-60.366
-60.872
-61.368
-61.858
-62.343
-62.825
-63.305
-63.784
-64.263
-64.741
-65.218
-65.692
-66.161
-66.623
-67.076
-67.514
-67.934
-68.333
-68.703
-69.042
-69.342
-69.6
-69.808
-69.961
-70.054
-70.081
-70.034
-69.91
-69.702
-69.404
-69.012
-68.52
-67.925
-67.22
-66.404
-65.472
-64.422
-63.251
-61.96
-60.547
-59.012
-57.359
-55.59
-53.711
-51.727
-49.647
-47.48
-45.238
-42.935
-40.584
-38.199
-35.796
-33.392
-31.004
-28.65
-26.344
-24.105
-21.95
-19.898
-17.969
-16.181
-14.552
-13.1
-11.841
-10.794
-9.978
-9.406
-9.088
-9.035
-9.257
-9.765
-10.574
-11.692
-13.116
-14.841
-16.86
-19.154
-21.709
-24.494
-27.46
-30.559
-33.738
-36.948
-40.151
-43.303
-46.353
-49.253
-51.944
-54.378
-56.532
-58.383
-59.914
-61.125
-62.025
-62.651
-63.092
-63.446
-63.823
-64.331
-65.063
-66.101
-67.529
-69.429
-71.892
-75.006
-78.827
-83.396
-88.716
-94.783
-101.644
-109.211
-117.205
-125.179
-132.435
-138.272
-142.171
-143.58
-141.824
-136.513
-127.606
-115.545
-101.651
-87.3
-73.427
-61.006
-50.914
-43.531
-38.73
-35.385
-30.649
-21.381
-5.085
21.049
59.57
112.331
180.968
263.642
353.878
445.62
533.39
616.266
699.354
781.031
852.715
897.952
893.176
826.861
701.579
529.827
332.921
128.882
-70.506
-252.144
-402.051
-511.54
-576.625
-603.418
-608.223
-601.614
-588.124
-568.14
-536.754
-494.436
-446.3
-396.753
-350.6
-310.377
-276.626
-249.761
-229.191
-213.501
-201.192
-191.247
-183.084
-176.081
-169.13
-161.016
-151.242
-140.139
-128.483
-116.892
-105.709
-95.27
-86.249
-79.565
-75.709
-74.607
-75.832
-78.817
-83.085
-88.27
-93.882
-99.239
-103.808
-107.282
-109.53
-110.608
-110.587
-109.47
-107.308
-104.221
-100.338
-95.817
-90.816
-85.449
-79.841
-74.135
-68.471
-63.018
-57.946
-53.363
-49.339
-45.911
-43.079
-40.849
-39.218
-38.148
-37.586
-37.471
-37.738
-38.333
-39.209
-40.304
-41.554
-42.884
-44.219
-45.502
-46.691
-47.748
-48.643
-49.348
-49.837
-50.092
-50.106
-49.865
-49.353
-48.553
-47.446
-46.017
-44.258
-42.16
-39.715
-36.917
-33.759
-30.237
-26.346
-22.082
-17.441
-12.423
-7.029
-1.263
4.868
11.354
18.185
25.345
32.814
40.575
48.615
56.918
65.471
74.25
83.219
92.348
101.606
110.962
120.382
129.829
139.256
148.631
157.936
167.154
176.269
185.254
194.066
202.666
211.015
219.088
226.88
234.374
241.541
248.369
254.85
260.985
266.795
272.259
277.319
281.925
286.027
289.594
292.628
295.117
297.045
298.393
299.132
299.248
298.748
297.619
295.831
293.353
290.139
286.197
281.595
276.39
270.637
264.38
257.636
250.441
242.847
234.898
226.636
218.095
209.294
200.277
191.111
181.862
172.61
163.393
154.204
145.049
135.939
126.891
117.934
109.086
100.348
91.732
83.263
74.964
66.866
58.988
51.33
43.888
36.652
29.622
22.815
16.245
9.92
3.845
-1.981
-7.555
-12.865
-17.9
-22.656
-27.127
-31.316
-35.236
-38.892
-42.277
-45.368
-48.121
-50.497
-52.498
-54.136
-55.439
-56.444
-57.135
-57.52
-57.686
-57.651
-57.392
-56.843
-55.722
-53.782
-51.059
-47.624
-43.626
-39.547
-35.785
-32.785
-31.515
-32.743
-36.742
-43.717
-53.221
-64.008
-75.062
-85.268
-92.923
-96.811
-96.099
-89.922
-78.685
-63.932
-47.064
-29.788
-14.026
-0.97
8.213
12.186
10.931
5.428
-3.185
-13.243
-23.323
-32.738
-40.61
-45.914
-48.379
-48.224
-46.012
-42.81
-39.315
-35.736
-32.403
-29.656
-27.659
-26.513
-26.072
-25.919
-25.845
-25.824
-25.841
-25.945
-26.139
-26.365
-26.637
-27.027
-27.57
-28.276
-29.123
-30.052
-31.027
-32.041
-33.086
-34.166
-35.272
-36.392
-37.515
-38.636
-39.756
-40.877
-42.002
-43.13
-44.261
-45.394
-46.532
-47.681
-48.843
-50.015
-51.194
-52.373
-53.546
-54.712
-55.866
-57.009
-58.135
-59.241
-60.324
-61.383
-62.415
-63.419
-64.391
-65.331
-66.236
-67.105
-67.939
-68.737
-69.499
-70.225
-70.915
-71.568
-72.185
-72.766
-73.31
-73.818
-74.289
-74.724
-75.124
-75.489
-75.82
-76.119
-76.387
-76.625
-76.836
-77.022
-77.184
-77.326
-77.451
-77.56
-77.656
-77.743
-77.823
-77.899
-77.972
-78.045
-78.12
-78.2
-78.285
-78.377
-78.478
-78.591
-78.715
-78.852
-79.005
-79.174
-79.36
-79.565
-79.791
-80.037
-80.305
-80.597
-80.912
-81.251
-81.616
-82.006
-82.421
-82.861
-83.326
-83.815
-84.327
-84.861
-85.416
-85.99
-86.582
-87.191
-87.816
-88.455
-89.106
-89.769
-90.443
-91.126
-91.817
-92.515
-93.217
-93.923
-94.631
-95.34
-96.047
-96.751
-97.451
-98.143
-98.827
-99.5
-100.159
-100.801
-101.425
-102.027
-102.605
-103.155
-103.676
-104.163
-104.615
-105.03
-105.404
-105.735
-106.02
-106.257
-106.443
-106.575
-106.651
-106.667
-106.619
-106.507
-106.326
-106.073
-105.748
-105.347
-104.867
-104.308
-103.666
-102.941
-102.13
-101.234
-100.251
-99.181
-98.026
-96.787
-95.467
-94.067
-92.592
-91.047
-89.438
-87.769
-86.049
-84.283
-82.48
-80.647
-78.791
-76.919
-75.037
-73.153
-71.274
-69.406
-67.559
-65.739
-63.957
-62.219
-60.533
-58.906
-57.34
-55.838
-54.399
-53.024
-51.715
-50.48
-49.325
-48.251
-47.258
-46.345
-45.502
-44.717
-43.962
-43.199
-42.391
-41.501
-40.499
-39.363
-38.069
-36.592
-34.9
-32.954
-30.722
-28.179
-25.304
-22.085
-18.526
-14.656
-10.553
-6.326
-2.099
2.017
5.945
9.601
12.881
15.685
17.874
19.324
19.974
19.725
18.433
16.064
12.68
8.524
4.165
0.205
-2.933
-4.734
-4.654
-2.381
2.238
8.863
16.437
23.826
30.354
35.435
38.231
38.404
36.116
32.046
29.611
32.666
42.247
60.285
86.293
118.911
163.704
223.902
300.857
394.473
494.534
591.019
678.765
755.305
820.746
873.239
902.747
891.653
829.761
712.911
545.413
349.112
143.579
-51.817
-214.547
-338.109
-422.799
-473.719
-504.718
-522.988
-527.259
-514.295
-483.275
-436.969
-384.581
-337.052
-295.673
-260.088
-229.271
-199.898
-175.058
-157.141
-145.55
-140.448
-139.266
-139.287
-138.901
-136.016
-129.721
-120.104
-107.451
-92.537
-76.147
-58.957
-42.123
-26.999
-14.464
-4.918
1.704
5.816
7.827
8.085
7.077
5.379
3.407
1.447
-0.359
-2.021
-3.533
-4.845
-5.92
-6.718
-7.166
-7.23
-6.909
-6.206
-5.171
-3.866
-2.335
-0.632
1.184
3.053
4.919
6.745
8.514
10.201
11.759
13.124
14.219
15.008
15.485
15.662
15.564
15.218
14.65
13.903
13.031
12.079
11.088
10.089
9.105
8.17
7.328
6.631
6.136
5.887
5.914
6.245
6.903
7.908
9.273
11.006
13.102
15.566
18.402
21.615
25.212
29.196
33.563
38.309
43.426
48.906
54.742
60.924
67.439
74.276
81.422
88.864
96.589
104.581
112.819
121.283
129.951
138.796
147.794
156.92
166.145
175.444
184.791
194.157
203.517
212.842
222.104
231.272
240.315
249.2
257.891
266.357
274.565
282.484
290.085
297.337
304.213
310.69
316.742
322.343
327.468
332.082
336.159
339.682
342.641
345.031
346.859
348.128
348.844
349.025
348.68
347.812
346.417
344.473
341.96
338.872
335.214
331.008
326.278
321.028
315.262
308.982
302.174
294.833
286.949
278.488
269.439
259.826
249.693
239.128
228.239
217.104
205.787
194.344
182.816
171.268
159.766
148.366
137.142
126.169
115.531
105.348
95.714
86.673
78.238
70.369
62.996
56.075
49.578
43.474
37.749
32.376
27.329
22.599
18.168
14.003
10.057
6.252
2.517
-1.174
-4.827
-8.414
-11.879
-15.191
-18.328
-21.26
-23.977
-26.471
-28.736
-30.788
-32.647
-34.317
-35.795
-37.059
-38.09
-38.888
-39.466
-39.847
-40.067
-40.153
-40.129
-40.025
-39.862
-39.655
-39.415
-39.142
-38.83
-38.478
-38.092
-37.677
-37.243
-36.794
-36.331
-35.855
-35.365
-34.857
-34.331
-33.781
-33.204
-32.599
-31.965
-31.306
-30.626
-29.929
-29.218
-28.496
-27.766
-27.031
-26.292
-25.551
-24.809
-24.068
-23.329
-22.597
-21.874
-21.162
-20.467
-19.791
-19.138
-18.511
-17.914
-17.351
-16.824
-16.337
-15.892
-15.494
-15.144
-14.845
-14.602
-14.416
-14.29
-14.226
-14.227
-14.292
-14.422
-14.619
-14.881
-15.208
-15.599
-16.054
-16.571
-17.149
-17.787
-18.483
-19.236
-20.043
-20.902
-21.81
-22.764
-23.762
-24.801
-25.877
-26.988
-28.132
-29.305
-30.506
-31.731
-32.977
-34.243
-35.524
-36.819
-38.124
-39.436
-40.753
-42.073
-43.394
-44.714
-46.032
-47.346
-48.655
-49.957
-51.253
-52.54
-53.819
-55.087
-56.346
-57.593
-58.83
-60.055
-61.268
-62.469
-63.658
-64.834
-65.995
-67.142
-68.273
-69.386
-70.481
-71.557
-72.612
-73.646
-74.657
-75.644
-76.606
-77.542
-78.451
-79.331
-80.18
-80.997
-81.78
-82.528
-83.24
-83.913
-84.547
-85.141
-85.692
-86.201
-86.666
-87.086
-87.461
-87.789
-88.071
-88.306
-88.496
-88.64
-88.74
-88.798
-88.814
-88.792
-88.731
-88.636
-88.507
-88.347
-88.158
-87.943
-87.704
-87.443
-87.164
-86.869
-86.56
-86.241
-85.914
-85.581
-85.244
-84.905
-84.566
-84.227
-83.89
-83.555
-83.224
-82.896
-82.57
-82.247
-81.925
-81.601
-81.273
-80.939
-80.594
-80.234
-79.855
-79.452
-79.021
-78.556
-78.054
-77.508
-76.915
-76.268
-75.564
-74.797
-73.962
-73.055
-72.072
-71.008
-69.861
-68.628
-67.306
-65.895
-64.393
-62.8
-61.118
-59.346
-57.487
-55.545
-53.524
-51.428
-49.266
-47.045
-44.775
-42.465
-40.13
-37.782
-35.437
-33.11
-30.818
-28.579
-26.409
-24.326
-22.347
-20.489
-18.766
-17.193
-15.787
-14.562
-13.533
-12.716
-12.124
-11.768
-11.66
-11.806
-12.213
-12.88
-13.806
-14.988
-16.425
-18.121
-20.08
-22.298
-24.769
-27.481
-30.416
-33.548
-36.841
-40.248
-43.718
-47.203
-50.661
-54.058
-57.36
-60.533
-63.529
-66.292
-68.767
-70.907
-72.677
-74.049
-75.011
-75.585
-75.824
-75.82
-75.667
-75.441
-75.207
-75.042
-75.026
-75.26
-75.869
-76.943
-78.612
-81.062
-84.37
-88.525
-93.353
-98.406
-103.184
-107.23
-109.978
-110.827
-109.422
-105.599
-99.726
-92.863
-86.007
-80.086
-76.048
-74.613
-76.272
-81.084
-87.952
-94.583
-98.488
-96.874
-86.906
-66.124
-31.923
17.664
82.923
162.541
253.977
353.17
455.232
554.839
645.188
719.081
770.141
792.855
784.591
746.142
678.976
584.491
462.422
311.93
137.576
-48.433
-226.014
-374.169
-480.589
-545.118
-579.305
-596.614
-604.849
-604.919
-592.153
-564.421
-524.208
-476.509
-427.948
-382.233
-340.348
-303.328
-271.423
-244.616
-223.251
-206.689
-193.756
-184.083
-177.24
-172.191
-168.185
-164.338
-159.537
-153.586
-146.738
-138.975
-130.55
-121.957
-113.545
-105.962
-100.003
-95.869
-93.465
-92.647
-93.086
-94.475
-96.553
-98.89
-100.997
-102.591
-103.534
-103.771
-103.319
-102.182
-100.365
-97.938
-95.03
-91.757
-88.211
-84.47
-80.585
-76.612
-72.636
-68.727
-64.934
-61.31
-57.894
-54.731
-51.893
-49.425
-47.336
-45.624
-44.265
-43.226
-42.481
-41.992
-41.707
-41.58
-41.566
-41.626
-41.732
-41.847
-41.932
-41.942
-41.822
-41.527
-41.027
-40.29
-39.294
-38.019
-36.445
-34.561
-32.365
-29.852
-27.015
-23.844
-20.329
-16.463
-12.243
-7.669
-2.743
2.533
8.157
14.122
20.421
27.047
33.99
41.242
48.793
56.631
64.74
73.103
81.701
90.512
99.514
108.683
117.994
127.418
136.93
146.501
156.105
165.711
175.292
184.816
194.255
203.578
212.757
221.76
230.558
239.121
247.42
255.428
263.115
270.455
277.422
283.99
290.135
295.834
301.067
305.813
310.053
313.771
316.954
319.588
321.663
323.172
324.108
324.47
324.255
323.466
322.105
320.18
317.697
314.668
311.104
307.021
302.433
297.361
291.824
285.844
279.444
272.65
265.488
257.986
250.172
242.077
233.73
225.163
216.408
207.497
198.463
189.337
180.153
170.942
161.735
152.562
143.454
134.438
125.542
116.791
108.211
99.823
91.65
83.711
76.024
68.604
61.468
54.627
48.092
41.873
35.976
30.407
25.171
20.269
15.703
11.472
7.574
4.004
0.759
-2.168
-4.785
-7.101
-9.124
-10.866
-12.339
-13.555
-14.525
-15.265
-15.788
-16.106
-16.235
-16.189
-15.981
-15.626
-15.138
-14.529
-13.813
-13.004
-12.113
-11.152
-10.133
-9.067
-7.964
-6.833
-5.683
-4.524
-3.362
-2.206
-1.062
0.063
1.164
2.235
3.273
4.273
5.232
6.148
7.018
7.84
8.614
9.338
10.012
10.636
11.21
11.734
12.21
12.638
13.02
13.358
13.652
13.906
14.121
14.299
14.442
14.551
14.63
14.678
14.699
14.693
14.662
14.608
14.532
14.436
14.321
14.189
14.039
13.874
13.694
13.5
13.292
13.071
12.837
12.591
12.334
12.064
11.783
11.489
11.184
10.865
10.532
10.184
9.82
9.439
9.038
8.618
8.176
7.711
7.223
6.711
6.174
5.61
5.02
4.402
3.757
3.084
2.382
1.652
0.894
0.109
-0.704
-1.544
-2.41
-3.302
-4.218
-5.159
-6.124
-7.11
-8.118
-9.145
-10.189
-11.247
-12.318
-13.398
-14.484
-15.573
-16.661
-17.746
-18.823
-19.89
-20.943
-21.979
-22.996
-23.989
-24.957
-25.896
-26.805
-27.681
-28.522
-29.327
-30.095
-30.825
-31.514
-32.164
-32.772
-33.339
-33.863
-34.345
-34.785
-35.183
-35.539
-35.856
-36.135
-36.378
-36.589
-36.771
-36.926
-37.059
-37.175
-37.276
-37.369
-37.457
-37.545
-37.638
-37.741
-37.859
-37.996
-38.157
-38.346
-38.566
-38.821
-39.114
-39.449
-39.828
-40.255
-40.732
-41.261
-41.844
-42.484
-43.182
-43.94
-44.758
-45.636
-46.574
-47.571
-48.625
-49.734
-50.895
-52.105
-53.359
-54.652
-55.979
-57.334
-58.711
-60.103
-61.501
-62.9
-64.29
-65.665
-67.015
-68.333
-69.61
-70.839
-72.01
-73.116
-74.147
-75.096
-75.953
-76.711
-77.359
-77.892
-78.3
-78.576
-78.713
-78.703
-78.542
-78.223
-77.741
-77.093
-76.274
-75.284
-74.121
-72.786
-71.279
-69.602
-67.759
-65.754
-63.592
-61.281
-58.827
-56.24
-53.528
-50.704
-47.779
-44.766
-41.68
-38.536
-35.353
-32.148
-28.942
-25.753
-22.604
-19.516
-16.51
-13.609
-10.833
-8.202
-5.737
-3.457
-1.382
0.469
2.078
3.427
4.5
5.282
5.76
5.927
5.778
5.311
4.525
3.42
1.989
0.231
-1.85
-4.25
-6.958
-9.961
-13.237
-16.747
-20.44
-24.264
-28.168
-32.102
-36.028
-39.903
-43.678
-47.303
-50.716
-53.865
-56.704
-59.193
-61.294
-62.987
-64.278
-65.23
-65.946
-66.536
-67.1
-67.708
-68.431
-69.373
-70.644
-72.374
-74.689
-77.665
-81.413
-86.099
-91.793
-98.426
-105.72
-113.063
-119.762
-125.23
-128.812
-129.832
-127.912
-122.96
-115.452
-106.673
-98.047
-90.835
-86.262
-85.237
-88.018
-94.21
-102.238
-109.08
-111.179
-104.709
-85.959
-52.08
-0.884
68.85
156.165
258.21
369.352
480.971
586.146
679.092
755.285
813.806
848.27
849.673
812.831
731.436
609.54
457.854
282.152
94.436
-94.943
-275.104
-425.2
-533.662
-597.034
-619.664
-619.392
-608.223
-591.144
-570.244
-541.034
-503.155
-460.918
-417.761
-378.178
-345.023
-318.509
-298.508
-284.173
-273.934
-266.451
-261.024
-256.881
-252.989
-248.323
-241.705
-232.619
-221.47
-208.835
-195.131
-180.838
-166.529
-152.975
-141.26
-132.001
-125.211
-120.699
-118.109
-117.095
-117.389
-118.596
-120.165
-121.689
-122.951
-123.845
-124.408
-124.65
-124.513
-123.955
-122.951
-121.502
-119.642
-117.413
-114.855
-112.016
-108.954
-105.733
-102.426
-99.113
-95.852
-92.685
-89.632
-86.722
-83.991
-81.494
-79.305
-77.454
-75.946
-74.774
-73.912
-73.338
-73.029
-72.943
-73.028
-73.238
-73.532
-73.877
-74.252
-74.624
-74.95
-75.181
-75.261
-75.144
-74.798
-74.193
-73.302
-72.106
-70.584
-68.728
-66.535
-64.002
-61.12
-57.883
-54.278
-50.302
-45.954
-41.236
-36.152
-30.707
-24.909
-18.763
-12.282
-5.474
1.649
9.076
16.796
24.796
33.058
41.564
50.294
59.224
68.332
77.592
86.977
96.458
106.008
115.598
125.198
134.779
144.309
153.759
163.097
172.293
181.316
190.134
198.718
207.036
215.059
222.76
230.108
237.079
243.646
249.785
255.473
260.687
265.409
269.619
273.3
276.438
279.019
281.034
282.473
283.331
283.605
283.294
282.399
280.926
278.88
276.27
273.109
269.408
265.184
260.454
255.238
249.558
243.437
236.901
229.975
222.689
215.071
207.152
198.963
190.536
181.902
173.095
164.147
155.092
145.961
136.788
127.603
118.44
109.326
100.292
91.365
82.572
73.938
65.485
57.236
49.21
41.426
33.899
26.645
19.676
13.003
6.635
0.579
-5.16
-10.577
-15.672
-20.443
-24.892
-29.021
-32.834
-36.336
-39.533
-42.433
-45.044
-47.374
-49.435
-51.236
-52.788
-54.102
-55.19
-56.065
-56.737
-57.218
-57.519
-57.654
-57.632
-57.464
-57.162
-56.736
-56.196
-55.551
-54.81
-53.982
-53.075
-52.097
-51.056
-49.957
-48.807
-47.613
-46.38
-45.114
-43.819
-42.501
-41.163
-39.81
-38.445
-37.072
-35.695
-34.318
-32.942
-31.573
-30.213
-28.866
-27.535
-26.223
-24.933
-23.669
-22.433
-21.229
-20.059
-18.926
-17.833
-16.782
-15.777
-14.819
-13.911
-13.055
-12.253
-11.507
-10.817
-10.185
-9.612
-9.098
-8.643
-8.248
-7.913
-7.637
-7.419
-7.258
-7.152
-7.1
-7.099
-7.147
-7.24
-7.376
-7.55
-7.76
-8.002
-8.271
-8.565
-8.878
-9.209
-9.551
-9.903
-10.258
-10.615
-10.969
-11.317
-11.655
-11.981
-12.292
-12.585
-12.858
-13.11
-13.339
-13.543
-13.721
-13.873
-13.997
-14.095
-14.166
-14.21
-14.23
-14.226
-14.2
-14.154
-14.091
-14.012
-13.92
-13.817
-13.707
-13.59
-13.47
-13.35
-13.231
-13.117
-13.009
-12.91
-12.822
-12.747
-12.686
-12.641
-12.614
-12.605
-12.615
-12.644
-12.694
-12.764
-12.855
-12.967
-13.099
-13.25
-13.42
-13.607
-13.81
-14.027
-14.256
-14.494
-14.741
-14.993
-15.249
-15.507
-15.765
-16.02
-16.273
-16.52
-16.761
-16.993
-17.216
-17.429
-17.63
-17.82
-17.998
-18.163
-18.317
-18.457
-18.586
-18.703
-18.809
-18.904
-18.988
-19.063
-19.129
-19.187
-19.239
-19.284
-19.326
-19.365
-19.402
-19.439
-19.477
-19.516
-19.558
-19.603
-19.651
-19.701
-19.755
-19.81
-19.866
-19.923
-19.977
-20.027
-20.071
-20.107
-20.13
-20.138
-20.127
-20.093
-20.033
-19.941
-19.814
-19.647
-19.435
-19.173
-18.857
-18.482
-18.043
-17.535
-16.954
-16.296
-15.555
-14.729
-13.813
-12.805
-11.701
-10.499
-9.199
-7.799
-6.299
-4.7
-3.002
-1.207
0.682
2.66
4.724
6.869
9.088
11.373
13.717
16.11
18.543
21.003
23.477
25.95
28.409
30.838
33.22
35.539
37.778
39.923
41.957
43.868
45.64
47.26
48.713
49.984
51.058
51.922
52.565
52.976
53.145
53.067
52.74
52.164
51.341
50.268
48.937
47.345
45.491
43.379
41.019
38.426
35.625
32.65
29.547
26.364
23.149
19.944
16.784
13.704
10.738
7.933
5.344
3.022
1.01
-0.663
-1.973
-2.918
-3.528
-3.864
-4.025
-4.112
-4.213
-4.412
-4.806
-5.491
-6.578
-8.189
-10.405
-13.346
-17.179
-21.942
-27.591
-33.943
-40.571
-47.041
-52.98
-57.882
-61.179
-62.585
-61.936
-59.449
-55.936
-52.045
-48.261
-45.203
-43.384
-42.908
-43.616
-44.91
-45.133
-42.523
-35.617
-21.432
2.74
37.316
83.292
138.232
198.56
265.755
338.971
419.118
505.875
590.919
668.045
729.418
768.97
785.678
774.698
731.091
648.804
522.021
353.711
156.834
-46.804
-230.497
-373.15
-468.204
-523.443
-554.056
-572.394
-580.754
-571.045
-537.991
-486.918
-428.847
-380.31
-348.851
-327.809
-310.305
-288.707
-261.1
-234.349
-212.027
-195.615
-185.233
-177.407
-170.109
-162.396
-152.94
-141.767
-129.408
-116.216
-102.688
-89.204
-76.029
-63.811
-53.508
-45.649
-40.269
-37.123
-35.77
-35.838
-37.094
-39.168
-41.509
-43.688
-45.418
-46.536
-47.023
-46.83
-45.875
-44.135
-41.651
-38.499
-34.774
-30.566
-25.948
-21.006
-15.832
-10.509
-5.132
0.214
5.447
10.486
15.253
19.665
23.663
27.207
30.281
32.9
35.091
36.885
38.324
39.46
40.339
41.008
41.511
41.883
42.166
42.405
42.651
42.959
43.379
43.95
44.704
45.667
46.861
48.303
50.009
51.982
54.232
56.767
59.6
62.745
66.214
70.014
74.149
78.623
83.436
88.592
94.091
99.929
106.105
112.615
119.454
126.621
134.106
141.901
149.993
158.368
167.008
175.896
185.013
194.336
203.841
213.505
223.303
233.209
243.196
253.236
263.3
273.358
283.381
293.336
303.194
312.922
322.487
331.859
341.005
349.892
358.491
366.769
374.696
382.243
389.38
396.08
402.315
408.061
413.292
417.985
422.121
425.68
428.644
430.999
432.731
433.831
434.291
434.103
433.264
431.772
429.629
426.836
423.4
419.326
414.626
409.309
403.39
396.885
389.81
382.186
374.033
365.374
356.233
346.635
336.609
326.18
315.379
304.235
292.778
281.039
269.049
256.839
244.441
231.885
219.202
206.422
193.574
180.688
167.79
154.909
142.069
129.296
116.613
104.044
91.609
79.329
67.224
55.313
43.611
32.136
20.902
9.922
-0.79
-11.224
-21.37
-31.219
-40.762
-49.993
-58.906
-67.496
-75.758
-83.689
-91.288
-98.55
-105.477
-112.067
-118.321
-124.239
-129.823
-135.073
-139.993
-144.583
-148.848
-152.791
-156.414
-159.722
-162.719
-165.411
-167.804
-169.904
-171.717
-173.251
-174.514
-175.514
-176.259
-176.758
-177.021
-177.057
-176.876
-176.49
-175.909
-175.146
-174.21
-173.116
-171.876
-170.5
-169.004
-167.398
-165.697
-163.912
-162.057
-160.145
-158.187
-156.198
-154.189
-152.173
-150.162
-148.167
-146.198
-144.266
-142.379
-140.548
-138.779
-137.081
-135.46
-133.921
-132.472
-131.115
-129.857
-128.699
-127.644
-126.694
-125.85
-125.112
-124.479
-123.949
-123.521
-123.193
-122.961
-122.822
-122.771
-122.806
-122.921
-123.11
-123.369
-123.693
-124.074
-124.507
-124.987
-125.507
-126.062
-126.647
-127.256
-127.886
-128.53
-129.185
-129.846
-130.508
-131.167
-131.82
-132.462
-133.09
-133.7
-134.289
-134.854
-135.393
-135.904
-136.384
-136.832
-137.246
-137.624
-137.964
-138.266
-138.527
-138.749
-138.928
-139.067
-139.163
-139.217
-139.228
-139.198
-139.124
-139.008
-138.849
-138.646
-138.399
-138.108
-137.773
-137.395
-136.974
-136.51
-136.005
-135.46
-134.877
-134.258
-133.604
-132.919
-132.204
-131.463
-130.699
-129.917
-129.119
-128.311
-127.497
-126.681
-125.868
-125.063
-124.271
-123.495
-122.742
-122.014
-121.318
-120.657
-120.036
-119.461
-118.934
-118.462
-118.047
-117.694
-117.407
-117.188
-117.039
-116.964
-116.963
-117.038
-117.188
-117.413
-117.712
-118.082
-118.52
-119.022
-119.585
-120.201
-120.865
-121.569
-122.307
-123.07
-123.849
-124.636
-125.421
-126.194
-126.947
-127.668
-128.348
-128.975
-129.54
-130.033
-130.443
-130.761
-130.977
-131.081
-131.066
-130.922
-130.643
-130.22
-129.647
-128.92
-128.034
-126.987
-125.775
-124.401
-122.863
-121.166
-119.312
-117.307
-115.158
-112.874
-110.463
-107.937
-105.308
-102.59
-99.798
-96.947
-94.055
-91.141
-88.226
-85.329
-82.474
-79.681
-76.973
-74.371
-71.897
-69.572
-67.414
-65.444
-63.68
-62.14
-60.845
-59.812
-59.055
-58.589
-58.426
-58.573
-59.037
-59.816
-60.907
-62.305
-64.007
-66.015
-68.325
-70.931
-73.82
-76.974
-80.37
-83.978
-87.755
-91.648
-95.603
-99.565
-103.488
-107.335
-111.064
-114.632
-117.987
-121.065
-123.809
-126.17
-128.109
-129.593
-130.608
-131.171
-131.334
-131.189
-130.825
-130.317
-129.729
-129.139
-128.634
-128.317
-128.316
-128.717
-129.641
-131.259
-133.641
-136.791
-140.556
-144.517
-148.189
-151.116
-152.748
-152.497
-149.995
-145.01
-137.737
-129.065
-119.914
-111.184
-103.857
-98.718
-96.312
-96.897
-99.831
-103.239
-104.841
-102.014
-91.967
-72.042
-39.437
8.221
72.421
151.947
242.597
339.486
437.176
532.968
628.459
722.384
808.644
874.799
901.047
872.929
787.066
650.631
479.699
288.61
88.873
-109.358
-293.319
-444.534
-550.778
-607.927
-622.931
-614.385
-594.725
-569.818
-541.098
-503.341
-456.655
-406.242
-356.932
-314.953
-283.749
-262.857
-251.011
-246.317
-246.377
-248.98
-252.185
-253.732
-251.602
-244.994
-233.901
-218.845
-200.937
-181.431
-161.437
-142.361
-125.653
-112.041
-101.785
-94.819
-90.675
-88.869
-88.978
-90.404
-92.491
-94.831
-97.143
-99.238
-101.083
-102.591
-103.64
-104.164
-104.098
-103.388
-102.02
-100
-97.352
-94.128
-90.398
-86.241
-81.752
-77.028
-72.173
-67.259
-62.34
-57.533
-52.948
-48.683
-44.862
-41.514
-38.606
-36.188
-34.318
-32.815
-31.463
-30.346
-29.399
-28.539
-28.15
-27.043
-24.065
-20.742
-17.49
-17.174
-23.241
-31.812
-40.288
-44.794
-40.017
-30.556
-20.336
-12.066
-10.223
-11.614
-12.957
-13.562
-11.578
-8.206
-4.88
-1.093
3.296
8.491
14.612
21.22
28.042
35.042
42.059
48.464
53.399
56.463
57.858
58.366
58.841
59.765
61.514
65.03
71.599
82.046
96.525
114.028
133.046
152.686
172.416
191.294
208.104
221.792
231.633
238.253
243.1
246.986
250.311
253.543
257.166
261.85
268.355
276.476
285.31
294.333
303.263
312.013
320.679
329.073
336.779
343.744
350.22
356.371
362.318
367.997
373.167
377.712
381.641
384.939
387.534
389.325
390.154
389.89
388.502
385.99
382.363
377.641
371.845
365.02
357.269
348.736
339.55
329.817
319.618
309.003
298.048
286.853
275.53
264.202
252.965
241.887
231.03
220.45
210.182
200.243
190.613
181.233
172.066
163.1
154.333
145.783
137.458
129.35
121.458
113.778
106.31
99.059
92.025
85.206
78.613
72.263
66.189
60.439
55.048
50.033
45.408
41.173
37.33
33.879
30.813
28.115
25.774
23.777
22.114
20.776
19.751
19.021
18.566
18.36
18.384
18.616
19.038
19.632
20.381
21.27
22.285
23.416
24.653
25.981
27.389
28.861
30.384
31.946
33.534
35.137
36.742
38.341
39.924
41.484
43.014
44.508
45.96
47.365
48.721
50.022
51.268
52.455
53.583
54.65
55.658
56.605
57.494
58.323
59.095
59.809
60.467
61.071
61.62
62.117
62.562
62.957
63.305
63.607
63.865
64.082
64.26
64.4
64.505
64.577
64.618
64.628
64.609
64.563
64.491
64.394
64.272
64.126
63.956
63.763
63.546
63.305
63.041
62.753
62.442
62.109
61.754
61.377
60.979
60.561
60.124
59.668
59.193
58.701
58.192
57.667
57.127
56.573
56.005
55.426
54.837
54.239
53.634
53.022
52.406
51.787
51.167
50.547
49.931
49.32
48.717
48.123
47.542
46.975
46.425
45.892
45.378
44.885
44.412
43.961
43.532
43.126
42.742
42.382
42.045
41.731
41.44
41.171
40.923
40.696
40.487
40.296
40.122
39.963
39.818
39.685
39.562
39.449
39.343
39.242
39.143
39.045
38.944
38.839
38.728
38.608
38.48
38.342
38.194
38.036
37.868
37.692
37.508
37.319
37.125
36.929
36.735
36.545
36.364
36.194
36.042
35.911
35.806
35.731
35.691
35.691
35.735
35.828
35.973
36.177
36.442
36.775
37.178
37.657
38.214
38.853
39.576
40.385
41.28
42.26
43.326
44.475
45.704
47.01
48.388
49.831
51.334
52.888
54.483
56.109
57.753
59.404
61.047
62.668
64.254
65.788
67.256
68.641
69.928
71.099
72.139
73.029
73.753
74.293
74.632
74.754
74.642
74.28
73.654
72.748
71.549
70.044
68.221
66.068
63.575
60.732
57.531
53.964
50.024
45.707
41.01
35.932
30.472
24.632
18.418
11.837
4.896
-2.392
-10.018
-17.969
-26.232
-34.794
-43.637
-52.745
-62.096
-71.668
-81.435
-91.367
-101.433
-111.598
-121.836
-132.123
-142.436
-152.746
-163.024
-173.235
-183.342
-193.299
-203.055
-212.546
-221.713
-230.5
-238.86
-246.76
-254.166
-261.045
-267.351
-273.033
-278.041
-282.333
-285.878
-288.654
-290.654
-291.91
-292.484
-292.479
-291.992
-291.103
-289.88
-288.405
-286.77
-285.084
-283.483
-282.066
-280.98
-280.437
-280.529
-281.264
-282.473
-283.705
-284.484
-284.389
-282.883
-279.412
-273.695
-265.65
-255.747
-245.151
-234.887
-225.872
-219.066
-215.124
-214.428
-216.921
-221.348
-225.283
-226.275
-221.606
-208.408
-184.402
-147.239
-94.897
-27.197
54.356
147.691
247.893
348.967
446.948
535.614
610.749
669.456
702.655
703.805
668.439
594.027
488.561
360.085
212.911
51.593
-121.262
-296.548
-455.427
-579.848
-659.245
-695.096
-701.882
-695.174
-683.425
-668.366
-646.078
-614.043
-574.445
-531.585
-490.022
-452.151
-418.699
-389.707
-364.767
-343.916
-326.831
-312.653
-301.11
-291.998
-284.518
-278.036
-271.747
-264.508
-256.009
-246.415
-235.647
-223.857
-211.47
-198.813
-186.586
-175.727
-166.565
-159.111
-153.314
-148.873
-145.528
-143.085
-141.117
-139.131
-136.859
-134.153
-131.006
-127.546
-123.819
-119.841
-115.648
-111.249
-106.654
-101.867
-96.85
-91.555
-85.953
-80.044
-73.858
-67.438
-60.803
-53.965
-46.903
-39.574
-31.948
-23.985
-15.675
-7.054
1.834
10.931
20.153
29.406
38.616
47.721
56.687
65.504
74.157
82.628
90.89
98.903
106.623
113.995
120.984
127.579
133.79
139.647
145.202
150.525
155.675
160.702
165.638
170.495
175.284
180.013
184.688
189.317
193.918
198.518
203.14
207.804
212.517
217.273
222.057
226.841
231.602
236.317
240.972
245.558
250.074
254.519
258.896
263.21
267.463
271.65
275.763
279.792
283.728
287.565
291.298
294.923
298.435
301.829
305.1
308.238
311.234
314.073
316.741
319.218
321.487
323.531
325.332
326.874
328.142
329.119
329.79
330.143
330.163
329.838
329.154
328.101
326.666
324.841
322.617
319.988
316.948
313.495
309.626
305.343
300.647
295.545
290.041
284.144
277.863
271.21
264.198
256.842
249.159
241.168
232.888
224.341
215.552
206.544
197.343
187.976
178.47
168.853
159.152
149.394
139.603
129.807
120.038
110.325
100.695
91.173
81.78
72.54
63.487
54.637
45.989
37.544
29.3
21.27
13.503
6.013
-1.222
-8.169
-14.746
-20.892
-26.536
-31.669
-36.385
-40.711
-44.549
-48.004
-51.447
-54.961
-58.444
-61.951
-65.098
-68.621
-74.8
-83.158
-91.618
-96.758
-92.12
-78.106
-61.218
-47.933
-47.446
-60.359
-77.997
-93.656
-100.098
-96.059
-88.042
-80.045
-74.796
-73.133
-72.415
-71.449
-70.332
-68.979
-67.799
-66.898
-65.926
-64.781
-63.533
-62.176
-60.702
-59.13
-57.482
-55.798
-54.143
-52.544
-50.978
-49.441
-47.942
-46.485
-45.079
-43.726
-42.423
-41.172
-39.984
-38.863
-37.815
-36.844
-35.954
-35.147
-34.427
-33.795
-33.254
-32.805
-32.448
-32.183
-32.009
-31.927
-31.934
-32.029
-32.21
-32.473
-32.815
-33.231
-33.718
-34.27
-34.882
-35.549
-36.267
-37.03
-37.832
-38.669
-39.536
-40.426
-41.333
-42.253
-43.177
-44.102
-45.02
-45.926
-46.816
-47.684
-48.527
-49.341
-50.122
-50.867
-51.574
-52.241
-52.865
-53.445
-53.979
-54.468
-54.913
-55.313
-55.671
-55.989
-56.27
-56.515
-56.726
-56.905
-57.055
-57.177
-57.273
-57.345
-57.396
-57.429
-57.448
-57.455
-57.455
-57.45
-57.443
-57.437
-57.432
-57.431
-57.434
-57.442
-57.458
-57.48
-57.512
-57.554
-57.608
-57.676
-57.759
-57.855
-57.964
-58.082
-58.206
-58.333
-58.46
-58.581
-58.695
-58.801
-58.899
-58.99
-59.077
-59.161
-59.24
-59.312
-59.374
-59.422
-59.449
-59.449
-59.417
-59.35
-59.249
-59.123
-58.979
-58.815
-58.625
-58.398
-58.111
-57.747
-57.286
-56.701
-55.975
-55.099
-54.071
-52.913
-51.648
-50.292
-48.851
-47.313
-45.661
-43.896
-42.029
-40.079
-38.086
-36.085
-34.12
-32.266
-30.587
-29.127
-27.907
-26.894
-26.022
-25.239
-24.51
-23.815
-23.142
-22.459
-21.71
-20.846
-19.809
-18.541
-16.976
-14.991
-12.466
-9.303
-5.445
-0.922
4.173
9.758
15.761
22.098
28.689
35.417
42.134
48.722
55.078
61.104
66.688
71.67
75.868
79.119
81.309
82.403
82.425
81.402
79.36
76.353
72.458
67.788
62.494
56.684
50.439
43.832
36.942
29.881
22.779
15.759
8.911
2.288
-4.085
-10.178
-15.955
-21.4
-26.504
-31.292
-35.811
-40.074
-44.08
-47.816
-51.26
-54.401
-57.231
-59.736
-61.901
-63.709
-65.138
-66.195
-66.924
-67.385
-67.672
-67.86
-67.984
-68.104
-68.297
-68.644
-69.27
-70.293
-71.798
-73.915
-76.808
-80.555
-85.135
-90.33
-95.649
-100.531
-104.431
-106.75
-106.884
-104.452
-99.432
-92.357
-84.343
-76.699
-70.578
-67.03
-67.062
-71.109
-78.706
-88.294
-97.206
-102.153
-99.897
-87.341
-61.296
-19.453
39.008
113.308
200.772
297.075
396.921
494.298
582.258
653.838
702.91
724.349
714.465
673.137
603.682
509.997
397.663
268.713
119.921
-46.074
-222.344
-393.983
-534.217
-625.742
-662.664
-649.69
-611.058
-568.221
-532.805
-512.645
-499.621
-482.31
-456.812
-419.044
-373.011
-328.219
-289.034
-258.645
-237.569
-222.444
-211.605
-204.724
-200.828
-198.917
-197.563
-194.803
-189.575
-181.897
-171.96
-159.975
-146.504
-132.342
-118.524
-106.35
-96.507
-89.01
-83.729
-80.368
-78.617
-78.228
-78.747
-79.542
-80.224
-80.618
-80.64
-80.341
-79.691
-78.561
-76.922
-74.811
-72.275
-69.389
-66.2
-62.712
-58.961
-54.997
-50.882
-46.703
-42.519
-38.363
-34.282
-30.321
-26.549
-23.064
-19.923
-17.148
-14.744
-12.692
-10.972
-9.569
-8.45
-7.57
-6.882
-6.342
-5.914
-5.574
-5.289
-5.017
-4.709
-4.305
-3.759
-3.039
-2.116
-0.969
0.421
2.074
3.998
6.192
8.659
11.405
14.44
17.774
21.414
25.361
29.615
34.173
39.032
44.188
49.636
55.366
61.371
67.641
74.166
80.937
87.94
95.159
102.577
110.174
117.929
125.82
133.824
141.915
150.067
158.256
166.455
174.637
182.777
190.845
198.815
206.659
214.347
221.853
229.146
236.199
242.984
249.473
255.639
261.456
266.9
271.947
276.575
280.764
284.495
287.751
290.518
292.782
294.532
295.758
296.455
296.617
296.243
295.331
293.883
291.905
289.403
286.384
282.859
278.84
274.341
269.378
263.97
258.135
251.894
245.272
238.291
230.979
223.361
215.467
207.324
198.962
190.411
181.7
172.86
163.92
154.909
145.857
136.791
127.74
118.731
109.788
100.937
92.201
83.602
75.16
66.895
58.824
50.962
43.326
35.927
28.777
21.886
15.263
8.913
2.843
-2.944
-8.445
-13.66
-18.589
-23.234
-27.597
-31.681
-35.491
-39.033
-42.313
-45.337
-48.112
-50.646
-52.948
-55.026
-56.889
-58.545
-60.005
-61.276
-62.369
-63.291
-64.051
-64.659
-65.121
-65.447
-65.643
-65.718
-65.677
-65.528
-65.277
-64.93
-64.493
-63.97
-63.367
-62.688
-61.94
-61.126
-60.251
-59.32
-58.337
-57.307
-56.235
-55.125
-53.981
-52.808
-51.61
-50.393
-49.16
-47.916
-46.664
-45.41
-44.157
-42.909
-41.671
-40.445
-39.236
-38.047
-36.884
-35.75
-34.652
-33.593
-32.576
-31.603
-30.678
-29.804
-28.985
-28.221
-27.515
-26.868
-26.285
-25.767
-25.321
-24.946
-24.64
-24.401
-24.223
-24.108
-24.059
-24.08
-24.17
-24.331
-24.561
-24.861
-25.235
-25.68
-26.189
-26.754
-27.361
-28.005
-28.686
-29.406
-30.175
-30.983
-31.804
-32.612
-33.371
-34.073
-34.738
-35.369
-35.957
-36.494
-36.946
-37.333
-37.762
-38.196
-38.481
-38.481
-38.004
-37.065
-35.971
-34.837
-33.563
-32.323
-31.427
-31.24
-32.355
-34.778
-37.809
-41.077
-44.489
-47.715
-50.436
-52.158
-51.989
-49.869
-46.646
-42.832
-38.735
-34.714
-30.899
-27.671
-25.809
-25.409
-25.887
-26.861
-28.011
-29.126
-30.283
-31.359
-31.988
-32.118
-31.968
-31.701
-31.497
-31.428
-31.388
-31.361
-31.41
-31.542
-31.74
-31.979
-32.21
-32.423
-32.656
-32.926
-33.246
-33.619
-34.028
-34.463
-34.92
-35.394
-35.882
-36.377
-36.872
-37.358
-37.826
-38.267
-38.674
-39.037
-39.346
-39.591
-39.76
-39.847
-39.848
-39.761
-39.583
-39.31
-38.936
-38.459
-37.875
-37.183
-36.381
-35.469
-34.445
-33.311
-32.068
-30.719
-29.27
-27.724
-26.085
-24.358
-22.552
-20.674
-18.734
-16.742
-14.711
-12.654
-10.588
-8.53
-6.496
-4.503
-2.569
-0.709
1.06
2.72
4.253
5.644
6.876
7.934
8.803
9.465
9.906
10.113
10.08
9.799
9.266
8.474
7.421
6.102
4.521
2.682
0.589
-1.751
-4.33
-7.138
-10.158
-13.364
-16.729
-20.219
-23.798
-27.434
-31.089
-34.726
-38.303
-41.768
-45.086
-48.228
-51.174
-53.92
-56.44
-58.685
-60.606
-62.182
-63.433
-64.433
-65.233
-65.806
-66.194
-66.563
-67.214
-68.492
-70.555
-73.293
-76.541
-80.34
-84.73
-89.478
-93.987
-97.4
-99.106
-99.155
-97.928
-95.423
-91.515
-86.417
-80.716
-75.571
-72.2
-70.828
-71.15
-73.388
-77.602
-83.413
-90.582
-98.046
-103.706
-106.323
-103.553
-91.154
-67.808
-33.328
10.983
60.129
113.667
174.467
245.772
332.611
434.432
545.831
657.128
753.94
821.022
842.167
809.237
723.641
595.924
447.088
293.129
143.781
3.807
-129.576
-254.534
-365.121
-456.263
-522.681
-563.196
-580.879
-579.085
-561.164
-531.658
-495.159
-455.729
-416.865
-380.585
-347.588
-318.741
-295.339
-277.331
-263.731
-253.445
-245.163
-238.17
-232.326
-226.801
-220.052
-211.339
-200.66
-188.338
-175.14
-161.589
-147.878
-134.677
-123.087
-113.768
-106.965
-102.603
-100.216
-99.419
-99.988
-101.546
-103.576
-105.686
-107.583
-109.103
-110.247
-110.988
-111.246
-110.951
-110.078
-108.628
-106.638
-104.17
-101.269
-97.998
-94.439
-90.667
-86.759
-82.794
-78.843
-74.958
-71.195
-67.608
-64.253
-61.211
-58.541
-56.266
-54.389
-52.891
-51.742
-50.914
-50.371
-50.061
-49.935
-49.946
-50.054
-50.229
-50.434
-50.625
-50.755
-50.764
-50.603
-50.237
-49.635
-48.773
-47.629
-46.184
-44.424
-42.348
-39.949
-37.22
-34.152
-30.732
-26.955
-22.816
-18.318
-13.462
-8.253
-2.693
3.209
9.446
16.007
22.882
30.06
37.529
45.274
53.279
61.524
69.987
78.646
87.477
96.456
105.555
114.747
124.005
133.301
142.605
151.889
161.123
170.276
179.319
188.22
196.949
205.477
213.773
221.808
229.553
236.98
244.063
250.776
257.094
262.994
268.455
273.457
277.982
282.014
285.538
288.541
291.013
292.944
294.327
295.159
295.435
295.154
294.319
292.932
290.998
288.526
285.525
282.006
277.984
273.475
268.496
263.067
257.21
250.948
244.306
237.311
229.989
222.369
214.481
206.355
198.022
189.511
180.854
172.082
163.224
154.312
145.374
136.441
127.54
118.699
109.945
101.303
92.799
84.455
76.294
68.337
60.602
53.107
45.867
38.898
32.21
25.814
19.719
13.932
8.456
3.294
-1.552
-6.084
-10.303
-14.215
-17.825
-21.139
-24.165
-26.911
-29.389
-31.607
-33.577
-35.31
-36.819
-38.114
-39.208
-40.114
-40.844
-41.411
-41.825
-42.1
-42.246
-42.274
-42.195
-42.018
-41.754
-41.409
-40.994
-40.513
-39.974
-39.382
-38.74
-38.053
-37.322
-36.549
-35.735
-34.878
-33.98
-33.037
-32.048
-31.01
-29.922
-28.779
-27.58
-26.32
-24.998
-23.611
-22.156
-20.632
-19.037
-17.37
-15.631
-13.821
-11.941
-9.991
-7.975
-5.895
-3.756
-1.561
0.685
2.975
5.303
7.663
10.046
12.444
14.848
17.248
19.635
21.997
24.325
26.606
28.831
30.988
33.065
35.054
36.942
38.721
40.381
41.915
43.315
44.575
45.689
46.653
47.464
48.121
48.624
48.972
49.169
49.217
49.121
48.891
48.531
48.044
47.435
46.713
45.885
44.97
43.976
42.9
41.762
40.598
39.437
38.314
37.242
36.192
35.177
34.244
33.374
32.494
31.551
30.478
29.282
28.078
26.896
25.625
24.4
23.638
23.406
23.588
24.238
24.877
26.436
31.471
39.23
47.429
52.003
45.595
29.175
9.971
-4.632
-4.165
11.302
32
50.425
58.251
54.591
46.774
39.112
34.759
34.415
35.059
35.452
35.659
35.59
35.709
36.092
36.335
36.335
36.158
35.795
35.234
34.496
33.605
32.607
31.581
30.554
29.503
28.429
27.348
26.269
25.206
24.169
23.158
22.183
21.258
20.395
19.604
18.892
18.266
17.732
17.294
16.958
16.724
16.594
16.567
16.643
16.817
17.086
17.442
17.879
18.388
18.959
19.578
20.233
20.906
21.582
22.244
22.874
23.452
23.962
24.384
24.703
24.903
24.968
24.884
24.635
24.206
23.583
22.754
21.706
20.433
18.926
17.182
15.206
13.003
10.58
7.943
5.089
2.021
-1.255
-4.73
-8.392
-12.224
-16.199
-20.282
-24.421
-28.562
-32.655
-36.651
-40.512
-44.199
-47.668
-50.868
-53.743
-56.238
-58.311
-59.926
-61.043
-61.649
-61.767
-61.453
-60.811
-59.951
-58.95
-57.901
-56.912
-56.101
-55.625
-55.625
-56.18
-57.427
-59.542
-62.61
-66.657
-71.481
-76.553
-81.36
-85.483
-88.358
-89.397
-88.193
-84.518
-78.818
-72.309
-66.076
-60.835
-57.566
-57.338
-60.584
-67.414
-75.594
-80.18
-78.433
-69.035
-52.03
-30.552
-1.755
42.164
107.436
200.69
318.473
446.031
568.274
670.788
746.347
797.095
826.328
833.195
812.872
758.065
662.031
525.098
353.075
157.011
-46.451
-237.998
-396.561
-509.306
-573.992
-598.964
-602.548
-597.272
-588.012
-574.378
-550.291
-514.654
-471.17
-424.181
-379.1
-338.842
-304.45
-276.838
-255.695
-240.256
-229.765
-223.165
-219.628
-218.26
-217.336
-215.062
-210.55
-203.632
-194.681
-184.313
-172.953
-161.079
-149.719
-140.118
-133
-128.556
-126.576
-126.577
-128.16
-131.018
-134.652
-138.397
-141.749
-144.376
-146.099
-146.936
-146.916
-146.016
-144.28
-141.791
-138.633
-134.919
-130.762
-126.241
-121.458
-116.511
-111.479
-106.472
-101.608
-96.995
-92.749
-88.941
-85.601
-82.753
-80.41
-78.568
-77.211
-76.299
-75.772
-75.577
-75.667
-75.998
-76.531
-77.215
-77.99
-78.798
-79.575
-80.274
-80.857
-81.287
-81.53
-81.56
-81.354
-80.897
-80.183
-79.199
-77.931
-76.364
-74.481
-72.272
-69.727
-66.839
-63.604
-60.018
-56.078
-51.782
-47.133
-42.132
-36.782
-31.087
-25.051
-18.681
-11.987
-4.984
2.315
9.893
17.731
25.808
34.104
42.594
51.255
60.062
68.99
78.013
87.102
96.229
105.365
114.48
123.543
132.523
141.389
150.109
158.653
166.991
175.09
182.923
190.459
197.67
204.53
211.01
217.087
222.735
227.932
232.656
236.888
240.61
243.805
246.46
248.562
250.101
251.069
251.459
251.268
250.495
249.138
247.203
244.693
241.617
237.986
233.811
229.108
223.895
218.19
212.015
205.394
198.352
190.916
183.113
174.975
166.531
157.815
148.859
139.696
130.362
120.89
111.315
101.671
91.993
82.313
72.664
63.08
53.591
44.227
35.019
25.993
17.175
8.591
0.262
-7.791
-15.55
-22.998
-30.121
-36.906
-43.344
-49.427
-55.15
-60.508
-65.5
-70.128
-74.394
-78.304
-81.863
-85.082
-87.969
-90.536
-92.797
-94.764
-96.453
-97.879
-99.059
-100.011
-100.751
-101.3
-101.674
-101.893
-101.975
-101.939
-101.803
-101.584
-101.3
-100.967
-100.601
-100.217
-99.829
-99.451
-99.095
-98.773
-98.494
-98.269
-98.104
-98.007
-97.982
-98.034
-98.166
-98.379
-98.675
-99.054
-99.514
-100.055
-100.672
-101.364
-102.124
-102.95
-103.833
-104.769
-105.75
-106.768
-107.816
-108.885
-109.968
-111.055
-112.138
-113.207
-114.253
-115.267
-116.239
-117.159
-118.017
-118.803
-119.509
-120.124
-120.64
-121.047
-121.338
-121.505
-121.539
-121.433
-121.18
-120.773
-120.206
-119.472
-118.568
-117.486
-116.224
-114.778
-113.145
-111.323
-109.309
-107.104
-104.706
-102.116
-99.335
-96.364
-93.206
-89.864
-86.342
-82.645
-78.781
-74.755
-70.577
-66.256
-61.801
-57.224
-52.536
-47.75
-42.88
-37.94
-32.944
-27.91
-22.853
-17.79
-12.74
-7.72
-2.748
2.156
6.975
11.691
16.284
20.737
25.032
29.151
33.076
36.79
40.277
43.521
46.507
49.22
51.649
53.781
55.606
57.115
58.3
59.157
59.68
59.866
59.716
59.229
58.41
57.261
55.791
54.007
51.919
49.539
46.88
43.956
40.785
37.383
33.767
29.958
25.975
21.84
17.574
13.201
8.742
4.222
-0.335
-4.905
-9.464
-13.988
-18.452
-22.835
-27.114
-31.266
-35.272
-39.112
-42.767
-46.22
-49.457
-52.462
-55.224
-57.733
-59.981
-61.963
-63.672
-65.109
-66.271
-67.16
-67.779
-68.131
-68.222
-68.059
-67.651
-67.006
-66.137
-65.055
-63.774
-62.309
-60.676
-58.892
-56.974
-54.939
-52.807
-50.598
-48.329
-46.021
-43.695
-41.371
-39.068
-36.809
-34.613
-32.5
-30.489
-28.595
-26.836
-25.225
-23.773
-22.49
-21.384
-20.463
-19.732
-19.197
-18.862
-18.732
-18.808
-19.091
-19.58
-20.27
-21.153
-22.217
-23.451
-24.843
-26.388
-28.076
-29.896
-31.833
-33.872
-35.991
-38.166
-40.357
-42.515
-44.587
-46.52
-48.265
-49.785
-51.036
-51.982
-52.577
-52.773
-52.531
-51.824
-50.624
-48.918
-46.698
-43.978
-40.827
-37.358
-33.688
-29.94
-26.209
-22.583
-19.198
-16.203
-13.733
-11.907
-10.788
-10.465
-11.099
-12.793
-15.506
-18.971
-22.716
-26.266
-29.219
-31.08
-31.201
-28.997
-24.209
-17.279
-9.03
-0.121
8.612
16.181
21.646
23.85
23.551
24.369
28.082
35.265
45.287
54.22
65.765
90.246
135.366
208.549
307.366
418.062
532.298
645.179
751.52
850.187
930.285
972.883
968.939
914.54
815.67
688.317
540.426
378.767
212.349
49.863
-94.09
-208.275
-291.416
-349.505
-391.766
-424.093
-446.145
-453.085
-442.192
-415.501
-377.873
-335.633
-293.322
-252.885
-215.753
-183.654
-158.087
-139.631
-127.947
-122.009
-120.598
-122.829
-127.657
-133.258
-137.76
-140.149
-140.117
-137.93
-134.175
-129.273
-123.702
-118.457
-114.691
-113.05
-113.7
-116.416
-120.693
-126.108
-132.296
-138.701
-144.683
-149.79
-153.769
-156.555
-158.243
-158.903
-158.572
-157.332
-155.308
-152.636
-149.453
-145.879
-142.014
-137.98
-133.913
-129.959
-126.248
-122.878
-119.918
-117.409
-115.376
-113.838
-112.8
-112.243
-112.138
-112.437
-113.08
-114.014
-115.175
-116.487
-117.877
-119.27
-120.611
-121.873
-123.042
-124.097
-125.013
-125.753
-126.283
-126.596
-126.688
-126.556
-126.212
-125.662
-124.919
-124.022
-122.995
-121.828
-120.494
-118.92
-117.017
-114.725
-112
-108.811
-105.14
-100.948
-96.196
-90.86
-84.902
-78.282
-70.956
-62.842
-53.888
-44.092
-33.485
-22.147
-10.195
2.287
15.225
28.544
42.187
56.085
70.165
84.378
98.663
112.947
127.141
141.127
154.797
168.087
180.957
193.399
205.436
217.07
228.294
239.11
249.503
259.458
268.961
277.974
286.464
294.411
301.805
308.658
314.981
320.766
326
330.657
334.7
338.106
340.854
342.922
344.297
344.976
344.961
344.267
342.919
340.937
338.337
335.138
331.356
327.013
322.138
316.759
310.91
304.625
297.939
290.892
283.521
275.863
267.954
259.826
251.51
243.038
234.443
225.757
217.012
208.241
199.474
190.744
182.081
173.514
165.072
156.779
148.661
140.738
133.033
125.562
118.343
111.39
104.716
98.331
92.244
86.462
80.99
75.832
70.988
66.459
62.243
58.337
54.737
51.437
48.433
45.716
43.28
41.117
39.218
37.574
36.176
35.014
34.076
33.351
32.828
32.495
32.341
32.352
32.518
32.827
33.268
33.83
34.502
35.275
36.14
37.087
38.107
39.194
40.34
41.539
42.784
44.07
45.393
46.747
48.129
49.534
50.958
52.398
53.849
55.307
56.768
58.229
59.684
61.129
62.562
63.977
65.371
66.74
68.081
69.389
70.662
71.896
73.087
74.233
75.33
76.374
77.364
78.295
79.166
79.973
80.714
81.386
81.985
82.509
82.956
83.322
83.606
83.806
83.919
83.946
83.886
83.74
83.508
83.192
82.795
82.318
81.766
81.141
80.447
79.689
78.872
78
77.08
76.116
75.115
74.082
73.022
71.941
70.844
69.736
68.622
67.505
66.39
65.282
64.184
63.099
62.033
60.988
59.967
58.972
58.006
57.069
56.161
55.283
54.433
53.61
52.81
52.032
51.271
50.524
49.785
49.048
48.308
47.556
46.785
45.987
45.153
44.274
43.341
42.346
41.282
40.141
38.916
37.6
36.187
34.672
33.048
31.31
29.452
27.471
25.361
23.119
20.742
18.23
15.581
12.795
9.872
6.814
3.624
0.305
-3.141
-6.707
-10.389
-14.179
-18.067
-22.043
-26.096
-30.213
-34.379
-38.577
-42.793
-47.01
-51.214
-55.39
-59.523
-63.6
-67.606
-71.532
-75.363
-79.085
-82.681
-86.135
-89.429
-92.547
-95.472
-98.187
-100.675
-102.922
-104.916
-106.65
-108.114
-109.297
-110.186
-110.762
-111.017
-110.947
-110.555
-109.841
-108.818
-107.501
-105.922
-104.122
-102.135
-99.979
-97.666
-95.192
-92.557
-89.765
-86.817
-83.717
-80.468
-77.066
-73.515
-69.832
-66.011
-62.037
-57.873
-53.452
-48.736
-43.725
-38.433
-32.905
-27.199
-21.374
-15.511
-9.715
-4.075
1.326
6.42
11.169
15.51
19.366
22.636
25.182
26.901
27.732
27.637
26.612
24.68
21.886
18.324
14.135
9.454
4.402
-0.92
-6.436
-12.06
-17.685
-23.187
-28.417
-33.235
-37.53
-41.209
-44.201
-46.473
-48.041
-48.976
-49.416
-49.52
-49.423
-49.259
-49.168
-49.292
-49.793
-50.855
-52.628
-55.298
-59.113
-64.213
-70.645
-78.305
-86.801
-95.68
-104.515
-112.706
-119.6
-124.768
-127.902
-129.135
-129.282
-129.103
-129.299
-130.726
-133.95
-139.202
-146.445
-154.727
-161.966
-165.951
-164.13
-153.611
-132.061
-97.418
-47.942
17.094
97.083
190.479
293.131
398.281
499.691
592.251
674.802
748.672
811.423
854.734
864.218
826.682
737.761
604.493
442.136
265.395
85.956
-87.298
-244.771
-374.536
-468.45
-525.604
-553.763
-564.34
-564.812
-557.073
-538.936
-509.391
-471.14
-429.183
-388.645
-352.16
-320.822
-295.203
-275.118
-260.532
-250.816
-244.466
-240.714
-239.108
-238.652
-238.496
-237.596
-234.675
-229.461
-222.312
-213.352
-202.881
-191.432
-179.456
-167.798
-157.528
-149.091
-142.568
-137.932
-134.914
-133.26
-132.787
-133.12
-133.787
-134.512
-135.158
-135.688
-136.177
-136.657
-137.114
-137.551
-137.976
-138.37
-138.681
-138.872
-138.906
-138.767
-138.465
-138.007
-137.404
-136.681
-135.859
-134.95
-133.963
-132.901
-131.764
-130.579
-129.381
-128.216
-127.145
-126.205
-125.412
-124.776
-124.292
-123.949
-123.734
-123.617
-123.565
-123.548
-123.543
-123.528
-123.487
-123.391
-123.205
-122.891
-122.402
-121.698
-120.75
-119.532
-118.021
-116.205
-114.068
-111.604
-108.817
-105.707
-102.275
-98.525
-94.453
-90.062
-85.352
-80.321
-74.978
-69.333
-63.398
-57.188
-50.729
-44.047
-37.185
-30.186
-23.078
-15.885
-8.624
-1.297
6.088
13.522
21.005
28.519
36.05
43.592
51.124
58.636
66.135
73.634
81.175
88.809
96.554
104.409
112.356
120.342
128.312
136.198
143.902
151.35
158.476
165.215
171.525
177.363
182.66
187.344
191.315
194.455
196.69
197.974
198.273
197.605
196.004
193.528
190.283
186.36
181.828
176.755
171.182
165.145
158.71
151.941
144.916
137.739
130.485
123.213
115.984
108.818
101.723
94.683
87.648
80.574
73.442
66.242
58.981
51.678
44.337
36.966
29.579
22.172
14.747
7.313
-0.13
-7.565
-14.965
-22.295
-29.503
-36.542
-43.378
-49.984
-56.339
-62.435
-68.259
-73.805
-79.075
-84.069
-88.783
-93.214
-97.358
-101.213
-104.782
-108.073
-111.094
-113.857
-116.371
-118.647
-120.693
-122.518
-124.13
-125.536
-126.741
-127.751
-128.574
-129.22
-129.698
-130.02
-130.196
-130.237
-130.153
-129.956
-129.654
-129.257
-128.772
-128.206
-127.568
-126.862
-126.096
-125.274
-124.402
-123.483
-122.521
-121.521
-120.484
-119.414
-118.312
-117.178
-116.015
-114.823
-113.601
-112.349
-111.067
-109.753
-108.407
-107.026
-105.609
-104.154
-102.658
-101.119
-99.534
-97.901
-96.217
-94.479
-92.687
-90.837
-88.929
-86.961
-84.935
-82.848
-80.702
-78.498
-76.237
-73.92
-71.55
-69.129
-66.66
-64.145
-61.589
-58.995
-56.367
-53.712
-51.032
-48.335
-45.625
-42.91
-40.195
-37.486
-34.791
-32.116
-29.468
-26.853
-24.277
-21.748
-19.27
-16.85
-14.494
-12.206
-9.99
-7.852
-5.795
-3.822
-1.937
-0.141
1.563
3.175
4.692
6.114
7.44
8.672
9.808
10.851
11.8
12.659
13.43
14.115
14.717
15.24
15.688
16.063
16.371
16.615
16.799
16.928
17.004
17.033
17.018
16.962
16.87
16.743
16.586
16.401
16.191
15.958
15.704
15.432
15.143
14.84
14.525
14.199
13.865
13.525
13.18
12.832
12.483
12.134
11.787
11.443
11.104
10.77
10.444
10.127
9.822
9.53
9.253
8.995
8.757
8.544
8.359
8.206
8.088
8.011
7.979
7.997
8.071
8.206
8.408
8.683
9.035
9.47
9.992
10.605
11.314
12.121
13.032
14.047
15.171
16.405
17.75
19.21
20.783
22.469
24.268
26.178
28.197
30.321
32.546
34.866
37.275
39.766
42.331
44.959
47.64
50.361
53.109
55.868
58.624
61.358
64.052
66.688
69.245
71.705
74.047
76.251
78.299
80.172
81.852
83.323
84.567
85.568
86.311
86.78
86.962
86.843
86.411
85.658
84.578
83.17
81.434
79.374
76.99
74.284
71.26
67.925
64.289
60.365
56.171
51.73
47.078
42.266
37.34
32.352
27.346
22.36
17.44
12.629
7.974
3.533
-0.653
-4.54
-8.084
-11.25
-14.012
-16.361
-18.342
-20.03
-21.502
-22.836
-24.088
-25.311
-26.605
-28.066
-29.809
-31.952
-34.558
-37.732
-41.644
-46.374
-51.908
-58.047
-64.299
-70.11
-75.011
-78.458
-79.885
-78.89
-75.253
-69.32
-62.085
-54.737
-48.407
-44.061
-42.51
-44.287
-49.394
-56.741
-64.084
-68.367
-66.304
-55.047
-31.706
6.4
61.122
132.993
219.431
314.939
413.733
510.953
604.927
695.436
777.643
841.709
872.107
854.892
787.303
676.062
536.201
380.072
212.216
36.482
-141.965
-307.785
-442.09
-534.757
-583.806
-601.184
-600.098
-585.349
-561.618
-527.745
-485.369
-442.512
-400.212
-360.101
-322.722
-285.303
-251.769
-225.151
-205.654
-194.083
-187.714
-184.157
-182.751
-181.83
-180.055
-176.367
-169.892
-160.793
-149.735
-137.203
-123.78
-110.261
-97.58
-86.834
-78.625
-72.924
-69.456
-67.831
-67.661
-68.64
-70.338
-72.187
-73.816
-75.058
-75.852
-76.248
-76.256
-75.791
-74.806
-73.319
-71.36
-68.988
-66.264
-63.213
-59.884
-56.337
-52.636
-48.864
-45.085
-41.34
-37.656
-34.066
-30.605
-27.338
-24.336
-21.635
-19.245
-17.16
-15.354
-13.809
-12.501
-11.392
-10.435
-9.585
-8.802
-8.057
-7.33
-6.591
-5.801
-4.915
-3.88
-2.656
-1.213
0.473
2.425
4.66
7.193
10.032
13.176
16.626
20.389
24.471
28.88
33.62
38.689
44.084
49.801
55.833
62.173
68.814
75.745
82.956
90.435
98.173
106.158
114.376
122.811
131.445
140.258
149.23
158.337
167.557
176.865
186.235
195.642
205.058
214.458
223.812
233.094
242.274
251.324
260.216
268.92
277.408
285.652
293.625
301.299
308.65
315.651
322.278
328.509
334.321
339.693
344.608
349.047
352.995
356.437
359.362
361.761
363.625
364.948
365.727
365.96
365.648
364.796
363.408
361.493
359.061
356.125
352.7
348.803
344.454
339.674
334.485
328.912
322.981
316.718
310.153
303.313
296.23
288.933
281.454
273.824
266.075
258.237
250.342
242.42
234.5
226.611
218.779
211.032
203.394
195.889
188.538
181.362
174.379
167.605
161.055
154.741
148.673
142.857
137.3
132.004
126.971
122.2
117.688
113.431
109.423
105.658
102.126
98.817
95.721
92.825
90.114
87.577
85.197
82.959
80.85
78.853
76.953
75.137
73.389
71.696
70.044
68.419
66.81
65.205
63.592
61.963
60.309
58.622
56.898
55.131
53.319
51.458
49.55
47.593
45.589
43.539
41.447
39.316
37.149
34.953
32.732
30.494
28.244
25.99
23.739
21.498
19.274
17.074
14.903
12.769
10.676
8.63
6.637
4.702
2.828
1.021
-0.717
-2.383
-3.975
-5.491
-6.933
-8.299
-9.592
-10.814
-11.966
-13.051
-14.074
-15.036
-15.943
-16.798
-17.607
-18.374
-19.104
-19.804
-20.479
-21.135
-21.777
-22.409
-23.038
-23.666
-24.299
-24.939
-25.59
-26.255
-26.937
-27.639
-28.363
-29.111
-29.884
-30.683
-31.51
-32.364
-33.246
-34.153
-35.086
-36.043
-37.022
-38.024
-39.045
-40.084
-41.141
-42.212
-43.296
-44.391
-45.494
-46.603
-47.717
-48.833
-49.949
-51.065
-52.178
-53.289
-54.397
-55.501
-56.602
-57.699
-58.794
-59.885
-60.974
-62.061
-63.146
-64.23
-65.314
-66.4
-67.487
-68.576
-69.669
-70.765
-71.864
-72.967
-74.072
-75.179
-76.286
-77.392
-78.494
-79.592
-80.683
-81.763
-82.83
-83.88
-84.909
-85.913
-86.886
-87.825
-88.722
-89.572
-90.369
-91.106
-91.776
-92.373
-92.888
-93.316
-93.649
-93.88
-94.004
-94.013
-93.902
-93.664
-93.295
-92.792
-92.149
-91.363
-90.434
-89.359
-88.138
-86.773
-85.265
-83.617
-81.832
-79.915
-77.873
-75.712
-73.44
-71.067
-68.602
-66.058
-63.446
-60.78
-58.075
-55.348
-52.618
-49.904
-47.227
-44.607
-42.066
-39.625
-37.305
-35.126
-33.106
-31.26
-29.605
-28.159
-26.937
-25.957
-25.231
-24.769
-24.581
-24.674
-25.056
-25.726
-26.677
-27.903
-29.4
-31.165
-33.207
-35.528
-38.122
-40.981
-44.088
-47.421
-50.959
-54.665
-58.484
-62.362
-66.243
-70.076
-73.83
-77.462
-80.918
-84.141
-87.05
-89.577
-91.679
-93.317
-94.47
-95.139
-95.339
-95.116
-94.563
-93.783
-92.891
-92.014
-91.263
-90.767
-90.645
-91.047
-92.212
-94.265
-97.22
-100.982
-105.227
-109.592
-113.809
-117.426
-119.838
-120.716
-119.843
-117.336
-114.048
-110.76
-108.069
-106.822
-107.665
-110.698
-115.87
-122.67
-129.216
-133.279
-132.866
-124.292
-104.228
-71.969
-25.958
32.37
98.628
172.974
253.954
340.933
436.981
539.261
643.095
740.305
815.522
853.768
843.251
779.772
669.568
525.623
360.323
182.303
-1.195
-182.636
-347.807
-479.283
-567.273
-611.181
-622.163
-617.385
-606.838
-593.465
-575.218
-547.447
-510.562
-468.614
-425.507
-385.332
-350.337
-321.11
-297.918
-280.283
-267.139
-257.404
-250.523
-245.839
-242.288
-238.676
-233.584
-226.247
-216.846
-205.786
-193.381
-180.065
-166.39
-153.147
-141.505
-132.14
-125.109
-120.271
-117.278
-115.789
-115.577
-116.26
-117.268
-118.195
-118.814
-119.016
-118.864
-118.384
-117.518
-116.241
-114.541
-112.429
-109.96
-107.183
-104.135
-100.86
-97.397
-93.794
-90.122
-86.452
-82.843
-79.335
-75.944
-72.696
-69.634
-66.814
-64.306
-62.14
-60.314
-58.817
-57.627
-56.723
-56.086
-55.68
-55.455
-55.367
-55.377
-55.455
-55.578
-55.715
-55.822
-55.848
-55.738
-55.45
-54.951
-54.214
-53.213
-51.927
-50.338
-48.434
-46.217
-43.678
-40.81
-37.603
-34.048
-30.14
-25.878
-21.263
-16.302
-10.998
-5.358
0.61
6.894
13.484
20.369
27.536
34.973
42.664
50.593
58.738
67.078
75.589
84.246
93.022
101.89
110.82
119.785
128.754
137.699
146.588
155.392
164.081
172.623
180.989
189.147
197.067
204.72
212.077
219.111
225.794
232.101
238.007
243.49
248.528
253.102
257.194
260.786
263.865
266.418
268.434
269.904
270.823
271.186
270.991
270.239
268.933
267.078
264.68
261.75
258.298
254.337
249.882
244.952
239.564
233.738
227.498
220.866
213.869
206.532
198.883
190.949
182.76
174.345
165.735
156.958
148.046
139.028
129.935
120.796
111.64
102.496
93.391
84.353
75.406
66.576
57.887
49.36
41.016
32.875
24.955
17.272
9.841
2.676
-4.211
-10.81
-17.112
-23.11
-28.798
-34.172
-39.23
-43.969
-48.391
-52.496
-56.288
-59.77
-62.947
-65.826
-68.413
-70.716
-72.744
-74.506
-76.012
-77.271
-78.296
-79.097
-79.684
-80.07
-80.266
-80.284
-80.135
-79.83
-79.381
-78.799
-78.095
-77.28
-76.364
-75.358
-74.272
-73.115
-71.897
-70.627
-69.314
-67.966
-66.59
-65.195
-63.787
-62.372
-60.957
-59.547
-58.147
-56.763
-55.398
-54.057
-52.745
-51.464
-50.218
-49.011
-47.845
-46.724
-45.649
-44.625
-43.652
-42.735
-41.875
-41.075
-40.337
-39.664
-39.056
-38.515
-38.043
-37.641
-37.309
-37.049
-36.86
-36.744
-36.701
-36.73
-36.832
-37.007
-37.254
-37.574
-37.966
-38.429
-38.961
-39.563
-40.233
-40.968
-41.768
-42.63
-43.553
-44.533
-45.567
-46.653
-47.787
-48.965
-50.182
-51.434
-52.718
-54.027
-55.359
-56.707
-58.07
-59.441
-60.817
-62.195
-63.57
-64.938
-66.297
-67.642
-68.97
-70.278
-71.564
-72.824
-74.057
-75.26
-76.432
-77.571
-78.676
-79.747
-80.783
-81.784
-82.752
-83.685
-84.588
-85.46
-86.306
-87.127
-87.927
-88.71
-89.48
-90.239
-90.993
-91.745
-92.498
-93.257
-94.024
-94.804
-95.599
-96.413
-97.248
-98.107
-98.993
-99.908
-100.853
-101.83
-102.84
-103.882
-104.958
-106.067
-107.208
-108.379
-109.578
-110.803
-112.05
-113.315
-114.593
-115.878
-117.166
-118.449
-119.72
-120.971
-122.196
-123.386
-124.534
-125.63
-126.667
-127.637
-128.532
-129.343
-130.063
-130.686
-131.203
-131.608
-131.896
-132.059
-132.094
-131.995
-131.758
-131.381
-130.859
-130.193
-129.38
-128.422
-127.32
-126.076
-124.693
-123.177
-121.535
-119.773
-117.899
-115.924
-113.858
-111.712
-109.5
-107.235
-104.931
-102.605
-100.274
-97.957
-95.672
-93.44
-91.279
-89.209
-87.249
-85.418
-83.732
-82.205
-80.853
-79.691
-78.736
-78.003
-77.504
-77.249
-77.247
-77.503
-78.025
-78.813
-79.86
-81.161
-82.71
-84.504
-86.552
-88.857
-91.411
-94.204
-97.218
-100.432
-103.826
-107.37
-111.013
-114.709
-118.409
-122.069
-125.664
-129.159
-132.505
-135.646
-138.5
-140.997
-143.094
-144.762
-145.979
-146.746
-147.069
-146.977
-146.545
-145.865
-145.031
-144.151
-143.312
-142.613
-142.166
-142.132
-142.747
-144.143
-146.324
-149.173
-152.366
-155.586
-158.606
-161.017
-162.323
-162.29
-160.795
-158.035
-154.913
-152.169
-150.275
-150.036
-151.746
-155.001
-159.848
-165.853
-171.045
-173.852
-171.545
-159.232
-135.65
-101.634
-58.636
-11.9
38.724
99.102
172.78
263.34
366.643
470.185
565.394
644.864
704.176
741.517
748.151
716.127
642.12
527.877
383.959
221.42
50.284
-118.516
-273.19
-400.385
-491.483
-546.321
-573.458
-584.688
-586.893
-580.895
-563.601
-533.293
-492.715
-447.151
-401.731
-358.979
-319.686
-284.473
-253.602
-227.383
-205.523
-186.815
-170.631
-156.972
-145.46
-135.398
-125.842
-115.621
-104.388
-92.601
-80.517
-68.265
-56.135
-44.471
-33.951
-25.534
-19.595
-16
-14.533
-14.798
-16.437
-19.182
-22.544
-25.893
-28.813
-31.033
-32.397
-32.928
-32.62
-31.442
-29.456
-26.748
-23.413
-19.569
-15.313
-10.725
-5.896
-0.916
4.12
9.098
13.918
18.482
22.692
26.496
29.864
32.776
35.246
37.291
38.943
40.25
41.27
42.057
42.664
43.138
43.524
43.875
44.249
44.702
45.297
46.079
47.086
48.351
49.897
51.744
53.909
56.399
59.216
62.366
65.853
69.686
73.873
78.419
83.323
88.587
94.205
100.174
106.491
113.148
120.139
127.456
135.088
143.026
151.262
159.782
168.571
177.611
186.882
196.362
206.03
215.862
225.832
235.913
246.081
256.307
266.565
276.828
287.067
297.255
307.362
317.36
327.22
336.913
346.412
355.687
364.711
373.456
381.897
390.007
397.762
405.138
412.112
418.661
424.766
430.407
435.566
440.227
444.374
447.995
451.08
453.619
455.605
457.035
457.904
458.213
457.964
457.158
455.801
453.9
451.466
448.507
445.039
441.075
436.633
431.73
426.388
420.628
414.473
407.947
401.076
393.886
386.406
378.663
370.686
362.507
354.153
345.658
337.049
328.359
319.617
310.852
302.093
293.367
284.701
276.121
267.651
259.314
251.131
243.122
235.307
227.701
220.32
213.178
206.285
199.653
193.29
187.202
181.393
175.868
170.629
165.674
161.002
156.612
152.497
148.653
145.071
141.745
138.664
135.817
133.194
130.782
128.568
126.54
124.684
122.986
121.433
120.012
118.708
117.51
116.404
115.379
114.422
113.522
112.669
111.852
111.062
110.29
109.527
108.766
107.999
107.222
106.428
105.612
104.77
103.899
102.995
102.056
101.081
100.069
99.017
97.928
96.8
95.634
94.433
93.195
91.924
90.62
89.285
87.919
86.523
85.099
83.646
82.166
80.658
79.123
77.562
75.973
74.356
72.713
71.042
69.342
67.613
65.855
64.067
62.248
60.397
58.515
56.601
54.655
52.678
50.67
48.632
46.564
44.469
42.348
40.202
38.036
35.852
33.654
31.447
29.237
27.03
24.831
22.65
20.493
18.367
16.283
14.248
12.271
10.362
8.53
6.784
5.135
3.593
2.166
0.866
-0.3
-1.322
-2.193
-2.903
-3.446
-3.815
-4.005
-4.01
-3.827
-3.451
-2.881
-2.116
-1.157
-0.006
1.333
2.855
4.554
6.423
8.45
10.628
12.944
15.387
17.943
20.599
23.34
26.149
29.011
31.908
34.822
37.735
40.629
43.484
46.284
49.008
51.639
54.158
56.548
58.79
60.868
62.767
64.47
65.963
67.234
68.272
69.068
69.614
69.906
69.939
69.713
69.229
68.488
67.493
66.248
64.757
63.028
61.068
58.888
56.496
53.904
51.127
48.184
45.092
41.87
38.536
35.108
31.606
28.048
24.456
20.849
17.241
13.651
10.101
6.619
3.233
-0.037
-3.184
-6.204
-9.093
-11.844
-14.455
-16.927
-19.272
-21.492
-23.578
-25.507
-27.255
-28.809
-30.173
-31.365
-32.402
-33.289
-34.015
-34.566
-34.941
-35.142
-35.167
-34.993
-34.591
-33.958
-33.133
-32.189
-31.201
-30.22
-29.273
-28.373
-27.541
-26.813
-26.239
-25.86
-25.701
-25.79
-26.171
-26.916
-28.105
-29.776
-31.903
-34.415
-37.248
-40.367
-43.765
-47.44
-51.366
-55.505
-59.821
-64.287
-68.882
-73.567
-78.26
-82.854
-87.238
-91.336
-95.136
-98.653
-101.883
-104.799
-107.348
-109.479
-111.188
-112.47
-113.317
-113.739
-113.753
-113.416
-112.856
-112.199
-111.577
-111.129
-110.949
-111.132
-111.802
-113.038
-114.994
-117.871
-121.714
-126.495
-132.046
-137.964
-143.907
-149.595
-154.541
-158.204
-160.202
-160.248
-158.656
-156.287
-153.764
-151.61
-150.277
-150.065
-151.409
-154.54
-158.512
-161.483
-161.557
-156.586
-144.81
-124.71
-94.121
-51.178
4.51
72.078
149.571
233.642
320.556
406.047
484.315
548.799
593.379
612.942
603.528
564.445
497.956
405.342
289.242
152.687
-3.51
-170.432
-332.996
-477.197
-587.19
-658.053
-697.352
-712.6
-713.203
-703.726
-681.912
-648.625
-606.165
-558.531
-511.931
-470.084
-435.219
-408.822
-390.43
-378.983
-373.188
-371.128
-371.251
-372.252
-372.241
-369.423
-362.9
-352.479
-338.637
-322.347
-304.422
-285.623
-267.15
-250.294
-235.871
-224.304
-215.567
-209.289
-205.142
-202.81
-201.811
-201.62
-201.884
-202.368
-202.952
-203.621
-204.33
-205.013
-205.631
-206.146
-206.481
-206.54
-206.257
-205.594
-204.559
-203.199
-201.551
-199.645
-197.515
-195.204
-192.767
-190.259
-187.719
-185.175
-182.667
-180.251
-178.001
-175.994
-174.272
-172.844
-171.707
-170.841
-170.227
-169.843
-169.655
-169.616
-169.687
-169.83
-170.013
-170.21
-170.383
-170.486
-170.468
-170.27
-169.85
-169.177
-168.225
-166.974
-165.406
-163.508
-161.277
-158.713
-155.817
-152.585
-149.013
-145.096
-140.833
-136.23
-131.292
-126.029
-120.449
-114.561
-108.376
-101.906
-95.165
-88.164
-80.917
-73.438
-65.741
-57.846
-49.772
-41.542
-33.178
-24.704
-16.146
-7.529
1.12
9.775
18.408
26.993
35.502
43.909
52.186
60.306
68.241
75.966
83.453
90.676
97.611
104.234
110.52
116.448
121.995
127.143
131.872
136.165
140.007
143.382
146.278
148.686
150.595
151.999
152.893
153.275
153.144
152.5
151.348
149.692
147.542
144.905
141.794
138.221
134.202
129.754
124.894
119.642
114.02
108.051
101.757
95.165
88.299
81.188
73.857
66.336
58.652
50.834
42.912
34.913
26.867
18.802
10.744
2.721
-5.24
-13.115
-20.879
-28.51
-35.986
-43.287
-50.392
-57.286
-63.952
-70.375
-76.543
-82.445
-88.07
-93.411
-98.461
-103.216
-107.67
-111.823
-115.674
-119.223
-122.472
-125.426
-128.088
-130.464
-132.561
-134.388
-135.952
-137.264
-138.334
-139.173
-139.791
-140.201
-140.414
-140.444
-140.301
-139.999
-139.55
-138.967
-138.26
-137.443
-136.527
-135.523
-134.442
-133.295
-132.092
-130.843
-129.557
-128.242
-126.908
-125.562
-124.212
-122.863
-121.524
-120.198
-118.893
-117.611
-116.357
-115.135
-113.947
-112.796
-111.685
-110.614
-109.586
-108.602
-107.662
-106.767
-105.917
-105.112
-104.353
-103.637
-102.966
-102.339
-101.753
-101.209
-100.705
-100.24
-99.812
-99.421
-99.065
-98.742
-98.451
-98.191
-97.959
-97.754
-97.575
-97.42
-97.288
-97.177
-97.086
-97.014
-96.96
-96.922
-96.899
-96.89
-96.894
-96.909
-96.934
-96.968
-97.008
-97.055
-97.107
-97.161
-97.218
-97.275
-97.332
-97.386
-97.437
-97.483
-97.523
-97.554
-97.576
-97.586
-97.584
-97.567
-97.533
-97.482
-97.411
-97.319
-97.203
-97.063
-96.894
-96.697
-96.469
-96.208
-95.913
-95.581
-95.213
-94.805
-94.357
-93.869
-93.339
-92.766
-92.149
-91.489
-90.784
-90.035
-89.242
-88.404
-87.523
-86.599
-85.634
-84.628
-83.583
-82.502
-81.385
-80.236
-79.057
-77.849
-76.618
-75.364
-74.092
-72.805
-71.507
-70.201
-68.892
-67.582
-66.275
-64.975
-63.686
-62.41
-61.151
-59.911
-58.693
-57.5
-56.333
-55.195
-54.087
-53.012
-51.968
-50.958
-49.98
-49.034
-48.119
-47.234
-46.375
-45.542
-44.73
-43.936
-43.156
-42.386
-41.622
-40.858
-40.087
-39.305
-38.504
-37.676
-36.816
-35.915
-34.965
-33.958
-32.889
-31.748
-30.53
-29.226
-27.83
-26.336
-24.736
-23.026
-21.2
-19.252
-17.179
-14.978
-12.645
-10.179
-7.58
-4.847
-1.981
1.017
4.144
7.398
10.775
14.27
17.876
21.588
25.395
29.289
33.258
37.29
41.371
45.485
49.617
53.752
57.871
61.957
65.992
69.959
73.839
77.616
81.272
84.789
88.151
91.339
94.338
97.135
99.715
102.065
104.172
106.023
107.611
108.932
109.982
110.76
111.261
111.479
111.416
111.082
110.485
109.639
108.563
107.275
105.81
104.216
102.544
100.844
99.163
97.534
95.996
94.593
93.366
92.368
91.635
91.188
91.054
91.25
91.785
92.658
93.833
95.221
96.723
98.237
99.665
100.949
102.038
102.867
103.366
103.444
103.029
102.074
100.556
98.424
95.57
91.988
87.854
83.595
79.895
77.451
76.798
78.449
83.034
90.912
102.022
115.773
130.678
145.154
158.106
168.52
175.51
178.772
178.7
176.742
176.077
180.227
192.063
214.705
250.812
302.281
370.531
453.659
546.019
642.224
736.521
826.307
913.566
994.414
1061.32
1102.392
1099.934
1046.296
943.354
798.496
626.133
439.066
247.248
64.696
-91.48
-209.241
-282.497
-315.908
-325.342
-322.118
-311.339
-293.205
-262.567
-219.154
-167.632
-113.565
-63.175
-20.015
14.853
41.307
60.438
73.6
82.442
88.898
94.411
100.477
108.315
118.162
129.797
142.575
155.294
166.826
176.188
182.182
184.02
181.501
174.629
163.809
149.711
132.962
114.322
94.678
