Name,Criss Capps
Date of Birth,"Feb 5, 1952"
Recorded Date,2025-03-06 13:12:53 -0400
Classification,Inconclusive
Symptoms,
Software Version,1.90
Device,"Watch5,4"
Sample Rate,512.844 hertz


Lead,Lead I
Unit,µV

-2.647
-5.761
-8.94
-12.167
-15.42
-18.683
-21.942
-25.176
-28.343
-31.411
-34.355
-37.167
-39.863
-42.443
-44.885
-47.151
-49.176
-50.917
-52.375
-53.558
-54.49
-55.199
-55.673
-55.945
-56.121
-56.234
-56.267
-56.129
-55.559
-54.358
-52.526
-50.097
-47.171
-43.995
-40.748
-37.732
-35.58
-34.809
-35.621
-38.013
-41.568
-45.527
-49.307
-52.172
-52.986
-50.778
-44.849
-34.836
-21.123
-4.689
13.567
32.506
50.601
66.562
79.237
87.801
92.231
93.106
91.09
87.15
82.523
78.176
75.02
73.739
74.452
76.955
80.931
85.836
91.026
96.06
100.536
104.171
106.935
108.854
110
110.539
110.633
110.364
109.792
108.931
107.742
106.217
104.352
102.131
99.557
96.643
93.413
89.902
86.148
82.179
78.016
73.68
69.191
64.572
59.846
55.037
50.166
45.25
40.306
35.348
30.387
25.433
20.499
15.593
10.728
5.915
1.17
-3.492
-8.054
-12.504
-16.829
-21.017
-25.06
-28.948
-32.672
-36.226
-39.603
-42.797
-45.803
-48.617
-51.234
-53.651
-55.868
-57.883
-59.695
-61.305
-62.714
-63.924
-64.936
-65.754
-66.381
-66.819
-67.074
-67.15
-67.051
-66.785
-66.355
-65.769
-65.033
-64.155
-63.143
-62.004
-60.748
-59.383
-57.918
-56.361
-54.721
-53.007
-51.228
-49.392
-47.509
-45.587
-43.635
-41.662
-39.676
-37.685
-35.699
-33.724
-31.769
-29.84
-27.945
-26.091
-24.285
-22.532
-20.838
-19.21
-17.652
-16.17
-14.767
-13.448
-12.216
-11.073
-10.023
-9.066
-8.205
-7.44
-6.771
-6.198
-5.721
-5.338
-5.047
-4.846
-4.733
-4.704
-4.757
-4.887
-5.09
-5.363
-5.701
-6.099
-6.553
-7.058
-7.608
-8.199
-8.825
-9.481
-10.161
-10.859
-11.571
-12.29
-13.012
-13.732
-14.444
-15.143
-15.826
-16.488
-17.124
-17.732
-18.307
-18.848
-19.352
-19.818
-20.244
-20.63
-20.976
-21.283
-21.552
-21.785
-21.982
-22.146
-22.279
-22.382
-22.458
-22.509
-22.54
-22.552
-22.55
-22.537
-22.518
-22.497
-22.477
-22.463
-22.459
-22.468
-22.496
-22.546
-22.621
-22.726
-22.865
-23.042
-23.258
-23.516
-23.819
-24.166
-24.558
-24.992
-25.467
-25.979
-26.525
-27.098
-27.697
-28.315
-28.948
-29.592
-30.243
-30.897
-31.549
-32.193
-32.822
-33.428
-34
-34.53
-35.004
-35.413
-35.746
-35.994
-36.149
-36.202
-36.149
-35.982
-35.694
-35.273
-34.705
-33.98
-33.093
-32.044
-30.839
-29.49
-28.018
-26.445
-24.796
-23.091
-21.342
-19.552
-17.713
-15.817
-13.853
-11.824
-9.746
-7.631
-5.49
-3.328
-1.145
1.071
3.345
5.711
8.212
10.87
13.689
16.641
19.674
22.722
25.703
28.553
31.227
33.681
35.882
37.799
39.399
40.633
41.442
41.739
41.431
40.455
38.772
36.389
33.351
29.731
25.639
21.185
16.463
11.557
6.53
1.433
-3.681
-8.739
-13.664
-18.346
-22.664
-26.531
-29.876
-32.665
-34.911
-36.665
-38.021
-39.099
-40.011
-40.86
-41.743
-42.739
-43.93
-45.398
-47.239
-49.593
-52.56
-56.156
-60.307
-64.805
-69.382
-73.776
-77.627
-80.492
-82.067
-82.211
-81.036
-79.023
-76.698
-74.529
-73.085
-72.852
-73.996
-76.5
-79.914
-83.184
-85.224
-84.154
-77.136
-61.943
-36.836
-2.721
36.444
77.932
120.114
165.429
220.353
288.195
369.609
459.116
544.878
615.339
658.416
665.961
634.407
563.006
456.461
320.967
166.693
6.516
-147.835
-282.971
-390.485
-466.001
-506.897
-515.841
-494.899
-449.015
-387.407
-319.533
-257.817
-209.772
-176.073
-154.07
-136.391
-119.008
-102.572
-89.013
-82.242
-83.419
-90.51
-100.717
-110.548
-117.686
-121.252
-121.108
-117.809
-112.051
-104.571
-96.306
-88.156
-80.988
-75.576
-72.208
-70.79
-71.044
-72.499
-74.692
-77.269
-79.855
-82.101
-83.816
-84.882
-85.27
-85.05
-84.267
-82.953
-81.166
-78.953
-76.365
-73.491
-70.417
-67.24
-64.067
-60.968
-57.998
-55.208
-52.637
-50.326
-48.305
-46.572
-45.121
-43.945
-43.036
-42.389
-41.989
-41.794
-41.757
-41.829
-41.952
-42.085
-42.196
-42.248
-42.214
-42.072
-41.801
-41.391
-40.837
-40.126
-39.245
-38.18
-36.916
-35.447
-33.766
-31.868
-29.749
-27.406
-24.836
-22.037
-19.008
-15.746
-12.25
-8.519
-4.552
-0.351
4.079
8.73
13.592
18.655
23.905
29.328
34.907
40.626
46.465
52.408
58.433
64.522
70.654
76.808
82.961
89.092
95.177
101.195
107.121
112.934
118.61
124.127
129.461
134.593
139.5
144.162
148.56
152.674
156.486
159.98
163.14
165.951
168.403
170.482
172.181
173.492
174.41
174.93
175.052
174.774
174.1
173.031
171.574
169.734
167.52
164.942
162.011
158.74
155.143
151.237
147.038
142.565
137.837
132.874
127.698
122.331
116.796
111.115
105.313
99.413
93.44
87.418
81.37
75.32
69.291
63.305
57.385
51.55
45.822
40.218
34.755
29.451
24.32
19.375
14.63
10.094
5.778
1.689
-2.167
-5.784
-9.159
-12.29
-15.175
-17.816
-20.214
-22.373
-24.296
-25.989
-27.458
-28.711
-29.756
-30.601
-31.256
-31.731
-32.037
-32.185
-32.187
-32.053
-31.796
-31.427
-30.958
-30.4
-29.765
-29.064
-28.306
-27.503
-26.664
-25.798
-24.915
-24.022
-23.127
-22.238
-21.36
-20.501
-19.664
-18.855
-18.079
-17.338
-16.636
-15.976
-15.36
-14.789
-14.266
-13.792
-13.366
-12.99
-12.663
-12.386
-12.157
-11.977
-11.843
-11.755
-11.712
-11.712
-11.753
-11.833
-11.952
-12.106
-12.294
-12.514
-12.764
-13.04
-13.342
-13.666
-14.01
-14.372
-14.749
-15.138
-15.538
-15.946
-16.358
-16.773
-17.187
-17.597
-18.001
-18.395
-18.776
-19.141
-19.486
-19.809
-20.107
-20.377
-20.615
-20.819
-20.986
-21.114
-21.201
-21.244
-21.241
-21.191
-21.092
-20.944
-20.747
-20.5
-20.203
-19.857
-19.463
-19.023
-18.537
-18.008
-17.439
-16.831
-16.187
-15.512
-14.809
-14.081
-13.334
-12.572
-11.8
-11.024
-10.248
-9.478
-8.72
-7.978
-7.259
-6.567
-5.909
-5.288
-4.71
-4.181
-3.702
-3.28
-2.917
-2.615
-2.376
-2.202
-2.093
-2.048
-2.068
-2.15
-2.292
-2.493
-2.749
-3.057
-3.413
-3.812
-4.249
-4.717
-5.213
-5.726
-6.249
-6.772
-7.286
-7.783
-8.255
-8.693
-9.087
-9.428
-9.709
-9.921
-10.059
-10.113
-10.072
-9.927
-9.668
-9.295
-8.81
-8.209
-7.492
-6.661
-5.717
-4.667
-3.521
-2.274
-0.925
0.529
2.09
3.747
5.485
7.295
9.158
11.073
13.038
15.038
17.058
19.095
21.137
23.187
25.25
27.292
29.282
31.192
32.989
34.663
36.203
37.592
38.815
39.854
40.683
41.298
41.697
41.862
41.783
41.437
40.793
39.872
38.696
37.283
35.66
33.834
31.818
29.64
27.338
24.956
22.537
20.113
17.708
15.363
13.118
11.03
9.157
7.526
6.156
5.058
4.252
3.756
3.564
3.646
3.944
4.382
4.91
5.474
6.004
6.429
6.651
6.558
6.084
5.152
3.66
1.587
-1.05
-4.15
-7.407
-10.485
-13.107
-14.913
-15.553
-14.844
-12.686
-9.269
-5.221
-1.224
2.191
4.549
5.379
4.414
1.609
-2.683
-6.606
-7.248
-2.276
10.353
30.102
53.653
79.551
107.627
141.803
190.052
256.181
339.86
433.328
522.241
595.102
643.144
662.936
655.207
617.92
548.245
443.95
306.894
147.716
-16.759
-167.505
-290.02
-378.501
-433.752
-461.767
-467.529
-453.122
-422.065
-378.519
-330.149
-286.068
-250.453
-222.974
-198.644
-172.289
-143.005
-113.247
-87.841
-70.023
-59.711
-55.122
-53.562
-52.875
-52.043
-50.37
-47.26
-42.52
-36.29
-28.884
-20.795
-12.655
-5.014
1.532
6.348
9.256
10.398
10.007
8.46
6.109
3.266
0.373
-2.125
-3.985
-5.105
-5.488
-5.21
-4.301
-2.781
-0.73
1.747
4.538
7.543
10.695
13.937
17.193
20.363
23.318
25.959
28.229
30.095
31.553
32.599
33.224
33.443
33.295
32.823
32.072
31.086
29.894
28.537
27.064
25.531
24.001
22.527
21.147
19.891
18.785
17.853
17.117
16.593
16.282
16.191
16.328
16.703
17.33
18.215
19.36
20.768
22.439
24.371
26.565
29.018
31.728
34.689
37.895
41.342
45.024
48.931
53.053
57.376
61.884
66.56
71.388
76.347
81.418
86.578
91.806
97.081
102.381
107.683
112.965
118.202
123.374
128.457
133.429
138.269
142.954
147.465
151.782
155.885
159.757
163.379
166.736
169.812
172.593
175.066
177.219
179.043
180.527
181.665
182.45
182.878
182.946
182.652
181.995
180.978
179.603
177.876
175.801
173.386
170.64
167.573
164.195
160.52
156.56
152.329
147.843
143.118
138.171
133.018
127.679
122.171
116.515
110.729
104.834
98.849
92.795
86.691
80.558
74.416
68.283
62.18
56.124
50.134
44.227
38.42
32.728
27.168
21.751
16.493
11.403
6.494
1.774
-2.748
-7.064
-11.168
-15.055
-18.72
-22.161
-25.374
-28.36
-31.116
-33.645
-35.948
-38.028
-39.889
-41.534
-42.97
-44.203
-45.238
-46.085
-46.75
-47.242
-47.571
-47.745
-47.775
-47.67
-47.44
-47.096
-46.649
-46.108
-45.483
-44.785
-44.022
-43.206
-42.344
-41.446
-40.521
-39.577
-38.624
-37.668
-36.718
-35.782
-34.867
-33.978
-33.123
-32.306
-31.534
-30.81
-30.138
-29.523
-28.966
-28.47
-28.037
-27.668
-27.364
-27.125
-26.951
-26.841
-26.793
-26.806
-26.878
-27.008
-27.192
-27.429
-27.715
-28.049
-28.426
-28.843
-29.297
-29.783
-30.298
-30.837
-31.395
-31.968
-32.551
-33.139
-33.727
-34.312
-34.887
-35.45
-35.995
-36.52
-37.021
-37.496
-37.941
-38.354
-38.735
-39.082
-39.395
-39.672
-39.915
-40.124
-40.299
-40.442
-40.553
-40.635
-40.688
-40.715
-40.717
-40.698
-40.659
-40.603
-40.534
-40.456
-40.371
-40.285
-40.201
-40.124
-40.057
-40.005
-39.972
-39.961
-39.977
-40.022
-40.099
-40.209
-40.355
-40.537
-40.755
-41.009
-41.297
-41.617
-41.967
-42.343
-42.743
-43.161
-43.594
-44.038
-44.487
-44.936
-45.38
-45.813
-46.229
-46.621
-46.983
-47.307
-47.585
-47.812
-47.977
-48.075
-48.098
-48.038
-47.89
-47.646
-47.299
-46.846
-46.279
-45.595
-44.792
-43.867
-42.82
-41.651
-40.363
-38.958
-37.443
-35.822
-34.102
-32.291
-30.394
-28.421
-26.384
-24.292
-22.159
-19.998
-17.821
-15.646
-13.49
-11.37
-9.303
-7.305
-5.393
-3.581
-1.888
-0.33
1.078
2.322
3.389
4.273
4.962
5.45
5.73
5.797
5.649
5.286
4.707
3.913
2.905
1.688
0.264
-1.359
-3.176
-5.185
-7.383
-9.782
-12.392
-15.207
-18.2
-21.33
-24.544
-27.804
-31.091
-34.359
-37.534
-40.57
-43.474
-46.334
-49.245
-52.203
-55.08
-57.712
-60.037
-62.006
-63.473
-64.149
-63.725
-62.124
-59.64
-56.793
-53.925
-51.308
-49.337
-48.519
-49.453
-52.422
-57.037
-62.518
-68.258
-73.737
-78.412
-81.802
-83.296
-82.637
-80.409
-77.545
-74.918
-73.341
-73.364
-75.212
-78.988
-84.401
-90.357
-95.321
-97.569
-94.795
-84.516
-65.532
-37.483
-1.258
40.223
85.818
135.418
188.509
245.976
306.313
366.178
422.483
470.011
502.353
512.521
492.717
437.963
348.84
230.134
91.641
-54.715
-198.201
-327.297
-433.464
-510.481
-553.885
-564.193
-543.29
-497.523
-437.006
-372.151
-315.228
-272.227
-242.526
-222.073
-202.558
-180.13
-155.999
-132.995
-115.995
-106.644
-103.277
-103.731
-105.104
-105.671
-104.954
-102.477
-98.259
-92.625
-85.889
-78.585
-71.337
-64.64
-59.01
-54.957
-52.634
-51.917
-52.563
-54.198
-56.45
-58.984
-61.408
-63.341
-64.577
-65.04
-64.735
-63.73
-62.072
-59.801
-57.002
-53.784
-50.242
-46.459
-42.502
-38.433
-34.338
-30.333
-26.524
-22.986
-19.769
-16.892
-14.365
-12.198
-10.387
-8.909
-7.73
-6.81
-6.115
-5.618
-5.288
-5.087
-4.968
-4.877
-4.769
-4.611
-4.374
-4.039
-3.588
-3.002
-2.273
-1.398
-0.375
0.8
2.135
3.638
5.317
7.175
9.213
11.431
13.83
16.412
19.178
22.127
25.257
28.565
32.05
35.711
39.542
43.536
47.685
51.977
56.4
60.943
65.59
70.327
75.135
79.998
84.899
89.819
94.74
99.642
104.504
109.306
114.029
118.651
123.152
127.511
131.708
135.722
139.535
143.127
146.479
149.574
152.395
154.925
157.15
159.056
160.631
161.863
162.743
163.262
163.414
163.194
162.598
161.623
160.27
158.541
156.439
153.968
151.135
147.947
144.415
140.55
136.364
131.871
127.086
122.025
116.706
111.149
105.371
99.395
93.241
86.93
80.486
73.93
67.286
60.576
53.824
47.051
40.28
33.533
26.83
20.194
13.643
7.196
0.872
-5.314
-11.344
-17.204
-22.882
-28.365
-33.643
-38.705
-43.544
-48.153
-52.527
-56.661
-60.552
-64.198
-67.6
-70.757
-73.671
-76.344
-78.781
-80.985
-82.963
-84.718
-86.26
-87.593
-88.726
-89.666
-90.422
-91.002
-91.413
-91.666
-91.766
-91.724
-91.546
-91.242
-90.817
-90.279
-89.636
-88.894
-88.058
-87.136
-86.132
-85.053
-83.902
-82.685
-81.407
-80.071
-78.682
-77.243
-75.758
-74.231
-72.664
-71.061
-69.426
-67.76
-66.069
-64.354
-62.619
-60.869
-59.105
-57.333
-55.556
-53.779
-52.006
-50.243
-48.495
-46.767
-45.066
-43.398
-41.768
-40.183
-38.65
-37.175
-35.764
-34.424
-33.16
-31.979
-30.886
-29.886
-28.985
-28.187
-27.495
-26.915
-26.449
-26.099
-25.868
-25.758
-25.77
-25.903
-26.158
-26.533
-27.027
-27.638
-28.362
-29.196
-30.134
-31.172
-32.303
-33.519
-34.814
-36.18
-37.607
-39.087
-40.611
-42.17
-43.753
-45.351
-46.955
-48.555
-50.142
-51.707
-53.241
-54.736
-56.185
-57.579
-58.913
-60.178
-61.37
-62.483
-63.512
-64.453
-65.301
-66.053
-66.707
-67.261
-67.712
-68.061
-68.307
-68.449
-68.49
-68.43
-68.272
-68.017
-67.668
-67.228
-66.701
-66.089
-65.395
-64.623
-63.775
-62.855
-61.863
-60.804
-59.677
-58.485
-57.227
-55.905
-54.519
-53.068
-51.553
-49.973
-48.327
-46.614
-44.835
-42.988
-41.071
-39.085
-37.029
-34.901
-32.702
-30.431
-28.088
-25.674
-23.189
-20.635
-18.014
-15.327
-12.579
-9.771
-6.91
-4
-1.049
1.936
4.947
7.973
11.001
14.019
17.012
19.966
22.866
25.694
28.436
31.076
33.598
35.988
38.234
40.319
42.229
43.949
45.465
46.763
47.833
48.663
49.241
49.561
49.621
49.42
48.958
48.229
47.227
45.949
44.397
42.578
40.499
38.177
35.63
32.891
30.007
27.021
23.977
20.911
17.851
14.83
11.889
9.068
6.416
3.966
1.738
-0.242
-1.951
-3.391
-4.591
-5.61
-6.553
-7.501
-8.513
-9.654
-10.984
-12.584
-14.541
-16.917
-19.74
-23.028
-26.836
-31.196
-36.08
-41.304
-46.516
-51.331
-55.401
-58.397
-59.93
-59.65
-57.38
-53.307
-47.999
-42.024
-35.924
-30.256
-25.614
-22.684
-21.075
-18.885
-14.162
-5.053
7.853
21.151
34.065
48.356
69.619
107.09
164.611
239.907
325.672
410.147
484.671
545.316
590.167
617.879
625.035
604.945
550.926
460.272
335.704
187.453
31.922
-113.237
-232.839
-318.513
-370.373
-394.322
-397.977
-386.572
-362.16
-325.655
-279.854
-231.363
-187.749
-154.229
-131.66
-115.982
-102.675
-89.529
-76.788
-67.111
-62.124
-61.045
-61.909
-61.947
-59.195
-53.306
-44.658
-33.97
-22.049
-9.613
2.623
13.839
23.254
30.498
35.521
38.462
39.641
39.412
38.108
36.1
33.77
31.372
29.087
27.086
25.481
24.351
23.759
23.717
24.203
25.212
26.733
28.722
31.132
33.894
36.931
40.195
43.647
47.231
50.88
54.499
57.983
61.266
64.308
67.078
69.562
71.75
73.639
75.257
76.646
77.839
78.868
79.755
80.513
81.169
81.754
82.304
82.862
83.46
84.118
84.858
85.697
86.648
87.72
88.914
90.222
91.642
93.174
94.82
96.585
98.467
100.466
102.58
104.804
107.135
109.57
112.104
114.731
117.446
120.242
123.115
126.06
129.07
132.138
135.252
138.404
141.58
144.771
147.963
151.143
154.297
157.411
160.472
163.466
166.38
169.197
171.906
174.49
176.935
179.227
181.352
183.297
185.047
186.589
187.911
189
189.846
190.438
190.766
190.822
190.597
190.085
189.281
188.18
186.778
185.073
183.064
180.751
178.135
175.22
172.008
168.505
164.717
160.652
156.318
151.725
146.885
141.808
136.508
130.999
125.297
119.417
113.377
107.194
100.886
94.472
87.971
81.403
74.786
68.14
61.485
54.839
48.222
41.651
35.144
28.72
22.394
16.183
10.102
4.164
-1.616
-7.226
-12.655
-17.892
-22.929
-27.756
-32.367
-36.756
-40.917
-44.847
-48.545
-52.007
-55.235
-58.229
-60.991
-63.524
-65.833
-67.921
-69.795
-71.46
-72.923
-74.193
-75.276
-76.181
-76.918
-77.493
-77.918
-78.201
-78.352
-78.38
-78.295
-78.105
-77.82
-77.449
-77.001
-76.484
-75.906
-75.276
-74.602
-73.89
-73.149
-72.385
-71.604
-70.811
-70.013
-69.215
-68.421
-67.634
-66.859
-66.1
-65.358
-64.636
-63.937
-63.261
-62.611
-61.987
-61.39
-60.821
-60.279
-59.766
-59.28
-58.821
-58.391
-57.987
-57.61
-57.259
-56.933
-56.633
-56.357
-56.105
-55.875
-55.668
-55.483
-55.32
-55.178
-55.056
-54.955
-54.875
-54.816
-54.778
-54.762
-54.77
-54.803
-54.865
-54.959
-55.088
-55.257
-55.469
-55.728
-56.038
-56.404
-56.825
-57.303
-57.842
-58.442
-59.108
-59.843
-60.651
-61.532
-62.487
-63.519
-64.627
-65.811
-67.065
-68.381
-69.757
-71.191
-72.691
-74.26
-75.892
-77.578
-79.309
-81.068
-82.836
-84.586
-86.277
-87.87
-89.328
-90.622
-91.736
-92.649
-93.328
-93.738
-93.833
-93.571
-92.939
-91.93
-90.536
-88.775
-86.678
-84.301
-81.744
-79.096
-76.424
-73.801
-71.285
-68.941
-66.866
-65.141
-63.856
-63.125
-62.981
-63.397
-64.288
-65.43
-66.572
-67.468
-67.792
-67.207
-65.499
-62.564
-58.563
-53.967
-49.199
-44.666
-40.695
-37.407
-35.056
-33.816
-33.107
-31.928
-28.722
-21.035
-7.736
11.375
36.279
64.804
96.227
132.104
173.716
224.638
286.99
357.208
428.861
491.409
532.284
544.46
527.052
484.101
424.474
355.356
278.98
197.061
111.837
28.206
-45.447
-103.413
-145.669
-177.388
-205.479
-234.362
-264.55
-293.217
-318.472
-340.663
-360.928
-380.986
-401.343
-421.092
-439.259
-454.983
-467.441
-475.981
-480.262
-480.138
-475.768
-467.622
-456.189
-441.937
-425.43
-407.258
-387.903
-367.789
-347.251
-326.536
-305.858
-285.394
-265.288
-245.675
-226.718
-208.616
-191.55
-175.666
-161.075
-147.851
-136.028
-125.61
-116.552
-108.761
-102.123
-96.515
-91.843
-88.049
-85.058
-82.773
-81.08
-79.827
-78.873
-78.092
-77.347
-76.492
-75.423
-74.062
-72.382
-70.404
-68.155
-65.664
-62.958
-60.056
-56.985
-53.787
-50.508
-47.201
-43.925
-40.739
-37.718
-34.95
-32.492
-30.375
-28.601
-27.14
-25.958
-25.02
-24.278
-23.677
-23.165
-22.685
-22.188
-21.63
-20.959
-20.123
-19.06
-17.701
-15.993
-13.894
-11.372
-8.404
-4.971
-1.057
3.345
8.234
13.609
19.467
25.81
32.64
39.957
47.76
56.04
64.778
73.953
83.541
93.51
103.825
114.442
125.308
136.372
147.586
158.906
170.29
181.698
193.092
204.43
215.668
226.776
237.735
248.535
259.174
269.655
279.983
290.176
300.269
310.288
320.244
330.138
339.949
349.65
359.2
368.553
377.658
386.44
394.803
402.64
409.829
416.254
421.807
426.371
429.813
432.025
432.919
432.436
430.549
427.248
422.547
416.477
409.089
400.468
390.724
379.992
368.427
356.178
343.38
330.182
316.736
303.184
289.65
276.237
263.019
250.064
237.429
225.157
213.277
201.796
190.703
179.972
169.561
159.44
149.588
139.984
130.607
121.44
112.474
103.713
95.174
86.87
78.814
71.019
63.501
56.281
49.385
42.841
36.678
30.918
25.572
20.645
16.141
12.053
8.375
5.089
2.172
-0.398
-2.64
-4.575
-6.223
-7.606
-8.748
-9.674
-10.407
-10.97
-11.382
-11.664
-11.834
-11.907
-11.9
-11.826
-11.695
-11.52
-11.312
-11.083
-10.844
-10.605
-10.376
-10.163
-9.976
-9.819
-9.698
-9.615
-9.572
-9.571
-9.611
-9.692
-9.813
-9.973
-10.169
-10.399
-10.66
-10.95
-11.267
-11.606
-11.967
-12.346
-12.741
-13.15
-13.572
-14.004
-14.447
-14.898
-15.356
-15.821
-16.291
-16.765
-17.244
-17.725
-18.209
-18.695
-19.184
-19.674
-20.167
-20.663
-21.162
-21.667
-22.177
-22.695
-23.221
-23.756
-24.302
-24.859
-25.428
-26.011
-26.606
-27.216
-27.839
-28.474
-29.122
-29.782
-30.451
-31.129
-31.814
-32.504
-33.197
-33.892
-34.586
-35.279
-35.967
-36.65
-37.325
-37.991
-38.647
-39.291
-39.921
-40.536
-41.136
-41.718
-42.281
-42.826
-43.35
-43.854
-44.336
-44.796
-45.234
-45.649
-46.042
-46.412
-46.761
-47.087
-47.393
-47.679
-47.945
-48.195
-48.427
-48.645
-48.849
-49.04
-49.22
-49.39
-49.55
-49.702
-49.847
-49.985
-50.116
-50.243
-50.364
-50.48
-50.591
-50.697
-50.798
-50.894
-50.984
-51.068
-51.146
-51.217
-51.282
-51.339
-51.39
-51.433
-51.468
-51.495
-51.514
-51.524
-51.524
-51.515
-51.496
-51.466
-51.425
-51.374
-51.312
-51.238
-51.154
-51.058
-50.951
-50.834
-50.707
-50.569
-50.422
-50.266
-50.102
-49.931
-49.754
-49.571
-49.385
-49.195
-49.004
-48.81
-48.617
-48.423
-48.231
-48.041
-47.854
-47.67
-47.49
-47.316
-47.148
-46.987
-46.834
-46.69
-46.556
-46.433
-46.321
-46.223
-46.138
-46.069
-46.017
-45.982
-45.967
-45.973
-46
-46.05
-46.123
-46.221
-46.344
-46.494
-46.67
-46.873
-47.104
-47.363
-47.65
-47.965
-48.308
-48.678
-49.074
-49.496
-49.941
-50.407
-50.894
-51.397
-51.914
-52.443
-52.978
-53.516
-54.053
-54.582
-55.099
-55.598
-56.072
-56.514
-56.917
-57.275
-57.581
-57.827
-58.007
-58.113
-58.137
-58.074
-57.917
-57.658
-57.291
-56.812
-56.213
-55.491
-54.643
-53.664
-52.552
-51.305
-49.923
-48.407
-46.758
-44.979
-43.073
-41.046
-38.903
-36.653
-34.305
-31.869
-29.357
-26.783
-24.162
-21.51
-18.844
-16.181
-13.539
-10.938
-8.396
-5.929
-3.557
-1.296
0.836
2.819
4.635
6.267
7.7
8.918
9.909
10.66
11.161
11.409
11.403
11.139
10.615
9.821
8.753
7.415
5.813
3.953
1.851
-0.477
-3.009
-5.707
-8.535
-11.459
-14.446
-17.477
-20.525
-23.553
-26.519
-29.374
-32.069
-34.579
-36.877
-38.931
-40.73
-42.277
-43.597
-44.753
-45.798
-46.769
-47.714
-48.679
-49.724
-50.941
-52.401
-54.183
-56.392
-59.06
-62.178
-65.69
-69.383
-72.973
-76.196
-78.698
-80.09
-80.15
-78.743
-75.933
-72.184
-68.053
-64.039
-60.674
-58.533
-58.072
-59.529
-62.841
-66.676
-68.581
-66.434
-58.144
-43.188
-23.793
-1.034
25.408
57.718
102.568
164.642
244.032
337.694
435.488
526.509
602.878
655.708
680.21
672.1
625.245
538.958
414.506
258.558
85.968
-86.693
-240.812
-361.62
-442.681
-484.987
-495.944
-483.349
-453.787
-411.631
-360.593
-307.918
-261.068
-225.299
-202.15
-187.22
-174.426
-160.644
-145.612
-132.118
-123.648
-120.726
-122.061
-125.236
-127.477
-127.526
-125.04
-120.184
-113.668
-106.094
-97.95
-89.923
-82.64
-76.658
-72.544
-70.449
-70.194
-71.506
-73.999
-77.313
-81.159
-85.185
-88.98
-92.265
-94.892
-96.802
-98.04
-98.632
-98.567
-97.87
-96.594
-94.818
-92.634
-90.121
-87.336
-84.336
-81.191
-77.991
-74.85
-71.864
-69.095
-66.575
-64.318
-62.333
-60.635
-59.218
-58.059
-57.118
-56.353
-55.731
-55.226
-54.807
-54.439
-54.077
-53.666
-53.166
-52.549
-51.794
-50.884
-49.802
-48.534
-47.071
-45.416
-43.572
-41.537
-39.31
-36.884
-34.258
-31.435
-28.419
-25.215
-21.828
-18.262
-14.523
-10.617
-6.554
-2.342
2.01
6.495
11.102
15.816
20.622
25.504
30.445
35.428
40.432
45.438
50.427
55.378
60.272
65.091
69.816
74.426
78.904
83.231
87.389
91.362
95.133
98.686
102.005
105.077
107.889
110.429
112.685
114.648
116.309
117.661
118.699
119.417
119.813
119.886
119.635
119.064
118.174
116.972
115.464
113.656
111.559
109.182
106.537
103.637
100.495
97.124
93.541
89.759
85.797
81.67
77.395
72.99
68.473
63.861
59.173
54.426
49.639
44.828
40.012
35.207
30.43
25.696
21.022
16.42
11.905
7.49
3.187
-0.994
-5.043
-8.951
-12.709
-16.31
-19.75
-23.023
-26.125
-29.053
-31.807
-34.384
-36.784
-39.009
-41.06
-42.939
-44.647
-46.188
-47.566
-48.785
-49.85
-50.765
-51.536
-52.168
-52.667
-53.038
-53.288
-53.424
-53.45
-53.375
-53.203
-52.943
-52.601
-52.184
-51.701
-51.158
-50.565
-49.93
-49.262
-48.569
-47.859
-47.141
-46.424
-45.715
-45.019
-44.345
-43.699
-43.087
-42.519
-42.001
-41.539
-41.143
-40.82
-40.574
-40.414
-40.343
-40.363
-40.475
-40.682
-40.987
-41.399
-41.92
-42.551
-43.292
-44.137
-45.075
-46.096
-47.175
-48.279
-49.378
-50.441
-51.442
-52.366
-53.189
-53.887
-54.437
-54.799
-54.946
-54.858
-54.514
-53.904
-53.035
-51.92
-50.606
-49.175
-47.705
-46.267
-44.922
-43.708
-42.676
-41.898
-41.451
-41.416
-41.838
-42.765
-44.281
-46.429
-49.183
-52.411
-55.803
-59.01
-61.777
-63.837
-64.875
-64.658
-63.051
-60.228
-56.769
-53.232
-49.941
-47.182
-45.321
-44.702
-45.507
-46.592
-45.551
-40.428
-30.163
-15.961
-0.213
17.233
38.707
68.473
111.172
166.955
232.546
303.408
373.064
436.226
488.298
521.703
529.848
508.538
455.818
378.183
286.932
193.505
110.015
40.994
-15.932
-65.504
-115.505
-169.381
-225.676
-281.257
-331.076
-372.728
-406.654
-434.006
-456.646
-475.586
-490.965
-503.108
-512.434
-519.207
-523.642
-525.755
-525.37
-522.362
-516.608
-507.878
-495.936
-480.811
-462.743
-442.104
-419.395
-395.106
-369.718
-343.777
-317.791
-292.116
-267.001
-242.636
-219.19
-196.826
-175.701
-155.915
-137.516
-120.559
-105.08
-91.077
-78.505
-67.264
-57.217
-48.225
-40.192
-33.036
-26.667
-20.976
-15.822
-11.073
-6.613
-2.33
1.895
6.195
10.671
15.376
20.315
25.454
30.753
36.166
41.661
47.197
52.726
58.192
63.534
68.701
73.638
78.292
82.59
86.453
89.828
92.699
95.077
96.995
98.492
99.606
100.39
100.905
101.212
101.372
101.443
101.475
101.527
101.664
101.957
102.482
103.3
104.458
105.998
107.949
110.331
113.163
116.456
120.214
124.446
129.158
134.349
140.017
146.151
152.731
159.737
167.132
174.867
182.898
191.176
199.667
208.351
217.203
226.195
235.3
244.483
253.723
263.019
272.359
281.723
291.1
300.47
309.843
319.255
328.726
338.262
347.846
357.421
366.939
376.352
385.594
394.595
403.253
411.437
419.041
425.985
432.183
437.56
442.009
445.39
447.598
448.559
448.229
446.609
443.701
439.508
434.077
427.483
419.833
411.273
401.921
391.862
381.194
370.007
358.418
346.576
334.599
322.573
310.58
298.673
286.911
275.355
264.031
252.936
242.05
231.331
220.762
210.352
200.108
190.037
180.14
170.404
160.834
151.453
142.279
133.334
124.632
116.182
108.01
100.153
92.653
85.552
78.879
72.647
66.868
61.548
56.689
52.292
48.345
44.828
41.724
39.016
36.686
34.72
33.095
31.782
30.755
29.984
29.442
29.103
28.942
28.932
29.049
29.272
29.578
29.951
30.369
30.814
31.266
31.706
32.117
32.482
32.786
33.015
33.157
33.2
33.138
32.962
32.667
32.249
31.705
31.034
30.236
29.312
28.264
27.095
25.81
24.414
22.912
21.311
19.619
17.843
15.99
14.069
12.088
10.054
7.978
5.865
3.725
1.566
-0.605
-2.78
-4.951
-7.112
-9.256
-11.377
-13.469
-15.526
-17.545
-19.521
-21.45
-23.328
-25.154
-26.924
-28.636
-30.29
-31.884
-33.416
-34.887
-36.296
-37.643
-38.929
-40.155
-41.319
-42.425
-43.471
-44.46
-45.391
-46.267
-47.087
-47.854
-48.567
-49.228
-49.838
-50.397
-50.906
-51.366
-51.778
-52.141
-52.458
-52.729
-52.954
-53.134
-53.272
-53.367
-53.422
-53.437
-53.413
-53.353
-53.258
-53.13
-52.969
-52.778
-52.559
-52.314
-52.044
-51.753
-51.442
-51.114
-50.772
-50.417
-50.053
-49.682
-49.306
-48.929
-48.554
-48.182
-47.817
-47.461
-47.118
-46.789
-46.478
-46.185
-45.913
-45.664
-45.439
-45.239
-45.065
-44.918
-44.798
-44.706
-44.641
-44.603
-44.592
-44.608
-44.65
-44.716
-44.806
-44.917
-45.049
-45.2
-45.368
-45.552
-45.748
-45.956
-46.172
-46.396
-46.624
-46.855
-47.087
-47.316
-47.542
-47.763
-47.976
-48.18
-48.374
-48.558
-48.729
-48.887
-49.033
-49.166
-49.286
-49.393
-49.487
-49.569
-49.64
-49.7
-49.751
-49.793
-49.827
-49.856
-49.879
-49.899
-49.918
-49.935
-49.954
-49.976
-50.001
-50.031
-50.069
-50.114
-50.168
-50.232
-50.308
-50.395
-50.495
-50.607
-50.731
-50.868
-51.017
-51.177
-51.347
-51.527
-51.714
-51.907
-52.105
-52.305
-52.507
-52.708
-52.905
-53.098
-53.283
-53.459
-53.624
-53.775
-53.911
-54.031
-54.131
-54.211
-54.269
-54.304
-54.316
-54.302
-54.263
-54.197
-54.105
-53.988
-53.844
-53.676
-53.483
-53.268
-53.032
-52.778
-52.507
-52.223
-51.928
-51.627
-51.321
-51.016
-50.716
-50.424
-50.145
-49.884
-49.644
-49.431
-49.249
-49.103
-48.995
-48.931
-48.915
-48.949
-49.038
-49.184
-49.39
-49.658
-49.991
-50.389
-50.855
-51.389
-51.992
-52.662
-53.401
-54.206
-55.075
-56.008
-56.999
-58.047
-59.147
-60.295
-61.484
-62.709
-63.963
-65.239
-66.529
-67.824
-69.116
-70.395
-71.652
-72.878
-74.064
-75.199
-76.276
-77.283
-78.213
-79.057
-79.806
-80.452
-80.987
-81.403
-81.695
-81.856
-81.881
-81.764
-81.501
-81.088
-80.523
-79.804
-78.929
-77.898
-76.713
-75.375
-73.89
-72.261
-70.496
-68.603
-66.592
-64.474
-62.262
-59.969
-57.61
-55.2
-52.754
-50.289
-47.82
-45.363
-42.934
-40.549
-38.224
-35.977
-33.824
-31.781
-29.864
-28.087
-26.466
-25.016
-23.748
-22.67
-21.789
-21.115
-20.655
-20.422
-20.424
-20.658
-21.12
-21.806
-22.705
-23.803
-25.078
-26.491
-28.005
-29.588
-31.213
-32.863
-34.519
-36.148
-37.718
-39.195
-40.552
-41.783
-42.886
-43.847
-44.667
-45.363
-45.977
-46.597
-47.307
-48.164
-49.213
-50.475
-51.976
-53.773
-55.92
-58.468
-61.447
-64.828
-68.599
-72.811
-77.449
-82.423
-87.497
-92.222
-96.176
-99.077
-100.608
-100.413
-98.255
-93.976
-87.793
-80.472
-72.753
-65.202
-58.543
-53.448
-50.28
-49.324
-49.635
-48.769
-45.3
-38.21
-26.903
-12.423
7.185
35.53
74.164
124.874
184.975
248.806
313.626
375.558
431.44
476.851
502.284
499.324
461.82
389.796
290.404
171.878
43.758
-86.506
-212.686
-325.831
-417.468
-480.316
-510.755
-511.01
-488.29
-452.113
-411.739
-375.797
-347.561
-326.22
-308.842
-289.245
-265
-237.391
-208.942
-184.418
-166.027
-153.038
-144.265
-137.77
-132.155
-126.997
-121.796
-116.003
-109.434
-102.166
-94.391
-86.405
-78.606
-71.348
-65.096
-60.438
-57.578
-56.394
-56.686
-58.163
-60.54
-63.591
-66.952
-70.124
-72.791
-74.8
-76.086
-76.699
-76.656
-75.928
-74.555
-72.633
-70.262
-67.552
-64.59
-61.406
-58.06
-54.635
-51.234
-47.995
-45.014
-42.337
-39.993
-37.995
-36.356
-35.086
-34.171
-33.568
-33.229
-33.114
-33.183
-33.415
-33.775
-34.217
-34.69
-35.134
-35.504
-35.773
-35.914
-35.908
-35.735
-35.379
-34.831
-34.098
-33.178
-32.069
-30.766
-29.26
-27.548
-25.633
-23.515
-21.198
-18.683
-15.972
-13.069
-9.977
-6.701
-3.247
0.381
4.178
8.137
12.249
16.502
20.884
25.382
29.981
34.667
39.424
44.235
49.083
53.954
58.831
63.696
68.534
73.326
78.056
82.708
87.263
91.705
96.017
100.184
104.19
108.019
111.656
115.088
118.3
121.281
124.018
126.5
128.719
130.663
132.328
133.705
134.789
135.578
136.068
136.258
136.148
135.738
135.031
134.031
132.741
131.168
129.318
127.198
124.817
122.185
119.314
116.214
112.898
109.381
105.676
101.799
97.766
93.592
89.296
84.894
80.404
75.843
71.231
66.584
61.921
57.259
52.616
48.009
43.454
38.968
34.565
30.26
26.067
21.998
18.067
14.285
10.662
7.208
3.932
0.842
-2.055
-4.753
-7.248
-9.535
-11.613
-13.48
-15.134
-16.576
-17.808
-18.833
-19.653
-20.272
-20.697
-20.933
-20.988
-20.87
-20.586
-20.148
-19.566
-18.853
-18.021
-17.08
-16.046
-14.929
-13.744
-12.502
-11.214
-9.892
-8.545
-7.188
-5.831
-4.488
-3.172
-1.893
-0.66
0.515
1.624
2.66
3.619
4.501
5.301
6.013
6.625
7.127
7.516
7.794
7.966
8.04
8.029
7.952
7.84
7.722
7.625
7.572
7.574
7.645
7.807
8.088
8.53
9.165
10.015
11.09
12.394
13.913
15.629
17.495
19.439
21.399
23.316
25.13
26.804
28.275
29.474
30.345
30.796
30.711
30.043
28.801
27.09
25.156
23.22
21.464
20.151
19.555
19.875
21.202
23.276
25.511
27.428
28.717
29.207
28.846
27.555
25.387
23.059
21.92
23.365
28.617
38.492
53.656
75.067
103.557
138.623
178.324
220.381
263.007
306.71
352.698
399.548
443.035
475.571
490.123
484.771
461.158
424.327
379.068
326.427
268.225
206.762
145.031
88.757
39.827
-3.604
-43.495
-83.548
-124.412
-162.973
-197.331
-225.815
-248.078
-265.932
-280.202
-291.028
-298.69
-303.212
-305.047
-304.918
-303.147
-299.827
-295.064
-288.856
-281.23
-272.204
-261.596
-249.359
-235.647
-220.672
-204.747
-188.207
-171.298
-154.282
-137.454
-120.962
-104.892
-89.321
-74.278
-59.847
-46.12
-33.124
-20.884
-9.44
1.17
10.913
19.788
27.849
35.144
41.686
47.475
52.484
56.704
60.16
62.906
65.014
66.557
67.615
68.283
68.676
68.922
69.112
69.294
69.478
69.669
69.889
70.166
70.528
70.986
71.539
72.178
72.889
73.662
74.469
75.267
75.996
76.587
76.997
77.217
77.253
77.129
76.865
76.485
76.02
75.518
75.024
74.582
74.232
74.008
73.958
74.134
74.593
75.397
76.597
78.231
80.334
82.929
86.027
89.635
93.745
98.336
103.389
108.878
114.767
121.028
127.628
134.534
141.719
149.155
156.815
164.671
172.688
180.845
189.134
197.553
206.108
214.812
223.675
232.718
241.976
251.471
261.211
271.189
281.376
291.731
302.204
312.735
323.265
333.706
343.949
353.871
363.334
372.204
380.358
387.657
393.945
399.094
403.008
405.615
406.879
406.773
405.276
402.398
398.185
392.69
385.965
378.098
369.195
359.384
348.83
337.677
326.02
314.034
302.003
290.055
278.206
266.535
254.909
243.707
234.017
225.611
217.512
208.09
194.29
176.287
157.093
139.713
128.421
123.466
120.8
117.31
109.644
97.255
83.201
69.365
57.053
46.68
37.053
27.659
18.588
9.833
1.609
-6.014
-13.186
-19.945
-26.253
-32.118
-37.558
-42.574
-47.169
-51.336
-55.06
-58.344
-61.219
-63.71
-65.832
-67.607
-69.052
-70.188
-71.036
-71.618
-71.949
-72.048
-71.93
-71.615
-71.121
-70.469
-69.679
-68.771
-67.765
-66.68
-65.534
-64.347
-63.134
-61.911
-60.693
-59.493
-58.324
-57.197
-56.123
-55.112
-54.171
-53.31
-52.533
-51.848
-51.257
-50.765
-50.376
-50.09
-49.91
-49.836
-49.869
-50.008
-50.253
-50.601
-51.051
-51.599
-52.24
-52.972
-53.789
-54.686
-55.657
-56.696
-57.796
-58.952
-60.157
-61.403
-62.685
-63.996
-65.329
-66.677
-68.035
-69.396
-70.754
-72.104
-73.441
-74.758
-76.052
-77.318
-78.55
-79.746
-80.901
-82.012
-83.074
-84.085
-85.041
-85.94
-86.779
-87.557
-88.272
-88.922
-89.507
-90.026
-90.479
-90.866
-91.187
-91.443
-91.636
-91.767
-91.837
-91.849
-91.806
-91.71
-91.563
-91.37
-91.133
-90.855
-90.54
-90.191
-89.813
-89.407
-88.979
-88.532
-88.07
-87.598
-87.119
-86.638
-86.159
-85.685
-85.222
-84.774
-84.344
-83.936
-83.555
-83.205
-82.888
-82.609
-82.371
-82.177
-82.029
-81.93
-81.882
-81.886
-81.945
-82.058
-82.227
-82.452
-82.733
-83.069
-83.461
-83.906
-84.405
-84.954
-85.553
-86.199
-86.89
-87.623
-88.395
-89.203
-90.044
-90.913
-91.807
-92.722
-93.653
-94.597
-95.548
-96.503
-97.455
-98.402
-99.337
-100.257
-101.157
-102.033
-102.881
-103.698
-104.48
-105.225
-105.929
-106.591
-107.209
-107.782
-108.308
-108.788
-109.22
-109.605
-109.944
-110.237
-110.486
-110.692
-110.857
-110.984
-111.074
-111.131
-111.158
-111.158
-111.135
-111.091
-111.033
-110.963
-110.885
-110.805
-110.727
-110.655
-110.592
-110.545
-110.515
-110.508
-110.526
-110.572
-110.649
-110.759
-110.903
-111.084
-111.303
-111.559
-111.853
-112.185
-112.554
-112.959
-113.399
-113.872
-114.376
-114.91
-115.47
-116.054
-116.658
-117.279
-117.915
-118.56
-119.21
-119.863
-120.513
-121.156
-121.787
-122.401
-122.995
-123.563
-124.101
-124.606
-125.073
-125.498
-125.878
-126.211
-126.493
-126.722
-126.896
-127.013
-127.071
-127.069
-127.006
-126.88
-126.691
-126.438
-126.122
-125.741
-125.295
-124.786
-124.212
-123.574
-122.872
-122.106
-121.276
-120.383
-119.428
-118.411
-117.334
-116.197
-115.002
-113.75
-112.442
-111.08
-109.664
-108.194
-106.673
-105.101
-103.479
-101.808
-100.089
-98.323
-96.512
-94.659
-92.765
-90.833
-88.866
-86.866
-84.837
-82.784
-80.71
-78.622
-76.523
-74.421
-72.323
-70.239
-68.178
-66.148
-64.159
-62.22
-60.342
-58.533
-56.802
-55.155
-53.6
-52.143
-50.796
-49.566
-48.463
-47.494
-46.665
-45.984
-45.458
-45.092
-44.886
-44.837
-44.943
-45.207
-45.63
-46.22
-46.981
-47.908
-48.997
-50.241
-51.628
-53.144
-54.766
-56.46
-58.198
-59.956
-61.714
-63.46
-65.171
-66.824
-68.395
-69.854
-71.18
-72.356
-73.372
-74.23
-74.949
-75.556
-76.09
-76.601
-77.134
-77.748
-78.504
-79.458
-80.673
-82.191
-84.069
-86.4
-89.219
-92.502
-96.137
-99.868
-103.432
-106.621
-109.17
-110.757
-111.184
-110.349
-108.418
-105.948
-103.438
-101.304
-100.016
-99.954
-101.38
-104.38
-108.463
-112.51
-115.353
-115.649
-111.959
-103.076
-87.628
-64.419
-33.085
6.211
52.264
102.053
152.261
199.424
241.097
278.31
312.027
341.113
361.243
361.603
331.147
264.079
160.507
31.047
-108.564
-243.583
-360.421
-451.876
-515.315
-550.422
-559.563
-545.706
-514.139
-471.605
-426.434
-386.065
-353.047
-326.47
-301.405
-273.277
-241.848
-209.504
-180.883
-159.519
-145.682
-137.857
-133.736
-131.512
-130.218
-129.216
-127.856
-125.367
-121.406
-116.086
-109.617
-102.39
-94.844
-87.351
-80.446
-74.639
-70.061
-66.591
-63.993
-61.96
-60.233
-58.581
-56.71
-54.328
-51.29
-47.572
-43.225
-38.348
-33.021
-27.309
-21.302
-15.12
-8.877
-2.685
3.352
9.171
14.714
19.917
24.733
29.131
33.088
36.614
39.725
42.433
44.757
46.72
48.346
49.67
50.735
51.584
52.27
52.834
53.311
53.735
54.132
54.525
54.933
55.37
55.839
56.352
56.918
57.548
58.257
59.053
59.943
60.935
62.034
63.245
64.574
66.027
67.607
69.32
71.171
73.162
75.299
77.586
80.021
82.603
85.328
88.192
91.189
94.312
97.553
100.902
104.349
107.884
111.496
115.174
118.905
122.677
126.475
130.286
134.095
137.888
141.65
145.366
149.019
152.595
156.078
159.454
162.707
165.824
168.788
171.588
174.209
176.638
178.864
180.875
182.661
184.213
185.522
186.582
187.385
187.929
188.207
188.22
187.963
187.439
186.646
185.588
184.268
182.689
180.858
178.781
176.466
173.922
171.159
168.188
165.021
161.671
158.152
154.478
150.665
146.727
142.682
138.545
134.334
130.066
125.757
121.425
117.086
112.757
108.454
104.192
99.987
95.853
91.803
87.852
84.01
80.29
76.702
73.254
69.957
66.816
63.839
61.03
58.395
55.936
53.656
51.555
49.634
47.892
46.328
44.937
43.717
42.663
41.771
41.033
40.445
39.999
39.689
39.506
39.444
39.496
39.652
39.907
40.252
40.679
41.181
41.751
42.381
43.066
43.799
44.574
45.386
46.229
47.1
47.994
48.907
49.836
50.778
51.732
52.696
53.668
54.647
55.633
56.626
57.626
58.633
59.648
60.671
61.703
62.743
63.791
64.845
65.905
66.967
68.03
69.091
70.149
71.199
72.241
73.273
74.294
75.301
76.293
77.266
78.214
79.135
80.023
80.876
81.689
82.458
83.18
83.855
84.484
85.066
85.596
86.062
86.453
86.769
87.01
87.176
87.278
87.321
87.322
87.31
87.313
87.356
87.46
87.634
87.889
88.245
88.728
89.378
90.226
91.281
92.544
94.014
95.677
97.507
99.454
101.429
103.354
105.168
106.81
108.241
109.4
110.205
110.59
110.467
109.736
108.36
106.363
103.836
100.982
98.042
95.252
92.903
91.33
90.779
91.335
92.794
94.711
96.585
97.985
98.682
98.432
96.879
94.052
90.669
87.776
87.344
91.368
100.344
115.377
136.647
162.798
194.201
230.309
270.807
318.184
372.82
432.049
490.776
539.267
567.683
571.724
551.016
509.24
453.492
389.037
321.05
256.017
197.903
149.14
109.026
72.217
34.251
-6.975
-50.653
-92.33
-128.55
-158.1
-181.248
-199.878
-215.102
-227.026
-235.859
-241.845
-245.629
-248.016
-249.39
-249.848
-249.469
-248.19
-245.89
-242.395
-237.35
-230.59
-222.227
-212.455
-201.574
-189.917
-177.73
-165.29
-152.924
-140.813
-129.054
-117.732
-106.858
-96.51
-86.84
-77.938
-69.888
-62.76
-56.557
-51.276
-46.9
-43.359
-40.598
-38.59
-37.293
-36.683
-36.739
-37.403
-38.62
-40.296
-42.284
-44.427
-46.561
-48.55
-50.318
-51.814
-53.01
-53.907
-54.506
-54.808
-54.827
-54.572
-54.048
-53.271
-52.254
-51.035
-49.686
-48.291
-46.943
-45.712
-44.633
-43.724
-42.987
-42.407
-41.963
-41.62
-41.334
-41.069
-40.791
-40.471
-40.085
-39.597
-38.963
-38.13
-37.042
-35.652
-33.924
-31.829
-29.344
-26.451
-23.143
-19.419
-15.288
-10.756
-5.829
-0.512
5.194
11.287
17.764
24.617
31.832
39.388
47.261
55.418
63.818
72.418
81.173
90.045
99.001
108.02
117.087
126.189
135.314
144.438
153.527
162.547
171.467
180.26
188.907
197.403
205.751
213.967
222.073
230.074
237.959
245.69
253.201
260.416
267.242
273.602
279.441
284.704
289.349
293.33
296.601
299.108
300.786
301.56
301.342
300.067
297.698
294.235
289.718
284.214
277.82
270.623
262.697
254.111
244.922
235.187
224.963
214.313
203.307
192.033
180.597
169.093
157.601
146.178
134.849
123.62
112.473
101.398
90.393
79.464
68.63
57.916
47.349
36.961
26.781
16.83
7.112
-2.369
-11.605
-20.582
-29.272
-37.643
-45.651
-53.261
-60.439
-67.159
-73.407
-79.172
-84.455
-89.258
-93.595
-97.474
-100.903
-103.889
-106.44
-108.568
-110.29
-111.625
-112.595
-113.224
-113.537
-113.562
-113.321
-112.84
-112.142
-111.247
-110.175
-108.946
-107.58
-106.098
-104.522
-102.871
-101.165
-99.424
-97.666
-95.909
-94.169
-92.459
-90.792
-89.18
-87.634
-86.161
-84.771
-83.47
-82.264
-81.157
-80.152
-79.253
-78.459
-77.772
-77.189
-76.71
-76.33
-76.048
-75.857
-75.754
-75.734
-75.789
-75.916
-76.106
-76.355
-76.655
-76.999
-77.382
-77.795
-78.232
-78.686
-79.15
-79.619
-80.087
-80.547
-80.995
-81.425
-81.832
-82.212
-82.562
-82.876
-83.152
-83.385
-83.574
-83.715
-83.807
-83.848
-83.837
-83.772
-83.653
-83.479
-83.251
-82.968
-82.631
-82.241
-81.797
-81.302
-80.756
-80.161
-79.517
-78.826
-78.09
-77.308
-76.484
-75.618
-74.711
-73.765
-72.781
-71.762
-70.707
-69.621
-68.503
-67.355
-66.181
-64.98
-63.756
-62.509
-61.242
-59.956
-58.654
-57.337
-56.006
-54.665
-53.313
-51.955
-50.59
-49.222
-47.851
-46.481
-45.112
-43.747
-42.388
-41.038
-39.698
-38.372
-37.061
-35.768
-34.496
-33.246
-32.022
-30.825
-29.658
-28.523
-27.423
-26.358
-25.332
-24.346
-23.403
-22.504
-21.65
-20.844
-20.087
-19.38
-18.725
-18.122
-17.573
-17.078
-16.639
-16.255
-15.927
-15.656
-15.441
-15.282
-15.179
-15.131
-15.138
-15.199
-15.312
-15.478
-15.694
-15.96
-16.275
-16.636
-17.044
-17.496
-17.992
-18.529
-19.107
-19.723
-20.377
-21.066
-21.79
-22.547
-23.334
-24.152
-24.997
-25.87
-26.768
-27.689
-28.633
-29.599
-30.585
-31.589
-32.611
-33.649
-34.701
-35.767
-36.844
-37.932
-39.027
-40.128
-41.233
-42.34
-43.446
-44.548
-45.644
-46.73
-47.804
-48.86
-49.896
-50.908
-51.89
-52.839
-53.75
-54.619
-55.441
-56.211
-56.925
-57.577
-58.163
-58.679
-59.119
-59.478
-59.751
-59.933
-60.022
-60.012
-59.9
-59.684
-59.36
-58.926
-58.383
-57.73
-56.965
-56.091
-55.108
-54.02
-52.829
-51.541
-50.16
-48.692
-47.146
-45.533
-43.862
-42.145
-40.393
-38.619
-36.835
-35.055
-33.292
-31.556
-29.858
-28.211
-26.627
-25.122
-23.709
-22.401
-21.21
-20.147
-19.223
-18.451
-17.835
-17.376
-17.077
-16.94
-16.973
-17.192
-17.603
-18.208
-19.007
-19.997
-21.17
-22.515
-24.01
-25.617
-27.303
-29.034
-30.784
-32.542
-34.281
-35.971
-37.58
-39.058
-40.375
-41.515
-42.455
-43.181
-43.702
-44.037
-44.233
-44.377
-44.535
-44.779
-45.187
-45.82
-46.767
-48.101
-49.895
-52.257
-55.23
-58.798
-62.9
-67.327
-71.795
-76.049
-79.766
-82.546
-84.138
-84.358
-83.224
-81.211
-78.873
-76.71
-75.217
-74.792
-75.788
-78.486
-82.665
-86.787
-88.51
-85.652
-76.789
-62.606
-44.621
-22.714
5.454
44.489
98.114
165.842
242.23
318.744
388.829
449.53
500.592
541.369
566.253
565.359
528.921
452.131
337.517
196.467
44.772
-102.669
-231.58
-333.959
-406.32
-446.719
-457.689
-441.303
-402.347
-349.72
-292.657
-242.035
-203.473
-176.165
-156.277
-137.163
-116.261
-95.339
-77.192
-65.649
-61.555
-62.956
-67.457
-72.018
-74.59
-74.369
-71.072
-65.056
-56.924
-47.297
-36.935
-26.72
-17.535
-10.138
-4.913
-1.841
-0.686
-1.06
-2.551
-4.773
-7.295
-9.726
-11.815
-13.418
-14.494
-15.074
-15.175
-14.807
-14.002
-12.798
-11.238
-9.381
-7.277
-4.991
-2.608
-0.216
2.08
4.192
6.057
7.614
8.83
9.688
10.174
10.288
10.043
9.451
8.533
7.321
5.841
4.13
2.232
0.192
-1.934
-4.097
-6.261
-8.393
-10.468
-12.465
-14.365
-16.152
-17.821
-19.36
-20.759
-22.008
-23.095
-24.009
-24.745
-25.296
-25.661
-25.835
-25.816
-25.6
-25.184
-24.565
-23.744
-22.718
-21.487
-20.049
-18.41
-16.574
-14.548
-12.341
-9.961
-7.419
-4.727
-1.898
1.055
4.119
7.28
10.524
13.837
17.202
20.603
24.026
27.454
30.871
34.26
37.605
40.89
44.098
47.215
50.225
53.113
55.864
58.465
60.903
63.165
65.239
67.113
68.778
70.224
71.442
72.426
73.169
73.667
73.914
73.909
73.65
73.136
72.369
71.348
70.078
68.563
66.806
64.814
62.593
60.153
57.502
54.65
51.608
48.388
45.003
41.466
37.79
33.989
30.079
26.075
21.991
17.844
13.65
9.425
5.185
0.946
-3.275
-7.465
-11.606
-15.684
-19.685
-23.596
-27.403
-31.093
-34.656
-38.079
-41.352
-44.467
-47.413
-50.184
-52.771
-55.168
-57.371
-59.375
-61.175
-62.771
-64.158
-65.337
-66.306
-67.066
-67.617
-67.961
-68.099
-68.035
-67.772
-67.313
-66.664
-65.828
-64.812
-63.622
-62.262
-60.74
-59.063
-57.236
-55.268
-53.166
-50.937
-48.59
-46.133
-43.575
-40.925
-38.195
-35.395
-32.536
-29.628
-26.684
-23.714
-20.73
-17.742
-14.759
-11.789
-8.841
-5.926
-3.054
-0.236
2.517
5.198
7.799
10.312
12.731
15.048
17.262
19.373
21.378
23.271
25.043
26.685
28.195
29.574
30.828
31.967
33.006
33.96
34.859
35.728
36.591
37.481
38.427
39.449
40.573
41.83
43.239
44.856
46.732
48.825
51.105
53.531
56.019
58.579
61.219
63.808
66.234
68.554
70.772
72.946
75.18
77.203
78.724
79.717
80.08
79.59
78.171
75.634
71.843
67.349
62.742
58.332
54.605
52.05
50.935
51.602
54.181
58.08
62.624
67.324
71.508
74.414
76.172
77.752
80.084
84.656
91.314
97.751
103.971
111.958
126.28
153.896
197.391
254.809
321.066
389.202
455.065
515.391
566.449
602.792
615.688
599.549
553.5
481.489
395.12
305.722
220.493
144.598
76.074
10.142
-54.736
-119.999
-183.819
-241.533
-291.061
-331.491
-363.173
-388.249
-408.186
-423.755
-435.647
-444.34
-450.391
-454.207
-455.862
-455.213
-451.964
-445.868
-436.745
-424.38
-408.595
-389.481
-367.368
-342.74
-316.207
-288.384
-259.834
-231.105
-202.729
-175.094
-148.49
-123.203
-99.43
-77.333
-57.078
-38.754
-22.411
-8.115
4.126
14.378
22.736
29.366
34.458
38.145
40.559
41.84
42.146
41.688
40.676
39.274
37.652
35.972
34.401
33.121
32.252
31.833
31.87
32.331
33.173
34.382
35.93
37.766
39.834
42.052
44.346
46.664
48.941
51.101
53.058
54.718
56.028
56.986
57.609
57.932
57.999
57.847
57.529
57.115
56.669
56.253
55.923
55.724
55.71
55.943
56.486
57.407
58.755
60.563
62.856
65.651
68.959
72.787
77.128
81.969
87.294
93.091
99.348
106.054
113.196
120.757
128.716
137.043
145.705
154.663
163.869
173.27
182.81
192.432
202.087
211.732
221.336
230.873
240.318
249.648
258.827
267.809
276.548
285.004
293.143
300.94
308.385
315.481
322.244
328.696
334.845
340.673
346.138
351.174
355.706
359.653
362.951
365.568
367.478
368.669
369.128
368.838
367.763
365.848
363.015
359.171
354.246
348.206
341.066
332.877
323.717
313.685
302.863
291.31
279.064
266.146
252.564
238.346
223.543
208.24
192.564
176.676
160.738
144.885
129.205
113.757
98.57
83.655
69.028
54.729
40.814
27.368
14.494
2.278
-9.217
-19.961
-29.977
-39.323
-48.086
-56.338
-64.127
-71.482
-78.41
-84.911
-90.981
-96.631
-101.879
-106.771
-111.376
-115.757
-119.967
-124.039
-127.972
-131.744
-135.308
-138.623
-141.659
-144.4
-146.846
-149.005
-150.889
-152.516
-153.907
-155.069
-155.996
-156.683
-157.126
-157.329
-157.313
-157.105
-156.744
-156.267
-155.709
-155.099
-154.458
-153.801
-153.14
-152.477
-151.812
-151.147
-150.488
-149.839
-149.209
-148.601
-148.016
-147.453
-146.909
-146.378
-145.858
-145.341
-144.825
-144.307
-143.785
-143.26
-142.732
-142.204
-141.676
-141.146
-140.614
-140.078
-139.538
-138.99
-138.434
-137.868
-137.291
-136.702
-136.101
-135.49
-134.867
-134.234
-133.592
-132.942
-132.286
-131.624
-130.959
-130.292
-129.624
-128.957
-128.292
-127.63
-126.973
-126.321
-125.676
-125.037
-124.405
-123.78
-123.162
-122.549
-121.941
-121.337
-120.736
-120.138
-119.541
-118.944
-118.347
-117.748
-117.147
-116.543
-115.933
-115.317
-114.693
-114.06
-113.416
-112.762
-112.094
-111.413
-110.718
-110.008
-109.282
-108.541
-107.784
-107.012
-106.225
-105.424
-104.611
-103.787
-102.954
-102.115
-101.271
-100.426
-99.582
-98.743
-97.912
-97.092
-96.287
-95.499
-94.734
-93.993
-93.28
-92.599
-91.953
-91.345
-90.776
-90.251
-89.771
-89.339
-88.955
-88.622
-88.342
-88.114
-87.94
-87.82
-87.754
-87.741
-87.781
-87.872
-88.012
-88.2
-88.433
-88.707
-89.02
-89.368
-89.748
-90.154
-90.583
-91.029
-91.488
-91.956
-92.426
-92.893
-93.352
-93.799
-94.228
-94.634
-95.012
-95.358
-95.667
-95.934
-96.156
-96.328
-96.448
-96.51
-96.512
-96.452
-96.326
-96.132
-95.87
-95.536
-95.132
-94.655
-94.106
-93.485
-92.792
-92.029
-91.197
-90.298
-89.335
-88.309
-87.224
-86.083
-84.89
-83.648
-82.361
-81.033
-79.669
-78.273
-76.849
-75.401
-73.934
-72.454
-70.964
-69.469
-67.974
-66.484
-65.002
-63.534
-62.083
-60.654
-59.249
-57.873
-56.529
-55.22
-53.948
-52.716
-51.525
-50.378
-49.274
-48.214
-47.199
-46.227
-45.298
-44.41
-43.562
-42.751
-41.975
-41.231
-40.516
-39.825
-39.155
-38.502
-37.86
-37.223
-36.587
-35.945
-35.293
-34.623
-33.93
-33.208
-32.452
-31.654
-30.809
-29.912
-28.957
-27.938
-26.85
-25.689
-24.45
-23.132
-21.73
-20.242
-18.668
-17.006
-15.259
-13.426
-11.508
-9.509
-7.432
-5.282
-3.064
-0.784
1.55
3.929
6.343
8.78
11.228
13.675
16.108
18.513
20.877
23.186
25.429
27.595
29.671
31.645
33.504
35.233
36.821
38.258
39.533
40.637
41.56
42.297
42.849
43.215
43.395
43.385
43.176
42.763
42.15
41.339
40.338
39.16
37.82
36.341
34.765
33.126
31.461
29.799
28.159
26.568
25.058
23.664
22.431
21.389
20.554
19.948
19.59
19.466
19.555
19.805
20.126
20.454
20.726
20.86
20.802
20.466
19.757
18.625
16.997
14.795
12.018
8.686
4.881
0.872
-3.037
-6.575
-9.357
-11.022
-11.368
-10.214
-7.601
-3.984
0.119
4.254
7.918
10.623
12.083
12.086
10.638
9.228
10.338
15.916
28.061
46.544
68.163
92.311
119.37
152.014
197.575
258.39
333.162
418.028
502.636
578.872
639.163
674.437
678.322
643.999
568.454
454.788
311.569
153.482
-3.236
-142.488
-252.523
-328.615
-371.693
-388.086
-384.413
-365.219
-333.605
-292.311
-246.58
-202.702
-165.63
-136.649
-112.694
-90.525
-68.813
-48.703
-33.508
-24.844
-21.941
-23.046
-25.311
-26.679
-26.287
-23.421
-18.058
-10.649
-1.644
8.357
18.611
28.486
37.351
44.532
49.778
53.184
54.986
55.583
55.345
54.574
53.644
52.956
52.773
53.232
54.368
56.122
58.462
61.376
64.82
68.73
73.014
77.584
82.359
87.26
92.207
97.104
101.83
106.284
110.385
114.069
117.309
120.086
122.382
124.192
125.526
126.4
126.847
126.901
126.589
125.949
125.021
123.853
122.505
121.026
119.457
117.832
116.178
114.519
112.88
111.282
109.739
108.265
106.875
105.586
104.42
103.393
102.521
101.815
101.285
100.942
100.797
100.86
101.141
101.646
102.381
103.351
104.563
106.017
107.711
109.642
111.802
114.182
116.773
119.563
122.536
125.678
128.973
132.403
135.953
139.603
143.334
147.127
150.96
154.814
158.666
162.496
166.282
170.002
173.635
177.16
180.558
183.807
186.889
189.786
192.481
194.956
197.198
199.192
200.926
202.39
203.573
204.47
205.074
205.38
205.386
205.089
204.491
203.591
202.393
200.898
199.112
197.038
194.682
192.052
189.156
186
182.595
178.95
175.075
170.981
166.681
162.184
157.504
152.652
147.641
142.483
137.191
131.778
126.256
120.636
114.931
109.151
103.306
97.406
91.461
85.478
79.466
73.432
67.384
61.327
55.269
49.216
43.173
37.147
31.141
25.162
19.213
13.299
7.425
1.594
-4.19
-9.923
-15.602
-21.224
-26.784
-32.282
-37.713
-43.078
-48.373
-53.598
-58.75
-63.829
-68.832
-73.758
-78.606
-83.373
-88.058
-92.658
-97.173
-101.601
-105.941
-110.192
-114.354
-118.429
-122.417
-126.32
-130.138
-133.875
-137.532
-141.112
-144.617
-148.047
-151.405
-154.692
-157.912
-161.066
-164.159
-167.191
-170.166
-173.086
-175.952
-178.767
-181.531
-184.24
-186.891
-189.482
-192.013
-194.492
-196.919
-199.291
-201.601
-203.843
-206.008
-208.08
-210.035
-211.836
-213.447
-214.836
-215.976
-216.85
-217.438
-217.711
-217.641
-217.195
-216.346
-215.089
-213.423
-211.342
-208.857
-206.003
-202.85
-199.508
-196.085
-192.664
-189.312
-186.092
-183.083
-180.38
-178.063
-176.197
-174.822
-173.975
-173.743
-174.167
-175.172
-176.593
-178.135
-179.458
-180.291
-180.314
-179.089
-176.359
-172.136
-166.566
-160.081
-153.209
-146.357
-140.133
-135.33
-131.686
-127.864
-122.783
-115.556
-107.078
-99.511
-92.354
-82.04
-63.056
-30.782
15.462
71.433
131.134
191.166
248.091
298.668
338.203
357.823
351.828
319.201
263.484
193.314
116.981
40.7
-31.907
-99.394
-162.041
-221.407
-278.017
-332.362
-383.651
-429.364
-468.496
-500.688
-526.332
-547.484
-565.609
-581.582
-596.341
-610.049
-622.547
-633.813
-643.55
-651.106
-655.881
-657.29
-654.669
-647.86
-637.026
-622.188
-603.829
-582.891
-560.137
-536.449
-511.944
-485.406
-456.814
-427.045
-397.547
-371.029
-346.237
-318.861
-284.997
-239.98
-184.703
-125.092
-66.235
-14.011
29.064
64.769
94.046
117.991
137.143
150.493
158.175
161.44
161.83
161.065
160.227
159.69
159.57
159.863
160.44
160.915
160.677
159.243
156.408
152.202
146.841
140.548
133.5
125.936
118.167
110.447
102.94
95.732
88.839
82.272
76.08
70.319
65.005
60.143
55.727
51.735
48.165
45.031
42.341
40.108
38.355
37.083
36.293
35.978
36.092
36.594
37.442
38.574
39.957
41.579
43.433
45.539
47.932
50.638
53.689
57.113
60.911
65.092
69.67
74.661
80.109
86.04
92.461
99.393
106.846
114.83
123.353
132.389
141.886
151.778
161.998
172.484
183.201
194.107
205.147
216.26
227.384
238.477
249.519
260.462
271.23
281.717
291.818
301.463
310.608
319.224
327.275
334.715
341.485
347.54
352.85
357.388
361.109
363.949
365.832
366.724
366.647
365.668
363.851
361.238
357.855
353.725
348.888
343.396
337.298
330.631
323.421
315.713
307.569
299.082
290.348
281.431
272.356
263.12
253.726
244.195
234.557
224.84
215.063
205.243
195.411
185.614
175.9
166.304
156.846
147.531
138.362
129.357
120.547
111.973
103.669
95.661
87.968
80.615
73.623
67.012
60.786
54.939
49.463
44.353
39.607
35.228
31.211
27.548
24.228
21.238
18.564
16.193
14.107
12.29
10.722
9.384
8.262
7.342
6.611
6.055
5.659
5.409
5.291
5.292
5.399
5.599
5.879
6.228
6.636
7.095
7.597
8.136
8.705
9.3
9.916
10.55
11.199
11.86
12.532
13.214
13.905
14.607
15.319
16.043
16.779
17.528
18.292
19.071
19.866
20.676
21.501
22.341
23.195
24.061
24.938
25.825
26.718
27.615
28.514
29.411
30.302
31.182
32.047
32.894
33.716
34.51
35.271
35.997
36.682
37.324
37.919
38.463
38.953
39.384
39.754
40.061
40.301
40.475
40.581
40.621
40.597
40.51
40.364
40.163
39.909
39.609
39.267
38.89
38.482
38.051
37.605
37.153
36.702
36.262
35.841
35.447
35.088
34.771
34.499
34.277
34.109
33.998
33.947
33.96
34.041
34.193
34.42
34.726
35.113
35.581
36.126
36.744
37.428
38.168
38.954
39.777
40.623
41.482
42.346
43.209
44.061
44.894
45.69
46.43
47.098
47.684
48.177
48.568
48.852
49.03
49.114
49.132
49.099
49.024
48.903
48.723
48.472
48.141
47.718
47.188
46.536
45.734
44.767
43.634
42.317
40.796
39.022
36.919
34.438
31.562
28.282
24.613
20.564
16.145
11.403
6.412
1.248
-3.999
-9.262
-14.492
-19.609
-24.528
-29.138
-33.296
-36.904
-39.908
-42.254
-43.9
-44.795
-44.882
-44.174
-42.745
-40.667
-38.025
-34.887
-31.319
-27.441
-23.39
-19.315
-15.375
-11.671
-8.272
-5.251
-2.697
-0.713
0.585
1.152
0.999
0.137
-1.418
-3.663
-6.562
-10.001
-13.839
-17.922
-22.126
-26.38
-30.637
-34.837
-38.905
-42.75
-46.273
-49.423
-52.168
-54.472
-56.293
-57.574
-58.311
-58.579
-58.485
-58.159
-57.687
-57.112
-56.467
-55.792
-55.129
-54.525
-54.019
-53.627
-53.369
-53.28
-53.405
-53.807
-54.504
-55.46
-56.614
-57.888
-59.228
-60.609
-62.004
-63.385
-64.727
-66.014
-67.242
-68.419
-69.539
-70.585
-71.535
-72.36
-73.059
-73.652
-74.159
-74.608
-75.006
-75.358
-75.666
-75.934
-76.15
-76.297
-76.359
-76.335
-76.241
-76.096
-75.898
-75.623
-75.235
-74.717
-74.077
-73.35
-72.565
-71.728
-70.867
-70.064
-69.384
-68.88
-68.504
-68.066
-67.445
-66.654
-65.757
-64.873
-64.17
-63.765
-63.925
-65.115
-67.528
-71.075
-75.474
-80.179
-84.645
-88.485
-91.135
-91.87
-90.382
-86.698
-81.14
-74.425
-67.114
-59.55
-52.271
-45.926
-40.899
-37.374
-35.25
-34.104
-33.759
-34.238
-35.462
-37.307
-39.637
-42.323
-45.406
-49.073
-53.366
-58.187
-63.399
-68.82
-74.351
-79.947
-85.488
-90.797
-95.665
-99.895
-103.385
-106.092
-107.958
-108.972
-109.158
-108.588
-107.498
-106.173
-104.76
-103.399
-102.18
-100.97
-99.691
-98.289
-96.416
-93.792
-90.366
-85.974
-80.669
-74.916
-68.956
-62.975
-57.588
-53.201
-50.139
-49.108
-50.366
-53.702
-59.171
-66.635
-75.551
-85.471
-95.486
-103.907
-109.321
-110.373
-105.478
-93.497
-73.282
-43.681
-4.433
43.926
100.014
160.937
223.196
283.216
337.866
386.042
427.782
462.679
487.983
497.457
481.687
431.742
343.961
220.575
72.511
-83.824
-232.127
-357.088
-450.392
-510.066
-538.481
-541.66
-524.891
-494.319
-456.072
-416.458
-381.806
-354.149
-332.298
-312.376
-290.549
-266.749
-243.387
-224.012
-210.886
-203.623
-200.426
-198.922
-197.227
-194.283
-189.402
-182.483
-173.801
-163.736
-152.841
-141.712
-130.97
-121.331
-113.493
-107.813
-104.273
-102.657
-102.602
-103.745
-105.783
-108.338
-110.966
-113.302
-115.091
-116.192
-116.579
-116.25
-115.185
-113.389
-110.899
-107.767
-104.071
-99.896
-95.313
-90.398
-85.221
-79.872
-74.457
-69.103
-63.94
-59.059
-54.517
-50.349
-46.579
-43.225
-40.296
-37.77
-35.608
-33.773
-32.226
-30.94
-29.89
-29.036
-28.33
-27.72
-27.148
-26.569
-25.953
-25.268
-24.49
-23.594
-22.562
-21.383
-20.056
-18.573
-16.925
-15.097
-13.076
-10.853
-8.422
-5.777
-2.913
0.173
3.485
7.024
10.787
14.775
18.986
23.414
28.058
32.909
37.959
43.198
48.614
54.192
59.914
65.764
71.723
77.769
83.881
90.031
96.193
102.343
108.454
114.502
120.462
126.306
132.01
137.548
142.9
148.044
152.953
157.598
161.947
165.98
169.684
173.057
176.091
178.78
181.118
183.107
184.757
186.07
187.038
187.639
187.852
187.668
187.094
186.149
184.857
183.225
181.252
178.93
176.264
173.264
169.932
166.254
162.206
157.794
153.058
148.074
142.92
137.649
132.299
126.889
121.45
116.025
110.665
105.417
100.312
95.384
90.684
86.288
82.281
78.706
75.559
72.787
70.341
68.199
66.35
64.791
63.503
62.458
61.63
61.008
60.589
60.358
60.277
60.285
60.312
60.321
60.318
60.333
60.393
60.503
60.66
60.86
61.11
61.415
61.765
62.133
62.491
62.827
63.141
63.448
63.765
64.092
64.415
64.71
64.954
65.134
65.232
65.232
65.116
64.875
64.516
64.054
63.498
62.851
62.11
61.265
60.304
59.211
57.956
56.517
54.879
53.046
51.034
48.86
46.548
44.115
41.575
38.956
36.282
33.578
30.871
28.192
25.59
23.147
20.972
19.173
17.837
17.018
16.747
17.042
17.896
19.29
21.184
23.51
26.216
29.264
32.614
36.216
39.989
43.795
47.462
50.823
53.704
55.963
57.484
58.166
57.965
56.885
54.973
52.304
48.921
44.842
40.092
34.715
28.813
22.536
16.025
9.464
3.125
-2.675
-7.528
-11.056
-13.065
-13.392
-11.834
-8.322
-2.885
4.302
12.693
21.783
31.37
41.096
50.462
59.222
67.29
75.373
85.277
98.513
115.556
135.327
155.946
175.841
194.991
217.138
246.226
285.657
337.555
395.971
452.298
496.627
516.739
508.809
473.524
414.942
344.345
270.697
201.53
142.39
91.738
46.13
0.849
-48.069
-100.438
-154.09
-205.385
-251.317
-290.955
-324.361
-352.51
-376.142
-395.194
-409.607
-419.433
-425.043
-427.246
-426.711
-423.768
-418.62
-411.436
-402.312
-391.381
-378.685
-364.058
-347.512
-329.271
-309.604
-288.909
-267.607
-246.004
-224.437
-203.29
-182.811
-163.191
-144.605
-127.116
-110.785
-95.668
-81.748
-69.006
-57.437
-47.012
-37.715
-29.506
-22.293
-16.011
-10.618
-6.067
-2.328
0.653
2.971
4.704
5.919
6.685
7.05
7.085
6.876
6.5
6.041
5.545
5.028
4.51
4.014
3.555
3.155
2.82
2.527
2.271
2.046
1.843
1.658
1.469
1.239
0.928
0.494
-0.086
-0.808
-1.657
-2.606
-3.62
-4.662
-5.686
-6.638
-7.478
-8.164
-8.653
-8.896
-8.82
-8.358
-7.451
-6.046
-4.122
-1.66
1.376
4.975
9.083
13.683
18.764
24.392
30.739
37.849
45.634
53.989
62.767
71.78
80.865
89.667
97.633
104.523
110.411
115.561
120.467
125.573
131.193
137.879
146.402
157.145
170.097
184.896
200.784
217.172
233.708
249.854
264.918
278.437
290.181
300.24
309.056
316.879
323.697
329.56
334.538
338.664
341.982
344.397
345.647
345.587
344.214
341.564
337.768
332.968
327.237
320.68
313.446
305.665
297.499
289.095
280.533
271.88
263.189
254.491
245.825
237.219
228.65
220.081
211.457
202.696
193.761
184.637
175.289
165.678
155.737
145.376
134.56
123.297
111.609
99.542
87.146
74.48
61.647
48.781
36.006
23.447
11.198
-0.681
-12.106
-22.979
-33.191
-42.605
-51.131
-58.728
-65.365
-71.031
-75.745
-79.535
-82.479
-84.696
-86.286
-87.33
-87.895
-88.017
-87.757
-87.195
-86.415
-85.516
-84.581
-83.66
-82.807
-82.064
-81.452
-80.978
-80.614
-80.298
-79.993
-79.68
-79.354
-79.027
-78.701
-78.37
-78.029
-77.675
-77.306
-76.927
-76.536
-76.131
-75.723
-75.33
-74.983
-74.728
-74.599
-74.615
-74.79
-75.128
-75.631
-76.303
-77.139
-78.128
-79.259
-80.525
-81.917
-83.431
-85.056
-86.777
-88.577
-90.435
-92.331
-94.248
-96.169
-98.078
-99.959
-101.798
-103.585
-105.311
-106.966
-108.54
-110.023
-111.403
-112.672
-113.819
-114.838
-115.721
-116.461
-117.053
-117.496
-117.786
-117.923
-117.907
-117.739
-117.422
-116.958
-116.351
-115.607
-114.73
-113.728
-112.608
-111.378
-110.048
-108.628
-107.127
-105.555
-103.925
-102.245
-100.527
-98.782
-97.021
-95.252
-93.487
-91.736
-90.008
-88.312
-86.658
-85.053
-83.505
-82.022
-80.61
-79.274
-78.018
-76.847
-75.763
-74.77
-73.869
-73.062
-72.349
-71.729
-71.202
-70.766
-70.42
-70.158
-69.979
-69.877
-69.848
-69.886
-69.987
-70.143
-70.348
-70.597
-70.882
-71.196
-71.534
-71.887
-72.249
-72.613
-72.973
-73.322
-73.656
-73.967
-74.251
-74.504
-74.721
-74.898
-75.032
-75.118
-75.155
-75.138
-75.067
-74.939
-74.753
-74.509
-74.207
-73.847
-73.431
-72.96
-72.436
-71.862
-71.241
-70.574
-69.867
-69.122
-68.345
-67.54
-66.713
-65.868
-65.011
-64.147
-63.281
-62.419
-61.563
-60.719
-59.89
-59.081
-58.296
-57.54
-56.815
-56.124
-55.47
-54.853
-54.278
-53.744
-53.253
-52.805
-52.4
-52.04
-51.726
-51.461
-51.243
-51.07
-50.937
-50.843
-50.788
-50.773
-50.802
-50.875
-50.99
-51.149
-51.35
-51.592
-51.874
-52.189
-52.527
-52.882
-53.247
-53.624
-54.025
-54.454
-54.898
-55.335
-55.727
-56.05
-56.305
-56.502
-56.645
-56.726
-56.746
-56.733
-56.752
-56.826
-56.915
-56.885
-56.549
-55.86
-54.815
-53.413
-51.832
-50.231
-48.731
-47.867
-47.664
-47.85
-49.102
-51.392
-55.606
-62.956
-71.35
-79.054
-83.5
-81.823
-76.189
-68.768
-61.547
-57.168
-54.404
-52.169
-50.66
-49.244
-48.567
-49.118
-50.222
-51.639
-53.194
-54.587
-55.793
-56.812
-57.56
-58.126
-58.729
-59.444
-60.27
-61.183
-62.114
-63.029
-63.918
-64.73
-65.387
-65.809
-65.935
-65.721
-65.089
-63.963
-62.275
-59.952
-57
-53.488
-49.469
-45.013
-40.197
-35.084
-29.773
-24.379
-18.986
-13.681
-8.549
-3.658
0.864
4.887
8.307
11.007
12.936
14.109
14.525
14.209
13.223
11.623
9.509
7.018
4.243
1.269
-1.81
-4.926
-7.972
-10.83
-13.409
-15.598
-17.315
-18.516
-19.14
-19.152
-18.563
-17.385
-15.672
-13.531
-11.035
-8.26
-5.306
-2.25
0.811
3.753
6.483
8.885
10.855
12.294
13.054
13.075
12.389
11.093
9.431
7.686
6.077
4.895
4.491
5.015
6.536
8.934
11.686
14.367
16.627
18.073
18.589
18.216
16.959
15.263
14.149
15.1
20.345
31.768
49.851
73.324
99.942
128.601
160.767
200.559
251.074
311.762
377.556
440.29
494.823
539.476
574.934
601.114
610.809
593.237
538.28
441.117
309.062
157.437
4.466
-131.859
-241.626
-321.804
-372.211
-397.104
-399.151
-379.664
-344.108
-298.514
-251.488
-212.289
-183.756
-164.469
-149.564
-133.904
-116.767
-100.229
-87.761
-81.495
-80.685
-83.176
-86.106
-87.308
-85.737
-81.075
-73.66
-64.081
-53.019
-41.226
-29.476
-18.583
-9.325
-2.159
2.804
5.689
6.806
6.506
5.127
3.017
0.538
-2.041
-4.538
-6.786
-8.672
-10.124
-11.084
-11.531
-11.482
-10.935
-9.896
-8.401
-6.496
-4.241
-1.713
1.041
3.977
7.034
10.137
13.186
16.067
18.706
21.06
23.09
24.78
26.113
27.087
27.726
28.069
28.152
28.005
27.654
27.117
26.425
25.617
24.738
23.839
22.962
22.135
21.39
20.751
20.239
19.874
19.662
19.606
19.71
19.982
20.434
21.077
21.919
22.964
24.218
25.683
27.36
29.252
31.359
33.679
36.21
38.949
41.894
45.042
48.388
51.922
55.635
59.514
63.546
67.716
72.007
76.402
80.881
85.426
90.017
94.635
99.258
103.866
108.438
112.953
117.388
121.724
125.938
130.012
133.924
137.656
141.188
144.504
147.586
150.419
152.989
155.282
157.287
158.992
160.391
161.475
162.238
162.677
162.79
162.574
162.03
161.162
159.973
158.468
156.655
154.542
152.138
149.455
146.505
143.301
139.858
136.19
132.314
128.245
124
119.598
115.055
110.39
105.62
100.764
95.838
90.86
85.847
80.815
75.779
70.755
65.755
60.794
55.884
51.037
46.264
41.575
36.98
32.488
28.107
23.842
19.701
15.687
11.805
8.057
4.447
0.976
-2.356
-5.548
-8.6
-11.513
-14.288
-16.926
-19.429
-21.799
-24.039
-26.151
-28.137
-29.998
-31.738
-33.357
-34.856
-36.237
-37.5
-38.648
-39.68
-40.599
-41.406
-42.104
-42.695
-43.183
-43.572
-43.865
-44.065
-44.177
-44.205
-44.151
-44.017
-43.807
-43.522
-43.167
-42.747
-42.265
-41.728
-41.139
-40.506
-39.835
-39.134
-38.407
-37.658
-36.891
-36.111
-35.326
-34.55
-33.795
-33.065
-32.365
-31.699
-31.061
-30.449
-29.844
-29.213
-28.525
-27.747
-26.852
-25.824
-24.641
-23.28
-21.717
-19.918
-17.862
-15.544
-12.958
-10.11
-7.024
-3.73
-0.294
3.162
6.523
9.671
12.498
14.937
16.91
18.312
19.052
19.035
18.186
16.488
13.911
10.392
5.966
0.756
-5.002
-10.864
-16.392
-21.247
-25.026
-27.29
-27.793
-26.445
-23.402
-19.242
-14.529
-9.617
-4.96
-1.028
2.09
4.731
7.666
12.298
20.165
32.559
50.931
76.877
110.84
151.515
197.115
245.226
294.704
347.454
403.837
460.721
511.924
546.741
555.047
533.426
482.864
409.215
323.311
233.183
145.924
68.379
1.704
-53.806
-99.544
-140.095
-178.702
-218.334
-260.584
-305.074
-349.665
-390.637
-425.445
-451.902
-469.736
-481.375
-488.391
-492.241
-493.986
-492.911
-488.694
-481.635
-471.856
-459.768
-445.73
-429.598
-411.152
-390.485
-367.816
-343.457
-317.904
-291.592
-264.84
-238.056
-211.65
-185.939
-161.258
-137.858
-115.891
-95.52
-76.873
-60.059
-45.206
-32.375
-21.548
-12.661
-5.572
-0.137
3.723
6.096
7.083
6.809
5.476
3.262
0.295
-3.256
-7.197
-11.29
-15.237
-18.829
-21.962
-24.577
-26.676
-28.26
-29.283
-29.732
-29.629
-28.996
-27.889
-26.331
-24.293
-21.81
-18.974
-15.925
-12.866
-9.928
-7.159
-4.591
-2.226
-0.061
1.892
3.655
5.29
6.832
8.313
9.737
11.066
12.316
13.542
14.831
16.306
18.057
20.133
22.581
25.44
28.734
32.49
36.707
41.358
46.44
51.957
57.916
64.343
71.236
78.566
86.29
94.344
102.659
111.183
119.863
128.648
137.503
146.391
155.278
164.142
172.956
181.691
190.334
198.866
207.276
215.578
223.798
231.976
240.172
248.425
256.752
265.161
273.637
282.162
290.718
299.268
307.765
316.145
324.334
332.248
339.807
346.9
353.392
359.131
363.949
367.702
370.284
371.602
371.584
370.17
367.321
363.027
357.309
350.212
341.785
332.089
321.19
309.178
296.177
282.336
267.823
252.793
237.394
221.771
206.072
190.451
175.027
159.894
145.121
130.758
116.855
103.471
90.659
78.462
66.915
56.027
45.79
36.204
27.239
18.86
11.008
3.601
-3.419
-10.084
-16.417
-22.424
-28.115
-33.516
-38.649
-43.541
-48.229
-52.738
-57.089
-61.304
-65.384
-69.312
-73.06
-76.572
-79.809
-82.752
-85.391
-87.729
-89.777
-91.534
-93.01
-94.215
-95.151
-95.818
-96.224
-96.37
-96.27
-95.952
-95.448
-94.803
-94.062
-93.256
-92.411
-91.549
-90.684
-89.829
-88.995
-88.184
-87.402
-86.658
-85.956
-85.308
-84.717
-84.184
-83.709
-83.285
-82.908
-82.572
-82.273
-82.007
-81.772
-81.564
-81.384
-81.232
-81.109
-81.012
-80.941
-80.891
-80.86
-80.843
-80.838
-80.839
-80.843
-80.845
-80.844
-80.837
-80.821
-80.795
-80.756
-80.704
-80.636
-80.552
-80.451
-80.333
-80.197
-80.043
-79.872
-79.684
-79.48
-79.261
-79.027
-78.779
-78.518
-78.245
-77.959
-77.661
-77.352
-77.032
-76.7
-76.358
-76.006
-75.645
-75.275
-74.898
-74.515
-74.125
-73.731
-73.333
-72.932
-72.528
-72.122
-71.715
-71.308
-70.901
-70.495
-70.091
-69.691
-69.294
-68.903
-68.519
-68.143
-67.777
-67.423
-67.083
-66.758
-66.452
-66.166
-65.904
-65.669
-65.462
-65.288
-65.149
-65.049
-64.99
-64.976
-65.009
-65.092
-65.227
-65.418
-65.665
-65.971
-66.337
-66.766
-67.259
-67.816
-68.439
-69.127
-69.881
-70.701
-71.585
-72.532
-73.54
-74.607
-75.731
-76.908
-78.134
-79.406
-80.719
-82.067
-83.445
-84.848
-86.268
-87.7
-89.135
-90.566
-91.987
-93.389
-94.765
-96.106
-97.407
-98.659
-99.854
-100.985
-102.045
-103.026
-103.923
-104.728
-105.435
-106.039
-106.534
-106.916
-107.181
-107.326
-107.347
-107.242
-107.01
-106.65
-106.161
-105.544
-104.8
-103.931
-102.94
-101.831
-100.608
-99.275
-97.839
-96.305
-94.68
-92.971
-91.184
-89.329
-87.412
-85.443
-83.431
-81.385
-79.315
-77.231
-75.143
-73.062
-70.997
-68.958
-66.954
-64.995
-63.089
-61.245
-59.472
-57.778
-56.171
-54.659
-53.248
-51.945
-50.756
-49.686
-48.738
-47.915
-47.221
-46.658
-46.228
-45.931
-45.768
-45.738
-45.841
-46.075
-46.437
-46.924
-47.529
-48.246
-49.069
-49.988
-50.995
-52.079
-53.231
-54.441
-55.699
-56.996
-58.322
-59.665
-61.015
-62.361
-63.689
-64.985
-66.233
-67.416
-68.519
-69.528
-70.428
-71.209
-71.856
-72.358
-72.708
-72.896
-72.91
-72.737
-72.359
-71.761
-70.939
-69.893
-68.628
-67.161
-65.503
-63.668
-61.681
-59.556
-57.302
-54.919
-52.393
-49.708
-46.861
-43.861
-40.731
-37.496
-34.161
-30.729
-27.202
-23.565
-19.808
-15.917
-11.851
-7.591
-3.15
1.438
6.098
10.739
15.301
19.733
24.001
28.077
31.916
35.472
38.717
41.601
44.075
46.075
47.494
48.259
48.351
47.782
46.614
44.945
42.839
40.363
37.595
34.593
31.425
28.151
24.799
21.419
18.08
14.87
11.918
9.325
7.13
5.358
3.989
2.958
2.22
1.704
1.304
0.942
0.533
-0.003
-0.712
-1.663
-2.938
-4.635
-6.907
-9.822
-13.343
-17.374
-21.708
-26.086
-30.296
-34.034
-36.894
-38.666
-39.29
-38.871
-37.815
-36.504
-35.232
-34.348
-34.137
-34.718
-36.034
-37.72
-39.129
-38.92
-34.978
-25.566
-9.217
13.378
38.964
66.079
94.988
129.047
174.589
233.536
303.066
376.977
446.738
507.417
556.763
591.642
607.316
595.377
547.691
461.438
339.249
192.009
35.385
-114.706
-242.494
-338.82
-400.951
-431.39
-436.955
-422.766
-393.944
-354.541
-309.164
-265.744
-228.875
-200.966
-181.087
-163.532
-145.781
-127.486
-109.463
-95.295
-86.044
-80.401
-76.91
-72.945
-66.746
-58.29
-47.935
-36.322
-24.266
-12.365
-1.113
8.738
16.455
21.746
24.566
25.111
23.81
21.053
17.185
12.646
7.888
3.259
-0.92
-4.458
-7.287
-9.347
-10.617
-11.097
-10.799
-9.761
-8.049
-5.744
-2.934
0.283
3.819
7.573
11.438
15.294
18.999
22.45
25.58
28.346
30.729
32.718
34.297
35.482
36.312
36.829
37.077
37.097
36.918
36.579
36.13
35.623
35.114
34.648
34.253
33.953
33.771
33.722
33.824
34.085
34.503
35.08
35.822
36.735
37.831
39.115
40.59
42.256
44.116
46.173
48.427
50.881
53.534
56.385
59.432
62.676
66.114
69.742
73.554
77.542
81.695
86.003
90.455
95.039
99.739
104.542
109.434
114.4
119.424
124.49
129.582
134.682
139.773
144.837
149.857
154.813
159.688
164.463
169.121
173.644
178.016
182.218
186.236
190.053
193.655
197.029
200.163
203.044
205.662
208.008
210.073
211.851
213.336
214.522
215.406
215.986
216.26
216.228
215.892
215.252
214.313
213.079
211.556
209.75
207.669
205.322
202.718
199.87
196.788
193.486
189.975
186.272
182.39
178.344
174.15
169.824
165.382
160.84
156.213
151.518
146.77
141.984
137.176
132.36
127.551
122.762
118.008
113.301
108.653
104.077
99.583
95.18
90.88
86.688
82.613
78.662
74.84
71.152
67.602
64.193
60.928
57.808
54.834
52.006
49.321
46.779
44.375
42.108
39.973
37.965
36.079
34.308
32.648
31.092
29.632
28.26
26.968
25.748
24.59
23.485
22.422
21.39
20.378
19.376
18.375
17.363
16.331
15.269
14.171
13.029
11.834
10.58
9.257
7.859
6.378
4.809
3.146
1.387
-0.473
-2.433
-4.491
-6.642
-8.882
-11.21
-13.629
-16.138
-18.731
-21.398
-24.127
-26.902
-29.702
-32.5
-35.259
-37.94
-40.512
-42.946
-45.224
-47.322
-49.216
-50.872
-52.252
-53.324
-54.065
-54.461
-54.503
-54.189
-53.539
-52.597
-51.439
-50.135
-48.744
-47.316
-45.892
-44.533
-43.314
-42.309
-41.572
-41.16
-41.144
-41.559
-42.404
-43.588
-44.888
-46.06
-46.89
-47.154
-46.601
-45.038
-42.353
-38.688
-34.513
-30.28
-26.25
-22.663
-19.805
-17.977
-17.464
-17.321
-15.23
-9.197
2.286
18.004
34.183
49.145
63.153
80.759
110.473
157.238
222.219
300.337
379.789
448.901
497.549
519.962
515.408
486.46
437.064
370.411
291.965
206.669
120.694
43.146
-22.209
-74.171
-114.783
-151.63
-188.656
-226.681
-264.872
-299.194
-327.929
-352.201
-373.515
-393.737
-413.501
-432.167
-449.131
-463.948
-476.266
-485.523
-490.973
-492.192
-489.001
-481.517
-469.932
-454.177
-434.466
-411.458
-386.034
-359.213
-331.889
-304.693
-278.339
-253.77
-231.554
-211.904
-194.753
-179.628
-166.202
-154.37
-143.819
-134.098
-124.954
-116.27
-108.166
-101.056
-95.137
-90.402
-86.935
-84.806
-84.01
-84.476
-85.942
-87.993
-90.327
-92.739
-95.04
-97.075
-98.71
-99.838
-100.446
-100.585
-100.298
-99.617
-98.545
-97.081
-95.251
-93.107
-90.717
-88.146
-85.46
-82.725
-80.029
-77.469
-75.112
-72.986
-71.091
-69.401
-67.891
-66.532
-65.286
-64.107
-62.947
-61.756
-60.487
-59.098
-57.54
-55.761
-53.699
-51.29
-48.484
-45.248
-41.557
-37.396
-32.758
-27.634
-22.026
-15.941
-9.381
-2.353
5.131
13.06
21.413
30.159
39.263
48.681
58.359
68.255
78.323
88.525
98.829
109.196
119.588
129.974
140.313
150.573
160.74
170.797
180.736
190.571
200.309
209.97
219.594
229.199
238.789
248.361
257.888
267.346
276.706
285.929
294.97
303.778
312.272
320.367
327.975
334.977
341.265
346.726
351.215
354.617
356.843
357.817
357.495
355.847
352.84
348.455
342.699
335.593
327.19
317.565
306.788
294.954
282.162
268.519
254.176
239.279
223.956
208.33
192.515
176.62
160.781
145.144
129.82
114.905
100.475
86.585
73.309
60.722
48.881
37.828
27.572
18.104
9.424
1.532
-5.59
-11.976
-17.694
-22.846
-27.501
-31.704
-35.501
-38.925
-42.03
-44.892
-47.562
-50.073
-52.45
-54.706
-56.856
-58.929
-60.922
-62.817
-64.575
-66.134
-67.457
-68.534
-69.352
-69.908
-70.191
-70.179
-69.871
-69.284
-68.431
-67.33
-65.997
-64.437
-62.677
-60.756
-58.716
-56.608
-54.473
-52.335
-50.219
-48.146
-46.137
-44.209
-42.37
-40.62
-38.96
-37.392
-35.92
-34.547
-33.274
-32.092
-30.993
-29.97
-29.016
-28.123
-27.287
-26.499
-25.754
-25.048
-24.376
-23.738
-23.129
-22.544
-21.977
-21.423
-20.874
-20.327
-19.774
-19.209
-18.627
-18.024
-17.396
-16.74
-16.055
-15.339
-14.59
-13.811
-13.001
-12.162
-11.298
-10.411
-9.507
-8.59
-7.666
-6.74
-5.821
-4.914
-4.027
-3.167
-2.342
-1.56
-0.827
-0.151
0.461
1
1.46
1.834
2.115
2.295
2.37
2.332
2.176
1.899
1.496
0.964
0.301
-0.495
-1.423
-2.484
-3.676
-4.997
-6.443
-8.011
-9.694
-11.488
-13.383
-15.374
-17.451
-19.605
-21.826
-24.103
-26.425
-28.782
-31.16
-33.55
-35.938
-38.312
-40.661
-42.971
-45.231
-47.429
-49.553
-51.592
-53.535
-55.372
-57.093
-58.689
-60.151
-61.472
-62.646
-63.666
-64.528
-65.227
-65.761
-66.129
-66.329
-66.362
-66.23
-65.934
-65.478
-64.868
-64.108
-63.205
-62.165
-60.996
-59.707
-58.306
-56.803
-55.207
-53.528
-51.776
-49.962
-48.096
-46.19
-44.254
-42.298
-40.332
-38.367
-36.412
-34.476
-32.568
-30.696
-28.869
-27.092
-25.373
-23.718
-22.132
-20.619
-19.183
-17.827
-16.553
-15.363
-14.257
-13.235
-12.298
-11.445
-10.674
-9.986
-9.377
-8.848
-8.395
-8.018
-7.714
-7.481
-7.317
-7.22
-7.186
-7.215
-7.305
-7.456
-7.666
-7.935
-8.262
-8.649
-9.096
-9.603
-10.172
-10.802
-11.496
-12.256
-13.083
-13.981
-14.952
-15.999
-17.124
-18.33
-19.62
-20.995
-22.456
-24.003
-25.635
-27.352
-29.153
-31.032
-32.988
-35.017
-37.116
-39.282
-41.509
-43.792
-46.124
-48.498
-50.906
-53.337
-55.778
-58.215
-60.631
-63.014
-65.349
-67.622
-69.819
-71.923
-73.922
-75.803
-77.552
-79.155
-80.592
-81.838
-82.875
-83.697
-84.301
-84.691
-84.871
-84.841
-84.609
-84.189
-83.589
-82.809
-81.839
-80.651
-79.234
-77.585
-75.718
-73.663
-71.433
-69.029
-66.45
-63.692
-60.751
-57.632
-54.319
-50.776
-47
-43.011
-38.864
-34.656
-30.458
-26.317
-22.273
-18.347
-14.574
-11.009
-7.696
-4.666
-1.962
0.376
2.281
3.645
4.408
4.56
4.127
3.194
1.824
0.052
-2.074
-4.504
-7.182
-10.041
-13.034
-16.14
-19.317
-22.511
-25.636
-28.569
-31.224
-33.571
-35.602
-37.351
-38.862
-40.162
-41.313
-42.408
-43.525
-44.742
-46.132
-47.732
-49.61
-51.859
-54.547
-57.789
-61.705
-66.31
-71.575
-77.387
-83.458
-89.484
-95.195
-100.208
-104.13
-106.747
-107.903
-107.686
-106.616
-105.236
-103.987
-103.347
-103.746
-105.374
-108.322
-112.405
-116.032
-116.831
-112.971
-102.429
-85.235
-63.899
-38.613
-9.024
26.772
74.295
134.64
206.045
285.374
364.705
437.685
497.695
535.651
543.794
515.272
448.4
347.713
222.698
86.07
-51.32
-178.866
-288.429
-375.436
-435.68
-469.772
-480.263
-470.004
-445.249
-411.471
-375.063
-342.294
-314.982
-292.681
-272.313
-250.808
-228.372
-206.969
-189.528
-177.833
-171.373
-168.553
-167.27
-165.822
-163.192
-158.619
-151.917
-143.326
-133.229
-122.218
-110.901
-99.857
-89.769
-81.32
-74.886
-70.506
-68.017
-67.097
-67.406
-68.674
-70.583
-72.773
-74.972
-76.971
-78.62
-79.837
-80.565
-80.749
-80.37
-79.442
-77.973
-75.997
-73.559
-70.708
-67.506
-64.007
-60.254
-56.288
-52.168
-47.97
-43.775
-39.672
-35.718
-31.95
-28.398
-25.078
-21.993
-19.132
-16.47
-13.97
-11.599
-9.335
-7.157
-5.048
-2.983
-0.933
1.135
3.262
5.475
7.796
10.244
12.831
15.567
18.455
21.493
24.671
27.984
31.429
35.003
38.706
42.537
46.49
50.559
54.739
59.021
63.4
67.867
72.414
77.034
81.718
86.46
91.253
96.09
100.963
105.86
110.771
115.684
120.59
125.475
130.327
135.135
139.886
144.57
149.175
153.691
158.107
162.412
166.597
170.649
174.561
178.321
181.92
185.35
188.599
191.66
194.523
197.181
199.626
201.85
203.848
205.613
207.141
208.426
209.466
210.256
210.795
211.081
211.114
210.894
210.421
209.697
208.726
207.51
206.054
204.363
202.441
200.295
197.931
195.357
192.581
189.61
186.456
183.126
179.632
175.985
172.197
168.28
164.246
160.109
155.882
151.578
147.21
142.792
138.336
133.857
129.365
124.874
120.396
115.942
111.523
107.149
102.83
98.576
94.394
90.294
86.283
82.366
78.551
74.842
71.244
67.762
64.398
61.155
58.036
55.042
52.174
49.433
46.817
44.326
41.957
39.707
37.574
35.554
33.643
31.837
30.131
28.52
27
25.566
24.212
22.933
21.721
20.573
19.481
18.438
17.435
16.465
15.519
14.59
13.67
12.75
11.822
10.879
9.917
8.93
7.911
6.856
5.755
4.603
3.392
2.119
0.778
-0.636
-2.127
-3.696
-5.34
-7.056
-8.844
-10.708
-12.656
-14.696
-16.826
-19.044
-21.343
-23.709
-26.125
-28.567
-30.992
-33.361
-35.639
-37.793
-39.803
-41.648
-43.3
-44.721
-45.869
-46.705
-47.208
-47.368
-47.181
-46.668
-45.863
-44.832
-43.683
-42.515
-41.426
-40.509
-39.844
-39.52
-39.639
-40.284
-41.552
-43.558
-46.349
-49.916
-54.181
-58.913
-63.851
-68.745
-73.261
-77.031
-79.776
-81.29
-81.618
-81.172
-80.361
-79.488
-78.781
-78.425
-78.684
-79.732
-81.234
-81.67
-78.876
-71.099
-57.424
-38.962
-17.449
6.857
34.884
70.18
116.609
175.256
245.281
321.144
394.159
455.94
497.525
513.625
503.719
469.326
414.778
345.101
264.259
177.339
90.599
9.159
-63.351
-126.608
-184.28
-239.608
-294.009
-346.482
-393.597
-433.189
-464.934
-489.78
-509.814
-526.324
-539.801
-550.706
-558.975
-564.437
-567.088
-566.638
-562.756
-555.285
-543.942
-528.466
-508.978
-485.808
-459.416
-430.466
-399.614
-367.467
-334.727
-302.059
-269.975
-238.914
-209.242
-181.241
-155.197
-131.357
-109.902
-90.963
-74.602
-60.821
-49.575
-40.74
-34.144
-29.574
-26.787
-25.554
-25.654
-26.831
-28.813
-31.331
-34.111
-36.902
-39.471
-41.583
-43.065
-43.807
-43.751
-42.905
-41.304
-38.997
-36.061
-32.58
-28.639
-24.347
-19.817
-15.156
-10.487
-5.932
-1.608
2.353
5.862
8.875
11.375
13.382
14.927
16.049
16.8
17.252
17.469
17.518
17.463
17.357
17.267
17.264
17.418
17.808
18.493
19.514
20.906
22.69
24.885
27.503
30.551
34.02
37.909
42.218
46.953
52.125
57.734
63.769
70.217
77.058
84.27
91.827
99.697
107.837
116.207
124.77
133.493
142.352
151.318
160.362
169.453
178.555
187.643
196.71
205.75
214.767
223.77
232.765
241.776
250.837
259.973
269.194
278.496
287.859
297.251
306.632
315.956
325.168
334.196
342.94
351.291
359.122
366.31
372.742
378.292
382.824
386.224
388.401
389.288
388.851
387.071
383.95
379.506
373.774
366.822
358.742
349.654
339.699
329.013
317.721
305.959
293.869
281.58
269.206
256.84
244.548
232.391
220.423
208.684
197.207
186.002
175.064
164.372
153.89
143.59
133.459
123.479
113.636
103.92
94.33
84.875
75.583
66.476
57.573
48.897
40.47
32.32
24.48
16.986
9.874
3.173
-3.096
-8.918
-14.284
-19.189
-23.635
-27.629
-31.19
-34.333
-37.074
-39.43
-41.417
-43.053
-44.363
-45.368
-46.092
-46.559
-46.789
-46.806
-46.63
-46.281
-45.778
-45.14
-44.382
-43.522
-42.576
-41.563
-40.5
-39.404
-38.29
-37.174
-36.07
-34.993
-33.954
-32.965
-32.034
-31.171
-30.383
-29.677
-29.059
-28.533
-28.102
-27.769
-27.538
-27.407
-27.378
-27.45
-27.623
-27.894
-28.262
-28.724
-29.277
-29.918
-30.644
-31.45
-32.333
-33.288
-34.31
-35.395
-36.536
-37.729
-38.969
-40.249
-41.563
-42.905
-44.271
-45.653
-47.047
-48.446
-49.847
-51.243
-52.629
-54.002
-55.356
-56.687
-57.992
-59.266
-60.506
-61.71
-62.873
-63.995
-65.072
-66.102
-67.085
-68.017
-68.899
-69.729
-70.507
-71.231
-71.901
-72.517
-73.08
-73.59
-74.048
-74.455
-74.811
-75.12
-75.382
-75.6
-75.775
-75.911
-76.01
-76.075
-76.108
-76.112
-76.09
-76.045
-75.981
-75.898
-75.801
-75.692
-75.572
-75.445
-75.311
-75.173
-75.032
-74.89
-74.749
-74.608
-74.47
-74.335
-74.204
-74.078
-73.956
-73.838
-73.726
-73.618
-73.513
-73.411
-73.312
-73.213
-73.114
-73.013
-72.909
-72.8
-72.684
-72.559
-72.423
-72.275
-72.112
-71.934
-71.739
-71.525
-71.291
-71.037
-70.761
-70.465
-70.146
-69.806
-69.445
-69.062
-68.659
-68.236
-67.794
-67.334
-66.858
-66.367
-65.862
-65.347
-64.822
-64.29
-63.753
-63.214
-62.675
-62.138
-61.608
-61.085
-60.574
-60.077
-59.597
-59.137
-58.699
-58.286
-57.899
-57.542
-57.214
-56.918
-56.654
-56.424
-56.228
-56.066
-55.938
-55.843
-55.782
-55.753
-55.754
-55.786
-55.845
-55.93
-56.039
-56.169
-56.318
-56.483
-56.661
-56.849
-57.045
-57.243
-57.442
-57.637
-57.825
-58.001
-58.162
-58.305
-58.424
-58.518
-58.582
-58.613
-58.608
-58.565
-58.48
-58.351
-58.175
-57.95
-57.674
-57.345
-56.961
-56.519
-56.019
-55.459
-54.837
-54.152
-53.404
-52.592
-51.713
-50.768
-49.756
-48.677
-47.528
-46.31
-45.022
-43.663
-42.235
-40.737
-39.17
-37.533
-35.827
-34.053
-32.211
-30.303
-28.328
-26.288
-24.184
-22.017
-19.789
-17.503
-15.161
-12.767
-10.323
-7.836
-5.309
-2.747
-0.156
2.459
5.09
7.73
10.37
13.003
15.619
18.208
20.755
23.249
25.676
28.026
30.284
32.437
34.471
36.374
38.135
39.745
41.192
42.466
43.551
44.438
45.118
45.582
45.826
45.841
45.62
45.164
44.476
43.562
42.427
41.071
39.485
37.668
35.627
33.369
30.909
28.26
25.435
22.462
19.38
16.227
13.042
9.857
6.69
3.565
0.511
-2.44
-5.242
-7.851
-10.239
-12.379
-14.256
-15.877
-17.269
-18.442
-19.437
-20.361
-21.315
-22.417
-23.791
-25.451
-27.377
-29.69
-32.55
-35.896
-39.645
-43.567
-47.23
-50.524
-53.417
-55.58
-56.668
-56.623
-55.392
-53.351
-51.405
-49.919
-49.197
-49.773
-51.797
-55.298
-60.363
-66.293
-71.596
-74.543
-72.619
-63.572
-46.496
-22.159
7.617
41.937
81.394
129.086
188.117
257.653
333.97
410.316
478.723
534.621
574.358
593.399
588.28
553.418
484.567
383.249
253.293
104.094
-51.313
-199.966
-328.228
-426.614
-489.578
-517.318
-514.133
-484.126
-435.7
-376.469
-314.548
-261.311
-220.77
-192.901
-174.597
-157.539
-138.547
-118.379
-98.916
-84.408
-75.972
-72.045
-70.661
-69.186
-66.156
-61.232
-54.492
-46.5
-37.826
-28.891
-20.268
-12.496
-6.091
-1.616
0.763
1.221
0.058
-2.306
-5.456
-9.038
-12.66
-15.881
-18.423
-20.165
-21.058
-21.159
-20.514
-19.136
-17.088
-14.475
-11.398
-7.96
-4.271
-0.419
3.489
7.322
10.976
14.353
17.383
20.033
22.284
24.127
25.57
26.631
27.336
27.723
27.835
27.709
27.393
26.934
26.386
25.812
25.262
24.776
24.388
24.12
23.989
24.012
24.197
24.548
25.067
25.759
26.627
27.679
28.919
30.349
31.968
33.773
35.761
37.933
40.287
42.821
45.531
48.414
51.467
54.686
58.065
61.595
65.267
69.066
72.979
76.994
81.094
85.263
89.485
93.743
98.021
102.302
106.571
110.81
115.002
119.13
123.177
127.127
130.964
134.671
138.233
141.634
144.859
147.895
150.729
153.346
155.736
157.886
159.786
161.426
162.799
163.896
164.712
165.24
165.479
165.426
165.079
164.44
163.508
162.288
160.783
158.998
156.937
154.609
152.02
149.18
146.097
142.783
139.248
135.505
131.567
127.447
123.159
118.718
114.138
109.435
104.625
99.723
94.747
89.713
84.637
79.535
74.425
69.322
64.242
59.199
54.209
49.285
44.44
39.686
35.037
30.502
26.091
21.815
17.683
13.701
9.878
6.218
2.727
-0.591
-3.734
-6.697
-9.481
-12.084
-14.506
-16.748
-18.81
-20.694
-22.403
-23.941
-25.31
-26.516
-27.563
-28.458
-29.205
-29.811
-30.281
-30.623
-30.843
-30.947
-30.943
-30.839
-30.642
-30.361
-30.003
-29.578
-29.097
-28.568
-28.001
-27.405
-26.791
-26.168
-25.545
-24.931
-24.333
-23.759
-23.216
-22.714
-22.261
-21.865
-21.533
-21.274
-21.096
-21.005
-21.007
-21.107
-21.306
-21.605
-22.006
-22.513
-23.137
-23.881
-24.745
-25.726
-26.819
-28.015
-29.3
-30.649
-32.028
-33.403
-34.745
-36.029
-37.239
-38.357
-39.361
-40.222
-40.904
-41.382
-41.638
-41.662
-41.453
-41.015
-40.369
-39.577
-38.727
-37.91
-37.206
-36.661
-36.307
-36.2
-36.404
-36.996
-38.041
-39.564
-41.602
-44.224
-47.45
-51.229
-55.394
-59.616
-63.545
-66.916
-69.414
-70.676
-70.463
-68.704
-65.641
-61.786
-57.596
-53.43
-49.766
-47.235
-46.289
-46.355
-45.787
-42.931
-36.665
-27.765
-17.864
-6.247
9.456
33.26
69.368
118.253
177.818
244.796
314.086
379.85
435.538
472.808
484.17
466.769
422.257
356.909
281.445
204.973
132.899
68.572
9.942
-46.587
-101.641
-155.905
-207.715
-253.477
-292.124
-323.463
-347.833
-367.005
-382.426
-394.829
-404.967
-413.428
-420.306
-425.632
-429.618
-432.138
-432.793
-431.298
-427.184
-419.951
-409.602
-396.156
-379.455
-359.757
-337.578
-313.642
-288.928
-264.149
-239.847
-216.845
-195.984
-177.942
-162.623
-148.676
-135.634
-124.207
-116.053
-114.165
-118.439
-125.325
-130.15
-127.557
-116.024
-99.027
-82.339
-71.375
-68.916
-73.852
-81.595
-88.528
-92.464
-92.453
-90.584
-88.261
-85.874
-84.168
-82.524
-80.469
-78.277
-75.868
-73.332
-70.85
-68.331
-65.719
-63.06
-60.369
-57.683
-55.086
-52.667
-50.475
-48.544
-46.883
-45.461
-44.25
-43.228
-42.36
-41.6
-40.91
-40.25
-39.584
-38.881
-38.105
-37.203
-36.123
-34.801
-33.191
-31.257
-28.972
-26.314
-23.271
-19.828
-15.979
-11.725
-7.06
-1.98
3.515
9.424
15.737
22.437
29.501
36.898
44.587
52.533
60.699
69.051
77.564
86.214
94.978
103.834
112.754
121.72
130.728
139.778
148.877
158.035
167.263
176.583
186.031
195.635
205.408
215.351
225.446
235.664
245.964
256.299
266.616
276.837
286.865
296.585
305.871
314.6
322.657
329.914
336.234
341.496
345.603
348.481
350.088
350.4
349.411
347.135
343.602
338.876
333.045
326.222
318.54
310.127
301.101
291.588
281.724
271.631
261.418
251.174
240.961
230.837
220.849
211.035
201.419
192.005
182.784
173.73
164.805
155.982
147.246
138.58
129.97
121.408
112.892
104.434
96.06
87.793
79.656
71.673
63.87
56.278
48.936
41.882
35.157
28.793
22.814
17.238
12.078
7.342
3.032
-0.857
-4.339
-7.425
-10.128
-12.46
-14.434
-16.068
-17.38
-18.392
-19.125
-19.6
-19.837
-19.856
-19.677
-19.318
-18.798
-18.134
-17.34
-16.435
-15.434
-14.355
-13.216
-12.033
-10.821
-9.596
-8.372
-7.163
-5.981
-4.835
-3.734
-2.688
-1.702
-0.783
0.064
0.835
1.528
2.14
2.671
3.12
3.489
3.777
3.988
4.124
4.187
4.181
4.11
3.976
3.785
3.54
3.246
2.908
2.529
2.115
1.671
1.2
0.708
0.198
-0.325
-0.858
-1.397
-1.94
-2.484
-3.026
-3.565
-4.1
-4.63
-5.153
-5.67
-6.182
-6.687
-7.188
-7.685
-8.18
-8.674
-9.169
-9.666
-10.168
-10.677
-11.194
-11.721
-12.261
-12.815
-13.384
-13.971
-14.576
-15.2
-15.845
-16.511
-17.198
-17.907
-18.636
-19.386
-20.156
-20.945
-21.751
-22.574
-23.41
-24.259
-25.117
-25.982
-26.851
-27.721
-28.588
-29.448
-30.299
-31.136
-31.955
-32.753
-33.524
-34.266
-34.975
-35.645
-36.274
-36.859
-37.395
-37.88
-38.311
-38.685
-39.001
-39.257
-39.452
-39.584
-39.653
-39.66
-39.603
-39.483
-39.301
-39.059
-38.757
-38.397
-37.982
-37.513
-36.995
-36.428
-35.817
-35.165
-34.476
-33.753
-33
-32.222
-31.422
-30.605
-29.776
-28.937
-28.095
-27.252
-26.413
-25.582
-24.761
-23.955
-23.165
-22.396
-21.648
-20.924
-20.226
-19.556
-18.915
-18.303
-17.721
-17.17
-16.651
-16.162
-15.705
-15.278
-14.881
-14.513
-14.174
-13.863
-13.577
-13.317
-13.081
-12.866
-12.673
-12.498
-12.341
-12.2
-12.072
-11.958
-11.855
-11.763
-11.68
-11.606
-11.541
-11.483
-11.433
-11.39
-11.355
-11.327
-11.308
-11.297
-11.295
-11.303
-11.321
-11.35
-11.389
-11.439
-11.501
-11.574
-11.659
-11.754
-11.86
-11.976
-12.103
-12.239
-12.383
-12.535
-12.693
-12.856
-13.021
-13.187
-13.351
-13.51
-13.662
-13.803
-13.929
-14.039
-14.127
-14.19
-14.225
-14.228
-14.195
-14.122
-14.005
-13.842
-13.628
-13.363
-13.044
-12.668
-12.236
-11.746
-11.2
-10.598
-9.941
-9.231
-8.47
-7.663
-6.813
-5.926
-5.006
-4.062
-3.101
-2.134
-1.171
-0.223
0.698
1.579
2.41
3.175
3.864
4.468
4.975
5.375
5.656
5.806
5.812
5.665
5.356
4.877
4.221
3.38
2.353
1.142
-0.25
-1.823
-3.579
-5.529
-7.676
-10.018
-12.549
-15.258
-18.131
-21.153
-24.297
-27.523
-30.792
-34.069
-37.323
-40.537
-43.684
-46.731
-49.639
-52.356
-54.844
-57.08
-59.045
-60.732
-62.152
-63.321
-64.286
-65.123
-65.904
-66.712
-67.624
-68.697
-70.011
-71.636
-73.657
-76.201
-79.31
-82.956
-87.044
-91.342
-95.59
-99.567
-102.953
-105.373
-106.628
-106.588
-105.356
-103.445
-101.323
-99.438
-98.268
-98.019
-98.784
-100.701
-103.441
-106.068
-106.888
-103.28
-93.194
-75.92
-52.847
-26.726
1.702
34.091
74.77
128.187
193.851
267.116
340.548
406.846
462.21
503.61
526.79
524.577
488.099
412.662
299.198
157.125
2.053
-150.865
-286.586
-395.615
-473.929
-519.47
-534.987
-523.504
-490.021
-442.763
-389.918
-341.452
-303.084
-275.278
-255.713
-238.367
-220.431
-202.671
-186.761
-176.263
-172.17
-172.86
-176.381
-179.777
-180.965
-179.199
-174.235
-166.531
-156.83
-145.778
-134.095
-122.606
-112.115
-103.363
-96.749
-92.256
-89.667
-88.646
-88.855
-90.024
-91.874
-94.079
-96.427
-98.802
-101.099
-103.289
-105.323
-107.089
-108.531
-109.629
-110.359
-110.745
-110.821
-110.605
-110.138
-109.46
-108.585
-107.547
-106.371
-105.08
-103.721
-102.341
-100.991
-99.748
-98.666
-97.773
-97.092
-96.613
-96.312
-96.172
-96.163
-96.25
-96.406
-96.604
-96.822
-97.045
-97.251
-97.41
-97.49
-97.446
-97.24
-96.849
-96.248
-95.424
-94.369
-93.072
-91.534
-89.76
-87.753
-85.515
-83.045
-80.34
-77.399
-74.227
-70.827
-67.209
-63.38
-59.349
-55.124
-50.718
-46.142
-41.405
-36.52
-31.497
-26.346
-21.084
-15.726
-10.287
-4.787
0.758
6.33
11.907
17.47
23.001
28.479
33.887
39.204
44.411
49.491
54.423
59.189
63.773
68.156
72.321
76.251
79.93
83.345
86.48
89.323
91.862
94.087
95.987
97.556
98.786
99.672
100.21
100.399
100.236
99.723
98.862
97.658
96.114
94.239
92.041
89.53
86.718
83.617
80.242
76.607
72.729
68.627
64.318
59.823
55.162
50.357
45.43
40.403
35.301
30.145
24.961
19.77
14.598
9.466
4.398
-0.585
-5.459
-10.206
-14.803
-19.233
-23.477
-27.519
-31.342
-34.933
-38.277
-41.365
-44.185
-46.729
-48.99
-50.962
-52.641
-54.025
-55.113
-55.905
-56.404
-56.613
-56.537
-56.182
-55.557
-54.669
-53.528
-52.146
-50.533
-48.703
-46.668
-44.443
-42.041
-39.478
-36.769
-33.928
-30.973
-27.917
-24.778
-21.568
-18.305
-15.002
-11.673
-8.332
-4.991
-1.663
1.641
4.91
8.134
11.303
14.409
17.445
20.404
23.281
26.07
28.769
31.373
33.88
36.289
38.599
40.809
42.921
44.935
46.852
48.675
50.407
52.05
53.609
55.086
56.486
57.811
59.067
60.254
61.378
62.44
63.441
64.383
65.267
66.092
66.86
67.569
68.219
68.808
69.336
69.804
70.208
70.548
70.819
71.02
71.148
71.196
71.163
71.043
70.833
70.531
70.138
69.653
69.075
68.402
67.628
66.748
65.764
64.675
63.487
62.209
60.852
59.44
58.006
56.581
55.198
53.885
52.66
51.547
50.574
49.766
49.163
48.796
48.685
48.854
49.312
50.053
51.067
52.305
53.681
55.114
56.523
57.845
59.036
60.037
60.77
61.16
61.13
60.631
59.611
57.967
55.643
52.674
49.207
45.542
42.025
38.929
36.583
35.402
35.688
37.556
40.774
44.786
49.091
53.255
56.762
59.018
59.522
58.761
58.439
60.306
65.68
74.083
84.029
96.392
113.691
140.181
180.446
234.727
300.91
375.551
451.96
523.56
582.676
619.739
630.75
616.729
581.854
534.413
478.856
415.035
344.128
267.535
189.074
115.783
50.45
-7.986
-61.113
-112.245
-161.796
-207.106
-247.039
-280.704
-308.396
-332.166
-353.077
-371.641
-388.414
-403.243
-415.896
-426.401
-434.534
-439.986
-442.577
-442.008
-437.952
-430.448
-419.758
-406.217
-390.301
-372.464
-353.114
-332.752
-311.933
-291.073
-270.442
-250.214
-230.47
-211.316
-192.918
-175.406
-158.858
-143.324
-128.832
-115.415
-103.129
-92.017
-82.059
-73.193
-65.321
-58.341
-52.2
-46.86
-42.278
-38.39
-35.095
-32.282
-29.871
-27.797
-25.983
-24.345
-22.772
-21.147
-19.413
-17.549
-15.556
-13.454
-11.236
-8.892
-6.432
-3.881
-1.278
1.335
3.931
6.498
9.002
11.397
13.628
15.628
17.374
18.87
20.128
21.178
22.045
22.757
23.356
23.899
24.433
25.008
25.662
26.429
27.355
28.49
29.891
31.615
33.706
36.193
39.104
42.457
46.262
50.527
55.25
60.422
66.046
72.118
78.628
85.565
92.91
100.636
108.713
117.101
125.75
134.611
143.636
152.779
162.01
171.302
180.622
189.941
199.222
208.44
217.587
226.662
235.655
244.564
253.385
262.124
270.818
279.49
288.151
296.802
305.411
313.934
322.333
330.563
338.562
346.255
353.534
360.276
366.385
371.767
376.329
379.977
382.579
384.025
384.239
383.165
380.788
377.111
372.14
365.898
358.448
349.873
340.293
329.854
318.671
306.853
294.512
281.762
268.745
255.594
242.406
229.266
216.236
203.37
190.723
178.342
166.236
154.402
142.819
131.443
120.263
109.274
98.47
87.849
77.399
67.11
56.994
47.071
37.363
27.89
18.667
9.707
1.043
-7.291
-15.259
-22.818
-29.943
-36.618
-42.829
-48.567
-53.829
-58.613
-62.929
-66.795
-70.226
-73.236
-75.84
-78.052
-79.892
-81.384
-82.55
-83.417
-84.006
-84.34
-84.443
-84.336
-84.04
-83.575
-82.959
-82.207
-81.338
-80.37
-79.32
-78.207
-77.046
-75.853
-74.643
-73.43
-72.227
-71.044
-69.891
-68.776
-67.704
-66.683
-65.716
-64.806
-63.957
-63.17
-62.445
-61.782
-61.18
-60.637
-60.15
-59.716
-59.33
-58.988
-58.685
-58.417
-58.179
-57.965
-57.769
-57.586
-57.411
-57.238
-57.062
-56.876
-56.676
-56.457
-56.215
-55.945
-55.643
-55.306
-54.933
-54.52
-54.068
-53.573
-53.037
-52.459
-51.839
-51.178
-50.478
-49.74
-48.966
-48.159
-47.322
-46.458
-45.57
-44.661
-43.737
-42.8
-41.855
-40.905
-39.955
-39.009
-38.071
-37.143
-36.231
-35.338
-34.467
-33.62
-32.801
-32.012
-31.254
-30.53
-29.84
-29.186
-28.568
-27.987
-27.442
-26.933
-26.46
-26.021
-25.615
-25.241
-24.896
-24.579
-24.287
-24.017
-23.767
-23.533
-23.313
-23.103
-22.9
-22.701
-22.501
-22.298
-22.089
-21.87
-21.638
-21.391
-21.126
-20.841
-20.533
-20.202
-19.846
-19.463
-19.053
-18.615
-18.15
-17.656
-17.136
-16.588
-16.015
-15.417
-14.796
-14.155
-13.494
-12.817
-12.126
-11.424
-10.715
-10.001
-9.286
-8.574
-7.87
-7.177
-6.498
-5.84
-5.205
-4.598
-4.024
-3.484
-2.984
-2.527
-2.115
-1.752
-1.441
-1.184
-0.984
-0.841
-0.757
-0.734
-0.772
-0.871
-1.032
-1.253
-1.534
-1.873
-2.268
-2.717
-3.217
-3.765
-4.357
-4.988
-5.654
-6.349
-7.068
-7.803
-8.549
-9.297
-10.042
-10.775
-11.488
-12.174
-12.825
-13.435
-13.994
-14.496
-14.933
-15.299
-15.586
-15.788
-15.898
-15.912
-15.823
-15.628
-15.322
-14.903
-14.368
-13.714
-12.942
-12.052
-11.044
-9.921
-8.686
-7.343
-5.899
-4.359
-2.732
-1.027
0.745
2.571
4.438
6.332
8.237
10.137
12.018
13.862
15.653
17.377
19.017
20.56
21.99
23.291
24.446
25.441
26.261
26.894
27.328
27.551
27.556
27.338
26.898
26.231
25.334
24.198
22.816
21.189
19.321
17.22
14.897
12.37
9.661
6.807
3.846
0.813
-2.26
-5.351
-8.436
-11.48
-14.444
-17.282
-19.949
-22.419
-24.671
-26.679
-28.437
-29.961
-31.283
-32.473
-33.591
-34.689
-35.827
-37.066
-38.472
-40.133
-42.118
-44.509
-47.425
-50.902
-54.916
-59.387
-64.069
-68.678
-72.953
-76.512
-78.941
-80.026
-79.628
-77.841
-75.199
-72.193
-69.292
-67.141
-66.167
-66.496
-68.234
-71.032
-73.768
-75.29
-73.575
-65.735
-49.889
-25.017
7.829
45.755
86.996
131.627
182.585
242.978
312.858
389.143
464
529.215
578.621
605.737
605.994
574.242
504.414
395.312
251.71
85.887
-82.246
-231.697
-346.87
-420.956
-457.554
-466.981
-458.602
-437.428
-405.176
-362.205
-312.262
-263.783
-223.635
-195.065
-176.645
-162.132
-147.677
-132.908
-119.517
-111.016
-108.417
-110.385
-114.705
-118.602
-120.496
-119.775
-116.373
-110.81
-103.606
-95.25
-86.458
-77.914
-70.291
-64.292
-60.176
-57.862
-57.153
-57.676
-59.077
-61.069
-63.273
-65.311
-66.953
-68.056
-68.577
-68.57
-68.05
-67.025
-65.536
-63.626
-61.359
-58.815
-56.052
-53.136
-50.135
-47.122
-44.193
-41.432
-38.897
-36.646
-34.705
-33.084
-31.798
-30.85
-30.224
-29.907
-29.872
-30.083
-30.51
-31.119
-31.867
-32.714
-33.605
-34.493
-35.344
-36.126
-36.814
-37.39
-37.832
-38.125
-38.261
-38.23
-38.023
-37.63
-37.039
-36.241
-35.23
-34.001
-32.553
-30.886
-28.994
-26.878
-24.535
-21.967
-19.175
-16.161
-12.926
-9.475
-5.814
-1.953
2.096
6.32
10.707
15.241
19.905
24.681
29.552
34.499
39.504
44.547
49.607
54.665
59.7
64.69
69.614
74.451
79.179
83.778
88.227
92.506
96.595
100.475
104.129
107.538
110.685
113.555
116.134
118.407
120.363
121.991
123.282
124.227
124.822
125.062
124.943
124.464
123.626
122.43
120.878
118.976
116.73
114.147
111.236
108.008
104.473
100.646
96.539
92.169
87.552
82.704
77.644
72.391
66.964
61.383
55.669
49.843
43.925
37.938
31.901
25.838
19.767
13.71
7.687
1.716
-4.183
-9.993
-15.697
-21.279
-26.723
-32.015
-37.143
-42.095
-46.86
-51.429
-55.793
-59.947
-63.884
-67.6
-71.092
-74.357
-77.394
-80.204
-82.786
-85.143
-87.276
-89.191
-90.892
-92.383
-93.672
-94.765
-95.669
-96.393
-96.944
-97.332
-97.565
-97.652
-97.602
-97.426
-97.132
-96.731
-96.231
-95.642
-94.972
-94.231
-93.426
-92.566
-91.658
-90.709
-89.729
-88.722
-87.698
-86.662
-85.621
-84.584
-83.559
-82.553
-81.574
-80.63
-79.727
-78.874
-78.075
-77.337
-76.664
-76.059
-75.527
-75.071
-74.696
-74.407
-74.208
-74.102
-74.094
-74.185
-74.377
-74.672
-75.065
-75.553
-76.134
-76.808
-77.582
-78.459
-79.439
-80.514
-81.678
-82.918
-84.216
-85.546
-86.871
-88.154
-89.363
-90.47
-91.458
-92.306
-92.993
-93.488
-93.75
-93.749
-93.461
-92.876
-91.988
-90.804
-89.353
-87.692
-85.91
-84.093
-82.307
-80.608
-79.045
-77.677
-76.575
-75.819
-75.474
-75.606
-76.309
-77.613
-79.487
-81.795
-84.27
-86.588
-88.447
-89.546
-89.539
-88.204
-85.501
-81.666
-77.236
-72.791
-68.8
-65.531
-63.224
-62.152
-62.184
-62.488
-61.886
-58.339
-49.837
-35.832
-15.281
11.871
44.426
82.777
126.063
173.68
226.782
284.761
346.324
407.497
460.769
497.905
510.482
494.901
452.063
385.978
306.256
221.342
138.745
66.574
6.825
-41.265
-79.861
-115.107
-151.54
-189.878
-229.977
-269.351
-303.737
-331.981
-353.708
-368.459
-378.461
-384.985
-388.516
-390.444
-390.716
-388.96
-385.462
-380.186
-373.158
-364.6
-354.433
-342.401
-328.538
-313.072
-296.259
-278.487
-260.165
-241.58
-223.045
-204.898
-187.31
-170.4
-154.294
-139.055
-124.756
-111.473
-99.212
-87.966
-77.765
-68.595
-60.419
-53.182
-46.773
-41.111
-36.165
-31.914
-28.34
-25.409
-23.037
-21.126
-19.602
-18.378
-17.365
-16.464
-15.548
-14.536
-13.396
-12.125
-10.75
-9.28
-7.703
-6.008
-4.201
-2.292
-0.312
1.708
3.753
5.789
7.771
9.641
11.327
12.789
14.02
15.035
15.862
16.529
17.059
17.487
17.856
18.212
18.597
19.051
19.604
20.299
21.187
22.325
23.772
25.579
27.78
30.4
33.459
36.972
40.953
45.411
50.346
55.76
61.646
68
74.815
82.074
89.75
97.81
106.205
114.897
123.844
133.012
142.37
151.881
161.509
171.224
180.99
190.783
200.591
210.403
220.215
230.042
239.895
249.799
259.798
269.906
280.133
290.474
300.908
311.415
321.965
332.51
342.994
353.351
363.485
373.296
382.672
391.462
399.529
406.73
412.905
417.937
421.729
424.198
425.298
424.992
423.259
420.116
415.597
409.747
402.646
394.392
385.102
374.939
364.057
352.602
340.74
328.601
316.298
303.943
291.618
279.39
267.323
255.455
243.812
232.426
221.302
210.434
199.806
189.368
179.086
168.935
158.888
148.936
139.077
129.31
119.648
110.119
100.746
91.555
82.577
73.832
65.347
57.154
49.286
41.783
34.676
27.984
21.724
15.902
10.521
5.58
1.069
-3.031
-6.737
-10.066
-13.036
-15.664
-17.969
-19.972
-21.695
-23.163
-24.398
-25.422
-26.254
-26.917
-27.428
-27.808
-28.074
-28.24
-28.323
-28.339
-28.304
-28.234
-28.143
-28.045
-27.951
-27.876
-27.827
-27.815
-27.846
-27.926
-28.059
-28.249
-28.497
-28.806
-29.176
-29.604
-30.091
-30.633
-31.229
-31.873
-32.564
-33.295
-34.062
-34.861
-35.685
-36.531
-37.392
-38.262
-39.136
-40.007
-40.872
-41.723
-42.556
-43.366
-44.148
-44.897
-45.611
-46.285
-46.916
-47.501
-48.04
-48.531
-48.972
-49.364
-49.707
-50.001
-50.248
-50.449
-50.606
-50.72
-50.795
-50.831
-50.832
-50.799
-50.737
-50.647
-50.532
-50.394
-50.238
-50.065
-49.879
-49.681
-49.475
-49.263
-49.047
-48.83
-48.613
-48.397
-48.185
-47.978
-47.777
-47.582
-47.394
-47.214
-47.041
-46.876
-46.718
-46.567
-46.421
-46.281
-46.145
-46.012
-45.881
-45.751
-45.621
-45.491
-45.358
-45.223
-45.084
-44.939
-44.789
-44.632
-44.467
-44.293
-44.109
-43.914
-43.709
-43.491
-43.261
-43.018
-42.762
-42.492
-42.208
-41.909
-41.596
-41.268
-40.926
-40.569
-40.198
-39.813
-39.413
-39
-38.575
-38.136
-37.685
-37.221
-36.746
-36.26
-35.762
-35.253
-34.734
-34.205
-33.666
-33.119
-32.563
-31.999
-31.429
-30.853
-30.271
-29.684
-29.094
-28.501
-27.906
-27.31
-26.715
-26.122
-25.532
-24.946
-24.366
-23.794
-23.229
-22.675
-22.132
-21.601
-21.085
-20.583
-20.098
-19.631
-19.184
-18.757
-18.353
-17.972
-17.614
-17.282
-16.976
-16.696
-16.442
-16.215
-16.015
-15.842
-15.695
-15.574
-15.478
-15.406
-15.357
-15.33
-15.321
-15.33
-15.353
-15.389
-15.435
-15.487
-15.543
-15.6
-15.654
-15.703
-15.742
-15.767
-15.775
-15.761
-15.721
-15.651
-15.547
-15.404
-15.219
-14.986
-14.702
-14.364
-13.967
-13.508
-12.982
-12.387
-11.72
-10.976
-10.155
-9.254
-8.272
-7.208
-6.061
-4.831
-3.52
-2.127
-0.654
0.897
2.525
4.225
5.995
7.831
9.728
11.681
13.685
15.731
17.812
19.922
22.051
24.192
26.333
28.465
30.578
32.66
34.7
36.685
38.601
40.434
42.169
43.795
45.296
46.659
47.872
48.922
49.8
50.499
51.01
51.324
51.431
51.325
51
50.452
49.677
48.671
47.434
45.968
44.282
42.383
40.277
37.968
35.454
32.739
29.834
26.751
23.505
20.117
16.606
13.006
9.361
5.712
2.098
-1.452
-4.913
-8.256
-11.444
-14.436
-17.185
-19.663
-21.846
-23.714
-25.261
-26.495
-27.441
-28.154
-28.704
-29.156
-29.583
-30.045
-30.609
-31.358
-32.356
-33.68
-35.43
-37.632
-40.282
-43.324
-46.545
-49.687
-52.515
-54.703
-55.904
-55.922
-54.59
-51.953
-48.463
-44.631
-40.923
-37.824
-35.743
-34.956
-35.681
-37.84
-40.057
-40.091
-36.044
-26.163
-10.809
7.534
28.431
52.899
84.153
127.866
185.425
253.796
327.29
397.748
459.693
510.222
545.625
561.139
549.791
504.88
424.453
311.285
174.395
27.362
-115.596
-239.561
-333.755
-394.54
-424.718
-432.069
-424.908
-408.458
-382.854
-348.488
-307.916
-264.558
-225.448
-194.217
-169.641
-150.94
-135.258
-121.335
-111.342
-105.749
-104.459
-106.672
-109.593
-111.145
-110.246
-106.373
-99.947
-91.627
-81.952
-71.546
-61.152
-51.567
-43.57
-37.618
-33.762
-31.836
-31.526
-32.495
-34.455
-37.076
-39.975
-42.868
-45.541
-47.842
-49.742
-51.23
-52.285
-52.921
-53.156
-53
-52.495
-51.699
-50.662
-49.445
-48.087
-46.623
-45.111
-43.626
-42.262
-41.104
-40.199
-39.568
-39.226
-39.181
-39.44
-39.992
-40.802
-41.82
-43.004
-44.317
-45.733
-47.222
-48.742
-50.244
-51.675
-52.991
-54.16
-55.156
-55.954
-56.531
-56.868
-56.953
-56.785
-56.364
-55.686
-54.745
-53.533
-52.047
-50.287
-48.257
-45.961
-43.401
-40.581
-37.509
-34.191
-30.638
-26.859
-22.864
-18.663
-14.268
-9.696
-4.962
-0.085
4.916
10.02
15.208
20.456
25.742
31.045
36.343
41.614
46.836
51.987
57.047
61.993
66.807
71.466
75.952
80.245
84.328
88.184
91.796
95.15
98.231
101.026
103.525
105.718
107.597
109.154
110.385
111.285
111.853
112.088
111.993
111.569
110.821
109.755
108.379
106.701
104.732
102.482
99.964
97.19
94.175
90.933
87.48
83.833
80.008
76.022
71.895
67.644
63.288
58.846
54.336
49.777
45.186
40.582
35.983
31.405
26.866
22.38
17.963
13.628
9.39
5.258
1.245
-2.64
-6.389
-9.995
-13.452
-16.754
-19.898
-22.88
-25.698
-28.351
-30.839
-33.161
-35.32
-37.317
-39.156
-40.841
-42.375
-43.764
-45.013
-46.127
-47.111
-47.973
-48.717
-49.351
-49.882
-50.315
-50.658
-50.918
-51.1
-51.212
-51.258
-51.245
-51.178
-51.06
-50.897
-50.694
-50.453
-50.179
-49.877
-49.549
-49.201
-48.838
-48.464
-48.085
-47.704
-47.327
-46.958
-46.602
-46.263
-45.944
-45.647
-45.377
-45.136
-44.928
-44.759
-44.633
-44.553
-44.522
-44.545
-44.623
-44.757
-44.947
-45.19
-45.484
-45.831
-46.239
-46.711
-47.25
-47.853
-48.516
-49.23
-49.983
-50.751
-51.506
-52.213
-52.844
-53.374
-53.787
-54.065
-54.189
-54.131
-53.855
-53.331
-52.534
-51.453
-50.083
-48.426
-46.51
-44.389
-42.149
-39.881
-37.659
-35.544
-33.595
-31.879
-30.48
-29.493
-28.993
-29.056
-29.788
-31.244
-33.419
-36.214
-39.365
-42.529
-45.4
-47.662
-48.952
-49.015
-47.739
-45.302
-42.257
-39.276
-36.864
-35.283
-34.884
-36.037
-38.658
-42.078
-44.518
-43.203
-36.501
-23.875
-5.372
17.717
45.916
80.781
123.229
175.006
235.501
302.46
372.506
438.475
492.759
527.319
534.878
513.819
465.525
394.917
311.315
222.845
137.319
60.675
-6.902
-67.601
-125.247
-183.219
-241.426
-297.488
-347.753
-389.818
-423.312
-449.077
-468.991
-484.376
-495.769
-503.796
-508.961
-511.514
-511.76
-509.796
-505.431
-498.545
-489.018
-476.608
-461.117
-442.619
-421.399
-397.903
-372.734
-346.471
-319.648
-292.824
-266.543
-241.221
-217.178
-194.663
-173.826
-154.792
-137.688
-122.582
-109.508
-98.5
-89.532
-82.521
-77.358
-73.882
-71.915
-71.306
-71.901
-73.529
-75.998
-79.102
-82.648
-86.465
-90.389
-94.247
-97.861
-101.06
-103.735
-105.834
-107.345
-108.283
-108.67
-108.52
-107.87
-106.771
-105.295
-103.515
-101.498
-99.303
-96.996
-94.658
-92.381
-90.255
-88.329
-86.614
-85.103
-83.77
-82.588
-81.526
-80.536
-79.56
-78.54
-77.423
-76.163
-74.719
-73.041
-71.071
-68.747
-66.008
-62.812
-59.135
-54.957
-50.27
-45.069
-39.352
-33.134
-26.434
-19.27
-11.651
-3.583
4.932
13.877
23.221
32.93
42.966
53.298
63.893
74.709
85.699
96.826
108.063
119.397
130.82
142.309
153.826
165.32
176.739
188.046
199.22
210.242
221.084
231.716
242.119
252.29
262.239
271.95
281.373
290.424
299.021
307.107
314.644
321.612
327.984
333.72
338.775
343.11
346.704
349.532
351.557
352.718
352.945
352.211
350.543
348.01
344.683
340.608
335.818
330.339
324.215
317.499
310.239
302.473
294.228
285.546
276.49
267.147
257.613
247.95
238.181
228.3
218.309
208.227
198.081
187.897
177.693
167.484
157.3
147.186
137.189
127.344
117.669
108.168
98.843
89.712
80.805
72.162
63.817
55.795
48.116
40.802
33.879
27.364
21.262
15.569
10.277
5.383
0.886
-3.212
-6.913
-10.223
-13.152
-15.714
-17.919
-19.781
-21.316
-22.541
-23.475
-24.137
-24.543
-24.706
-24.641
-24.364
-23.892
-23.242
-22.43
-21.472
-20.384
-19.183
-17.887
-16.509
-15.065
-13.567
-12.029
-10.461
-8.876
-7.283
-5.692
-4.111
-2.549
-1.012
0.491
1.956
3.376
4.748
6.066
7.329
8.532
9.675
10.756
11.773
12.725
13.613
14.437
15.197
15.894
16.53
17.105
17.622
18.083
18.49
18.847
19.156
19.42
19.642
19.825
19.972
20.085
20.168
20.222
20.251
20.257
20.244
20.213
20.167
20.108
20.038
19.96
19.875
19.784
19.689
19.592
19.492
19.391
19.29
19.188
19.086
18.984
18.881
18.776
18.669
18.558
18.442
18.319
18.188
18.047
17.893
17.726
17.542
17.341
17.119
16.875
16.607
16.313
15.991
15.639
15.255
14.839
14.388
13.902
13.38
12.821
12.224
11.59
10.919
10.211
9.467
8.687
7.872
7.025
6.146
5.238
4.303
3.343
2.362
1.361
0.343
-0.687
-1.727
-2.774
-3.825
-4.876
-5.924
-6.967
-8
-9.022
-10.029
-11.02
-11.99
-12.94
-13.867
-14.769
-15.646
-16.496
-17.32
-18.116
-18.886
-19.629
-20.346
-21.039
-21.707
-22.354
-22.981
-23.59
-24.182
-24.762
-25.33
-25.891
-26.447
-27.001
-27.556
-28.115
-28.681
-29.257
-29.847
-30.451
-31.074
-31.718
-32.385
-33.078
-33.797
-34.545
-35.323
-36.132
-36.972
-37.844
-38.748
-39.683
-40.649
-41.646
-42.672
-43.727
-44.81
-45.918
-47.05
-48.205
-49.38
-50.574
-51.784
-53.009
-54.245
-55.493
-56.748
-58.009
-59.274
-60.541
-61.809
-63.074
-64.336
-65.593
-66.842
-68.084
-69.315
-70.535
-71.743
-72.937
-74.117
-75.282
-76.43
-77.562
-78.675
-79.769
-80.842
-81.893
-82.921
-83.924
-84.899
-85.845
-86.758
-87.637
-88.477
-89.277
-90.031
-90.736
-91.388
-91.981
-92.511
-92.973
-93.359
-93.666
-93.886
-94.014
-94.044
-93.97
-93.786
-93.485
-93.061
-92.509
-91.822
-90.996
-90.026
-88.905
-87.631
-86.199
-84.608
-82.855
-80.938
-78.857
-76.613
-74.208
-71.643
-68.923
-66.052
-63.036
-59.882
-56.598
-53.195
-49.682
-46.073
-42.38
-38.619
-34.807
-30.96
-27.096
-23.233
-19.389
-15.584
-11.837
-8.164
-4.583
-1.112
2.231
5.429
8.461
11.312
13.966
16.409
18.628
20.612
22.352
23.846
25.09
26.082
26.82
27.291
27.491
27.421
27.085
26.491
25.656
24.597
23.337
21.915
20.367
18.727
17.027
15.285
13.524
11.778
10.083
8.486
7.035
5.754
4.671
3.81
3.165
2.722
2.446
2.269
2.136
1.996
1.784
1.446
0.926
0.139
-0.966
-2.463
-4.472
-7.016
-10.059
-13.495
-17.043
-20.402
-23.325
-25.464
-26.451
-26.111
-24.359
-21.374
-17.753
-14.043
-10.727
-8.294
-7.003
-6.979
-8.243
-10.297
-12.142
-12.038
-7.45
3.486
22.139
47.888
77.713
110.623
146.33
186.685
236.946
297.776
367.362
442.246
513.977
576.232
622.669
644.419
634.726
587.788
502.03
382.255
238.732
85.181
-64.924
-198.211
-305.929
-383.193
-427.296
-440.629
-425.899
-388.525
-337.253
-280.774
-229.617
-189.486
-160.42
-139.5
-120.151
-99.515
-78.711
-59.905
-47.084
-41.465
-41.492
-45.173
-49.529
-52.452
-53.099
-51.166
-47
-41.15
-34.105
-26.433
-18.814
-11.986
-6.667
-3.205
-1.533
-1.371
-2.288
-3.888
-5.849
-7.823
-9.43
-10.411
-10.637
-10.079
-8.804
-6.876
-4.327
-1.21
2.398
6.416
10.735
15.243
19.83
24.384
28.813
33.049
37.025
40.686
43.991
46.916
49.461
51.637
53.45
54.906
56.017
56.805
57.313
57.586
57.678
57.643
57.524
57.36
57.187
57.034
56.924
56.877
56.903
57.011
57.212
57.522
57.957
58.531
59.256
60.14
61.192
62.42
63.83
65.428
67.219
69.21
71.405
73.811
76.431
79.269
82.328
85.606
89.099
92.802
96.705
100.8
105.076
109.52
114.117
118.854
123.713
128.679
133.734
138.859
144.036
149.243
154.461
159.668
164.842
169.961
175.003
179.945
184.765
189.44
193.95
198.273
202.388
206.275
209.915
213.29
216.381
219.173
221.651
223.802
225.612
227.072
228.174
228.909
229.274
229.263
228.875
228.11
226.969
225.454
223.57
221.323
218.719
215.769
212.481
208.869
204.945
200.723
196.22
191.453
186.438
181.194
175.741
170.099
164.287
158.327
152.24
146.047
139.77
133.43
127.047
120.642
114.234
107.845
101.491
95.19
88.96
82.815
76.771
70.841
65.038
59.373
53.858
48.5
43.309
38.292
33.455
28.802
24.338
20.064
15.981
12.092
8.394
4.887
1.568
-1.565
-4.516
-7.289
-9.889
-12.32
-14.59
-16.704
-18.668
-20.489
-22.173
-23.728
-25.161
-26.477
-27.684
-28.787
-29.793
-30.709
-31.541
-32.295
-32.977
-33.595
-34.156
-34.669
-35.139
-35.576
-35.986
-36.375
-36.751
-37.12
-37.483
-37.844
-38.208
-38.578
-38.96
-39.358
-39.778
-40.221
-40.693
-41.195
-41.732
-42.304
-42.905
-43.534
-44.187
-44.868
-45.587
-46.353
-47.163
-48.018
-48.914
-49.84
-50.785
-51.729
-52.633
-53.465
-54.197
-54.8
-55.267
-55.582
-55.721
-55.658
-55.354
-54.777
-53.919
-52.776
-51.343
-49.642
-47.712
-45.619
-43.471
-41.36
-39.363
-37.567
-36.042
-34.875
-34.173
-34.015
-34.491
-35.729
-37.775
-40.61
-44.146
-48.113
-52.183
-56.093
-59.505
-62.002
-63.335
-63.423
-62.46
-61.057
-59.942
-59.584
-60.282
-62.528
-66.683
-72.533
-79.391
-85.325
-87.202
-83.339
-73.077
-56.097
-34.414
-8.307
24.337
64.827
116.557
181.512
256.371
334.892
406.851
459.56
483.386
474.422
433.888
367.944
286.158
196.335
105.072
19.254
-57.472
-123.335
-178.15
-226.06
-271.683
-317
-362.26
-405.178
-442.433
-473.078
-497.852
-518.085
-535.482
-550.751
-563.87
-574.693
-582.94
-588.465
-591.09
-590.566
-586.727
-579.356
-568.289
-553.653
-535.723
-514.854
-491.516
-466.174
-439.283
-411.405
-383.124
-354.855
-326.905
-299.498
-272.807
-247.077
-222.565
-199.468
-177.93
-158.062
-139.961
-123.734
-109.483
-97.218
-86.88
-78.347
-71.462
-66.118
-62.224
-59.669
-58.323
-57.996
-58.485
-59.618
-61.24
-63.184
-65.283
-67.35
-69.204
-70.74
-71.909
-72.694
-73.113
-73.159
-72.826
-72.134
-71.121
-69.85
-68.389
-66.789
-65.087
-63.345
-61.634
-60.032
-58.622
-57.434
-56.462
-55.69
-55.082
-54.604
-54.22
-53.873
-53.497
-53.033
-52.424
-51.62
-50.58
-49.247
-47.561
-45.463
-42.892
-39.806
-36.18
-31.991
-27.229
-21.894
-15.989
-9.526
-2.523
5.014
13.071
21.629
30.668
40.158
50.066
60.354
70.974
81.863
92.966
104.225
115.593
127.044
138.544
150.059
161.557
172.999
184.362
195.643
206.827
217.896
228.838
239.636
250.299
260.866
271.36
281.791
292.147
302.382
312.454
322.325
331.937
341.227
350.105
358.446
366.154
373.156
379.375
384.743
389.165
392.511
394.683
395.615
395.268
393.644
390.75
386.59
381.21
374.684
367.118
358.66
349.423
339.494
328.967
317.931
306.497
294.809
282.98
271.093
259.224
247.426
235.752
224.262
212.979
201.899
191.001
180.238
169.591
159.066
148.666
138.396
128.254
118.224
108.311
98.536
88.915
79.466
70.206
61.141
52.295
43.707
35.418
27.471
19.899
12.717
5.94
-0.42
-6.357
-11.866
-16.95
-21.624
-25.899
-29.784
-33.287
-36.418
-39.19
-41.623
-43.735
-45.547
-47.079
-48.348
-49.372
-50.169
-50.757
-51.149
-51.361
-51.404
-51.291
-51.037
-50.658
-50.166
-49.578
-48.904
-48.16
-47.358
-46.509
-45.625
-44.714
-43.787
-42.849
-41.911
-40.978
-40.056
-39.152
-38.271
-37.418
-36.597
-35.813
-35.069
-34.368
-33.712
-33.104
-32.547
-32.043
-31.592
-31.198
-30.862
-30.586
-30.371
-30.22
-30.132
-30.11
-30.154
-30.266
-30.446
-30.694
-31.012
-31.399
-31.857
-32.386
-32.986
-33.658
-34.4
-35.214
-36.099
-37.053
-38.076
-39.166
-40.321
-41.541
-42.821
-44.161
-45.557
-47.007
-48.508
-50.055
-51.646
-53.277
-54.942
-56.638
-58.361
-60.105
-61.866
-63.638
-65.417
-67.197
-68.973
-70.739
-72.491
-74.224
-75.931
-77.609
-79.251
-80.855
-82.415
-83.927
-85.389
-86.796
-88.147
-89.438
-90.667
-91.833
-92.935
-93.972
-94.943
-95.848
-96.687
-97.46
-98.17
-98.817
-99.402
-99.928
-100.397
-100.81
-101.172
-101.484
-101.75
-101.974
-102.158
-102.306
-102.421
-102.509
-102.571
-102.613
-102.637
-102.647
-102.646
-102.638
-102.625
-102.61
-102.596
-102.584
-102.578
-102.577
-102.584
-102.601
-102.627
-102.663
-102.711
-102.77
-102.839
-102.92
-103.011
-103.111
-103.219
-103.336
-103.458
-103.585
-103.716
-103.848
-103.98
-104.11
-104.235
-104.354
-104.465
-104.566
-104.653
-104.727
-104.784
-104.822
-104.84
-104.836
-104.809
-104.756
-104.677
-104.569
-104.433
-104.267
-104.069
-103.84
-103.578
-103.283
-102.955
-102.592
-102.196
-101.765
-101.301
-100.803
-100.271
-99.707
-99.111
-98.483
-97.826
-97.139
-96.425
-95.684
-94.919
-94.131
-93.321
-92.492
-91.646
-90.784
-89.91
-89.025
-88.131
-87.231
-86.328
-85.423
-84.518
-83.618
-82.723
-81.836
-80.96
-80.097
-79.25
-78.42
-77.609
-76.819
-76.052
-75.309
-74.59
-73.897
-73.229
-72.586
-71.969
-71.376
-70.806
-70.258
-69.73
-69.218
-68.719
-68.231
-67.748
-67.266
-66.78
-66.285
-65.776
-65.247
-64.692
-64.106
-63.481
-62.812
-62.092
-61.315
-60.473
-59.56
-58.569
-57.495
-56.332
-55.075
-53.719
-52.26
-50.693
-49.017
-47.229
-45.328
-43.313
-41.184
-38.944
-36.595
-34.142
-31.59
-28.946
-26.218
-23.416
-20.554
-17.641
-14.693
-11.721
-8.741
-5.768
-2.816
0.099
2.964
5.764
8.483
11.103
13.607
15.979
18.202
20.261
22.142
23.83
25.313
26.586
27.643
28.478
29.084
29.448
29.56
29.419
29.025
28.383
27.5
26.392
25.083
23.611
22.013
20.32
18.561
16.75
14.908
13.062
11.245
9.491
7.832
6.285
4.864
3.595
2.479
1.493
0.586
-0.325
-1.32
-2.438
-3.724
-5.225
-6.99
-9.095
-11.607
-14.555
-17.991
-21.983
-26.553
-31.692
-37.254
-42.909
-48.275
-52.986
-56.652
-58.914
-59.507
-58.297
-55.501
-51.719
-47.682
-44.083
-41.488
-40.383
-41.075
-43.51
-47.014
-50.247
-51.394
-48.606
-40.361
-25.014
-1.056
32.446
75.859
127.802
184.868
243.588
300.64
354
403.96
449.553
487.8
512.929
516.264
490.483
431.683
340.996
224.004
89.569
-51.411
-187.346
-306.064
-398.265
-458.587
-486.922
-487.953
-467.639
-433.548
-392.641
-351.636
-316.511
-289.089
-268.054
-248.866
-227.343
-202.965
-177.778
-155.932
-140.246
-130.627
-125.686
-123.25
-121.536
-119.783
-117.417
-113.887
-109.017
-102.902
-95.761
-87.96
-79.96
-72.146
-64.99
-59.061
-54.522
-51.236
-48.961
-47.339
-46.08
-44.994
-43.806
-42.169
-39.889
-36.887
-33.17
-28.838
-23.953
-18.547
-12.69
-6.48
-0.036
6.51
13.033
19.428
25.614
31.521
37.086
42.248
46.965
51.216
55
58.334
61.223
63.676
65.707
67.337
68.608
69.566
70.265
70.761
71.098
71.317
71.456
71.547
71.618
71.693
71.785
71.906
72.068
72.292
72.594
72.992
73.499
74.128
74.888
75.79
76.841
78.049
79.422
80.967
82.69
84.598
86.696
88.989
91.481
94.17
97.055
100.13
103.388
106.82
110.417
114.166
118.053
122.063
126.182
130.392
134.677
139.018
143.396
147.791
152.183
156.552
160.877
165.135
169.307
173.37
177.304
181.087
184.7
188.122
191.335
194.319
197.058
199.535
201.732
203.637
205.236
206.516
207.467
208.079
208.346
208.261
207.822
207.025
205.871
204.36
202.496
200.283
197.728
194.839
191.623
188.092
184.258
180.134
175.735
171.077
166.177
161.052
155.722
150.207
144.527
138.702
132.755
126.706
120.578
114.392
108.171
101.937
95.712
89.516
83.371
77.297
71.314
65.439
59.69
54.084
48.635
43.357
38.262
33.362
28.668
24.187
19.928
15.897
12.099
8.538
5.217
2.137
-0.703
-3.304
-5.667
-7.796
-9.695
-11.369
-12.825
-14.067
-15.103
-15.942
-16.591
-17.06
-17.359
-17.497
-17.485
-17.332
-17.049
-16.648
-16.137
-15.528
-14.83
-14.053
-13.208
-12.304
-11.351
-10.359
-9.341
-8.306
-7.265
-6.229
-5.208
-4.211
-3.248
-2.326
-1.451
-0.629
0.132
0.829
1.453
1.997
2.455
2.822
3.092
3.263
3.328
3.284
3.136
2.883
2.528
2.066
1.488
0.786
-0.038
-0.981
-2.038
-3.198
-4.448
-5.768
-7.122
-8.478
-9.804
-11.074
-12.276
-13.394
-14.402
-15.27
-15.955
-16.426
-16.672
-16.693
-16.485
-16.062
-15.452
-14.708
-13.925
-13.181
-12.54
-12.061
-11.786
-11.782
-12.129
-12.894
-14.168
-16.048
-18.568
-21.707
-25.367
-29.335
-33.37
-37.229
-40.574
-43.044
-44.381
-44.487
-43.572
-42.091
-40.501
-39.191
-38.504
-38.795
-40.334
-43.033
-46.138
-48.387
-48.386
-44.696
-35.991
-20.897
1.953
32.641
69.635
111.151
155.569
203.133
255.318
310.364
362.905
404.147
424.863
421.57
397.099
358.786
314.424
268.339
221.124
171.1
117.594
61.654
5.328
-48.511
-98.052
-142.709
-182.075
-216.309
-245.866
-270.793
-291.268
-307.922
-321.268
-331.927
-340.73
-347.995
-353.717
-358.026
-360.882
-362.041
-361.325
-358.363
-352.661
-344.164
-333.07
-319.619
-304.233
-287.332
-269.285
-250.608
-231.835
-213.308
-195.265
-177.86
-161.173
-145.359
-130.62
-117.097
-104.904
-94.096
-84.678
-76.656
-69.996
-64.62
-60.415
-57.234
-54.948
-53.463
-52.697
-52.567
-52.982
-53.802
-54.856
-55.984
-57.015
-57.823
-58.325
-58.459
-58.2
-57.555
-56.554
-55.247
-53.69
-51.916
-49.959
-47.848
-45.614
-43.32
-41.044
-38.867
-36.885
-35.166
-33.751
-32.666
-31.914
-31.482
-31.341
-31.448
-31.749
-32.199
-32.757
-33.38
-34.035
-34.673
-35.241
-35.682
-35.934
-35.945
-35.673
-35.085
-34.153
-32.858
-31.187
-29.134
-26.701
-23.889
-20.697
-17.123
-13.164
-8.824
-4.108
0.977
6.418
12.204
18.322
24.757
31.491
38.508
45.787
53.31
61.055
69.001
77.119
85.383
93.762
102.224
110.738
119.271
127.788
136.256
144.64
152.907
161.023
168.957
176.674
184.143
191.334
198.216
204.76
210.94
216.728
222.101
227.035
231.508
235.503
239.001
241.989
244.453
246.384
247.774
248.618
248.914
248.663
247.865
246.529
244.66
242.27
239.371
235.979
232.111
227.787
223.027
217.856
212.298
206.378
200.123
193.563
186.726
179.642
172.343
164.859
157.223
149.465
141.618
133.712
125.779
117.848
109.95
102.113
94.364
86.73
79.236
71.905
64.759
57.818
51.101
44.623
38.4
32.444
26.765
21.373
16.273
11.471
6.969
2.769
-1.13
-4.729
-8.033
-11.046
-13.775
-16.228
-18.414
-20.342
-22.024
-23.471
-24.695
-25.709
-26.527
-27.162
-27.628
-27.939
-28.109
-28.152
-28.082
-27.912
-27.655
-27.325
-26.932
-26.489
-26.005
-25.492
-24.957
-24.409
-23.857
-23.305
-22.761
-22.23
-21.715
-21.221
-20.751
-20.306
-19.888
-19.498
-19.137
-18.804
-18.499
-18.221
-17.968
-17.74
-17.534
-17.348
-17.18
-17.028
-16.888
-16.759
-16.636
-16.519
-16.403
-16.286
-16.166
-16.04
-15.906
-15.762
-15.605
-15.435
-15.249
-15.046
-14.825
-14.585
-14.326
-14.045
-13.744
-13.421
-13.077
-12.711
-12.323
-11.913
-11.482
-11.029
-10.555
-10.059
-9.543
-9.006
-8.448
-7.87
-7.273
-6.656
-6.021
-5.368
-4.697
-4.01
-3.306
-2.588
-1.855
-1.109
-0.35
0.42
1.199
1.988
2.783
3.585
4.39
5.198
6.006
6.814
7.617
8.416
9.207
9.988
10.757
11.511
12.248
12.965
13.659
14.329
14.971
15.583
16.164
16.709
17.218
17.689
18.119
18.507
18.851
19.15
19.404
19.611
19.77
19.883
19.948
19.967
19.939
19.866
19.75
19.591
19.391
19.153
18.879
18.572
18.235
17.869
17.48
17.07
16.642
16.201
15.749
15.29
14.828
14.367
13.908
13.457
13.016
12.587
12.174
11.779
11.405
11.053
10.725
10.423
10.147
9.898
9.677
9.483
9.317
9.177
9.062
8.971
8.902
8.852
8.82
8.801
8.794
8.794
8.798
8.801
8.801
8.792
8.771
8.733
8.674
8.591
8.479
8.334
8.153
7.931
7.665
7.352
6.989
6.574
6.103
5.575
4.988
4.341
3.632
2.862
2.03
1.135
0.179
-0.837
-1.912
-3.044
-4.231
-5.468
-6.753
-8.082
-9.45
-10.853
-12.286
-13.743
-15.219
-16.709
-18.206
-19.703
-21.195
-22.674
-24.133
-25.566
-26.966
-28.324
-29.635
-30.89
-32.084
-33.21
-34.261
-35.23
-36.112
-36.9
-37.59
-38.175
-38.652
-39.016
-39.262
-39.388
-39.391
-39.27
-39.024
-38.651
-38.152
-37.528
-36.782
-35.914
-34.93
-33.831
-32.624
-31.315
-29.911
-28.42
-26.85
-25.212
-23.516
-21.776
-20.003
-18.212
-16.414
-14.624
-12.857
-11.125
-9.442
-7.82
-6.272
-4.81
-3.449
-2.203
-1.083
-0.103
0.728
1.399
1.898
2.22
2.363
2.323
2.1
1.688
1.078
0.266
-0.746
-1.955
-3.354
-4.93
-6.668
-8.543
-10.517
-12.555
-14.625
-16.7
-18.765
-20.795
-22.762
-24.636
-26.377
-27.959
-29.369
-30.589
-31.601
-32.414
-33.057
-33.584
-34.084
-34.624
-35.253
-36.025
-36.988
-38.201
-39.74
-41.663
-44.012
-46.831
-50.174
-54.053
-58.43
-63.136
-67.86
-72.251
-75.954
-78.635
-79.972
-79.722
-77.794
-74.381
-69.981
-65.204
-60.643
-56.735
-53.779
-52.056
-51.638
-51.967
-52.085
-50.113
-43.428
-30.935
-12.119
12.793
41.65
75.153
115.34
162.36
217.45
277.528
336.174
390.22
435.564
469.415
489.803
490.201
463.596
404.974
313.041
192.553
53.688
-91.005
-228.065
-344.607
-432.222
-485.984
-506.679
-499.128
-467.658
-420.042
-363.31
-304.727
-254.487
-216.378
-190.233
-172.912
-156.728
-138.662
-119.598
-101.664
-88.879
-82.315
-80.415
-81.092
-81.796
-81.078
-78.497
-74.034
-68.116
-61.171
-53.562
-45.841
-38.514
-32.09
-27.142
-23.855
-22.09
-21.602
-22.033
-23.025
-24.314
-25.594
-26.483
-26.769
-26.366
-25.251
-23.504
-21.184
-18.312
-14.954
-11.213
-7.181
-2.972
1.303
5.563
9.702
13.627
17.265
20.534
23.384
25.789
27.729
29.2
30.208
30.757
30.86
30.544
29.833
28.76
27.363
25.681
23.761
21.645
19.364
