Name,Criss Capps
Date of Birth,"Feb 5, 1952"
Recorded Date,2025-04-19 17:58:46 -0400
Classification,Sinus Rhythm
Symptoms,
Software Version,1.90
Device,"Watch5,4"
Sample Rate,512.844 hertz


Lead,Lead I
Unit,µV

60.64
66.147
72.111
77.756
82.295
84.999
85.685
84.437
81.005
75.521
68.631
60.749
52.332
43.868
35.513
27.47
20.23
13.91
8.243
3.122
-1.578
-5.966
-9.961
-13.622
-17.205
-20.754
-24.12
-27.229
-30.027
-32.547
-34.986
-37.511
-40.195
-43.194
-46.731
-50.931
-55.883
-61.513
-67.458
-73.324
-78.749
-83.291
-86.52
-88.134
-87.819
-85.597
-82.106
-77.929
-73.591
-69.797
-67.062
-65.845
-66.938
-69.822
-71.8
-70.305
-62.617
-47.596
-28.824
-9.389
10.591
33.779
70.263
131.388
221.691
340.017
474.451
606.427
721.194
806.381
855.67
866.783
834.297
753.437
621.565
442.103
230.478
10.879
-190.363
-351.303
-462.647
-529.982
-565.332
-581.621
-585.801
-573.754
-541.125
-487.357
-417.955
-348.144
-289.853
-248.377
-223.235
-206.008
-191.053
-177.031
-164.776
-158.37
-158.973
-164.501
-171.976
-177.452
-178.664
-175.579
-168.702
-158.814
-146.964
-134.159
-121.679
-111.127
-103.526
-98.874
-96.877
-97.188
-99.133
-102.046
-105.182
-107.441
-108.288
-108.015
-106.855
-104.997
-102.75
-100.249
-97.731
-95.73
-94.342
-93.18
-92.02
-90.7
-89.106
-87.34
-85.368
-82.975
-80.18
-77.199
-74.182
-71.272
-68.54
-65.925
-63.453
-61.229
-59.29
-57.623
-56.198
-54.953
-53.855
-52.911
-52.107
-51.412
-50.793
-50.207
-49.628
-49.045
-48.439
-47.787
-47.053
-46.196
-45.179
-43.983
-42.588
-40.979
-39.144
-37.07
-34.751
-32.19
-29.392
-26.358
-23.089
-19.585
-15.847
-11.882
-7.699
-3.307
1.281
6.054
10.999
16.101
21.346
26.718
32.205
37.793
43.466
49.21
55.008
60.843
66.696
72.551
78.389
84.193
89.944
95.626
101.223
106.72
112.102
117.354
122.463
127.417
132.202
136.809
141.225
145.442
149.45
153.241
156.808
160.144
163.244
166.103
168.717
171.082
173.195
175.054
176.658
178.005
179.095
179.93
180.51
180.838
180.917
180.746
180.332
179.676
178.785
177.667
176.324
174.758
172.984
171.015
168.861
166.538
164.048
161.388
158.577
155.634
152.545
149.302
145.901
142.331
138.619
134.813
130.904
126.865
122.804
118.842
114.924
111.067
107.301
103.395
100.012
97.798
95.852
93.908
90.302
83.039
74.343
65.694
59.297
58.174
59.66
61.495
62.13
59.005
53.953
48.834
44.059
40.763
38.285
35.78
33.407
31.056
28.778
26.743
24.835
22.958
21.137
19.375
17.655
15.974
14.334
12.731
11.177
9.686
8.243
6.836
5.463
4.118
2.796
1.496
0.21
-1.067
-2.338
-3.603
-4.865
-6.127
-7.39
-8.656
-9.927
-11.203
-12.485
-13.774
-15.069
-16.369
-17.676
-18.986
-20.301
-21.617
-22.935
-24.253
-25.57
-26.883
-28.193
-29.497
-30.793
-32.081
-33.358
-34.623
-35.876
-37.115
-38.341
-39.553
-40.751
-41.938
-43.113
-44.279
-45.438
-46.59
-47.737
-48.882
-50.026
-51.171
-52.319
-53.473
-54.635
-55.809
-56.996
-58.2
-59.422
-60.666
-61.933
-63.225
-64.544
-65.89
-67.265
-68.669
-70.104
-71.569
-73.065
-74.59
-76.144
-77.724
-79.327
-80.948
-82.583
-84.223
-85.862
-87.492
-89.105
-90.693
-92.248
-93.763
-95.229
-96.64
-97.99
-99.271
-100.473
-101.588
-102.603
-103.508
-104.291
-104.941
-105.445
-105.794
-105.979
-105.994
-105.837
-105.5
-104.978
-104.263
-103.343
-102.212
-100.872
-99.323
-97.57
-95.628
-93.515
-91.264
-88.911
-86.48
-83.992
-81.459
-78.882
-76.267
-73.618
-70.936
-68.233
-65.522
-62.808
-60.107
-57.43
-54.769
-52.111
-49.42
-46.647
-43.776
-40.808
-37.754
-34.663
-31.581
-28.57
-25.711
-23.066
-20.685
-18.619
-16.898
-15.557
-14.649
-14.231
-14.377
-15.183
-16.695
-18.94
-21.916
-25.565
-29.82
-34.585
-39.729
-45.142
-50.729
-56.397
-62.073
-67.681
-73.128
-78.333
-83.2
-87.621
-91.521
-94.853
-97.616
-99.88
-101.735
-103.29
-104.678
-106.006
-107.391
-108.961
-110.823
-113.088
-115.829
-119.114
-123.06
-127.762
-133.219
-139.285
-145.603
-151.706
-157.167
-161.516
-164.192
-164.731
-162.835
-158.639
-152.773
-145.969
-139.059
-132.951
-128.497
-126.651
-127.402
-128.92
-128.941
-125.014
-115.955
-103.674
-89.149
-70.519
-43.679
-0.352
67.097
159.582
273.723
400.737
526.65
640.737
733.771
796.928
826.583
818.77
769.446
678.262
545.878
377.505
184.774
-16.561
-206.845
-368.151
-488.499
-562.733
-595.518
-595.14
-568.72
-524.213
-466.524
-400.837
-337.178
-283.667
-244.888
-221.903
-208.905
-198.75
-188.342
-176.997
-166.856
-161.139
-160.128
-162.187
-165.025
-165.982
-163.666
-157.861
-148.925
-137.719
-124.989
-111.335
-97.455
-83.934
-71.397
-60.562
-51.722
-44.774
-39.511
-35.662
-32.952
-31.262
-30.41
-29.902
-29.368
-28.628
-27.532
-26.04
-24.106
-21.563
-18.296
-14.407
-10.012
-5.194
-0.057
5.381
11.103
17.022
23.057
29.161
35.286
41.382
47.409
53.281
58.902
64.211
69.161
73.735
77.944
81.798
85.306
88.493
91.388
94.019
96.416
98.604
100.6
102.429
104.122
105.717
107.261
108.792
110.339
111.925
113.566
115.274
117.063
118.938
120.904
122.963
125.116
127.367
129.721
132.186
134.767
137.467
140.276
143.193
146.231
149.41
152.75
156.256
159.905
163.678
167.585
171.616
175.714
179.794
183.773
187.61
191.347
195.024
198.591
202.082
205.746
209.772
214.181
218.912
223.663
228.948
236.377
246.528
258.323
267.905
269.504
260.842
245.02
230.109
225.546
235.241
255.509
277.31
291.879
295.675
291.018
283.698
278.185
275.907
276.058
276.711
276.961
276.916
276.75
276.638
276.485
276.061
275.348
274.363
273.019
271.292
269.261
267.141
265.212
263.574
262.077
260.516
258.819
256.932
254.727
251.746
247.334
241.19
233.496
224.83
215.791
206.74
197.948
190.126
184.293
181.105
180.702
182.372
185.042
188.099
191.211
193.746
194.858
193.814
190.131
184.306
177.441
170.166
162.819
155.757
149.317
143.972
140.255
138.012
136.59
135.595
134.783
134.041
133.415
132.772
131.829
130.575
129.205
127.856
126.647
125.592
124.582
123.589
122.659
121.8
120.998
120.23
119.454
118.66
117.871
117.101
116.36
115.651
114.96
114.283
113.619
112.97
112.339
111.727
111.129
110.54
109.954
109.366
108.776
108.181
107.576
106.957
106.318
105.657
104.975
104.273
103.549
102.802
102.029
101.229
100.4
99.542
98.652
97.731
96.775
95.782
94.752
93.684
92.575
91.424
90.23
88.991
87.706
86.374
84.994
83.566
82.088
80.562
78.985
77.358
75.681
73.954
72.176
70.349
68.473
66.549
64.578
62.562
60.502
58.402
56.263
54.089
51.883
49.65
47.393
45.118
42.832
40.54
38.249
35.967
33.701
31.46
29.252
27.086
24.971
22.916
20.929
19.02
17.198
15.473
13.853
12.348
10.968
9.722
8.618
7.666
6.873
6.246
5.792
5.518
5.428
5.528
5.822
6.31
6.997
7.88
8.961
10.235
11.698
13.344
15.165
17.15
19.29
21.568
23.971
26.482
29.085
31.76
34.489
37.25
40.023
42.787
45.519
48.196
50.793
53.285
55.648
57.856
59.887
61.715
63.317
64.669
65.751
66.547
67.042
67.219
67.065
66.561
65.696
64.47
62.883
60.936
58.638
55.998
53.039
49.797
46.307
42.606
38.727
34.694
30.54
26.3
22.017
17.735
13.491
9.312
5.227
1.264
-2.552
-6.211
-9.723
-13.138
-16.515
-19.906
-23.365
-26.931
-30.637
-34.534
-38.684
-43.149
-47.997
-53.283
-59.034
-65.299
-72.156
-79.591
-87.495
-95.606
-103.449
-110.515
-116.387
-120.607
-122.697
-122.372
-119.499
-114.293
-107.592
-100.401
-93.549
-87.822
-83.958
-82.343
-83.137
-86.069
-88.877
-87.983
-80.517
-63.622
-37.245
-4.865
32.868
76.398
128.543
196.841
282.932
384.056
494.255
600.933
694.63
766.635
806.968
807.951
760.597
661.158
513.276
327.921
124.04
-79.531
-264.292
-416.496
-530.532
-604.479
-643.481
-654.825
-642.914
-612.249
-564.955
-504.326
-438.785
-376.722
-324.696
-285.546
-255.906
-231.826
-211.753
-195.854
-186.704
-185.622
-191.103
-200.322
-209.635
-216.287
-218.922
-217.237
-211.742
-203.149
-192.357
-180.497
-168.679
-158.02
-149.527
-143.624
-140.278
-139.254
-140.096
-142.32
-145.503
-149.14
-152.698
-155.863
-158.47
-160.438
-161.783
-162.474
-162.463
-161.771
-160.46
-158.591
-156.23
-153.426
-150.214
-146.658
-142.832
-138.809
-134.668
-130.468
-126.265
-122.123
-118.105
-114.288
-110.728
-107.452
-104.47
-101.77
-99.335
-97.149
-95.185
-93.405
-91.776
-90.263
-88.84
-87.486
-86.178
-84.887
-83.581
-82.218
-80.767
-79.205
-77.517
-75.691
-73.718
-71.589
-69.304
-66.867
-64.281
-61.546
-58.662
-55.623
-52.429
-49.08
-45.582
-41.938
-38.155
-34.237
-30.189
-26.02
-21.736
-17.344
-12.85
-8.26
-3.579
1.182
6.014
10.908
15.852
20.836
25.849
30.878
35.912
40.939
45.948
50.93
55.873
60.766
65.6
70.363
75.045
79.636
84.125
88.503
92.76
96.885
100.87
104.706
108.384
111.897
115.237
118.396
121.369
124.148
126.729
129.104
131.269
133.22
134.952
136.463
137.749
138.809
139.641
140.245
140.62
140.767
140.687
140.382
139.855
139.108
138.146
136.974
135.598
134.025
132.262
130.317
128.199
125.918
123.485
120.909
118.202
115.376
112.442
109.413
106.301
103.12
99.882
96.601
93.29
89.962
86.63
83.307
80.005
76.736
73.513
70.347
67.249
64.228
61.296
58.46
55.73
53.112
50.614
48.241
45.997
43.887
41.912
40.074
38.375
36.814
35.391
34.103
32.949
31.926
31.028
30.253
29.594
29.047
28.604
28.26
28.008
27.839
27.749
27.727
27.769
27.865
28.008
28.19
28.404
28.641
28.895
29.157
29.422
29.682
29.931
30.165
30.378
30.565
30.724
30.851
30.942
30.996
31.01
30.983
30.913
30.8
30.644
30.445
30.203
29.918
29.59
29.221
28.809
28.355
27.858
27.318
26.734
26.106
25.433
24.715
23.951
23.14
22.284
21.38
20.428
19.428
18.378
17.275
16.119
14.908
13.638
12.309
10.917
9.462
7.94
6.348
4.686
2.95
1.138
-0.753
-2.723
-4.775
-6.907
-9.119
-11.408
-13.772
-16.206
-18.704
-21.258
-23.861
-26.506
-29.185
-31.891
-34.614
-37.346
-40.08
-42.808
-45.519
-48.202
-50.843
-53.428
-55.944
-58.376
-60.707
-62.92
-65
-66.931
-68.703
-70.305
-71.721
-72.935
-73.926
-74.68
-75.189
-75.447
-75.452
-75.202
-74.704
-73.973
-73.039
-71.929
-70.665
-69.253
-67.691
-65.981
-64.128
-62.136
-60.015
-57.756
-55.347
-52.786
-50.075
-47.219
-44.209
-41.012
-37.575
-33.853
-29.833
-25.528
-20.974
-16.206
-11.268
-6.217
-1.129
3.89
8.743
13.359
17.683
21.666
25.239
28.304
30.735
32.433
33.335
33.414
32.664
31.087
28.712
25.603
21.874
17.67
13.12
8.321
3.342
-1.742
-6.843
-11.842
-16.599
-21.002
-24.963
-28.413
-31.296
-33.572
-35.244
-36.368
-37.068
-37.487
-37.741
-37.929
-38.138
-38.466
-39.038
-39.992
-41.43
-43.467
-46.253
-49.865
-54.339
-59.572
-65.201
-70.825
-76.065
-80.44
-83.47
-84.829
-84.244
-81.852
-78.477
-74.868
-71.667
-69.725
-69.659
-71.86
-76.867
-83.76
-89.566
-91.793
-87.988
-76.934
-60.727
-40.109
-13.124
23.385
75.411
147.858
239.455
346.087
460.684
572.984
675.34
758.284
810.423
823.172
788.507
706.479
584.666
432.234
262.469
84.788
-93.353
-259.513
-403.985
-517.039
-590.392
-626.615
-630.089
-604.917
-559.692
-499.84
-432.741
-370.842
-320.33
-283.581
-258.503
-236.501
-213.413
-189.209
-166.116
-149.186
-139.926
-137.021
-138.378
-140.701
-142.127
-141.958
-139.481
-134.846
-128.541
-120.832
-112.315
-103.7
-95.532
-88.548
-83.464
-80.486
-79.48
-80.178
-82.161
-85.059
-88.55
-92.171
-95.424
-97.983
-99.691
-100.532
-100.582
-99.895
-98.501
-96.473
-93.921
-90.962
-87.704
-84.232
-80.597
-76.846
-73.06
-69.339
-65.791
-62.521
-59.596
-57.041
-54.878
-53.117
-51.754
-50.776
-50.147
-49.815
-49.733
-49.863
-50.169
-50.623
-51.188
-51.816
-52.457
-53.062
-53.59
-54.017
-54.316
-54.467
-54.451
-54.258
-53.881
-53.323
-52.583
-51.654
-50.531
-49.206
-47.677
-45.941
-43.999
-41.851
-39.5
-36.946
-34.193
-31.245
-28.105
-24.779
-21.272
-17.588
-13.734
-9.719
-5.553
-1.248
3.185
7.733
12.383
17.121
21.934
26.808
31.73
36.686
41.665
46.652
51.634
56.599
61.532
66.422
71.254
76.016
80.695
85.278
89.751
94.104
98.322
102.394
106.309
110.054
113.618
116.991
120.162
123.123
125.863
128.374
130.65
132.682
134.464
135.99
137.255
138.255
138.985
139.442
139.625
139.53
139.158
138.507
137.579
136.375
134.898
133.151
131.139
128.869
126.346
123.579
120.578
117.352
113.912
110.272
106.444
102.443
98.283
93.98
89.551
85.011
80.378
75.669
70.902
66.095
61.266
56.432
51.612
46.822
42.082
37.407
32.815
28.32
23.94
19.688
15.578
11.623
7.836
4.228
0.808
-2.414
-5.431
-8.237
-10.827
-13.197
-15.345
-17.27
-18.973
-20.454
-21.717
-22.766
-23.605
-24.24
-24.678
-24.927
-24.996
-24.892
-24.628
-24.213
-23.658
-22.976
-22.177
-21.273
-20.278
-19.203
-18.061
-16.863
-15.623
-14.352
-13.062
-11.764
-10.469
-9.187
-7.927
-6.699
-5.51
-4.369
-3.281
-2.253
-1.291
-0.399
0.419
1.158
1.817
2.392
2.883
3.287
3.604
3.832
3.972
4.025
3.988
3.865
3.654
3.357
2.977
2.514
1.971
1.35
0.653
-0.117
-0.957
-1.865
-2.838
-3.874
-4.972
-6.129
-7.343
-8.611
-9.932
-11.304
-12.726
-14.193
-15.705
-17.259
-18.852
-20.482
-22.146
-23.839
-25.558
-27.296
-29.049
-30.81
-32.569
-34.319
-36.052
-37.758
-39.43
-41.06
-42.638
-44.158
-45.614
-46.999
-48.304
-49.522
-50.64
-51.647
-52.534
-53.288
-53.897
-54.349
-54.631
-54.734
-54.652
-54.38
-53.91
-53.23
-52.328
-51.195
-49.831
-48.239
-46.423
-44.39
-42.151
-39.731
-37.167
-34.492
-31.733
-28.904
-26.006
-23.049
-20.044
-17.004
-13.941
-10.852
-7.732
-4.578
-1.4
1.8
5.028
8.317
11.72
15.278
19.002
22.875
26.86
30.923
35.024
39.111
43.114
46.937
50.496
53.726
56.584
59.02
60.965
62.324
62.979
62.845
61.875
60.057
57.408
53.951
49.743
44.866
39.438
33.606
27.491
21.189
14.777
8.344
1.999
-4.127
-9.896
-15.205
-19.976
-24.162
-27.757
-30.773
-33.28
-35.377
-37.181
-38.829
-40.446
-42.138
-44.021
-46.218
-48.825
-51.97
-55.817
-60.419
-65.772
-71.76
-78.026
-84.156
-89.776
-94.414
-97.571
-98.963
-98.406
-96.031
-92.585
-88.911
-85.706
-83.674
-83.418
-85.192
-89.103
-94.872
-100.26
-101.842
-96.88
-82.448
-58.609
-29.069
5.416
44.882
91.979
155.005
236.524
335.325
447.084
558.605
658.792
736.103
777.785
778.601
734.235
646.623
524.201
372.647
201.918
22.879
-153.498
-309.259
-429.949
-509.935
-550.41
-561.785
-557.103
-541.455
-515.522
-480.224
-434.429
-382.731
-333.085
-287.674
-249.306
-219.038
-194.691
-177.59
-168.021
-164.362
-165.815
-169.885
-173.828
-176.059
-175.1
-170.435
-162.498
-151.93
-139.628
-126.583
-113.76
-102.165
-92.749
-86.001
-81.934
-80.297
-80.655
-82.56
-85.604
-89.312
-93.17
-96.815
-100.031
-102.696
-104.77
-106.189
-106.888
-106.859
-106.136
-104.774
-102.828
-100.346
-97.376
-93.984
-90.251
-86.258
-82.08
-77.789
-73.456
-69.153
-64.962
-60.967
-57.226
-53.774
-50.631
-47.788
-45.232
-42.947
-40.902
-39.059
-37.385
-35.847
-34.416
-33.072
-31.79
-30.539
-29.287
-27.991
-26.621
-25.156
-23.576
-21.871
-20.033
-18.056
-15.937
-13.684
-11.299
-8.782
-6.132
-3.344
-0.416
2.651
5.854
9.19
12.656
16.249
19.965
23.799
27.748
31.806
35.971
40.239
44.608
49.069
53.617
58.243
62.938
67.694
72.499
77.343
82.215
87.102
91.993
96.876
101.739
106.568
111.351
116.074
120.723
125.286
129.748
134.096
138.314
142.391
146.311
150.061
153.628
156.999
160.161
163.102
165.81
168.274
170.483
172.427
174.095
175.48
176.574
177.369
177.86
178.042
177.912
177.469
176.711
175.64
174.258
172.568
170.576
168.287
165.709
162.851
159.722
156.335
152.701
148.833
144.747
140.456
135.978
131.33
126.527
121.589
116.535
111.382
106.151
100.86
95.53
90.179
84.827
79.494
74.197
68.956
63.787
58.707
53.733
48.877
44.155
39.578
35.158
30.904
26.824
22.927
19.219
15.703
12.384
9.263
6.343
3.623
1.102
-1.221
-3.351
-5.29
-7.045
-8.62
-10.023
-11.261
-12.341
-13.274
-14.066
-14.729
-15.272
-15.706
-16.04
-16.285
-16.451
-16.55
-16.59
-16.582
-16.535
-16.459
-16.362
-16.251
-16.136
-16.022
-15.917
-15.826
-15.755
-15.709
-15.693
-15.71
-15.765
-15.861
-15.999
-16.182
-16.412
-16.69
-17.016
-17.39
-17.813
-18.286
-18.807
-19.376
-19.993
-20.658
-21.369
-22.128
-22.932
-23.781
-24.674
-25.611
-26.589
-27.61
-28.671
-29.772
-30.912
-32.09
-33.307
-34.561
-35.853
-37.18
-38.543
-39.941
-41.372
-42.837
-44.333
-45.861
-47.42
-49.008
-50.625
-52.27
-53.941
-55.635
-57.349
-59.079
-60.821
-62.569
-64.315
-66.053
-67.776
-69.477
-71.147
-72.78
-74.368
-75.904
-77.383
-78.797
-80.139
-81.399
-82.566
-83.631
-84.582
-85.409
-86.099
-86.642
-87.027
-87.245
-87.294
-87.167
-86.854
-86.347
-85.631
-84.699
-83.548
-82.18
-80.594
-78.799
-76.807
-74.644
-72.346
-69.942
-67.45
-64.88
-62.233
-59.512
-56.723
-53.873
-50.963
-47.998
-44.972
-41.893
-38.773
-35.61
-32.389
-29.077
-25.611
-21.961
-18.123
-14.111
-9.958
-5.707
-1.405
2.881
7.061
11.058
14.804
18.249
21.368
24.11
26.408
28.172
29.291
29.691
29.337
28.212
26.323
23.705
20.418
16.569
12.305
7.747
2.995
-1.876
-6.813
-11.74
-16.562
-21.171
-25.451
-29.31
-32.685
-35.512
-37.751
-39.405
-40.529
-41.241
-41.691
-42
-42.245
-42.498
-42.833
-43.337
-44.119
-45.273
-46.865
-48.99
-51.769
-55.263
-59.438
-64.073
-68.724
-72.888
-76.089
-77.833
-77.65
-75.218
-70.444
-63.745
-56.032
-48.373
-41.856
-37.366
-35.534
-36.825
-41.311
-48.068
-55.363
-60.129
-57.967
-45.377
-20.319
16.415
60.813
109.244
161.593
221.979
297.068
391.89
503.045
618.327
720.281
789.231
812.368
784.136
704.335
579.545
415.258
220.611
11.952
-192.665
-368.972
-497.83
-574.887
-604.906
-602.423
-581.931
-549.454
-507.209
-457.043
-403.73
-354.04
-313.499
-282.15
-254.413
-226.572
-197.445
-168.859
-146.14
-131.212
-122.939
-119.725
-118.492
-117.285
-115.702
-113.018
-108.681
-102.779
-95.504
-87.158
-78.373
-69.695
-61.536
-54.54
-49.308
-45.993
-44.489
-44.529
-45.705
-47.678
-50.127
-52.622
-54.714
-56.094
-56.618
-56.27
-55.109
-53.192
-50.563
-47.295
-43.504
-39.303
-34.791
-30.057
-25.16
-20.156
-15.14
-10.211
-5.471
-1.03
3.049
6.734
9.998
12.836
15.256
17.27
18.91
20.224
21.251
22.029
22.59
22.961
23.177
23.282
23.322
23.347
23.395
23.492
23.663
23.926
24.297
24.788
25.405
26.145
27.011
28.011
29.149
30.435
31.877
33.476
35.235
37.154
39.236
41.48
43.886
46.454
49.182
52.068
55.111
58.308
61.658
65.153
68.788
72.553
76.44
80.439
84.538
88.727
92.992
97.322
101.704
106.126
110.575
115.037
119.5
123.949
128.37
132.75
137.074
141.328
145.497
149.568
153.526
157.358
161.049
164.587
167.959
171.152
174.155
176.957
179.546
181.912
184.047
185.941
187.587
188.978
190.108
190.971
191.564
191.884
191.928
191.695
191.185
190.398
189.337
188.004
186.403
184.538
182.415
180.042
177.426
174.576
171.503
168.216
164.729
161.052
157.2
153.186
149.024
144.73
140.318
135.805
131.207
126.539
121.818
117.06
112.282
107.499
102.728
97.983
93.281
88.635
84.06
79.569
75.175
70.891
66.727
62.695
58.804
55.063
51.481
48.064
44.818
41.75
38.862
36.159
33.642
31.313
29.173
27.221
25.455
23.875
22.476
21.255
20.208
19.33
18.615
18.057
17.649
17.385
17.258
17.259
17.381
17.615
17.954
18.389
18.911
19.512
20.185
20.919
21.708
22.544
23.418
24.324
25.255
26.202
27.161
28.125
29.089
30.046
30.992
31.923
32.835
33.723
34.586
35.42
36.223
36.992
37.725
38.42
39.075
39.688
40.259
40.785
41.266
41.701
42.09
42.432
42.727
42.976
43.178
43.333
43.442
43.505
43.52
43.489
43.411
43.287
43.117
42.9
42.638
42.329
41.974
41.572
41.123
40.627
40.082
39.49
38.85
38.163
37.431
36.656
35.84
34.988
34.104
33.191
32.254
31.297
30.324
29.339
28.345
27.346
26.345
25.346
24.357
23.383
22.433
21.516
20.643
19.822
19.062
18.372
17.76
17.231
16.792
16.448
16.208
16.082
16.084
16.226
16.513
16.947
17.523
18.232
19.057
19.98
20.976
22.031
23.133
24.283
25.488
26.757
28.101
29.519
30.997
32.525
34.093
35.696
37.335
39.023
40.781
42.64
44.64
46.799
49.121
51.578
54.121
56.684
59.189
61.573
63.79
65.797
67.563
69.052
70.231
71.049
71.444
71.342
70.657
69.325
67.312
64.621
61.295
57.411
53.08
48.402
43.467
38.35
33.109
27.805
22.495
17.249
12.153
7.299
2.795
-1.268
-4.822
-7.834
-10.319
-12.343
-14.028
-15.491
-16.836
-18.162
-19.552
-21.104
-22.923
-25.124
-27.795
-31.04
-35.003
-39.756
-45.328
-51.642
-58.396
-65.199
-71.659
-77.316
-81.698
-84.502
-85.463
-84.567
-82.388
-79.595
-76.828
-74.774
-73.944
-74.687
-77.353
-81.917
-86.43
-87.798
-83.427
-70.553
-49.687
-24.592
4.413
37.841
79.364
138.758
219.125
319.216
434.804
550.882
654.959
737.531
786.433
798.333
772.634
707.517
608.792
480.698
325.015
150.481
-33.191
-211.686
-364.197
-477.325
-546.257
-574.649
-574.334
-554.055
-517.928
-468.736
-410.291
-351.835
-303.078
-269.218
-248.749
-233.62
-217.62
-198.884
-179.717
-165.484
-158.189
-156.922
-159.521
-162.532
-164.158
-163.841
-160.973
-155.794
-148.876
-140.547
-131.418
-122.19
-113.329
-105.479
-99.367
-95.229
-92.975
-92.405
-93.127
-94.791
-97.164
-99.881
-102.482
-104.68
-106.287
-107.195
-107.44
-107.034
-105.962
-104.274
-102.045
-99.344
-96.255
-92.851
-89.174
-85.281
-81.227
-77.069
-72.895
-68.787
-64.823
-61.092
-57.644
-54.515
-51.733
-49.302
-47.212
-45.448
-43.981
-42.774
-41.797
-41.025
-40.432
-39.998
-39.693
-39.483
-39.332
-39.199
-39.052
-38.868
-38.623
-38.303
-37.898
-37.397
-36.8
-36.109
-35.321
-34.436
-33.448
-32.35
-31.139
-29.811
-28.367
-26.805
-25.127
-23.333
-21.423
-19.399
-17.262
-15.015
-12.657
-10.189
-7.614
-4.934
-2.155
0.718
3.678
6.719
9.834
13.014
16.253
19.541
22.872
26.238
29.631
33.045
36.47
39.9
43.325
46.737
50.129
53.49
56.812
60.085
63.3
66.448
69.518
72.502
75.39
78.173
80.84
83.383
85.792
88.058
90.173
92.129
93.917
95.53
96.962
98.206
99.256
100.109
100.757
101.199
101.43
101.446
101.246
100.829
100.192
99.336
98.263
96.973
95.47
93.756
91.838
89.719
87.407
84.908
82.232
79.386
76.382
73.23
69.942
66.529
63.004
59.381
55.673
51.894
48.057
44.175
40.263
36.335
32.403
28.481
24.583
20.721
16.907
13.155
9.475
5.878
2.375
-1.024
-4.312
-7.479
-10.518
-13.423
-16.189
-18.811
-21.285
-23.609
-25.781
-27.801
-29.669
-31.388
-32.96
-34.389
-35.679
-36.835
-37.862
-38.767
-39.555
-40.234
-40.81
-41.292
-41.687
-42.003
-42.248
-42.431
-42.56
-42.644
-42.691
-42.709
-42.706
-42.69
-42.668
-42.648
-42.635
-42.637
-42.66
-42.71
-42.79
-42.905
-43.058
-43.253
-43.491
-43.773
-44.1
-44.472
-44.889
-45.351
-45.857
-46.407
-47
-47.635
-48.312
-49.03
-49.787
-50.581
-51.412
-52.277
-53.175
-54.103
-55.061
-56.045
-57.055
-58.089
-59.145
-60.222
-61.319
-62.434
-63.566
-64.714
-65.878
-67.057
-68.252
-69.463
-70.691
-71.939
-73.206
-74.496
-75.807
-77.142
-78.499
-79.878
-81.277
-82.692
-84.12
-85.558
-87.001
-88.446
-89.889
-91.325
-92.751
-94.164
-95.559
-96.933
-98.279
-99.589
-100.855
-102.069
-103.222
-104.304
-105.304
-106.21
-107.012
-107.703
-108.275
-108.717
-109.017
-109.157
-109.124
-108.912
-108.516
-107.936
-107.172
-106.227
-105.115
-103.861
-102.489
-101.023
-99.476
-97.844
-96.129
-94.334
-92.464
-90.527
-88.519
-86.416
-84.204
-81.875
-79.419
-76.828
-74.07
-71.087
-67.834
-64.278
-60.413
-56.268
-51.872
-47.252
-42.459
-37.549
-32.612
-27.766
-23.109
-18.712
-14.646
-10.978
-7.801
-5.246
-3.423
-2.408
-2.249
-2.953
-4.525
-6.962
-10.223
-14.222
-18.835
-23.899
-29.279
-34.879
-40.604
-46.362
-52.038
-57.483
-62.569
-67.206
-71.32
-74.858
-77.775
-80.026
-81.618
-82.632
-83.205
-83.497
-83.65
-83.754
-83.886
-84.158
-84.693
-85.635
-87.112
-89.179
-91.901
-95.407
-99.782
-105.021
-110.954
-117.157
-123.105
-128.344
-132.392
-134.677
-134.748
-132.362
-127.723
-121.55
-114.702
-108.073
-102.574
-99.166
-98.816
-101.2
-104.414
-106.398
-104.574
-98.377
-89.651
-76.986
-57.421
-25.626
26.733
101.979
197.349
307.179
421.758
532.476
632.832
715.574
771.942
795.03
779.624
722.359
627.46
500.179
345.21
172.64
-8.774
-186.877
-344.295
-469.598
-555.242
-600.861
-614.716
-603.763
-573.922
-529.785
-474.658
-415.362
-359.532
-312.386
-275.727
-246.783
-222.203
-200.984
-184.065
-174.199
-172.71
-178.313
-188.397
-199.225
-207.834
-212.674
-213.194
-209.781
-203.135
-194.044
-183.466
-172.537
-162.446
-154.267
-148.551
-145.291
-144.224
-144.917
-146.918
-149.813
-153.128
-156.359
-159.158
-161.361
-162.886
-163.731
-163.91
-163.403
-162.236
-160.481
-158.202
-155.464
-152.335
-148.866
-145.118
-141.161
-137.053
-132.851
-128.627
-124.448
-120.385
-116.521
-112.908
-109.581
-106.572
-103.884
-101.508
-99.431
-97.626
-96.054
-94.689
-93.502
-92.469
-91.572
-90.788
-90.089
-89.442
-88.812
-88.167
-87.484
-86.742
-85.926
-85.025
-84.03
-82.936
-81.747
-80.461
-79.076
-77.586
-75.986
-74.269
-72.434
-70.479
-68.404
-66.21
-63.898
-61.469
-58.924
-56.267
-53.5
-50.624
-47.64
-44.552
-41.362
-38.078
-34.704
-31.248
-27.717
-24.119
-20.464
-16.759
-13.015
-9.24
-5.443
-1.635
2.176
5.979
9.763
13.517
17.231
20.893
24.493
28.02
31.46
34.804
38.04
41.157
44.144
46.99
49.685
52.219
54.581
56.762
58.752
60.544
62.128
63.496
64.643
65.562
66.246
66.692
66.896
66.855
66.566
66.029
65.244
64.212
62.934
61.415
59.659
57.67
55.457
53.025
50.386
47.548
44.522
41.32
37.954
34.439
30.789
27.018
23.142
19.178
15.141
11.049
6.919
2.769
-1.385
-5.525
-9.634
-13.695
-17.692
-21.609
-25.431
-29.143
-32.732
-36.185
-39.489
-42.635
-45.612
-48.411
-51.026
-53.449
-55.676
-57.703
-59.527
-61.147
-62.561
-63.773
-64.783
-65.595
-66.214
-66.644
-66.893
-66.968
-66.876
-66.628
-66.234
-65.702
-65.046
-64.275
-63.402
-62.438
-61.396
-60.288
-59.125
-57.919
-56.681
-55.423
-54.155
-52.889
-51.633
-50.398
-49.192
-48.024
-46.902
-45.833
-44.823
-43.877
-43.001
-42.198
-41.472
-40.825
-40.259
-39.776
-39.376
-39.059
-38.823
-38.667
-38.589
-38.586
-38.655
-38.792
-38.994
-39.257
-39.577
-39.951
-40.375
-40.846
-41.361
-41.916
-42.506
-43.13
-43.782
-44.459
-45.159
-45.876
-46.608
-47.353
-48.106
-48.867
-49.633
-50.401
-51.171
-51.939
-52.705
-53.467
-54.225
-54.977
-55.722
-56.462
-57.195
-57.922
-58.643
-59.356
-60.062
-60.759
-61.443
-62.113
-62.764
-63.39
-63.987
-64.549
-65.072
-65.551
-65.982
-66.358
-66.677
-66.937
-67.132
-67.257
-67.305
-67.268
-67.138
-66.906
-66.564
-66.102
-65.51
-64.779
-63.903
-62.88
-61.703
-60.366
-58.857
-57.164
-55.279
-53.201
-50.93
-48.466
-45.817
-42.997
-40.027
-36.945
-33.776
-30.536
-27.234
-23.867
-20.437
-16.948
-13.403
-9.803
-6.15
-2.439
1.326
5.131
8.98
12.884
16.876
21.013
25.327
29.815
34.466
39.244
44.104
49.001
53.865
58.607
63.151
67.424
71.369
74.955
78.13
80.828
82.965
84.429
85.138
85.05
84.142
82.414
79.888
76.606
72.65
68.151
63.232
57.999
52.548
46.94
41.256
35.591
30.053
24.77
19.855
15.393
11.459
8.107
5.371
3.253
1.701
0.595
-0.203
-0.821
-1.368
-1.933
-2.616
-3.536
-4.826
-6.62
-9.014
-12.102
-15.996
-20.755
-26.384
-32.765
-39.547
-46.287
-52.555
-57.859
-61.689
-63.675
-63.493
-61.138
-57.189
-52.312
-47.12
-42.401
-38.88
-37.089
-37.68
-39.954
-41.039
-38.014
-27.948
-9.935
12.388
36.125
61.013
90.283
134.864
205.071
304.667
431.759
572.138
706.16
817.925
892.434
923.209
911.823
858.695
767.604
642.462
484.144
300.29
103.279
-90.732
-260.525
-390.952
-474.878
-513.956
-517.5
-493.907
-451.739
-396.885
-334.758
-274.647
-221.781
-179.322
-147.05
-118.813
-92.113
-66.933
-44.32
-28.395
-20.144
-17.832
-19.415
-21.359
-21.212
-18.093
-11.661
-2.447
8.736
21.226
34.244
46.875
58.2
67.328
73.818
77.76
79.46
79.376
77.993
75.714
73.005
70.423
68.342
66.978
66.48
66.844
68.053
70.133
73.042
76.7
81.044
85.981
91.418
97.291
103.506
109.975
116.625
123.354
130.063
136.665
143.057
149.176
154.994
160.48
165.629
170.451
174.957
179.181
183.171
186.964
190.598
194.107
197.516
200.862
204.184
207.52
210.913
214.396
217.989
221.712
225.581
229.603
233.787
238.133
242.634
247.288
252.096
257.058
262.178
267.457
272.892
278.48
284.218
290.103
296.129
302.294
308.591
315.014
321.559
328.219
334.99
341.865
348.835
355.89
363.019
370.211
377.453
384.734
392.038
399.354
406.667
413.965
421.234
428.462
435.636
442.742
449.766
456.698
463.522
470.226
476.798
483.224
489.492
495.59
501.504
507.224
512.737
518.031
523.097
527.922
532.497
536.813
540.859
544.627
548.11
551.301
554.193
556.781
559.06
561.026
562.678
564.012
565.028
565.724
566.101
566.159
565.901
565.329
564.444
563.251
561.754
559.958
557.868
555.489
552.83
549.896
546.695
543.236
539.528
535.578
531.398
526.995
522.382
517.567
512.56
507.373
502.015
496.496
490.825
485.013
479.067
472.998
466.814
460.522
454.131
447.647
441.079
434.432
427.714
420.931
414.089
407.195
400.255
393.275
386.262
379.222
372.161
365.086
358.004
350.92
343.842
336.775
329.727
322.703
315.711
308.758
301.85
294.994
288.198
281.469
274.815
268.243
261.761
255.377
249.1
242.938
236.899
230.993
225.227
219.611
214.153
208.861
203.743
198.805
194.056
189.5
185.145
180.994
177.052
173.324
169.811
166.517
163.444
160.592
157.962
155.553
153.366
151.399
149.65
148.117
146.796
145.684
144.778
144.072
143.562
143.242
143.107
143.148
143.361
143.736
144.267
144.945
145.762
146.709
147.778
148.96
150.248
151.631
153.103
154.654
156.277
157.963
159.706
161.496
163.327
165.192
167.082
168.992
170.914
172.841
174.765
176.68
178.579
180.453
182.295
184.098
185.854
187.557
189.198
190.77
192.266
193.679
195.001
196.226
197.347
198.356
199.247
200.014
200.649
201.147
201.501
201.705
201.754
201.641
201.361
200.908
200.277
199.462
198.459
197.263
195.869
194.274
192.475
190.467
188.25
185.821
183.179
180.323
177.253
173.968
170.469
166.757
162.833
158.698
154.353
149.799
145.038
140.072
134.902
129.529
123.953
118.176
112.198
106.018
99.637
93.053
86.264
79.27
72.07
64.663
57.048
49.224
41.194
32.957
24.515
15.87
7.024
-2.025
-11.273
-20.719
-30.36
-40.191
-50.208
-60.407
-70.773
-81.297
-91.964
-102.766
-113.695
-124.743
-135.896
-147.136
-158.446
-169.804
-181.185
-192.554
-203.867
-215.078
-226.146
-237.031
-247.707
-258.145
-268.305
-278.148
-287.626
-296.702
-305.351
-313.556
-321.288
-328.536
-335.32
-341.683
-347.71
-353.486
-359.064
-364.502
-369.867
-375.232
-380.709
-386.4
-392.365
-398.679
-405.428
-412.65
-420.371
-428.496
-436.696
-444.6
-451.843
-457.998
-462.673
-465.592
-466.495
-465.451
-463.096
-460.121
-457.165
-455.067
-454.546
-456.063
-460.218
-466.372
-471.955
-474.626
-472.055
-463.114
-449.979
-434.024
-413.912
-386.664
-345.727
-284.764
-203.926
-107.225
-2.696
97.011
182.958
247.866
283.409
285.285
247.767
164.822
36.703
-132.327
-330.569
-538.095
-733.399
-897.786
-1019.757
-1097.217
-1135.949
-1143.616
-1126.977
-1092.821
-1046.456
-995.247
-947.038
-905.438
-871.011
-840.169
-809.198
-778.267
-749.824
-727.99
-715.218
-710.693
-712.077
-716.126
-720.128
-722.481
-722.069
-718.577
-712.296
-703.744
-693.718
-683.091
-672.763
-663.692
-656.784
-652.5
-650.797
-651.385
-653.799
-657.54
-662.185
-667.241
-672.144
-676.501
-680.089
-682.762
-684.48
-685.221
-684.94
-683.653
-681.437
-678.357
-674.489
-669.914
-664.692
-658.91
-652.665
-646.041
-639.133
-632.038
-624.838
-617.624
-610.492
-603.501
-596.696
-590.102
-583.716
-577.53
-571.528
-565.682
-559.958
-554.323
-548.748
-543.209
-537.686
-532.157
-526.598
-520.98
-515.272
-509.453
-503.51
-497.434
-491.226
-484.888
-478.423
-471.841
-465.157
-458.384
-451.529
-444.602
-437.603
-430.54
-423.42
-416.252
-409.043
-401.803
-394.537
-387.252
-379.955
-372.651
-365.346
-358.042
-350.741
-343.446
-336.16
-328.888
-321.634
-314.402
-307.195
-300.017
-292.873
-285.767
-278.701
-271.679
-264.703
-257.776
-250.9
-244.078
-237.315
-230.612
-223.972
-217.4
-210.899
-204.473
-198.125
-191.859
-185.68
-179.592
-173.598
-167.704
-161.914
-156.233
-150.666
-145.219
-139.896
-134.703
-129.645
-124.727
-119.955
-115.332
-110.863
-106.552
-102.402
-98.417
-94.598
-90.949
-87.469
-84.161
-81.023
-78.054
-75.252
-72.615
-70.139
-67.819
-65.649
-63.624
-61.737
-59.98
-58.344
-56.82
-55.4
-54.071
-52.824
-51.646
-50.526
-49.451
-48.409
-47.387
-46.372
-45.352
-44.313
-43.243
-42.131
-40.963
-39.729
-38.419
-37.021
-35.526
-33.927
-32.215
-30.384
-28.429
-26.345
-24.128
-21.777
-19.29
-16.666
-13.908
-11.015
-7.992
-4.843
-1.571
1.817
5.313
8.91
12.6
16.373
20.219
24.127
28.085
32.082
36.105
40.143
44.181
48.206
52.206
56.167
60.077
63.921
67.688
71.365
74.942
78.405
81.746
84.955
88.021
90.937
93.695
96.287
98.708
100.952
103.014
104.892
106.583
108.085
109.397
110.52
111.455
112.203
112.768
113.154
113.364
113.405
113.282
113.002
112.573
112.004
111.303
110.478
109.541
108.501
107.367
106.151
104.863
103.513
102.113
100.671
99.2
97.708
96.207
94.706
93.215
91.742
90.297
88.886
87.519
86.201
84.941
83.743
82.615
81.56
80.585
79.693
78.887
78.171
77.547
77.017
76.583
76.244
76.001
75.854
75.804
75.848
75.987
76.22
76.544
76.96
77.465
78.057
78.736
79.499
80.346
81.276
82.288
83.382
84.557
85.813
87.153
88.575
90.081
91.672
93.347
95.109
96.956
98.892
100.915
103.028
105.232
107.526
109.913
112.392
114.963
117.628
120.385
123.234
126.172
129.199
132.311
135.506
138.78
142.128
145.545
149.024
152.556
156.133
159.746
163.38
167.024
170.662
174.279
177.856
181.377
184.822
188.171
191.404
194.502
197.444
200.212
202.788
205.15
207.276
209.147
210.743
212.045
213.036
213.696
214.01
213.964
213.551
212.77
211.614
210.082
208.168
205.863
203.168
200.094
196.651
192.854
188.721
184.274
179.55
174.597
169.459
164.178
158.787
153.308
147.776
142.229
136.715
131.296
126.016
120.899
115.969
111.232
106.703
102.406
98.333
94.436
90.658
86.925
83.211
79.558
75.928
72.185
68.096
63.385
57.949
51.874
45.225
37.995
30.28
22.429
15.234
9.71
6.509
5.83
7.642
11.896
18.502
26.953
35.896
43.571
48.534
50
47.934
42.469
33.747
22.62
11.12
2.7
1.622
11.283
33.404
67.097
110.131
161.081
219.661
288.982
372.017
468.509
575.392
682.674
779.02
854.533
898.891
907.718
877.5
805.358
694.225
547.088
372.396
184.732
-0.822
-166.221
-297.194
-387.831
-439.634
-460.564
-459.685
-442.27
-408.32
-357.887
-294.34
-225.764
-164.015
-116.933
-85.831
-66.437
-52.202
-39.346
-28.03
-21.022
-20.062
-24.359
-31.133
-36.608
-38.396
-36.061
-30.116
-21.575
-11.415
-0.395
10.541
20.276
27.83
32.723
34.985
34.919
33.001
29.689
25.397
20.633
15.943
11.724
8.231
5.583
3.762
2.742
2.517
3.048
4.271
6.116
8.49
11.304
14.481
17.94
21.61
25.408
29.234
32.972
36.504
39.744
42.644
45.177
47.326
49.079
50.432
51.408
52.053
52.409
52.515
52.405
52.101
51.64
51.065
50.424
49.767
49.131
48.544
48.027
47.601
47.286
47.096
47.036
47.105
47.305
47.642
48.124
48.761
49.56
50.523
51.654
52.955
54.43
56.082
57.912
59.92
62.107
64.473
67.019
69.745
72.65
75.73
78.979
82.39
85.957
89.67
93.521
97.499
101.592
105.79
110.082
114.456
118.9
123.401
127.947
132.523
137.117
141.713
146.297
150.853
155.368
159.824
164.207
168.501
172.69
176.759
180.692
184.476
188.094
191.532
194.776
197.814
200.631
203.216
205.558
207.645
209.468
211.018
212.286
213.267
213.954
214.342
214.426
214.204
213.674
212.834
211.686
210.231
208.472
206.413
204.06
201.42
198.501
195.313
191.867
188.173
184.245
180.097
175.742
171.197
166.478
161.601
156.584
151.446
146.204
140.877
135.485
130.045
124.576
119.098
113.629
108.186
102.789
97.453
92.196
87.035
81.984
77.059
72.272
67.638
63.166
58.869
54.756
50.833
47.11
43.592
40.283
37.187
34.308
31.645
29.199
26.969
24.954
23.149
21.552
20.156
18.956
17.946
17.117
16.463
15.973
15.638
15.45
15.396
15.467
15.651
15.937
16.312
16.767
17.288
17.865
18.486
19.139
19.815
20.502
21.19
21.87
22.532
23.167
23.768
24.327
24.838
25.292
25.687
26.015
26.274
26.46
26.569
26.598
26.547
26.414
26.197
25.898
25.516
25.052
24.508
23.886
23.189
22.419
21.58
20.675
19.707
18.682
17.603
16.475
15.303
14.09
12.843
11.565
10.262
8.938
7.596
6.24
4.874
3.5
2.121
0.739
-0.642
-2.023
-3.399
-4.77
-6.135
-7.491
-8.837
-10.174
-11.499
-12.812
-14.114
-15.404
-16.682
-17.948
-19.202
-20.443
-21.672
-22.89
-24.095
-25.289
-26.471
-27.642
-28.801
-29.949
-31.083
-32.204
-33.307
-34.391
-35.45
-36.48
-37.475
-38.429
-39.337
-40.193
-40.991
-41.727
-42.394
-42.99
-43.509
-43.946
-44.294
-44.547
-44.695
-44.731
-44.647
-44.434
-44.083
-43.585
-42.932
-42.121
-41.149
-40.01
-38.697
-37.199
-35.509
-33.629
-31.562
-29.317
-26.903
-24.332
-21.628
-18.825
-15.956
-13.055
-10.139
-7.213
-4.284
-1.364
1.536
4.399
7.223
10.025
12.813
15.59
18.363
21.136
23.94
26.837
29.872
33.077
36.456
39.978
43.615
47.344
51.119
54.889
58.578
62.074
65.295
68.191
70.701
72.769
74.306
75.175
75.275
74.541
72.935
70.466
67.148
62.991
58.064
52.474
46.36
39.893
33.212
26.406
19.582
12.855
6.363
0.292
-5.214
-10.062
-14.173
-17.504
-20.035
-21.758
-22.729
-23.076
-22.955
-22.553
-22.046
-21.575
-21.301
-21.381
-22
-23.411
-25.745
-29
-33.07
-37.668
-42.477
-47.227
-51.506
-54.764
-56.659
-57.03
-56.057
-54.436
-52.804
-51.684
-51.661
-53.143
-56.321
-61.174
-67.017
-72.47
-75.286
-72.136
-59.866
-35.919
-0.827
41.241
86.851
133.854
186.159
253.467
341.756
452.407
576.557
695.932
794.765
860.074
885.815
873.027
820.613
727.072
592.088
417.551
214.436
2.761
-194.693
-356.415
-469.178
-533.601
-559.113
-559.463
-547.566
-528.148
-500.728
-463.376
-414.288
-356.545
-295.839
-237.279
-185.815
-143.996
-112.37
-91.011
-78.906
-74.292
-75.459
-80.684
-87.903
-95.359
-101.563
-105.154
-105.729
-103.657
-99.472
-93.876
-87.786
-81.996
-77.331
-74.657
-74.218
-75.812
-79.094
-83.552
-88.667
-93.976
-98.957
-103.074
-106.05
-107.812
-108.381
-107.878
-106.4
-104.019
-100.862
-97.091
-92.846
-88.248
-83.414
-78.432
-73.418
-68.519
-63.853
-59.506
-55.539
-51.974
-48.82
-46.089
-43.773
-41.844
-40.272
-39.019
-38.045
-37.32
-36.805
-36.455
-36.221
-36.047
-35.887
-35.709
-35.486
-35.202
-34.844
-34.398
-33.858
-33.224
-32.495
-31.666
-30.731
-29.68
-28.505
-27.204
-25.772
-24.208
-22.509
-20.67
-18.688
-16.56
-14.284
-11.857
-9.277
-6.539
-3.644
-0.592
2.612
5.965
9.461
13.094
16.857
20.742
24.739
28.84
33.035
37.315
41.67
46.088
50.557
55.067
59.604
64.156
68.71
73.251
77.767
82.244
86.667
91.023
95.299
99.479
103.552
107.502
111.318
114.987
118.496
121.833
124.987
127.947
130.704
133.247
135.568
137.658
139.511
141.121
142.481
143.587
144.435
145.022
145.346
145.407
145.205
144.741
144.017
143.038
141.806
140.329
138.613
136.666
134.495
132.111
129.524
126.744
123.784
120.656
117.372
113.945
110.39
106.72
102.95
99.093
95.164
91.178
87.149
83.091
79.018
74.943
70.88
66.841
62.838
58.883
54.986
51.157
47.405
43.739
40.166
36.692
33.322
30.062
26.914
23.883
20.969
18.174
15.499
12.943
10.504
8.182
5.974
3.876
1.886
-0.002
-1.791
-3.487
-5.096
-6.623
-8.074
-9.456
-10.777
-12.042
-13.258
-14.432
-15.572
-16.683
-17.772
-18.846
-19.909
-20.969
-22.03
-23.098
-24.176
-25.269
-26.381
-27.515
-28.675
-29.863
-31.081
-32.332
-33.617
-34.937
-36.294
-37.687
-39.117
-40.583
-42.086
-43.622
-45.192
-46.794
-48.424
-50.082
-51.763
-53.465
-55.184
-56.918
-58.661
-60.412
-62.164
-63.915
-65.661
-67.397
-69.12
-70.825
-72.509
-74.168
-75.798
-77.395
-78.957
-80.478
-81.957
-83.389
-84.772
-86.103
-87.381
-88.602
-89.764
-90.866
-91.908
-92.888
-93.805
-94.659
-95.449
-96.177
-96.842
-97.446
-97.991
-98.476
-98.905
-99.279
-99.601
-99.872
-100.095
-100.271
-100.404
-100.495
-100.546
-100.562
-100.542
-100.49
-100.408
-100.297
-100.159
-99.996
-99.807
-99.592
-99.353
-99.088
-98.795
-98.474
-98.122
-97.736
-97.314
-96.855
-96.354
-95.809
-95.215
-94.568
-93.865
-93.101
-92.269
-91.361
-90.371
-89.293
-88.122
-86.854
-85.482
-84.002
-82.408
-80.698
-78.872
-76.928
-74.859
-72.659
-70.32
-67.844
-65.243
-62.527
-59.701
-56.775
-53.758
-50.666
-47.52
-44.332
-41.1
-37.824
-34.501
-31.14
-27.771
-24.417
-21.103
-17.846
-14.641
-11.498
-8.44
-5.474
-2.602
0.18
2.894
5.523
8.011
10.311
12.376
14.177
15.711
16.966
17.924
18.568
18.875
18.836
18.459
17.727
16.603
15.048
13.014
10.503
7.575
4.284
0.684
-3.173
-7.244
-11.474
-15.793
-20.142
-24.481
-28.772
-32.982
-37.054
-40.897
-44.42
-47.544
-50.223
-52.463
-54.291
-55.739
-56.862
-57.746
-58.474
-59.145
-59.866
-60.715
-61.78
-63.168
-64.965
-67.305
-70.364
-74.214
-78.844
-84.121
-89.689
-95.155
-100.151
-104.18
-106.734
-107.525
-106.403
-103.587
-99.85
-96.015
-92.896
-91.337
-91.845
-94.61
-99.671
-106.378
-113.141
-117.341
-115.33
-103.748
-80.811
-47.789
-7.607
37.654
88.093
148.328
222.796
312.2
413.342
515.869
608.948
683.332
729.033
740.882
713.009
640.013
523.244
365.151
175.449
-28.72
-229.37
-405.475
-541.419
-630.708
-674.933
-682.529
-662.09
-622.766
-571.125
-514.087
-461.835
-418.904
-387.084
-363.661
-339.885
-312.585
-282.418
-252.114
-227.99
-212.157
-203.074
-199.057
-197.115
-195.337
-193.401
-190.638
-186.402
-180.676
-173.632
-165.527
-156.94
-148.414
-140.338
-133.353
-128.109
-124.791
-123.307
-123.408
-124.683
-126.787
-129.421
-132.157
-134.541
-136.268
-137.149
-137.129
-136.253
-134.55
-132.058
-128.848
-125.017
-120.671
-115.905
-110.807
-105.437
-99.859
-94.151
-88.402
-82.701
-77.142
-71.814
-66.774
-62.058
-57.688
-53.663
-49.973
-46.603
-43.521
-40.687
-38.064
-35.621
-33.328
-31.165
-29.099
-27.096
-25.118
-23.124
-21.082
-18.975
-16.785
-14.502
-12.119
-9.633
-7.045
-4.364
-1.594
1.261
4.201
7.228
10.342
13.539
16.814
20.162
23.577
27.055
30.592
34.181
37.816
41.493
45.208
48.956
52.733
56.533
60.348
64.171
67.993
71.806
75.604
79.376
83.116
86.815
90.467
94.065
97.604
101.076
104.476
107.797
111.034
114.181
117.232
120.181
123.023
125.753
128.364
130.852
133.212
135.437
137.524
139.467
141.262
142.905
144.39
145.714
146.872
147.862
148.68
149.321
149.785
150.067
150.166
150.079
149.806
149.344
148.693
147.853
146.822
145.601
144.192
142.595
140.813
138.848
136.703
134.384
131.894
129.238
126.423
123.456
120.344
117.094
113.717
110.219
106.613
102.907
99.112
95.239
91.301
87.307
83.271
79.205
75.121
71.031
66.947
62.883
58.85
54.859
50.924
47.054
43.262
39.557
35.95
32.45
29.066
25.806
22.678
19.688
16.843
14.148
11.608
9.225
7.003
4.945
3.05
1.32
-0.246
-1.649
-2.891
-3.976
-4.906
-5.687
-6.323
-6.821
-7.187
-7.428
-7.552
-7.567
-7.482
-7.305
-7.046
-6.713
-6.317
-5.866
-5.372
-4.843
-4.288
-3.717
-3.139
-2.563
-1.998
-1.451
-0.93
-0.443
0.004
0.404
0.751
1.04
1.265
1.422
1.509
1.521
1.456
1.313
1.09
0.788
0.406
-0.054
-0.591
-1.203
-1.887
-2.64
-3.458
-4.336
-5.27
-6.256
-7.287
-8.358
-9.464
-10.598
-11.755
-12.928
-14.112
-15.301
-16.49
-17.672
-18.842
-19.996
-21.127
-22.232
-23.305
-24.343
-25.341
-26.297
-27.206
-28.067
-28.877
-29.634
-30.337
-30.985
-31.577
-32.113
-32.594
-33.02
-33.392
-33.712
-33.98
-34.2
-34.373
-34.503
-34.591
-34.64
-34.653
-34.633
-34.582
-34.503
-34.398
-34.269
-34.117
-33.945
-33.753
-33.543
-33.314
-33.067
-32.802
-32.518
-32.214
-31.888
-31.539
-31.163
-30.759
-30.323
-29.852
-29.341
-28.788
-28.186
-27.533
-26.823
-26.052
-25.215
-24.307
-23.324
-22.259
-21.11
-19.87
-18.537
-17.107
-15.576
-13.941
-12.201
-10.356
-8.403
-6.344
-4.18
-1.912
0.455
2.917
5.469
8.105
10.817
13.595
16.429
19.309
22.222
25.155
28.091
31.015
33.909
36.757
39.54
42.239
44.835
47.31
49.646
51.826
53.833
55.651
57.26
58.645
59.787
60.673
61.288
61.62
61.659
61.398
60.835
59.969
58.801
57.33
55.552
53.464
51.07
48.376
45.394
42.141
38.638
34.918
31.023
26.995
22.878
18.708
14.517
10.337
6.205
2.166
-1.728
-5.428
-8.888
-12.075
-14.957
-17.521
-19.78
-21.772
-23.567
-25.24
-26.848
-28.451
-30.124
-31.94
-33.994
-36.397
-39.216
-42.547
-46.521
-51.157
-56.426
-62.185
-68.046
-73.602
-78.517
-82.365
-84.717
-85.371
-84.16
-81.252
-77.422
-73.382
-69.697
-66.911
-65.4
-65.426
-67.276
-70.765
-73.711
-72.773
-65.205
-48.478
-23.831
3.742
32.781
63.648
101.148
157.022
235.863
336.048
451.222
565.111
665.755
745.693
796.108
812.352
787.342
712.939
588.54
419.769
220.706
12.713
-182.525
-346.613
-468.861
-548.174
-590.552
-604.25
-594.947
-565.113
-515.974
-451.959
-382.673
-318.695
-267.484
-230.24
-201.851
-177.012
-153.58
-132.73
-118.556
-113.323
-116.087
-124.122
-133.209
-140.183
-143.578
-142.956
-138.818
-131.868
-122.773
-112.402
-101.831
-92.191
-84.55
-79.456
-76.873
-76.52
-77.947
-80.67
-84.245
-88.139
-91.739
-94.625
-96.605
-97.614
-97.719
-96.991
-95.438
-93.114
-90.12
-86.543
-82.484
-78.031
-73.237
-68.172
-62.928
-57.603
-52.322
-47.214
-42.362
-37.822
-33.628
-29.792
-26.329
-23.246
-20.52
-18.118
-16.002
-14.133
-12.483
-11.028
-9.732
-8.555
-7.448
-6.36
-5.254
-4.106
-2.892
-1.598
-0.207
1.293
2.904
4.623
6.449
8.385
10.435
12.608
14.906
17.329
19.878
22.551
25.349
28.272
31.319
34.487
37.774
41.178
44.697
48.329
52.07
55.916
59.858
63.889
68.001
72.184
76.429
80.726
85.063
89.432
93.821
98.221
102.622
107.015
111.39
115.737
120.048
124.312
128.521
132.664
136.734
140.72
144.614
148.406
152.089
155.655
159.094
162.4
165.565
168.582
171.444
174.146
176.681
179.044
181.229
183.232
185.049
186.675
188.108
189.344
190.382
191.22
191.855
192.286
192.512
192.533
192.349
191.96
191.367
190.571
189.575
188.381
186.994
185.416
183.654
181.712
179.596
177.313
174.87
172.273
169.531
166.653
163.647
160.522
157.289
153.957
150.536
147.036
143.468
139.843
136.17
132.46
128.723
124.97
121.21
117.453
113.709
109.987
106.296
102.645
99.041
95.493
92.007
88.589
85.246
81.983
78.805
75.716
72.72
69.82
67.019
64.319
61.721
59.226
56.835
54.547
52.361
50.276
48.29
46.4
44.604
42.9
41.283
39.75
38.298
36.921
35.617
34.38
33.205
32.09
31.028
30.016
29.049
28.124
27.236
26.382
25.556
24.757
23.979
23.219
22.474
21.74
21.013
20.29
19.568
18.844
18.116
17.38
16.636
15.881
15.112
14.329
13.531
12.716
11.883
11.033
10.165
9.279
8.375
7.454
6.517
5.564
4.595
3.611
2.614
1.603
0.58
-0.454
-1.499
-2.553
-3.614
-4.68
-5.75
-6.821
-7.891
-8.957
-10.018
-11.07
-12.112
-13.14
-14.152
-15.145
-16.118
-17.066
-17.989
-18.885
-19.752
-20.59
-21.397
-22.173
-22.918
-23.634
-24.319
-24.976
-25.603
-26.201
-26.772
-27.316
-27.833
-28.325
-28.793
-29.239
-29.664
-30.072
-30.464
-30.842
-31.21
-31.569
-31.923
-32.273
-32.623
-32.974
-33.33
-33.693
-34.065
-34.449
-34.845
-35.255
-35.677
-36.111
-36.555
-37.005
-37.457
-37.906
-38.347
-38.775
-39.186
-39.573
-39.932
-40.259
-40.549
-40.8
-41.003
-41.151
-41.236
-41.248
-41.178
-41.016
-40.75
-40.369
-39.865
-39.23
-38.461
-37.551
-36.495
-35.281
-33.897
-32.336
-30.598
-28.684
-26.594
-24.337
-21.927
-19.389
-16.762
-14.074
-11.343
-8.581
-5.789
-2.973
-0.142
2.7
5.548
8.399
11.256
14.113
16.954
19.783
22.614
25.475
28.426
31.495
34.679
37.965
41.319
44.696
48.052
51.32
54.413
57.262
59.797
61.968
63.743
65.067
65.872
66.077
65.577
64.304
62.234
59.359
55.702
51.323
46.287
40.701
34.707
28.417
21.932
15.345
8.719
2.152
-4.251
-10.39
-16.148
-21.436
-26.208
-30.428
-34.098
-37.296
-40.106
-42.648
-45.077
-47.489
-49.974
-52.64
-55.574
-58.89
-62.692
-67.024
-71.952
-77.571
-83.904
-90.889
-98.307
-105.711
-112.648
-118.719
-123.463
-126.395
-127.098
-125.317
-121.232
-115.434
-108.516
-101.106
-93.922
-87.7
-83.344
-80.846
-78.441
-74.057
-65.598
-52.49
-37.421
-22.068
-5.116
17.482
54.624
114.869
199.942
306.472
424.464
538.362
636.829
712.175
759.544
779.811
771.524
729.355
647.938
522.189
353.811
155.108
-54.021
-249.889
-413.025
-533.09
-607.936
-643.911
-647.81
-623.443
-577.513
-515.088
-444.924
-381.612
-332.175
-299.064
-278.939
-260.759
-239.408
-215.063
-190.672
-172.83
-163.863
-162.032
-164.82
-168.594
-171.306
-172.472
-171.507
-168.409
-163.53
-157.183
-149.983
-142.659
-135.759
-129.905
-125.786
-123.631
-123.328
-124.635
-127.089
-130.262
-133.807
-137.233
-140.044
-141.963
-142.86
-142.73
-141.678
-139.758
-137.013
-133.549
-129.489
-124.96
-120.078
-114.917
-109.553
-104.08
-98.613
-93.297
-88.247
-83.533
-79.2
-75.272
-71.754
-68.658
-65.977
-63.671
-61.706
-60.043
-58.644
-57.485
-56.533
-55.743
-55.067
-54.449
-53.843
-53.218
-52.548
-51.813
-50.997
-50.084
-49.066
-47.945
-46.717
-45.378
-43.921
-42.336
-40.614
-38.754
-36.752
-34.607
-32.317
-29.878
-27.289
-24.55
-21.66
-18.62
-15.428
-12.084
-8.59
-4.95
-1.171
2.741
6.779
10.933
15.193
19.55
23.991
28.505
33.082
37.709
42.375
47.068
51.774
56.481
61.177
65.848
70.482
75.066
79.585
84.027
88.381
92.631
96.767
100.776
104.646
108.366
111.926
115.313
118.519
121.534
124.349
126.957
129.348
131.517
133.456
135.161
136.627
137.85
138.826
139.554
140.03
140.255
140.227
139.947
139.416
138.636
137.611
136.344
134.839
133.102
131.14
128.959
126.568
123.975
121.19
118.222
115.081
111.778
108.325
104.734
101.016
97.185
93.252
89.232
85.138
80.982
76.779
72.542
68.284
64.019
59.759
55.518
51.308
47.14
43.029
38.983
35.016
31.136
27.354
23.679
20.119
16.682
13.375
10.205
7.177
4.296
1.568
-1.005
-3.418
-5.669
-7.757
-9.679
-11.435
-13.026
-14.451
-15.712
-16.812
-17.751
-18.534
-19.165
-19.647
-19.984
-20.182
-20.247
-20.184
-19.999
-19.699
-19.29
-18.779
-18.172
-17.477
-16.701
-15.849
-14.928
-13.947
-12.91
-11.825
-10.699
-9.539
-8.35
-7.141
-5.917
-4.685
-3.451
-2.222
-1.003
0.199
1.38
2.533
3.655
4.741
5.787
6.788
7.743
8.648
9.5
10.299
11.041
11.727
12.354
12.921
13.429
13.876
14.261
14.585
14.848
15.049
15.188
15.266
15.284
15.242
15.142
14.984
14.771
14.504
14.187
13.82
13.407
12.95
12.452
11.917
11.346
10.743
10.109
9.448
8.76
8.048
7.312
6.553
5.772
4.969
4.145
3.299
2.433
1.547
0.64
-0.286
-1.231
-2.196
-3.178
-4.178
-5.194
-6.227
-7.276
-8.341
-9.422
-10.52
-11.634
-12.766
-13.917
-15.087
-16.279
-17.493
-18.73
-19.99
-21.274
-22.582
-23.912
-25.261
-26.627
-28.005
-29.391
-30.781
-32.169
-33.55
-34.918
-36.27
-37.601
-38.909
-40.187
-41.43
-42.634
-43.793
-44.901
-45.95
-46.934
-47.844
-48.671
-49.407
-50.047
-50.582
-51.001
-51.295
-51.448
-51.451
-51.299
-50.991
-50.527
-49.915
-49.163
-48.291
-47.329
-46.298
-45.224
-44.126
-43.017
-41.917
-40.844
-39.809
-38.828
-37.909
-37.04
-36.208
-35.393
-34.554
-33.656
-32.644
-31.45
-30.026
-28.333
-26.343
-24.049
-21.443
-18.531
-15.345
-11.92
-8.309
-4.595
-0.866
2.778
6.197
9.265
11.851
13.797
14.99
15.334
14.746
13.178
10.599
6.998
2.416
-3.083
-9.422
-16.487
-24.154
-32.283
-40.688
-49.197
-57.644
-65.843
-73.646
-80.928
-87.566
-93.469
-98.579
-102.861
-106.351
-109.123
-111.256
-112.849
-113.992
-114.792
-115.415
-116.013
-116.74
-117.754
-119.153
-121.057
-123.636
-126.971
-131.026
-135.604
-140.247
-144.443
-147.773
-149.786
-150.003
-148.096
-143.94
-137.902
-130.919
-124.07
-118.322
-114.386
-112.844
-114.18
-118.348
-124.305
-130.227
-132.935
-129.224
-117.596
-95.887
-63.525
-20.775
34.638
101.668
178.24
262.228
347.356
430.41
510.205
583.552
646.239
688.237
694.217
650.569
550.995
398.54
207.071
-2.885
-210.735
-396.356
-544.557
-646.856
-701.915
-715.894
-697.556
-657.279
-603.005
-540.588
-477.902
-420.94
-374.058
-339.289
-313.047
-290.715
-270.223
-251.031
-235.407
-226.356
-223.656
-225.351
-228.467
-229.427
-226.433
-219.314
-208.49
-194.943
-179.726
-163.737
-148.094
-134.006
-122.457
-113.93
-108.414
-105.623
-105.108
-106.422
-109.116
-112.67
-116.548
-120.37
-123.923
-127.079
-129.781
-131.949
-133.459
-134.246
-134.305
-133.649
-132.316
-130.349
-127.778
-124.659
-121.077
-117.113
-112.857
-108.399
-103.808
-99.16
-94.537
-90.021
-85.705
-81.66
-77.917
-74.488
-71.363
-68.525
-65.955
-63.624
-61.492
-59.519
-57.67
-55.916
-54.235
-52.601
-50.983
-49.342
-47.637
-45.834
-43.914
-41.864
-39.673
-37.338
-34.854
-32.222
-29.454
-26.553
-23.524
-20.366
-17.076
-13.654
-10.105
-6.433
-2.645
1.254
5.259
9.364
13.563
17.849
22.216
26.66
31.177
35.761
40.404
45.098
49.835
54.604
59.397
64.204
69.013
73.815
78.6
83.357
88.075
92.745
97.356
101.897
106.356
110.722
114.985
119.133
123.154
127.036
130.77
134.344
137.748
140.971
144.004
146.838
149.464
151.873
154.057
156.011
157.726
159.196
160.417
161.383
162.091
162.537
162.718
162.633
162.282
161.665
160.784
159.639
158.236
156.577
154.67
152.519
150.133
147.521
144.69
141.653
138.42
135.003
131.416
127.671
123.783
119.766
115.635
111.405
107.092
102.712
98.28
93.813
89.326
84.836
80.357
75.905
71.497
67.145
62.865
58.67
54.573
50.586
46.721
42.988
39.397
35.956
32.673
29.554
26.606
23.833
21.238
18.825
16.594
14.548
12.686
11.007
9.51
8.191
7.049
6.079
5.276
4.636
4.153
3.82
3.631
3.578
3.654
3.851
4.16
4.574
5.083
5.679
6.353
7.096
7.9
8.757
9.658
10.595
11.562
12.549
13.552
14.561
15.571
16.576
17.57
18.547
19.501
20.428
21.323
22.181
22.999
23.772
24.497
25.17
25.79
26.354
26.859
27.305
27.69
28.012
28.273
28.47
28.606
28.678
28.688
28.637
28.525
28.353
28.121
27.833
27.488
27.088
26.635
26.13
25.576
24.973
24.325
23.634
22.9
22.128
21.319
20.477
19.604
18.703
17.776
16.827
15.858
14.871
13.868
12.851
11.821
10.78
9.729
8.668
7.599
6.523
5.441
4.353
3.261
2.165
1.064
-0.04
-1.148
-2.261
-3.378
-4.499
-5.625
-6.757
-7.893
-9.034
-10.182
-11.336
-12.498
-13.669
-14.849
-16.039
-17.241
-18.453
-19.677
-20.91
-22.15
-23.397
-24.645
-25.893
-27.134
-28.365
-29.581
-30.777
-31.949
-33.093
-34.204
-35.276
-36.306
-37.286
-38.21
-39.069
-39.854
-40.553
-41.157
-41.657
-42.045
-42.313
-42.452
-42.455
-42.317
-42.033
-41.594
-40.991
-40.209
-39.236
-38.07
-36.714
-35.174
-33.467
-31.606
-29.604
-27.486
-25.268
-22.958
-20.559
-18.059
-15.441
-12.708
-9.866
-6.94
-3.953
-0.909
2.187
5.335
8.548
11.836
15.215
18.721
22.371
26.152
30.033
33.943
37.796
41.534
45.108
48.484
51.639
54.529
57.117
59.374
61.254
62.711
63.682
64.078
63.838
62.947
61.417
59.314
56.734
53.756
50.459
46.921
43.2
39.36
35.455
31.527
27.627
23.822
20.2
16.868
13.916
11.393
9.326
7.697
6.446
5.494
4.739
4.066
3.39
2.649
1.786
0.744
-0.543
-2.178
-4.255
-6.845
-10.026
-13.894
-18.483
-23.74
-29.438
-35.115
-40.283
-44.543
-47.487
-48.696
-47.876
-44.879
-39.982
-34.041
-27.921
-22.234
-17.675
-14.928
-14.477
-16.764
-20.516
-22.5
-20.107
-10.955
4.547
22.728
43.368
68.15
102.27
155.597
230.909
325.936
434.406
542.081
639.467
719.803
774.159
798.388
785.006
726.133
622.371
476.704
300.292
110.753
-76.845
-245.056
-382.009
-483.618
-546.965
-577.042
-578.808
-553.205
-505.792
-440.714
-365.179
-292.914
-231.639
-185.075
-152.445
-125.744
-100.857
-77.466
-56.936
-43.673
-38.945
-41.118
-47.596
-54.594
-59.67
-61.678
-60.212
-55.81
-49.107
-40.662
-31.348
-22.016
-13.524
-6.82
-2.271
0.238
0.976
0.441
-0.855
-2.508
-4.024
-4.893
-4.855
-3.808
-1.753
1.175
4.88
9.298
14.3
19.758
25.555
31.565
37.691
43.835
49.877
55.71
61.245
66.4
71.135
75.421
79.245
82.613
85.544
88.056
90.186
91.965
93.427
94.615
95.577
96.362
97.031
97.631
98.2
98.775
99.38
100.036
100.76
101.56
102.442
103.412
104.477
105.645
106.927
108.33
109.858
111.516
113.307
115.233
117.298
119.505
121.855
124.352
126.997
129.792
132.739
135.836
139.081
142.469
145.992
149.643
153.414
157.295
161.275
165.344
169.489
173.699
177.964
182.271
186.608
190.963
195.323
199.675
204.007
208.305
212.558
216.752
220.875
224.914
228.858
232.694
236.411
239.997
243.441
246.732
249.861
252.818
255.594
258.181
260.573
262.762
264.743
266.512
268.065
269.4
270.513
271.404
272.071
272.516
272.738
272.74
272.523
272.09
271.445
270.591
269.535
268.281
266.835
265.205
263.397
261.419
259.281
256.989
254.555
251.987
249.295
246.49
243.582
240.581
237.496
234.338
231.117
227.84
224.517
221.157
217.766
214.352
210.922
207.481
204.035
200.587
197.142
193.703
190.271
186.849
183.438
180.037
176.648
173.269
169.898
166.535
163.177
159.821
156.465
153.104
149.735
146.354
142.957
139.539
136.097
132.626
129.123
125.584
122.005
118.384
114.718
111.005
107.243
103.432
99.571
95.661
91.703
87.698
83.65
79.561
75.435
71.277
67.091
62.882
58.657
54.421
50.181
45.943
41.714
37.502
33.313
29.154
25.034
20.958
16.935
12.971
9.072
5.245
1.496
-2.171
-5.75
-9.237
-12.628
-15.92
-19.111
-22.198
-25.18
-28.058
-30.831
-33.5
-36.068
-38.537
-40.909
-43.189
-45.381
-47.489
-49.517
-51.471
-53.356
-55.177
-56.94
-58.65
-60.315
-61.939
-63.529
-65.09
-66.629
-68.15
-69.66
-71.162
-72.662
-74.163
-75.67
-77.186
-78.715
-80.259
-81.821
-83.402
-85.005
-86.629
-88.276
-89.944
-91.634
-93.343
-95.07
-96.815
-98.575
-100.348
-102.133
-103.928
-105.732
-107.541
-109.355
-111.17
-112.984
-114.795
-116.598
-118.392
-120.174
-121.94
-123.688
-125.417
-127.123
-128.805
-130.46
-132.086
-133.681
-135.242
-136.767
-138.255
-139.703
-141.11
-142.475
-143.796
-145.072
-146.303
-147.485
-148.618
-149.699
-150.723
-151.687
-152.585
-153.412
-154.162
-154.831
-155.413
-155.905
-156.303
-156.604
-156.806
-156.907
-156.905
-156.796
-156.576
-156.24
-155.782
-155.197
-154.481
-153.627
-152.63
-151.485
-150.194
-148.755
-147.167
-145.427
-143.526
-141.462
-139.237
-136.859
-134.337
-131.686
-128.919
-126.063
-123.157
-120.239
-117.345
-114.503
-111.718
-109.004
-106.373
-103.837
-101.413
-99.101
-96.883
-94.749
-92.695
-90.709
-88.787
-86.897
-84.976
-82.979
-80.867
-78.626
-76.279
-73.844
-71.338
-68.803
-66.281
-63.845
-61.6
-59.627
-57.978
-56.715
-55.885
-55.56
-55.848
-56.823
-58.526
-60.98
-64.162
-68.05
-72.618
-77.793
-83.481
-89.563
-95.889
-102.346
-108.845
-115.271
-121.511
-127.458
-133.003
-138.109
-142.763
-146.908
-150.542
-153.759
-156.746
-159.764
-162.987
-166.422
-170.045
-173.956
-178.25
-182.842
-187.343
-191.164
-193.857
-195.373
-195.911
-195.422
-193.689
-190.74
-187.035
-183.444
-180.906
-179.815
-180.044
-181.792
-185.423
-190.865
-197.702
-204.959
-211.113
-214.865
-214.406
-206.619
-188.642
-159.15
-119.948
-74.975
-27.164
23.819
83.708
158.163
248.856
352.723
458.393
554.161
630.375
677.234
690.776
665.814
596.938
484.853
330.643
144.028
-56.889
-253.258
-422.549
-549.914
-632.574
-674.516
-687.41
-680.473
-655.54
-613.423
-554.905
-486.085
-420.266
-367.501
-332.079
-311.624
-296.697
-281.159
-263.819
-246.603
-234.429
-229.109
-229.285
-232.374
-235.02
-235.494
-233.363
-228.765
-222.425
-214.908
-206.671
-198.466
-190.942
-184.704
-180.405
-178.174
-177.81
-179.047
-181.422
-184.488
-187.87
-191.079
-193.639
-195.294
-195.92
-195.506
-194.142
-191.874
-188.739
-184.835
-180.275
-175.178
-169.661
-163.806
-157.702
-151.45
-145.166
-138.993
-133.046
-127.395
-122.092
-117.161
-112.609
-108.449
-104.674
-101.252
-98.153
-95.34
-92.776
-90.437
-88.288
-86.287
-84.39
-82.542
-80.701
-78.838
-76.932
-74.965
-72.927
-70.805
-68.594
-66.298
-63.918
-61.451
-58.896
-56.243
-53.489
-50.634
-47.678
-44.62
-41.462
-38.202
-34.839
-31.374
-27.808
-24.142
-20.374
-16.506
-12.537
-8.473
-4.317
-0.075
4.246
8.639
13.099
17.615
22.181
26.788
31.429
36.097
40.783
45.481
50.182
54.878
59.562
64.226
68.862
73.461
78.015
82.516
86.955
91.324
95.613
99.815
103.92
107.92
111.806
115.571
119.206
122.703
126.055
129.254
132.292
135.163
137.861
140.378
142.71
144.849
146.792
148.533
150.066
151.388
152.493
153.379
154.041
154.478
154.686
154.664
154.411
153.928
153.215
152.274
151.108
149.721
148.116
146.3
144.279
142.06
139.651
137.062
134.301
131.378
128.306
125.094
121.755
118.301
114.744
111.097
107.373
103.586
99.749
95.875
91.979
88.073
84.173
80.291
76.44
72.635
68.889
65.213
61.62
58.122
54.729
51.451
48.298
45.278
42.399
39.666
37.087
34.665
32.403
30.305
28.372
26.604
25.002
23.565
22.29
21.176
20.219
19.416
18.762
18.251
17.88
17.64
17.526
17.53
17.644
17.861
18.172
18.568
19.041
19.58
20.177
20.821
21.504
22.216
22.947
23.689
24.433
25.171
25.894
26.597
27.272
27.913
28.515
29.071
29.578
30.031
30.427
30.761
31.032
31.236
31.371
31.436
31.429
31.349
31.196
30.971
30.672
30.302
29.86
29.35
28.773
28.13
27.426
26.662
25.844
24.974
24.057
23.096
22.096
21.06
19.993
18.897
17.778
16.637
15.479
14.306
13.123
11.931
10.735
9.536
8.339
7.145
5.957
4.778
3.61
2.453
1.312
0.186
-0.922
-2.012
-3.083
-4.133
-5.163
-6.172
-7.16
-8.128
-9.077
-10.008
-10.923
-11.822
-12.708
-13.582
-14.445
-15.299
-16.145
-16.982
-17.813
-18.637
-19.456
-20.271
-21.081
-21.888
-22.69
-23.489
-24.284
-25.074
-25.855
-26.628
-27.389
-28.135
-28.863
-29.568
-30.246
-30.893
-31.505
-32.079
-32.608
-33.087
-33.509
-33.87
-34.162
-34.378
-34.506
-34.538
-34.465
-34.28
-33.976
-33.547
-32.987
-32.288
-31.446
-30.462
-29.331
-28.049
-26.606
-24.992
-23.204
-21.25
-19.143
-16.894
-14.511
-12.005
-9.393
-6.697
-3.935
-1.112
1.78
4.749
7.79
10.886
14.005
17.118
20.207
23.268
26.298
29.284
32.213
35.078
37.893
40.68
43.438
46.128
48.684
51.039
53.154
55.006
56.585
57.874
58.843
59.459
59.706
59.584
59.085
58.183
56.817
54.923
52.483
49.528
46.128
42.353
38.244
33.842
29.2
24.394
19.507
14.608
9.721
4.86
0.052
-4.637
-9.078
-13.139
-16.745
-19.876
-22.566
-24.827
-26.616
-27.959
-29.003
-30.015
-31.286
-32.962
-34.976
-37.229
-39.769
-42.657
-45.891
-49.186
-52.046
-54.183
-55.631
-56.609
-57.183
-57.19
-56.411
-55.027
-53.596
-52.585
-52.302
-52.734
-53.967
-56.5
-60.813
-66.812
-73.996
-81.623
-88.578
-93.824
-95.185
-89.072
-72.562
-44.088
-5.157
40.67
91.55
148.219
215.414
297.658
394.798
502.553
610.133
706.314
782.272
828.474
839.873
811.13
736.866
618.396
458.303
265.462
56.086
-152.425
-339.386
-487.754
-588.475
-641.074
-652.595
-631.884
-589.484
-532.56
-467.804
-404.86
-348.161
-300.968
-263.199
-228.663
-195.598
-164.543
-137.134
-118.363
-109.362
-108.145
-112.594
-118.789
-123.967
-127.073
-126.968
-123.478
-117.162
-108.48
-98.136
-87.166
-76.452
-66.889
-59.438
-54.425
-51.716
-51.052
-51.967
-54.014
-56.85
-60.021
-63.031
-65.614
-67.656
-69.147
-70.178
-70.768
-70.886
-70.528
-69.729
-68.542
-67.027
-65.229
-63.176
-60.897
-58.439
-55.867
-53.242
-50.605
-47.98
-45.371
-42.79
-40.267
-37.843
-35.565
-33.458
-31.521
-29.746
-28.118
-26.622
-25.243
-23.957
-22.729
-21.53
-20.339
-19.144
-17.94
-16.714
-15.447
-14.109
-12.669
-11.103
-9.398
-7.541
-5.525
-3.343
-0.992
1.524
4.197
7.02
9.991
13.108
16.373
19.783
23.334
27.018
30.829
34.758
38.799
42.944
47.187
51.518
55.933
60.425
64.991
69.625
74.321
79.072
83.868
88.703
93.567
98.451
103.345
108.241
113.129
118
122.845
127.654
132.419
137.129
141.774
146.344
150.828
155.215
159.494
163.654
167.683
171.57
175.302
178.87
182.26
185.461
188.463
191.252
193.819
196.153
198.242
200.076
201.646
202.943
203.959
204.686
205.118
205.249
205.075
204.593
203.801
202.696
201.278
199.55
197.512
195.17
192.527
189.591
186.37
182.872
179.108
175.091
170.832
166.347
161.65
156.757
151.685
146.453
141.077
135.578
129.976
124.289
118.538
112.744
106.926
101.104
95.299
89.529
83.814
78.171
72.618
67.171
61.848
56.662
51.627
46.756
42.061
37.55
33.234
29.12
25.213
21.518
18.039
14.777
11.732
8.905
6.293
3.892
1.7
-0.29
-2.084
-3.689
-5.113
-6.365
-7.454
-8.391
-9.186
-9.848
-10.39
-10.822
-11.155
-11.401
-11.57
-11.674
-11.723
-11.727
-11.697
-11.641
-11.568
-11.486
-11.404
-11.327
-11.261
-11.212
-11.185
-11.182
-11.207
-11.262
-11.349
-11.468
-11.619
-11.802
-12.016
-12.258
-12.528
-12.823
-13.139
-13.474
-13.823
-14.185
-14.554
-14.927
-15.3
-15.668
-16.029
-16.377
-16.71
-17.023
-17.313
-17.577
-17.812
-18.016
-18.187
-18.323
-18.423
-18.486
-18.511
-18.5
-18.453
-18.372
-18.257
-18.112
-17.938
-17.739
-17.518
-17.279
-17.025
-16.76
-16.49
-16.218
-15.949
-15.687
-15.437
-15.204
-14.993
-14.808
-14.654
-14.535
-14.456
-14.42
-14.431
-14.494
-14.611
-14.784
-15.018
-15.314
-15.674
-16.1
-16.591
-17.149
-17.773
-18.462
-19.214
-20.028
-20.901
-21.83
-22.81
-23.839
-24.912
-26.023
-27.166
-28.337
-29.527
-30.731
-31.94
-33.146
-34.342
-35.519
-36.669
-37.782
-38.851
-39.867
-40.821
-41.705
-42.51
-43.228
-43.85
-44.369
-44.776
-45.065
-45.229
-45.261
-45.156
-44.909
-44.517
-43.976
-43.283
-42.437
-41.436
-40.28
-38.971
-37.509
-35.9
-34.147
-32.257
-30.237
-28.098
-25.849
-23.504
-21.077
-18.581
-16.032
-13.445
-10.836
-8.225
-5.628
-3.062
-0.547
1.898
4.252
6.494
8.602
10.557
12.34
13.932
15.313
16.464
17.368
18.015
18.39
18.481
18.277
17.76
16.924
15.768
14.295
12.514
10.436
8.075
5.449
2.593
-0.462
-3.679
-7.023
-10.475
-14.013
-17.599
-21.188
-24.728
-28.174
-31.511
-34.742
-37.85
-40.814
-43.646
-46.412
-49.2
-52.103
-55.183
-58.443
-61.912
-65.69
-69.746
-73.889
-78.121
-82.552
-87.19
-92.306
-97.435
-101.173
-103.884
-106.777
-111.801
-122.593
-138.289
-154.37
-166.449
-168.468
-159.725
-145.282
-129.199
-116.391
-108.726
-103.418
-98.953
-94.558
-90.473
-88.718
-90.232
-93.449
-94.913
-91.249
-79.478
-59.401
-33.856
-3.163
33.511
79.425
141.554
221.016
314.931
417.401
515.705
601.047
666.485
703.104
706.938
671.329
590.449
466.808
304.95
117.686
-77.352
-265.596
-431.14
-564.609
-660.729
-713.854
-724.701
-693.31
-624.264
-531.838
-430.165
-337.342
-267.897
-222.976
-199.238
-187.427
-176.564
-164.196
-151.256
-140.564
-136.536
-139.272
-145.911
-153.441
-158.578
-159.681
-157.121
-151.806
-144.755
-136.847
-128.868
-121.515
-115.496
-111.511
-109.661
-109.649
-111.081
-113.391
-116.093
-118.826
-121.148
-122.634
-123.079
-122.403
-120.632
-117.903
-114.307
-109.921
-104.87
-99.283
-93.303
-87.076
-80.733
-74.4
-68.186
-62.181
-56.476
-51.141
-46.224
-41.76
-37.758
-34.201
-31.083
-28.387
-26.082
-24.139
-22.515
-21.154
-20.005
-19.01
-18.121
-17.305
-16.526
-15.755
-14.973
-14.162
-13.312
-12.42
-11.477
-10.472
-9.396
-8.239
-6.992
-5.649
-4.204
-2.652
-0.988
0.797
2.708
4.752
6.936
9.267
11.751
14.394
17.201
20.174
23.311
26.61
30.069
33.682
37.444
41.348
45.385
49.547
53.825
58.21
62.691
67.257
71.896
76.596
81.343
86.125
90.927
95.735
100.535
105.312
110.05
114.734
119.35
123.88
128.309
132.623
136.804
140.837
144.708
148.4
151.901
155.195
158.27
161.114
163.713
166.058
168.137
169.943
171.466
172.7
173.637
174.272
174.601
174.621
174.329
173.724
172.806
171.577
170.038
168.193
166.048
163.607
160.879
157.871
154.594
151.057
147.273
143.254
139.014
134.568
129.931
125.119
120.148
115.038
109.804
104.465
99.04
93.547
88.005
82.432
76.846
71.265
65.707
60.189
54.728
49.338
44.037
38.839
33.758
28.806
23.996
19.34
14.847
10.527
6.389
2.439
-1.316
-4.87
-8.219
-11.361
-14.291
-17.009
-19.514
-21.806
-23.886
-25.757
-27.42
-28.88
-30.14
-31.206
-32.082
-32.776
-33.292
-33.638
-33.821
-33.848
-33.728
-33.468
-33.077
-32.562
-31.932
-31.196
-30.362
-29.438
-28.431
-27.351
-26.205
-24.999
-23.743
-22.444
-21.108
-19.743
-18.356
-16.955
-15.545
-14.134
-12.729
-11.334
-9.957
-8.603
-7.278
-5.986
-4.733
-3.523
-2.36
-1.248
-0.191
0.81
1.752
2.632
3.45
4.205
4.895
5.521
6.082
6.577
7.008
7.374
7.677
7.918
8.098
8.219
8.283
8.292
8.249
8.157
8.018
7.837
7.617
7.361
7.075
6.761
6.426
6.073
5.706
5.329
4.946
4.56
4.174
3.79
3.409
3.033
2.662
2.298
1.94
1.588
1.243
0.903
0.567
0.236
-0.093
-0.422
-0.751
-1.084
-1.423
-1.77
-2.126
-2.495
-2.88
-3.282
-3.704
-4.149
-4.62
-5.12
-5.652
-6.218
-6.82
-7.459
-8.134
-8.847
-9.594
-10.372
-11.177
-12.003
-12.845
-13.696
-14.551
-15.402
-16.243
-17.066
-17.867
-18.637
-19.368
-20.05
-20.671
-21.22
-21.685
-22.054
-22.313
-22.451
-22.455
-22.316
-22.029
-21.587
-20.979
-20.195
-19.22
-18.045
-16.668
-15.089
-13.307
-11.33
-9.17
-6.851
-4.41
-1.874
0.739
3.418
6.162
8.965
11.817
14.711
17.641
20.6
23.59
26.603
29.619
32.641
35.676
38.756
41.935
45.239
48.664
52.195
55.793
59.416
63.018
66.533
69.874
72.971
75.758
78.187
80.232
81.844
82.953
83.476
83.306
82.375
80.654
78.133
74.827
70.784
66.067
60.781
55.066
49.039
42.795
36.419
29.97
23.534
17.225
11.156
5.45
0.21
-4.492
-8.605
-12.102
-15.007
-17.388
-19.338
-20.976
-22.41
-23.725
-25.02
-26.39
-27.936
-29.767
-32.003
-34.791
-38.223
-42.304
-46.937
-51.866
-56.761
-61.279
-64.986
-67.382
-68.144
-67.136
-64.452
-60.589
-56.131
-51.616
-47.78
-45.302
-44.395
-45.073
-47.047
-49.318
-50.651
-48.819
-40.284
-22.088
7.085
45.325
88.68
134.747
184.347
243.46
318.025
409.098
512.819
617.966
713.044
789.759
839.786
857.965
837.302
769.12
650.918
485.029
283.704
70.257
-131.05
-296.916
-413.023
-481.589
-512.413
-519.801
-515.311
-498.15
-465.194
-414.722
-349.46
-282.829
-226.5
-186.171
-162.042
-145.92
-131.653
-117.746
-105.168
-97.933
-97.53
-102.406
-109.795
-116.227
-119.741
-119.716
-116.235
-110.049
-101.833
-92.225
-82.212
-72.661
-64.34
-58.01
-53.862
-51.741
-51.417
-52.486
-54.557
-57.318
-60.374
-63.301
-65.882
-67.999
-69.603
-70.727
-71.329
-71.361
-70.841
-69.817
-68.354
-66.518
-64.351
-61.883
-59.157
-56.221
-53.135
-49.961
-46.741
-43.518
-40.339
-37.253
-34.335
-31.642
-29.197
-27.006
-25.057
-23.33
-21.813
-20.484
-19.311
-18.267
-17.323
-16.455
-15.65
-14.891
-14.15
-13.4
-12.599
-11.717
-10.732
-9.631
-8.404
-7.042
-5.54
-3.896
-2.117
-0.209
1.827
3.991
6.288
8.717
11.275
13.959
16.762
19.678
22.702
25.828
29.048
32.355
35.741
39.201
42.73
46.319
49.96
53.644
57.359
61.096
64.843
68.589
72.322
76.03
79.702
83.328
86.897
90.4
93.827
97.17
100.417
103.562
106.595
109.508
112.292
114.939
117.439
119.786
121.972
123.99
125.831
127.49
128.961
130.239
131.317
132.193
132.861
133.319
133.565
133.596
133.411
133.011
132.396
131.568
130.529
129.281
127.83
126.177
124.328
122.288
120.063
117.658
115.081
112.337
109.436
106.386
103.195
99.874
96.433
92.883
89.235
85.501
81.693
77.823
73.904
69.949
65.97
61.981
57.992
54.017
50.069
46.157
42.294
38.49
34.755
31.098
27.528
24.052
20.679
17.413
14.262
11.23
8.323
5.543
2.895
0.381
-1.997
-4.238
-6.342
-8.309
-10.141
-11.838
-13.404
-14.842
-16.157
-17.351
-18.431
-19.403
-20.27
-21.041
-21.722
-22.319
-22.84
-23.291
-23.68
-24.014
-24.299
-24.543
-24.75
-24.929
-25.083
-25.219
-25.342
-25.457
-25.568
-25.679
-25.794
-25.916
-26.049
-26.194
-26.355
-26.533
-26.729
-26.945
-27.18
-27.434
-27.708
-28.001
-28.313
-28.64
-28.984
-29.341
-29.71
-30.088
-30.473
-30.864
-31.257
-31.649
-32.039
-32.423
-32.8
-33.167
-33.522
-33.864
-34.19
-34.501
-34.794
-35.07
-35.328
-35.567
-35.788
-35.992
-36.18
-36.352
-36.51
-36.656
-36.791
-36.917
-37.037
-37.154
-37.27
-37.387
-37.508
-37.636
-37.774
-37.925
-38.091
-38.275
-38.48
-38.71
-38.967
-39.255
-39.577
-39.935
-40.334
-40.775
-41.261
-41.792
-42.372
-42.999
-43.674
-44.397
-45.168
-45.985
-46.846
-47.75
-48.694
-49.677
-50.695
-51.745
-52.822
-53.922
-55.042
-56.177
-57.323
-58.474
-59.626
-60.775
-61.916
-63.044
-64.154
-65.237
-66.289
-67.302
-68.267
-69.176
-70.019
-70.787
-71.473
-72.069
-72.568
-72.963
-73.249
-73.422
-73.481
-73.422
-73.24
-72.933
-72.494
-71.919
-71.206
-70.349
-69.344
-68.188
-66.879
-65.417
-63.807
-62.05
-60.147
-58.096
-55.892
-53.536
-51.037
-48.403
-45.646
-42.785
-39.845
-36.86
-33.879
-30.936
-28.058
-25.261
-22.552
-19.936
-17.422
-15.014
-12.72
-10.541
-8.476
-6.528
-4.708
-3.006
-1.406
0.134
1.676
3.262
4.902
6.593
8.309
10.011
11.656
13.184
14.524
15.619
16.418
16.889
17.023
16.799
16.188
15.145
13.594
11.494
8.832
5.618
1.892
-2.281
-6.815
-11.604
-16.522
-21.457
-26.319
-31.048
-35.613
-40.007
-44.24
-48.297
-52.158
-55.857
-59.443
-62.972
-66.52
-70.144
-73.91
-77.958
-82.455
-87.397
-92.701
-98.451
-104.667
-111.291
-118.419
-125.105
-130.255
-134.313
-137.146
-139.993
-144.349
-147.509
-147.708
-142.909
-130.752
-114.752
-98.106
-83.331
-73.881
-68.89
-66.437
-64.209
-58.79
-48.222
-32.266
-13.282
7.18
29.893
58.244
101.246
166.541
256.109
367.834
490.308
608.091
708.814
779.904
814.033
809.677
763.986
677.686
553.72
393.953
207.686
8.642
-187.217
-359.968
-496.017
-588.927
-638.609
-651.42
-634.085
-594.335
-540.093
-480.338
-423.881
-374.735
-332.967
-293.932
-253.25
-211.306
-171.459
-139.368
-118.694
-108.95
-107.67
-111.508
-117.555
-124.048
-129.581
-132.818
-133.096
-130.455
-125.274
-118.176
-110.025
-101.636
-93.952
-88.069
-84.437
-82.998
-83.526
-85.527
-88.526
-92.12
-95.725
-98.73
-100.816
-101.847
-101.833
-100.922
-99.191
-96.697
-93.568
-89.942
-85.949
-81.707
-77.283
-72.741
-68.168
-63.674
-59.393
-55.437
-51.867
-48.723
-46.018
-43.751
-41.926
-40.529
-39.517
-38.849
-38.482
-38.374
-38.497
-38.814
-39.279
-39.842
-40.444
-41.038
-41.591
-42.076
-42.471
-42.759
-42.923
-42.951
-42.845
-42.598
-42.205
-41.658
-40.944
-40.054
-38.985
-37.732
-36.293
-34.665
-32.844
-30.828
-28.616
-26.208
-23.604
-20.803
-17.806
-14.615
-11.234
-7.67
-3.929
-0.02
4.047
8.264
12.618
17.098
21.692
26.388
31.174
36.036
40.959
45.931
50.936
55.958
60.984
65.996
70.978
75.915
80.79
85.587
90.291
94.885
99.353
103.68
107.852
111.854
115.672
119.293
122.704
125.893
128.849
131.561
134.019
136.214
138.137
139.783
141.143
142.214
142.989
143.467
143.645
143.522
143.099
142.376
141.359
140.051
138.458
136.587
134.447
132.049
129.403
126.521
123.416
120.104
116.599
112.917
109.075
105.088
100.976
96.756
92.446
88.064
83.629
79.159
74.672
70.187
65.722
61.295
56.923
52.623
48.41
44.302
40.311
36.451
32.736
29.175
25.78
22.558
19.517
16.663
14.001
11.534
9.263
7.191
5.315
3.634
2.145
0.844
-0.274
-1.215
-1.985
-2.592
-3.044
-3.349
-3.517
-3.557
-3.48
-3.295
-3.015
-2.651
-2.214
-1.716
-1.169
-0.584
0.026
0.651
1.28
1.902
2.508
3.087
3.632
4.133
4.585
4.98
5.312
5.578
5.773
5.894
5.939
5.906
5.794
5.604
5.335
4.988
4.564
4.066
3.495
2.856
2.15
1.382
0.558
-0.319
-1.242
-2.203
-3.199
-4.224
-5.271
-6.333
-7.405
-8.476
-9.542
-10.6
-11.637
-12.642
-13.604
-14.511
-15.365
-16.172
-16.919
-17.594
-18.216
-18.801
-19.361
-19.916
-20.447
-20.918
-21.347
-21.771
-22.097
-22.213
-22.19
-22.022
-21.692
-21.445
-20.637
-18.639
-16.361
-14.081
-13.464
-16.501
-21.002
-25.509
-27.847
-25.03
-19.712
-14.147
-9.881
-9.463
-11.081
-12.898
-14.51
-14.798
-14.418
-14.214
-14.03
-13.975
-13.998
-13.93
-13.884
-13.952
-14.104
-14.333
-14.648
-15.044
-15.51
-16.037
-16.603
-17.182
-17.774
-18.38
-18.989
-19.594
-20.187
-20.759
-21.306
-21.821
-22.296
-22.718
-23.077
-23.364
-23.567
-23.676
-23.681
-23.57
-23.333
-22.965
-22.46
-21.809
-21.005
-20.034
-18.889
-17.57
-16.077
-14.417
-12.601
-10.64
-8.554
-6.377
-4.137
-1.865
0.415
2.694
4.963
7.209
9.419
11.573
13.663
15.699
17.697
19.664
21.614
23.56
25.529
27.582
29.766
32.112
34.639
37.329
40.157
43.105
46.147
49.245
52.344
55.358
58.191
60.779
63.053
64.944
66.369
67.191
67.299
66.621
65.109
62.764
59.599
55.619
50.843
45.32
39.137
32.433
25.369
18.076
10.674
3.261
-4.015
-10.922
-17.31
-23.105
-28.346
-33.233
-37.833
-42.04
-45.767
-48.943
-51.472
-53.336
-54.311
-53.869
-51.872
-48.565
-44.428
-40.302
-36.87
-34.492
-33.703
-35.163
-39.023
-45.064
-52.55
-60.121
-66.806
-72.138
-75.771
-77.714
-78.282
-77.916
-77.571
-78.535
-81.468
-86.527
-93.291
-100.444
-106.539
-109.065
-104.145
-88.499
-59.565
-18.325
30.462
83.426
138.32
198.011
270.078
358.2
462.927
577.33
686.034
772.934
821.591
819.614
762.612
652.924
498.815
313.156
111.369
-90.516
-275.326
-427.985
-539.036
-605.975
-634.13
-632.216
-608.747
-569.888
-520.098
-465.509
-412.374
-365.795
-327.554
-294.383
-262.81
-231.706
-202.785
-180.292
-166.585
-160.958
-160.912
-162.724
-163.73
-162.603
-158.422
-151.117
-141.068
-128.807
-115.285
-101.577
-88.622
-77.355
-68.627
-62.805
-59.841
-59.462
-61.179
-64.461
-68.861
-73.874
-78.952
-83.718
-87.942
-91.461
-94.214
-96.162
-97.249
-97.484
-96.931
-95.643
-93.687
-91.137
-88.056
-84.53
-80.658
-76.528
-72.233
-67.872
-63.531
-59.303
-55.283
-51.53
-48.082
-44.962
-42.159
-39.657
-37.432
-35.446
-33.653
-32.008
-30.469
-28.999
-27.566
-26.134
-24.665
-23.119
-21.454
-19.638
-17.651
-15.475
-13.104
-10.532
-7.757
-4.785
-1.627
1.71
5.219
8.895
12.736
16.737
20.89
25.186
29.615
34.168
38.836
43.609
48.478
53.432
58.461
63.556
68.711
73.914
79.156
84.423
89.704
94.986
100.257
105.506
110.717
115.881
120.984
126.016
130.966
135.823
140.578
145.219
149.737
154.123
158.367
162.46
166.393
170.158
173.746
177.148
180.358
183.367
186.168
188.754
191.119
193.256
195.158
196.822
198.241
199.41
200.326
200.986
201.386
201.523
201.398
201.008
200.353
199.435
198.254
196.812
195.112
193.157
190.952
188.501
185.811
182.888
179.739
176.374
172.801
169.031
165.074
160.943
156.65
152.208
147.631
142.933
138.13
133.236
128.268
123.241
118.173
113.079
107.975
102.878
97.803
92.765
87.78
82.863
78.027
73.285
68.652
64.138
59.756
55.515
51.427
47.5
43.741
40.159
36.758
33.545
30.522
27.695
25.064
22.631
20.396
18.358
16.516
14.866
13.406
12.13
11.033
10.109
9.352
8.754
8.309
8.007
7.841
7.802
7.881
8.071
8.361
8.742
9.207
9.744
10.346
11.003
11.706
12.447
13.218
14.01
14.815
15.626
16.436
17.238
18.026
18.792
19.533
20.242
20.915
21.549
22.139
22.682
23.177
23.621
24.013
24.352
24.636
24.865
25.039
25.157
25.22
25.227
25.181
25.081
24.929
24.726
24.475
24.177
23.834
23.449
23.023
22.559
22.06
21.528
20.965
20.374
19.758
19.119
18.46
17.783
17.091
16.384
15.664
14.933
14.189
13.434
12.668
11.89
11.099
10.297
9.482
8.654
7.813
6.958
6.088
5.203
4.301
3.381
2.441
1.48
0.495
-0.514
-1.55
-2.614
-3.708
-4.833
-5.991
-7.183
-8.412
-9.678
-10.984
-12.33
-13.716
-15.141
-16.604
-18.103
-19.633
-21.189
-22.767
-24.36
-25.964
-27.572
-29.179
-30.78
-32.37
-33.943
-35.496
-37.022
-38.514
-39.963
-41.358
-42.69
-43.948
-45.122
-46.201
-47.171
-48.023
-48.75
-49.343
-49.795
-50.093
-50.221
-50.166
-49.927
-49.499
-48.884
-48.089
-47.116
-45.983
-44.719
-43.349
-41.9
-40.384
-38.801
-37.152
-35.443
-33.678
-31.867
-30.006
-28.072
-26.052
-23.942
-21.73
-19.411
-16.954
-14.303
-11.417
-8.27
-4.856
-1.206
2.653
6.696
10.875
15.134
19.392
23.538
27.485
31.166
34.513
37.46
39.921
41.779
42.943
43.349
42.956
41.751
39.732
36.897
33.286
28.965
24.033
18.625
12.855
6.822
0.628
-5.629
-11.837
-17.867
-23.608
-28.971
-33.874
-38.243
-42.015
-45.137
-47.591
-49.394
-50.599
-51.293
-51.565
-51.513
-51.243
-50.862
-50.495
-50.27
-50.314
-50.741
-51.674
-53.269
-55.618
-58.748
-62.592
-66.937
-71.495
-75.955
-79.925
-82.944
-84.687
-84.952
-83.775
-81.594
-78.96
-76.509
-74.959
-74.87
-76.683
-80.74
-86.852
-94.119
-100.483
-102.713
-97.82
-83.953
-61.954
-34.214
-1.734
36.969
87.839
156.61
244.753
349.107
458.617
561.692
648.825
709.746
739.521
732.366
681.42
586.853
449.857
277.546
85.891
-108.388
-285.308
-426.486
-523.778
-578.262
-598.341
-596.378
-581.31
-554.139
-515.3
-466.9
-411.8
-358.701
-312.751
-272.984
-239.423
-209.335
-182.059
-161.188
-147.775
-141.875
-142.532
-146.347
-150.587
-153.572
-153.854
-151.135
-145.798
-138.228
-129.034
-119.011
-109.02
-100.016
-92.986
-88.401
-86.185
-86.068
-87.616
-90.4
-94.078
-98.184
-102.146
-105.569
-108.232
-110.049
-111.083
-111.378
-110.935
-109.802
-108.065
-105.819
-103.172
-100.213
-97.003
-93.599
-90.056
-86.451
-82.885
-79.456
-76.257
-73.351
-70.761
-68.508
-66.604
-65.046
-63.819
-62.886
-62.196
-61.703
-61.37
-61.166
-61.064
-61.029
-61.017
-60.986
-60.888
-60.692
-60.374
-59.912
-59.288
-58.488
-57.505
-56.337
-54.99
-53.467
-51.767
-49.886
-47.823
-45.578
-43.152
-40.548
-37.771
-34.824
-31.712
-28.44
-25.015
-21.442
-17.73
-13.883
-9.908
-5.812
-1.603
2.71
7.114
11.6
16.156
20.771
25.432
30.128
34.848
39.579
44.312
49.035
53.74
58.414
63.049
67.634
72.159
76.615
80.993
85.283
89.476
93.563
97.536
101.385
105.104
108.684
112.118
115.399
118.52
121.475
124.259
126.865
129.288
131.525
133.569
135.418
137.068
138.516
139.759
140.796
141.623
142.241
142.647
142.841
142.823
142.593
142.151
141.5
140.642
139.579
138.315
136.855
135.204
133.368
131.353
129.167
126.818
124.314
121.665
118.879
115.966
112.938
109.803
106.574
103.262
99.877
96.432
92.937
89.404
85.845
82.271
78.694
75.126
71.577
68.059
64.584
61.161
57.801
54.515
51.312
48.2
45.189
42.286
39.499
36.832
34.293
31.884
29.611
27.476
25.481
23.629
21.918
20.351
18.926
17.642
16.497
15.491
14.619
13.878
13.266
12.777
12.407
12.151
12.004
11.96
12.012
12.154
12.378
12.679
13.047
13.475
13.956
14.481
15.043
15.633
16.244
16.868
17.499
18.131
18.756
19.369
19.965
20.538
21.085
21.599
22.077
22.516
22.911
23.26
23.56
23.809
24.004
24.145
24.232
24.259
24.225
24.128
23.969
23.75
23.472
23.128
22.724
22.274
21.791
21.287
20.768
20.216
19.631
19.037
18.424
17.748
16.981
16.085
15.059
13.96
12.81
11.55
10.241
9.102
8.187
7.431
6.863
6.26
6.027
7.521
10.505
13.713
15.14
10.938
1.202
-10.168
-19.336
-20.847
-14.162
-4.48
4.166
7.481
4.559
-0.725
-5.944
-9.501
-10.842
-11.545
-12.361
-13.228
-14.208
-15.067
-15.734
-16.424
-17.205
-18.037
-18.925
-19.877
-20.883
-21.93
-22.997
-24.044
-25.054
-26.042
-27.009
-27.946
-28.851
-29.715
-30.536
-31.312
-32.038
-32.707
-33.311
-33.844
-34.299
-34.671
-34.954
-35.141
-35.228
-35.208
-35.077
-34.831
-34.466
-33.978
-33.366
-32.628
-31.763
-30.771
-29.653
-28.41
-27.045
-25.562
-23.967
-22.265
-20.464
-18.574
-16.603
-14.566
-12.474
-10.34
-8.179
-6.006
-3.838
-1.69
0.422
2.481
4.471
6.374
8.172
9.845
11.376
12.748
13.943
14.943
15.732
16.292
16.611
16.681
16.491
16.034
15.3
14.278
12.961
11.354
9.46
7.288
4.849
2.16
-0.753
-3.848
-7.084
-10.419
-13.817
-17.246
-20.672
-24.053
-27.348
-30.508
-33.493
-36.282
-38.85
-41.173
-43.244
-45.064
-46.655
-48.09
-49.443
-50.788
-52.203
-53.749
-55.478
-57.464
-59.782
-62.507
-65.723
-69.47
-73.758
-78.621
-84.088
-90.133
-96.649
-103.321
-109.656
-115.161
-119.392
-121.904
-122.245
-119.989
-114.907
-107.274
-97.873
-87.626
-77.328
-67.708
-59.55
-53.596
-50.378
-48.625
-45.245
-37.344
-22.047
0.325
26.104
54.792
87.108
127.4
185.89
266.058
366.674
482.418
597.382
699.06
777.768
822.751
831.436
800.218
725.662
611.25
459.801
280.895
89.994
-98.827
-267.198
-402.634
-500.855
-559.245
-583.696
-579.524
-548.033
-496.066
-429.48
-356.903
-292.261
-241.642
-206.692
-185.208
-168.747
-153.701
-140.109
-129.152
-124.761
-127.656
-135.493
-145.3
-153.339
-157.362
-157.134
-153.132
-146.205
-137.244
-127.021
-116.515
-106.858
-99.09
-93.73
-90.743
-89.848
-90.596
-92.536
-95.267
-98.304
-101.102
-103.275
-104.639
-105.133
-104.816
-103.757
-101.97
-99.496
-96.418
-92.81
-88.763
-84.364
-79.674
-74.759
-69.699
-64.577
-59.496
-54.58
-49.914
-45.552
-41.532
-37.864
-34.562
-31.638
-29.085
-26.872
-24.965
-23.324
-21.919
-20.728
-19.721
-18.86
-18.1
-17.391
-16.694
-15.985
-15.242
-14.448
-13.585
-12.638
-11.599
-10.468
-9.244
-7.922
-6.496
-4.955
-3.293
-1.508
0.401
2.435
4.596
6.886
9.305
11.853
14.528
17.328
20.253
23.302
26.471
29.756
33.148
36.642
40.228
43.897
47.641
51.448
55.307
59.209
63.144
67.1
71.067
75.035
78.992
82.927
86.828
90.683
94.482
98.211
101.858
105.412
108.862
112.195
115.399
118.463
121.377
124.129
126.709
129.107
131.315
133.323
135.123
136.709
138.073
139.21
140.115
140.782
141.208
141.389
141.324
141.009
140.446
139.632
138.569
137.259
135.704
133.908
131.876
129.613
127.126
124.424
121.515
118.41
115.117
111.651
108.022
104.243
100.329
96.293
92.151
87.915
83.603
79.228
74.805
70.351
65.88
61.407
56.947
52.514
48.123
43.788
39.522
35.338
31.247
27.262
23.393
19.65
16.041
12.574
9.257
6.095
3.093
0.254
-2.418
-4.922
-7.257
-9.424
-11.423
-13.256
-14.926
-16.436
-17.789
-18.991
-20.046
-20.959
-21.736
-22.383
-22.906
-23.313
-23.61
-23.805
-23.905
-23.918
-23.85
-23.71
-23.505
-23.243
-22.929
-22.573
-22.179
-21.754
-21.305
-20.836
-20.353
-19.861
-19.364
-18.865
-18.368
-17.877
-17.393
-16.921
-16.461
-16.016
-15.588
-15.178
-14.787
-14.418
-14.07
-13.744
-13.441
-13.161
-12.904
-12.671
-12.46
-12.271
-12.105
-11.959
-11.834
-11.728
-11.639
-11.567
-11.511
-11.468
-11.438
-11.421
-11.414
-11.416
-11.428
-11.447
-11.473
-11.505
-11.542
-11.584
-11.628
-11.677
-11.727
-11.781
-11.837
-11.896
-11.959
-12.026
-12.098
-12.176
-12.26
-12.351
-12.451
-12.561
-12.681
-12.814
-12.961
-13.125
-13.308
-13.513
-13.742
-13.997
-14.28
-14.594
-14.942
-15.325
-15.746
-16.207
-16.711
-17.259
-17.855
-18.5
-19.195
-19.941
-20.737
-21.583
-22.478
-23.417
-24.397
-25.414
-26.464
-27.542
-28.644
-29.765
-30.9
-32.045
-33.197
-34.351
-35.498
-36.631
-37.74
-38.813
-39.843
-40.816
-41.72
-42.543
-43.274
-43.904
-44.428
-44.837
-45.12
-45.266
-45.257
-45.082
-44.738
-44.222
-43.532
-42.672
-41.651
-40.491
-39.227
-37.88
-36.464
-34.985
-33.436
-31.816
-30.128
-28.369
-26.537
-24.632
-22.644
-20.577
-18.441
-16.23
-13.928
-11.5
-8.884
-6.046
-2.984
0.292
3.748
7.341
11.027
14.734
18.375
21.871
25.151
28.159
30.865
33.214
35.141
36.564
37.372
37.486
36.864
35.475
33.321
30.427
26.832
22.622
17.922
12.843
7.494
1.963
-3.686
-9.375
-15.019
-20.524
-25.772
-30.66
-35.103
-39.015
-42.342
-45.053
-47.133
-48.625
-49.622
-50.214
-50.515
-50.617
-50.587
-50.52
-50.506
-50.638
-51.039
-51.804
-53.043
-54.924
-57.516
-60.817
-64.743
-68.99
-73.187
-76.992
-79.941
-81.547
-81.53
-79.692
-76.145
-71.559
-66.643
-62.178
-59.029
-57.714
-58.631
-62.12
-67.838
-74.678
-80.344
-81.075
-73.549
-55.348
-27.163
7.038
44.924
85.411
132.888
196.407
280.284
385.177
502.656
616.12
710.914
772.703
793.069
768.897
697.568
581.337
423.68
233.814
28.596
-173.347
-350
-486.002
-577.267
-626.716
-645.33
-642.266
-619.792
-578.965
-520.568
-450.366
-381.032
-322.631
-279.661
-250.322
-226.658
-203.628
-180.835
-160.6
-147.227
-141.883
-142.852
-147.247
-151.605
-153.974
-153.486
-149.974
-144.039
-136.289
-127.305
-117.95
-109.002
-101.232
-95.499
-92.084
-90.844
-91.505
-93.565
-96.535
-99.998
-103.406
-106.208
-108.101
-108.941
-108.714
-107.527
-105.435
-102.479
-98.767
-94.424
-89.579
-84.356
-78.837
-73.112
-67.284
-61.477
-55.844
-50.506
-45.536
-40.988
-36.885
-33.234
-30.047
-27.316
-25.003
-23.071
-21.479
-20.184
-19.157
-18.359
-17.739
-17.245
-16.817
-16.405
-15.975
-15.501
-14.96
-14.337
-13.615
-12.784
-11.847
-10.799
-9.635
-8.349
-6.928
-5.364
-3.656
-1.798
0.209
2.37
4.688
7.165
9.803
12.602
15.564
18.689
21.978
25.429
29.04
32.803
36.712
40.758
44.933
49.227
53.627
58.123
62.701
67.351
72.059
76.812
81.597
86.4
91.206
96.001
100.769
105.496
110.166
114.763
119.272
123.677
127.962
132.113
136.113
139.947
143.602
147.062
150.314
153.345
156.142
158.693
160.987
163.014
164.764
166.229
167.4
168.27
168.835
169.089
169.029
168.651
167.954
166.936
165.6
163.945
161.974
159.692
157.104
154.216
151.035
147.572
143.835
139.836
135.587
131.101
126.394
121.48
116.374
111.095
105.659
100.085
94.389
88.592
82.713
76.77
70.782
64.77
58.752
52.747
46.774
40.85
34.995
29.225
23.556
18.006
12.588
7.318
2.209
-2.726
-7.476
-12.031
-16.38
-20.516
-24.431
-28.119
-31.577
-34.799
-37.785
-40.532
-43.04
-45.311
-47.346
-49.148
-50.721
-52.07
-53.2
-54.118
-54.83
-55.344
-55.67
-55.815
-55.789
-55.603
-55.265
-54.788
-54.181
-53.455
-52.622
-51.693
-50.679
-49.591
-48.44
-47.237
-45.993
-44.718
-43.422
-42.114
-40.803
-39.498
-38.206
-36.936
-35.694
-34.487
-33.32
-32.199
-31.128
-30.112
-29.154
-28.258
-27.425
-26.659
-25.959
-25.328
-24.766
-24.272
-23.846
-23.488
-23.195
-22.967
-22.8
-22.693
-22.642
-22.644
-22.696
-22.795
-22.936
-23.116
-23.331
-23.578
-23.852
-24.151
-24.47
-24.807
-25.159
-25.523
-25.897
-26.278
-26.664
-27.054
-27.446
-27.84
-28.234
-28.627
-29.021
-29.413
-29.806
-30.199
-30.592
-30.988
-31.386
-31.789
-32.197
-32.612
-33.037
-33.472
-33.919
-34.381
-34.859
-35.354
-35.869
-36.404
-36.961
-37.54
-38.141
-38.765
-39.41
-40.074
-40.758
-41.457
-42.17
-42.892
-43.619
-44.348
-45.072
-45.787
-46.485
-47.16
-47.805
-48.412
-48.973
-49.48
-49.923
-50.295
-50.585
-50.786
-50.887
-50.881
-50.758
-50.51
-50.127
-49.602
-48.927
-48.094
-47.095
-45.926
-44.579
-43.052
-41.339
-39.439
-37.348
-35.068
-32.599
-29.943
-27.103
-24.085
-20.893
-17.537
-14.025
-10.367
-6.576
-2.666
1.35
5.453
9.626
13.849
18.104
22.368
26.622
30.842
35.008
39.098
43.093
46.971
50.712
54.295
57.698
60.901
63.885
66.632
69.125
71.348
73.291
74.946
76.307
77.37
78.131
78.58
78.711
78.523
78.019
77.202
76.083
74.679
73.013
71.122
69.046
66.819
64.476
62.044
59.55
57.028
54.519
52.07
49.725
47.522
45.491
43.665
42.063
40.673
39.459
38.343
37.248
36.114
34.887
33.503
31.881
29.931
27.558
24.705
21.307
17.253
12.464
6.925
0.76
-5.709
-12.095
-18.037
-23.133
-26.91
-28.961
-29.017
-27.221
-24.19
-20.567
-17.086
-14.592
-13.867
-15.875
-20.588
-25.967
-29.608
-29.245
-24.436
-18.416
-13.093
-6.357
7.554
39.616
99.217
187.165
298.801
423.686
547.496
661.197
756.634
823.672
856.44
847.092
789.643
687.319
544.688
371.09
181.335
-10.56
-187.639
-333.29
-438.165
-501.372
-529.737
-535.114
-526.341
-503.62
-465.791
-412.648
-348.796
-288.102
-240.539
-209.394
-192.279
-178.981
-163.198
-144.556
-125.274
-110.408
-102.082
-99.067
-99.04
-99.177
-97.942
-94.784
-89.698
-83.169
-75.542
-67.169
-58.713
-50.732
-43.841
-38.811
-35.89
-35.001
-35.992
-38.482
-42.086
-46.502
-51.286
-55.923
-60.102
-63.612
-66.321
-68.247
-69.381
-69.704
-69.279
-68.184
-66.497
-64.309
-61.688
-58.689
-55.383
-51.845
-48.154
-44.404
-40.679
-37.064
-33.649
-30.489
-27.624
-25.077
-22.843
-20.914
-19.273
-17.89
-16.727
-15.753
-14.933
-14.239
-13.647
-13.124
-12.633
-12.137
-11.592
-10.967
-10.239
-9.387
-8.401
-7.269
-5.986
-4.551
-2.968
-1.238
0.64
2.668
4.851
7.193
9.693
12.35
15.161
18.125
21.241
24.506
27.917
31.471
35.165
38.996
42.961
47.057
51.277
55.613
60.056
64.597
69.225
73.93
78.699
83.519
88.379
93.265
98.165
103.066
107.955
112.819
117.643
122.413
127.116
131.738
136.263
140.677
144.966
149.114
153.107
156.931
160.572
164.015
167.247
170.256
173.029
175.553
177.818
179.814
181.53
182.958
184.091
184.922
185.444
185.654
185.549
185.126
184.384
183.324
181.946
180.253
178.248
175.937
173.324
170.416
167.222
163.752
160.014
156.023
151.788
147.326
142.65
137.775
132.719
127.497
122.128
116.629
111.018
105.316
99.539
93.708
87.841
81.958
76.076
70.215
64.391
58.623
52.926
47.317
41.81
36.421
31.163
26.049
21.089
16.296
11.678
7.245
3.004
-1.039
-4.879
-8.511
-11.933
-15.142
-18.139
-20.923
-23.495
-25.859
-28.017
-29.974
-31.734
-33.304
-34.69
-35.899
-36.94
-37.821
-38.551
-39.138
-39.593
-39.925
-40.144
-40.259
-40.281
-40.22
-40.085
-39.887
-39.634
-39.337
-39.004
-38.644
-38.265
-37.874
-37.479
-37.087
-36.703
-36.333
-35.984
-35.659
-35.362
-35.098
-34.869
-34.678
-34.527
-34.418
-34.35
-34.325
-34.343
-34.403
-34.506
-34.65
-34.834
-35.058
-35.319
-35.616
-35.948
-36.311
-36.705
-37.128
-37.575
-38.047
-38.54
-39.054
-39.585
-40.133
-40.696
-41.272
-41.861
-42.46
-43.069
-43.687
-44.313
-44.947
-45.588
-46.236
-46.893
-47.559
-48.234
-48.921
-49.62
-50.333
-51.062
-51.807
-52.569
-53.35
-54.151
-54.971
-55.814
-56.677
-57.563
-58.471
-59.403
-60.358
-61.336
-62.336
-63.358
-64.402
-65.465
-66.548
-67.648
-68.764
-69.894
-71.036
-72.189
-73.35
-74.514
-75.678
-76.838
-77.987
-79.119
-80.226
-81.299
-82.332
-83.316
-84.242
-85.104
-85.894
-86.605
-87.232
-87.77
-88.212
-88.551
-88.779
-88.887
-88.868
-88.714
-88.414
-87.96
-87.343
-86.554
-85.591
-84.45
-83.126
-81.611
-79.892
-77.965
-75.83
-73.491
-70.954
-68.23
-65.329
-62.274
-59.101
-55.843
-52.532
-49.189
-45.822
-42.441
-39.059
-35.69
-32.351
-29.045
-25.755
-22.471
-19.19
-15.902
-12.605
-9.269
-5.837
-2.27
1.459
5.354
9.38
13.51
17.716
21.956
26.18
30.312
34.24
37.876
41.15
43.994
46.348
48.124
49.201
49.493
48.946
47.544
45.319
42.303
38.524
34.048
28.957
23.372
17.454
11.336
5.125
-1.068
-7.151
-13.004
-18.481
-23.484
-27.962
-31.904
-35.356
-38.363
-40.959
-43.206
-45.193
-47.049
-48.931
-50.982
-53.328
-56.068
-59.305
-63.187
-67.797
-73.124
-79.043
-85.229
-91.28
-96.861
-101.568
-104.928
-106.637
-106.455
-104.37
-100.857
-96.502
-91.798
-87.299
-83.609
-81.129
-80.166
-80.801
-81.515
-79.591
-72.78
-58.752
-37.682
-12.686
15.757
49.019
91.878
152.819
234.51
333.765
442.672
548.716
643.999
724.757
786.431
824.263
828.408
786.615
693.875
551.707
371.375
172.534
-26.708
-208.186
-358.363
-471.757
-545.845
-584.971
-595.913
-582.677
-549.756
-500.006
-437.807
-372.777
-314.203
-268.409
-236.979
-214.858
-196.514
-179.694
-164.848
-155.23
-152.78
-156.298
-162.948
-169.082
-172.157
-171.185
-166.212
-157.973
-147.263
-134.952
-122.105
-109.754
-98.876
-90.308
-84.343
-80.86
-79.573
-80.02
-81.737
-84.342
-87.409
-90.489
-93.296
-95.689
-97.59
-99.01
-99.932
-100.275
-100.012
-99.169
-97.782
-95.92
-93.645
-90.996
-88.029
-84.808
-81.39
-77.847
-74.245
-70.625
-67.035
-63.521
-60.138
-56.961
-54.044
-51.407
-49.052
-46.959
-45.107
-43.478
-42.044
-40.771
-39.624
-38.575
-37.597
-36.678
-35.8
-34.937
-34.059
-33.124
-32.102
-30.972
-29.721
-28.337
-26.814
-25.144
-23.325
-21.366
-19.27
-17.04
-14.673
-12.165
-9.516
-6.728
-3.806
-0.756
2.417
5.707
9.109
12.615
16.218
19.912
23.691
27.551
31.487
35.492
39.559
43.679
47.841
52.037
56.258
60.493
64.737
68.976
73.198
77.402
81.584
85.74
89.866
93.948
97.965
101.915
105.802
109.589
113.248
116.756
120.08
123.229
126.233
129.062
131.669
134.147
136.606
138.969
141.233
143.415
145.251
147.426
150.607
153.827
156.789
157.723
154.508
149.484
144.207
140.998
143.047
147.53
152.057
154.988
153.617
149.884
145.756
141.675
138.844
136.576
133.985
131.25
128.267
125.107
121.96
118.722
115.307
111.762
108.105
104.339
100.479
96.548
92.562
88.553
84.556
80.576
76.619
72.701
68.837
65.038
61.319
57.689
54.157
50.734
47.432
44.26
41.225
38.334
35.594
33.008
30.581
28.316
26.214
24.276
22.501
20.888
19.436
18.14
16.999
16.006
15.156
14.445
13.865
13.41
13.073
12.845
12.719
12.687
12.74
12.871
13.07
13.33
13.643
13.999
14.392
14.813
15.256
15.711
16.173
16.636
17.092
17.537
17.966
18.374
18.758
19.113
19.437
19.728
19.984
20.203
20.385
20.528
20.634
20.701
20.731
20.724
20.683
20.607
20.499
20.361
20.193
19.999
19.779
19.535
19.27
18.984
18.68
18.358
18.021
17.669
17.305
16.928
16.54
16.141
15.731
15.311
14.879
14.437
13.982
13.513
13.031
12.532
12.016
11.48
10.923
10.341
9.734
9.098
8.43
7.728
6.99
6.212
5.393
4.531
3.624
2.67
1.668
0.617
-0.483
-1.633
-2.833
-4.082
-5.38
-6.725
-8.116
-9.55
-11.025
-12.536
-14.081
-15.655
-17.253
-18.869
-20.498
-22.134
-23.769
-25.397
-27.008
-28.596
-30.151
-31.664
-33.125
-34.524
-35.853
-37.1
-38.256
-39.313
-40.26
-41.09
-41.793
-42.362
-42.79
-43.069
-43.193
-43.156
-42.953
-42.58
-42.035
-41.315
-40.418
-39.345
-38.098
-36.678
-35.089
-33.335
-31.423
-29.36
-27.153
-24.813
-22.352
-19.782
-17.118
-14.375
-11.572
-8.729
-5.864
-2.998
-0.154
2.648
5.386
8.039
10.588
13.012
15.294
17.414
19.353
21.092
22.613
23.899
24.936
25.711
26.21
26.426
26.357
26.001
25.359
24.428
23.203
21.68
19.864
17.76
15.379
12.736
9.856
6.771
3.53
0.181
-3.228
-6.653
-10.061
-13.413
-16.669
-19.78
-22.696
-25.369
-27.766
-29.856
-31.605
-33.004
-34.075
-34.867
-35.474
-35.986
-36.477
-37.027
-37.728
-38.673
-39.975
-41.751
-44.068
-47.008
-50.677
-55.1
-60.257
-66.011
-71.99
-77.753
-82.902
-86.968
-89.477
-90.151
-88.772
-85.406
-80.699
-75.412
-70.211
-65.783
-62.723
-61.334
-61.826
-64.084
-66.123
-64.701
-57.074
-40.355
-14.816
15.48
49.325
86.549
130.486
190.728
270.673
369.251
481.18
590.786
686.033
757.182
793.616
793.91
754.591
671.403
546.59
379.659
178.795
-36.483
-245.1
-420.574
-545.015
-617.395
-645.32
-644.356
-627.152
-597.298
-555.641
-503.679
-447.332
-394.766
-351.947
-319.05
-290.51
-262.348
-233.415
-205.769
-184.704
-172.163
-166.997
-167.311
-169.709
-171.957
-173.379
-173.095
-170.489
-165.577
-158.521
-149.692
-139.869
-129.776
-120.002
-111.301
-104.311
-99.206
-95.903
-94.162
-93.602
-93.905
-94.786
-95.866
-96.776
-97.32
-97.432
-97.124
-96.453
-95.418
-93.983
-92.166
-90.031
-87.641
-85.053
-82.31
-79.42
-76.413
-73.348
-70.278
-67.25
-64.292
-61.408
-58.611
-55.933
-53.415
-51.108
-49.037
-47.202
-45.593
-44.193
-42.982
-41.944
-41.049
-40.257
-39.533
-38.845
-38.171
-37.496
-36.799
-36.047
-35.205
-34.23
-33.092
-31.767
-30.238
-28.488
-26.506
-24.283
-21.817
-19.114
-16.175
-13.003
-9.596
-5.953
-2.078
2.025
6.346
10.875
15.602
20.514
25.6
30.847
36.24
41.765
47.411
53.163
59.009
64.931
70.913
76.936
82.983
89.035
95.074
101.081
107.037
112.924
118.724
124.42
129.996
135.434
140.72
145.836
150.769
155.504
160.026
164.323
168.381
172.189
175.735
179.008
182
184.7
187.1
189.193
190.973
192.433
193.568
194.376
194.853
194.997
194.807
194.283
193.426
192.239
190.724
188.885
186.728
184.258
181.481
178.407
175.043
171.399
167.486
163.314
158.895
154.244
149.372
144.295
139.028
133.586
127.985
122.244
116.379
110.408
104.349
98.222
92.044
85.834
79.611
73.394
67.2
61.048
54.956
48.94
43.018
37.207
31.52
25.974
20.583
15.358
10.312
5.457
0.801
-3.645
-7.875
-11.881
-15.657
-19.2
-22.506
-25.573
-28.399
-30.985
-33.332
-35.443
-37.321
-38.972
-40.4
-41.613
-42.617
-43.422
-44.036
-44.468
-44.731
-44.833
-44.786
-44.603
-44.295
-43.874
-43.352
-42.742
-42.056
-41.304
-40.499
-39.651
-38.772
-37.87
-36.956
-36.039
-35.126
-34.227
-33.348
-32.495
-31.674
-30.891
-30.15
-29.453
-28.804
-28.205
-27.656
-27.159
-26.713
-26.318
-25.973
-25.675
-25.422
-25.212
-25.041
-24.905
-24.8
-24.722
-24.666
-24.628
-24.603
-24.587
-24.576
-24.566
-24.553
-24.535
-24.507
-24.468
-24.416
-24.348
-24.264
-24.163
-24.045
-23.909
-23.757
-23.59
-23.41
-23.218
-23.018
-22.813
-22.605
-22.398
-22.197
-22.005
-21.827
-21.667
-21.531
-21.423
-21.348
-21.312
-21.32
-21.377
-21.486
-21.654
-21.882
-22.175
-22.535
-22.965
-23.465
-24.036
-24.679
-25.393
-26.176
-27.026
-27.94
-28.914
-29.944
-31.023
-32.146
-33.305
-34.493
-35.702
-36.922
-38.143
-39.357
-40.553
-41.72
-42.848
-43.925
-44.941
-45.885
-46.744
-47.507
-48.165
-48.705
-49.117
-49.392
-49.521
-49.495
-49.308
-48.953
-48.425
-47.718
-46.832
-45.762
-44.51
-43.075
-41.461
-39.671
-37.711
-35.587
-33.31
-30.89
-28.338
-25.669
-22.899
-20.044
-17.121
-14.15
-11.15
-8.141
-5.144
-2.178
0.737
3.579
6.328
8.962
11.46
13.801
15.964
17.929
19.677
21.191
22.456
23.464
24.204
24.669
24.851
24.738
24.323
23.606
22.584
21.264
19.655
17.772
15.643
13.306
10.799
8.161
5.428
2.627
-0.21
-3.047
-5.847
-8.561
-11.151
-13.588
-15.837
-17.875
-19.688
-21.28
-22.692
-24.001
-25.278
-26.594
-28.01
-29.574
-31.372
-33.486
-36.005
-39.027
-42.597
-46.766
-51.627
-57.18
-63.359
-70.002
-76.719
-83.073
-88.736
-93.312
-96.392
-97.762
-97.202
-94.757
-91.025
-86.581
-81.893
-77.44
-73.576
-70.567
-68.786
-68.288
-67.383
-63.309
-53.754
-36.451
-12.505
13.559
40.457
68.453
102.009
152.055
222.873
313.611
418.885
523.151
615.303
687.491
730.511
742.574
718.503
651.01
539.78
383.416
189.442
-22.007
-228.791
-403.337
-524.956
-590.776
-608.205
-593.4
-561.306
-517.638
-464.037
-402.745
-340.921
-287.413
-248.481
-223.974
-206.118
-188.922
-170.009
-150.581
-135.951
-128.207
-126.384
-128.342
-130.368
-130.332
-127.622
-122.126
-114.552
-105.644
-95.862
-85.883
-76.404
-68.098
-61.778
-57.813
-56.107
-56.399
-58.274
-61.296
-65.11
-69.275
-73.218
-76.531
-78.996
-80.506
-81.107
-80.848
-79.721
-77.772
-75.092
-71.772
-67.916
-63.622
-58.949
-53.97
-48.782
-43.488
-38.221
-33.116
-28.262
-23.716
-19.513
-15.665
-12.184
-9.073
-6.307
-3.847
-1.654
0.314
2.086
3.686
5.15
6.52
7.846
9.177
10.551
11.99
13.516
15.142
16.88
18.74
20.722
22.818
25.025
27.344
29.776
32.326
34.994
37.779
40.678
43.688
46.806
50.031
53.358
56.785
60.306
63.918
67.616
71.399
75.26
79.193
83.19
87.241
91.338
95.472
99.631
103.805
107.983
112.155
116.311
120.442
124.535
128.583
132.574
136.5
140.349
144.112
147.78
151.341
154.787
158.107
161.293
164.334
167.222
169.948
172.504
174.881
177.073
179.071
180.87
182.462
183.842
185.004
185.943
186.655
187.134
187.379
187.384
187.149
186.67
185.947
184.976
183.759
182.295
180.584
178.627
176.427
173.986
171.306
168.393
165.252
161.888
158.308
154.52
150.532
146.353
141.993
137.463
132.773
127.934
122.96
117.863
112.657
107.353
101.968
96.514
91.006
85.459
79.888
74.307
68.732
63.178
57.658
52.188
46.783
41.456
36.222
31.093
26.084
21.206
16.472
11.893
7.479
3.241
-0.814
-4.676
-8.338
-11.795
-15.04
-18.07
-20.88
-23.468
-25.833
-27.973
-29.888
-31.581
-33.051
-34.303
-35.338
-36.163
-36.78
-37.197
-37.419
-37.452
-37.305
-36.985
-36.5
-35.86
-35.073
-34.15
-33.1
-31.934
-30.662
-29.294
-27.842
-26.315
-24.726
-23.083
-21.398
-19.68
-17.94
-16.186
-14.428
-12.675
-10.934
-9.212
-7.518
-5.857
-4.236
-2.66
-1.133
0.339
1.753
3.105
4.392
5.613
6.763
7.843
8.85
9.785
10.647
11.437
12.155
12.802
13.381
13.893
14.34
14.726
15.053
15.326
15.546
15.719
15.847
15.934
15.983
15.998
15.981
15.934
15.86
15.759
15.634
15.485
15.313
15.12
14.906
14.67
14.415
14.139
13.842
13.526
13.188
12.829
12.449
12.045
11.618
11.167
10.688
10.182
9.647
9.08
8.479
7.843
7.169
6.454
5.699
4.9
4.057
3.171
2.244
1.277
0.275
-0.76
-1.822
-2.906
-4.009
-5.124
-6.246
-7.371
-8.494
-9.609
-10.71
-11.788
-12.838
-13.849
-14.812
-15.719
-16.559
-17.321
-17.994
-18.572
-19.043
-19.399
-19.626
-19.709
-19.638
-19.406
-19.009
-18.449
-17.73
-16.859
-15.851
-14.729
-13.516
-12.233
-10.898
-9.524
-8.124
-6.708
-5.288
-3.881
-2.492
-1.114
0.269
1.677
3.136
4.668
6.312
8.117
10.124
12.361
14.847
17.579
20.544
23.719
27.072
30.566
34.14
37.714
41.196
44.475
47.447
50.015
52.063
53.471
54.136
53.974
52.926
50.965
48.082
44.298
39.659
34.224
28.083
21.344
14.131
6.598
-1.11
-8.858
-16.493
-23.867
-30.852
-37.333
-43.218
-48.451
-52.999
-56.88
-60.157
-62.9
-65.197
-67.133
-68.806
-70.364
-71.956
-73.732
-75.84
-78.372
-81.427
-85.147
-89.586
-94.713
-100.362
-106.111
-111.504
-116.209
-119.817
-121.895
-122.186
-120.479
-116.933
-112.338
-107.446
-102.802
-99.118
-97.017
-96.824
-98.972
-102.559
-104.606
-102.38
-93.273
-76.312
-54.468
-30.072
-3.15
28.737
74.011
140.68
231.313
344.322
468.62
589.142
692.945
765.822
799.394
788.77
729.343
623.556
475.771
294.976
97.332
-100.22
-278.291
-421.125
-521.791
-580.534
-605.183
-604.831
-585.908
-552.466
-507.233
-455.522
-404.119
-358.609
-321.187
-289.303
-259.753
-231.534
-206.372
-188.037
-178.523
-177.036
-181.102
-187.174
-192.682
-196.211
-196.681
-193.868
-188.053
-179.689
-169.648
-158.958
-148.506
-139.212
-131.97
-127.162
-124.764
-124.541
-126.04
-128.788
-132.415
-136.464
-140.429
-144.005
-147.016
-149.371
-151.077
-152.103
-152.394
-151.97
-150.89
-149.22
-147.034
-144.388
-141.326
-137.918
-134.239
-130.362
-126.367
-122.313
-118.253
-114.248
-110.362
-106.666
-103.219
-100.046
-97.156
-94.54
-92.181
-90.062
-88.159
-86.436
-84.863
-83.411
-82.053
-80.777
-79.563
-78.388
-77.221
-76.027
-74.776
-73.449
-72.03
-70.509
-68.878
-67.128
-65.258
-63.273
-61.174
-58.961
-56.631
-54.179
-51.6
-48.894
-46.063
-43.11
-40.036
-36.843
-33.535
-30.115
-26.588
-22.958
-19.227
-15.399
-11.476
-7.462
-3.365
0.809
5.053
9.36
13.722
18.129
22.571
27.038
31.521
36.009
40.492
44.958
49.394
53.789
58.132
62.413
66.62
70.742
74.767
78.684
82.484
86.155
89.686
93.062
96.272
99.302
102.144
104.788
107.225
109.445
111.44
113.203
114.73
116.018
117.056
117.834
118.339
118.565
118.519
118.21
117.647
116.836
115.785
114.509
113.026
111.351
109.486
107.417
105.134
102.634
99.928
97.041
93.995
90.802
87.457
83.952
80.292
76.48
72.514
68.376
64.039
59.498
54.786
49.968
45.109
40.25
35.416
30.617
25.871
21.209
16.671
12.288
8.082
4.077
0.31
-3.155
-6.246
-8.929
-11.219
-13.172
-14.843
-16.26
-17.438
-18.387
-19.126
-19.685
-20.089
-20.348
-20.463
-20.45
-20.338
-20.186
-20.056
-19.978
-19.948
-19.929
-19.892
-19.826
-19.727
-19.593
-19.409
-19.162
-18.854
-18.5
-18.12
-17.723
-17.303
-16.841
-16.319
-15.733
-15.094
-14.424
-13.741
-13.053
-12.371
-11.704
-11.068
-10.474
-9.922
-9.405
-8.913
-8.443
-7.997
-7.578
-7.191
-6.835
-6.505
-6.201
-5.918
-5.655
-5.409
-5.175
-4.947
-4.72
-4.494
-4.269
-4.046
-3.822
-3.596
-3.367
-3.134
-2.895
-2.649
-2.393
-2.126
-1.846
-1.552
-1.244
-0.925
-0.593
-0.25
0.102
0.461
0.825
1.192
1.56
1.928
2.294
2.655
3.01
3.357
3.695
4.021
4.335
4.634
4.915
5.178
5.419
5.638
5.832
5.999
6.137
6.243
6.315
6.351
6.347
6.302
6.214
6.081
5.904
5.682
5.418
5.115
4.777
4.409
4.014
3.596
3.158
2.706
2.242
1.769
1.291
0.81
0.331
-0.137
-0.588
-1.013
-1.404
-1.753
-2.053
-2.294
-2.463
-2.553
-2.554
-2.455
-2.244
-1.904
-1.42
-0.783
0.009
0.954
2.045
3.273
4.626
6.079
7.612
9.207
10.837
12.493
14.164
15.835
17.508
19.184
20.858
22.553
24.291
26.071
27.953
30.004
32.19
34.534
37.038
39.654
42.497
45.681
49.132
52.798
56.787
61.119
65.906
71.282
76.891
82.375
87.645
92.542
96.798
100.212
102.366
102.834
101.847
99.69
96.424
92.217
87.197
81.45
75.35
69.323
63.314
57.236
51.131
44.96
38.847
33.005
27.432
22.1
17.18
12.794
9.021
5.964
3.556
1.647
0.146
-1.072
-2.155
-3.21
-4.373
-5.802
-7.627
-9.988
-12.978
-16.676
-21.209
-26.631
-32.921
-39.918
-47.193
-54.249
-60.683
-66.02
-69.754
-71.566
-71.221
-68.875
-65.324
-61.377
-57.68
-55.042
-54.192
-55.536
-59.474
-64.997
-69.127
-69.162
-62.466
-47.951
-27.883
-3.418
26.112
63.137
114.922
187.297
281.16
394.233
515.797
631.409
729.174
796.224
824.787
813.109
758.518
662.721
530.232
364.247
174.675
-24.779
-218.755
-388.283
-519.905
-606.799
-649.793
-656.16
-632.727
-588.186
-528.988
-461.912
-398.145
-343.516
-301.086
-270.222
-243.54
-217.785
-193.247
-171.363
-156.508
-149.794
-148.954
-151.219
-153.008
-151.962
-147.285
-138.878
-127.329
-113.458
-98.185
-82.591
-67.713
-54.549
-43.986
-36.382
-31.651
-29.504
-29.452
-30.991
-33.708
-37.128
-40.721
-44.155
-47.249
-49.882
-52.045
-53.69
-54.704
-55.05
-54.752
-53.837
-52.371
-50.413
-47.997
-45.19
-42.074
-38.723
-35.233
-31.679
-28.111
-24.594
-21.186
-17.954
-14.98
-12.318
-9.983
-7.977
-6.281
-4.868
-3.719
-2.796
-2.055
-1.454
-0.954
-0.522
-0.138
0.225
0.602
1.03
1.553
2.205
3.006
3.972
5.115
6.44
7.956
9.66
11.544
13.603
15.835
18.238
20.815
23.565
26.482
29.559
32.788
36.163
39.675
43.315
47.076
50.948
54.922
58.991
63.147
67.383
71.687
76.05
80.457
84.899
89.362
93.833
98.3
102.748
107.166
111.541
115.861
120.114
124.287
128.368
132.345
136.206
139.939
143.533
146.974
150.253
153.357
156.277
159.001
161.52
163.824
165.904
167.752
169.36
170.72
171.825
172.669
173.246
173.552
173.583
173.335
172.807
171.997
170.905
169.533
167.882
165.955
163.756
161.291
158.565
155.585
152.361
148.9
145.213
141.313
137.21
132.92
128.455
123.831
119.064
114.169
109.163
104.064
98.89
93.657
88.385
83.093
77.797
72.518
67.274
62.081
56.959
51.923
46.99
42.175
37.494
32.96
28.587
24.387
20.369
16.545
12.923
9.509
6.311
3.332
0.575
-1.956
-4.26
-6.337
-8.186
-9.81
-11.212
-12.397
-13.371
-14.14
-14.71
-15.089
-15.288
-15.315
-15.179
-14.888
-14.45
-13.876
-13.178
-12.368
-11.461
-10.469
-9.401
-8.266
-7.073
-5.829
-4.543
-3.23
-1.892
-0.524
0.872
2.298
3.738
5.164
6.568
7.97
9.36
10.681
11.873
12.874
13.652
14.262
14.74
15.023
15.169
15.413
15.79
16.241
16.882
17.437
18.24
20.683
24.361
27.896
29.315
24.473
13.404
0.529
-9.698
-11.003
-2.352
10.541
22.719
29.19
28.893
25.845
22.478
20.181
18.894
16.849
13.853
10.353
6.515
2.862
-0.434
-3.323
-5.298
-6.254
-6.633
-6.731
-6.78
-6.928
-7.095
-7.335
-7.911
-8.877
-10.075
-11.385
-12.67
-13.877
-15.084
-16.309
-17.505
-18.662
-19.792
-20.909
-22.047
-23.212
-24.374
-25.513
-26.617
-27.681
-28.71
-29.709
-30.674
-31.603
-32.493
-33.34
-34.144
-34.903
-35.617
-36.283
-36.899
-37.464
-37.977
-38.438
-38.847
-39.202
-39.497
-39.728
-39.889
-39.978
-39.991
-39.927
-39.781
-39.554
-39.242
-38.845
-38.364
-37.796
-37.144
-36.406
-35.586
-34.684
-33.704
-32.65
-31.527
-30.338
-29.092
-27.795
-26.456
-25.084
-23.689
-22.282
-20.875
-19.479
-18.109
-16.775
-15.49
-14.264
-13.112
-12.047
-11.085
-10.24
-9.526
-8.957
-8.546
-8.305
-8.244
-8.37
-8.685
-9.187
-9.874
-10.747
-11.811
-13.069
-14.518
-16.144
-17.933
-19.869
-21.936
-24.11
-26.358
-28.635
-30.905
-33.14
-35.324
-37.446
-39.49
-41.427
-43.215
-44.818
-46.211
-47.396
-48.391
-49.193
-49.79
-50.182
-50.391
-50.482
-50.551
-50.638
-50.706
-50.775
-50.918
-51.323
-52.338
-54.137
-56.665
-59.851
-63.63
-67.855
-72.344
-76.507
-79.21
-79.641
-77.499
-72.72
-65.518
-56.183
-44.97
-32.869
-21.831
-13.452
-8.627
-7.855
-11.128
-18.301
-29.197
-41.936
-52.614
-57.795
-55.338
-45.522
-30.312
-9.558
20.246
65.095
129.322
212.095
306.476
401.671
489.273
565.165
628.627
678.396
708.19
707.029
662.833
569.417
428.701
251.916
57.713
-134.36
-304.489
-438.109
-529.373
-579.037
-595.562
-588.482
-563.381
-524.194
-472.79
-413.533
-356.126
-308.336
-274.325
-252.863
-236.208
-219.123
-200.116
-180.641
-165.393
-156.048
-151.642
-150.421
-149.424
-147.228
-143.627
-138.252
-131.418
-123.655
-115.189
-106.536
-98.259
-90.672
-84.259
-79.55
-76.669
-75.503
-75.843
-77.328
-79.653
-82.588
-85.753
-88.725
-91.216
-93.03
-94.102
-94.469
-94.143
-93.141
-91.521
-89.373
-86.792
-83.879
-80.705
-77.321
-73.774
-70.124
-66.455
-62.856
-59.416
-56.221
-53.325
-50.76
-48.55
-46.697
-45.187
-44
-43.1
-42.44
-41.983
-41.696
-41.55
-41.52
-41.573
-41.669
-41.77
-41.83
-41.816
-41.705
-41.472
-41.103
-40.586
-39.913
-39.083
-38.1
-36.963
-35.67
-34.219
-32.604
-30.821
-28.871
-26.753
-24.47
-22.025
-19.418
-16.655
-13.737
-10.671
-7.461
-4.11
-0.624
2.994
6.734
10.589
14.55
18.605
22.746
26.962
31.242
35.573
39.945
44.346
48.766
53.193
57.617
62.025
66.405
70.746
75.035
79.261
83.41
87.471
91.429
95.274
98.991
102.569
105.996
109.26
112.35
115.255
117.965
120.471
122.763
124.833
126.673
128.276
129.635
130.745
131.6
132.196
132.53
132.599
132.4
131.933
131.196
130.191
128.919
127.381
125.581
123.524
121.213
118.657
115.862
112.837
109.591
106.135
102.48
98.638
94.621
90.444
86.12
81.664
77.089
72.411
67.646
62.807
57.912
52.974
48.01
43.035
38.063
33.108
28.186
23.31
18.493
13.748
9.088
4.523
0.066
-4.274
-8.486
-12.563
-16.496
-20.278
-23.904
-27.367
-30.663
-33.791
-36.746
-39.527
-42.134
-44.566
-46.824
-48.91
-50.826
-52.574
-54.158
-55.581
-56.849
-57.965
-58.936
-59.765
-60.46
-61.026
-61.469
-61.796
-62.013
-62.126
-62.143
-62.069
-61.912
-61.678
-61.374
-61.006
-60.581
-60.105
-59.583
-59.022
-58.427
-57.803
-57.156
-56.49
-55.809
-55.119
-54.424
-53.726
-53.03
-52.34
-51.658
-50.989
-50.334
-49.697
-49.08
-48.487
-47.919
-47.379
-46.868
-46.39
-45.945
-45.536
-45.165
-44.833
-44.541
-44.291
-44.084
-43.921
-43.803
-43.731
-43.704
-43.724
-43.791
-43.905
-44.066
-44.275
-44.533
-44.838
-45.193
-45.596
-46.047
-46.545
-47.09
-47.68
-48.314
-48.99
-49.706
-50.459
-51.248
-52.07
-52.922
-53.801
-54.705
-55.629
-56.571
-57.526
-58.491
-59.461
-60.434
-61.404
-62.367
-63.321
-64.261
-65.182
-66.081
-66.953
-67.791
-68.592
-69.348
-70.054
-70.702
-71.285
-71.796
-72.231
-72.583
-72.848
-73.02
-73.096
-73.076
-72.957
-72.734
-72.405
-71.964
-71.406
-70.727
-69.922
-68.985
-67.912
-66.698
-65.342
-63.848
-62.216
-60.444
-58.53
-56.466
-54.251
-51.892
-49.392
-46.76
-44.008
-41.154
-38.227
-35.268
-32.309
-29.368
-26.459
-23.584
-20.747
-17.956
-15.214
-12.523
-9.884
-7.292
-4.748
-2.263
0.174
2.584
5.006
7.507
10.123
12.861
15.716
18.665
21.67
24.695
27.678
30.541
33.224
35.669
37.834
39.693
41.19
42.254
42.806
42.743
41.995
40.537
38.358
35.479
31.96
27.876
23.338
18.492
13.446
8.301
3.151
-1.929
-6.834
-11.454
-15.689
-19.435
-22.611
-25.175
-27.108
-28.427
-29.21
-29.566
-29.646
-29.631
-29.684
-29.952
-30.575
-31.708
-33.536
-36.169
-39.626
-43.826
-48.579
-53.7
-59.019
-64.213
-68.839
-72.564
-75.168
-76.671
-77.378
-77.491
-77.121
-76.594
-76.246
-76.185
-76.517
-76.996
-76.879
-75.719
-71.981
-62.715
-45.911
-19.939
13.907
50.509
88.103
127.624
173.92
236.822
319.026
417.109
523.552
624.237
710.164
775.967
814.667
821.692
788.907
706.917
573.921
395.045
185.465
-29.662
-224.819
-379.737
-484.43
-542.761
-566.456
-567.139
-551.594
-521.001
-474.688
-416.425
-355.642
-301.506
-259.436
-228.005
-200.209
-171.634
-141.85
-113.983
-93.464
-82.077
-78.487
-80.31
-83.894
-87.053
-88.951
-88.632
-85.941
-81.228
-74.745
-67.056
-59.017
-51.3
-44.619
-39.773
-36.974
-36.049
-36.738
-38.591
-41.165
-44.092
-46.863
-48.95
-50.082
-50.158
-49.192
-47.299
-44.534
-40.938
-36.62
-31.72
-26.376
-20.713
-14.814
-8.745
-2.592
3.531
9.486
15.16
20.489
25.436
29.989
34.14
37.874
41.2
44.154
46.777
49.11
51.192
53.048
54.71
56.218
57.62
58.969
60.308
61.661
63.05
64.49
65.994
67.576
69.241
70.984
72.804
74.702
76.682
78.753
80.918
83.176
85.529
87.975
90.514
93.149
95.879
98.704
101.622
104.632
107.735
110.93
114.216
117.586
121.037
124.562
128.153
131.804
135.505
139.249
143.026
146.829
150.647
154.474
158.299
162.116
165.913
169.683
173.416
177.103
180.735
184.3
187.79
191.195
194.505
197.71
200.8
203.764
206.593
209.277
211.806
214.171
216.363
218.372
220.191
221.812
223.226
224.428
225.41
226.166
226.692
226.981
227.031
226.836
226.393
225.7
224.755
223.557
222.104
220.397
218.438
216.227
213.769
211.068
208.128
204.956
201.559
197.945
194.123
190.104
185.899
181.518
176.976
172.285
167.459
162.511
157.458
152.314
147.095
141.815
136.49
131.137
125.77
120.404
115.055
109.737
104.465
99.252
94.111
89.056
84.098
79.25
74.522
69.924
65.465
61.154
56.997
53.002
49.173
45.514
42.029
38.721
35.59
32.637
29.862
27.263
24.839
22.586
20.501
18.579
16.816
15.206
13.743
12.422
11.236
10.179
9.243
8.421
7.708
7.095
6.576
6.143
5.789
5.508
5.292
5.135
5.03
4.971
4.952
4.966
5.01
5.077
5.163
5.264
5.375
5.492
5.612
5.731
5.848
5.959
6.061
6.152
6.231
6.296
6.344
6.374
6.385
6.374
6.34
6.282
6.199
6.088
5.95
5.782
5.584
5.354
5.093
4.799
4.471
4.108
3.711
3.279
2.81
2.304
1.761
1.179
0.558
-0.103
-0.805
-1.55
-2.339
-3.171
-4.047
-4.966
-5.93
-6.938
-7.988
-9.081
-10.214
-11.387
-12.598
-13.846
-15.13
-16.447
-17.796
-19.174
-20.58
-22.011
-23.465
-24.939
-26.432
-27.941
-29.464
-31
-32.543
-34.092
-35.642
-37.189
-38.728
-40.252
-41.756
-43.231
-44.673
-46.074
-47.429
-48.732
-49.979
-51.165
-52.29
-53.348
-54.336
-55.248
-56.079
-56.821
-57.469
-58.016
-58.453
-58.773
-58.972
-59.045
-58.993
-58.812
-58.5
-58.048
-57.448
-56.693
-55.787
-54.73
-53.527
-52.188
-50.731
-49.18
-47.577
-45.95
-44.319
-42.694
-41.073
-39.458
-37.852
-36.257
-34.674
-33.103
-31.536
-29.975
-28.432
-26.896
-25.35
-23.752
-22.033
-20.154
-18.106
-15.896
-13.553
-11.12
-8.637
-6.172
-3.809
-1.622
0.322
1.979
3.326
4.317
4.886
4.942
4.368
3.086
1.06
-1.731
-5.279
-9.543
-14.463
-19.927
-25.78
-31.894
-38.162
-44.499
-50.848
-57.127
-63.226
-69.028
-74.4
-79.235
-83.462
-87.012
-89.848
-91.99
-93.498
-94.507
-95.188
-95.675
-96.086
-96.544
-97.153
-98.049
-99.387
-101.271
-103.824
-107.206
-111.471
-116.615
-122.506
-128.746
-134.855
-140.409
-144.888
-147.756
-148.712
-147.59
-144.568
-140.432
-136.077
-132.221
-129.541
-128.708
-130.066
-133.675
-139.142
-144.028
-144.509
-137.522
-120.195
-93.035
-60.299
-23.631
16.919
66.136
133.929
224.686
337.826
464.228
587.185
692.765
767.662
803.952
797.57
742.972
640.159
491.353
304.758
98.042
-109.729
-297.229
-447.541
-554.165
-617.617
-645.695
-647.698
-629.682
-595.778
-549.436
-496.374
-443.503
-396.219
-356.029
-319.552
-283.546
-247.524
-213.822
-187.206
-170.51
-163.071
-162.589
-165.922
-170.3
-174.215
-176.582
-176.402
-173.371
-167.778
-160.101
-151.047
-141.533
-132.323
-124.234
-118.155
-114.369
-112.745
-113.028
-114.746
-117.459
-120.826
-124.36
-127.543
-130.074
-131.772
-132.583
-132.591
-131.831
-130.333
-128.186
-125.484
-122.326
-118.817
-115.025
-111.01
-106.835
-102.56
-98.269
-94.052
-89.99
-86.167
-82.638
-79.425
-76.548
-74.007
-71.786
-69.865
-68.21
-66.77
-65.509
-64.389
-63.378
-62.452
-61.577
-60.715
-59.828
-58.872
-57.816
-56.639
-55.318
-53.839
-52.192
-50.368
-48.365
-46.189
-43.841
-41.318
-38.62
-35.742
-32.682
-29.441
-26.023
-22.429
-18.666
-14.736
-10.644
-6.398
-2.002
2.536
7.209
12.013
16.939
21.978
27.121
32.355
37.669
43.051
48.488
53.966
59.473
64.996
70.52
76.033
81.522
86.975
92.376
97.714
102.974
108.143
113.208
118.155
122.972
127.646
132.162
136.51
140.676
144.648
148.415
151.966
155.288
158.373
161.209
163.787
166.1
168.138
169.894
171.361
172.535
173.408
173.978
174.242
174.195
173.838
173.169
172.189
170.899
169.303
167.404
165.207
162.717
159.943
156.892
153.574
150
146.179
142.127
137.855
133.378
128.712
123.873
118.878
113.744
108.489
103.132
97.693
92.189
86.641
81.067
75.487
69.921
64.388
58.907
53.496
48.173
42.956
37.861
32.904
28.101
23.464
19.008
14.744
10.683
6.835
3.209
-0.188
-3.349
-6.269
-8.945
-11.373
-13.552
-15.483
-17.165
-18.602
-19.796
-20.751
-21.473
-21.967
-22.242
-22.304
-22.164
-21.829
-21.312
-20.623
-19.774
-18.776
-17.643
-16.387
-15.021
-13.558
-12.011
-10.393
-8.716
-6.993
-5.237
-3.461
-1.675
0.109
1.879
3.626
5.339
7.009
8.629
10.19
11.683
13.104
14.444
15.698
16.862
17.931
18.9
19.767
20.53
21.187
21.738
22.182
22.52
22.752
22.88
22.906
22.833
22.664
22.401
22.048
21.61
21.092
20.496
19.829
19.094
18.296
17.438
16.526
15.563
14.551
13.495
12.399
11.265
10.097
8.899
7.674
6.426
5.157
3.869
2.566
1.249
-0.081
-1.42
-2.769
-4.125
-5.487
-6.855
-8.226
-9.601
-10.979
-12.361
-13.745
-15.132
-16.523
-17.918
-19.316
-20.716
-22.117
-23.516
-24.912
-26.299
-27.674
-29.033
-30.37
-31.681
-32.963
-34.211
-35.421
-36.591
-37.716
-38.793
-39.814
-40.775
-41.667
-42.481
-43.209
-43.844
-44.378
-44.804
-45.117
-45.313
-45.39
-45.343
-45.169
-44.858
-44.402
-43.792
-43.027
-42.108
-41.043
-39.847
-38.539
-37.143
-35.686
-34.188
-32.666
-31.124
-29.559
-27.969
-26.347
-24.7
-23.044
-21.394
-19.765
-18.165
-16.596
-15.05
-13.506
-11.936
-10.305
-8.594
-6.803
-4.957
-3.104
-1.309
0.35
1.811
3.029
3.963
4.586
4.865
4.767
4.247
3.245
1.696
-0.474
-3.318
-6.862
-11.096
-15.97
-21.399
-27.259
-33.438
-39.841
-46.386
-53.013
-59.655
-66.246
-72.711
-78.966
-84.928
-90.505
-95.615
-100.19
-104.2
-107.651
-110.609
-113.208
-115.562
-117.78
-119.952
-122.128
-124.384
-126.809
-129.479
-132.483
-135.889
-139.735
-144.093
-149.062
-154.644
-160.749
-167.101
-173.193
-178.525
-182.68
-185.212
-185.689
-183.776
-179.316
-172.622
-164.507
-155.965
-147.874
-140.883
-135.645
-132.705
-132.237
-133.805
-135.291
-133.054
-123.754
-104.581
-75.869
-41.328
-3.487
35.798
80.272
139.019
217.747
319.571
437.311
553.501
650.614
710.271
722.392
685.956
602.603
479.277
321.362
135.868
-64.036
-262.351
-437.663
-572.223
-658.151
-697.314
-700.561
-679.043
-641.946
-594.273
-539.822
-485.701
-436.249
-394.874
-361.59
-330.463
-299.209
-267.934
-238.127
-214.825
-199.64
-191.086
-187.674
-186.493
-185.522
-184.314
-182.177
-178.533
-173.446
-167.118
-159.826
-152.187
-144.784
-138.031
-132.529
-128.83
-127.026
-126.964
-128.364
-130.786
-133.84
-137.157
-140.261
-142.714
-144.276
-144.857
-144.485
-143.246
-141.207
-138.434
-135.036
-131.151
-126.908
-122.41
-117.738
-112.962
-108.173
-103.493
-99.055
-94.95
-91.235
-87.938
-85.061
-82.606
-80.569
-78.917
-77.602
-76.576
-75.79
-75.203
-74.782
-74.485
-74.263
-74.063
-73.824
-73.501
-73.063
-72.48
-71.735
-70.809
-69.689
-68.37
-66.855
-65.143
-63.231
-61.116
-58.79
-56.249
-53.496
-50.53
-47.355
-43.973
-40.387
-36.6
-32.62
-28.45
-24.098
-19.57
-14.871
-10.01
-4.998
0.154
5.433
10.824
16.314
21.887
27.528
33.219
38.945
44.691
50.441
56.18
61.891
67.561
73.173
78.715
84.17
89.524
94.764
99.876
104.846
109.662
114.311
118.781
123.061
127.141
131.01
134.66
138.082
141.267
144.21
146.902
149.338
151.513
153.422
155.062
156.429
157.521
158.338
158.878
159.141
159.129
158.842
158.282
157.451
156.354
154.995
153.377
151.506
149.39
147.034
144.448
141.639
138.618
135.393
131.974
128.374
124.603
120.672
116.595
112.382
108.048
103.606
99.068
94.45
89.764
85.025
80.247
75.444
70.629
65.818
61.022
56.256
51.534
46.866
42.268
37.749
33.323
29
24.79
20.704
16.751
12.938
9.275
5.767
2.422
-0.755
-3.759
-6.585
-9.23
-11.69
-13.962
-16.046
-17.94
-19.645
-21.159
-22.486
-23.627
-24.584
-25.36
-25.961
-26.391
-26.655
-26.759
-26.709
-26.513
-26.177
-25.711
-25.121
-24.416
-23.605
-22.696
-21.699
-20.623
-19.476
-18.268
-17.007
-15.703
-14.364
-13
-11.619
-10.23
-8.842
-7.461
-6.098
-4.759
-3.452
-2.185
-0.963
0.206
1.316
2.364
3.344
4.252
5.086
5.843
6.522
7.12
7.637
8.074
8.43
8.706
8.904
9.026
9.074
9.052
8.962
8.809
8.596
8.327
8.007
7.64
7.23
6.782
6.301
5.791
5.259
4.71
4.15
3.585
3.022
2.467
1.925
1.402
0.902
0.43
-0.011
-0.417
-0.784
-1.108
-1.387
-1.616
-1.794
-1.918
-1.984
-1.99
-1.936
-1.821
-1.644
-1.403
-1.097
-0.724
-0.284
0.227
0.812
1.475
2.22
3.05
3.967
4.974
6.072
7.262
8.543
9.914
11.376
12.93
14.579
16.326
18.178
20.139
22.214
24.41
26.729
29.175
31.749
34.448
37.271
40.216
43.286
46.484
49.818
53.29
56.901
60.648
64.526
68.518
72.601
76.746
80.924
85.112
89.293
93.458
97.608
101.745
105.877
110.008
114.129
118.232
122.303
126.329
130.298
134.22
138.118
142.023
145.977
150.012
154.15
158.405
162.765
167.197
171.637
176.027
180.316
184.451
188.391
192.101
195.549
198.694
201.475
203.804
205.561
206.634
206.928
206.378
204.925
202.514
199.169
194.99
190.177
184.958
179.447
173.62
167.421
160.916
154.134
146.955
139.098
130.26
120.368
109.752
98.967
88.304
