Name,Criss Capps
Date of Birth,"Feb 5, 1952"
Recorded Date,2020-09-05 18:35:36 -0400
Classification,Sinus Rhythm
Symptoms,
Software Version,1.90
Device,"Watch5,4"
Sample Rate,512.844 hertz


Lead,Lead I
Unit,µV

-220.602
-273.562
-305.266
-320.062
-323.673
-322.347
-318.289
-312.137
-304.942
-297.239
-289.852
-283.333
-277.391
-271.735
-266.275
-261.043
-256.383
-252.287
-248.513
-245.217
-242.712
-241.294
-241.044
-241.253
-240.778
-239.129
-236.081
-231.237
-224.338
-215.153
-204.022
-192.455
-182.133
-173.889
-168.105
-165.063
-164.818
-167.057
-170.386
-172.053
-169.273
-160.131
-143.243
-117.235
-80.641
-32.633
26.138
93.346
166.071
241.59
317.011
388.497
451.144
500.012
531.173
542.225
531.783
499.125
444.734
371.123
282.961
186.243
87.23
-8.295
-94.904
-167.843
-223.699
-260.91
-279.947
-282.817
-272.334
-251.706
-224.584
-194.377
-163.668
-134.322
-107.379
-83.387
-62.797
-45.626
-31.323
-19.505
-10.293
-3.74
0.153
1.735
1.99
1.598
0.738
-0.201
-0.59
-0.021
1.775
4.633
7.716
10.513
12.933
14.795
15.972
16.453
16.185
15.377
14.568
14.054
13.934
14.289
15.053
16.182
17.704
19.517
21.458
23.429
25.346
27.162
28.89
30.49
31.916
33.158
34.194
35.026
35.678
36.152
36.464
36.64
36.697
36.666
36.582
36.465
36.342
36.24
36.178
36.189
36.302
36.538
36.922
37.476
38.213
39.153
40.31
41.694
43.318
45.19
47.32
49.715
52.381
55.322
58.54
62.035
65.802
69.836
74.132
78.68
83.469
88.487
93.721
99.158
104.78
110.571
116.512
122.583
128.762
135.027
141.355
147.722
154.104
160.475
166.81
173.086
179.276
185.357
191.304
197.095
202.706
208.117
213.307
218.257
222.95
227.37
231.503
235.336
238.86
242.064
244.941
247.486
249.694
251.561
253.086
254.267
255.107
255.608
255.772
255.606
255.115
254.308
253.193
251.78
250.08
248.104
245.865
243.377
240.653
237.708
234.558
231.219
227.706
224.037
220.227
216.294
212.254
208.122
203.914
199.646
195.333
190.991
186.634
182.276
177.932
173.615
169.34
165.119
160.964
156.887
152.9
149.013
145.236
141.579
138.05
134.659
131.413
128.318
125.382
122.609
120.004
117.572
115.314
113.233
111.331
109.608
108.064
106.699
105.512
104.501
103.664
102.997
102.497
102.16
101.981
101.954
102.074
102.334
102.728
103.248
103.886
104.634
105.485
106.429
107.458
108.562
109.731
110.956
112.228
113.535
114.869
116.219
117.577
118.932
120.277
121.602
122.898
124.159
125.376
126.542
127.651
128.696
129.671
130.572
131.394
132.133
132.785
133.348
133.82
134.199
134.483
134.672
134.767
134.767
134.673
134.488
134.213
133.851
133.406
132.881
132.279
131.606
130.865
130.063
129.203
128.291
127.332
126.333
125.298
124.233
123.142
122.031
120.905
119.768
118.623
117.476
116.33
115.188
114.054
112.93
111.818
110.72
109.639
108.575
107.53
106.503
105.495
104.507
103.538
102.587
101.653
100.737
99.835
98.948
98.074
97.209
96.353
95.503
94.656
93.811
92.966
92.118
91.266
90.408
89.544
88.671
87.79
86.899
85.999
85.088
84.168
83.238
82.3
81.355
80.405
79.452
78.497
77.543
76.592
75.645
74.705
73.773
72.851
71.94
71.042
70.157
69.287
68.435
67.6
66.785
65.99
65.215
64.463
63.731
63.021
62.332
61.663
61.013
60.38
59.763
59.161
58.57
57.987
57.409
56.833
56.254
55.668
55.069
54.454
53.819
53.16
52.475
51.76
51.014
50.237
49.43
48.595
47.731
46.842
45.928
44.993
44.04
43.07
42.086
41.091
40.09
39.089
38.093
37.112
36.152
35.223
34.334
33.497
32.724
32.025
31.411
30.893
30.485
30.2
30.059
30.075
30.255
30.604
31.123
31.808
32.653
33.642
34.753
35.965
37.261
38.625
40.049
41.526
43.048
44.605
46.182
47.778
49.4
51.065
52.794
54.612
56.545
58.629
60.916
63.443
66.234
69.303
72.64
76.228
80.036
84.026
88.156
92.363
96.562
100.656
104.53
108.074
111.189
113.766
115.685
116.844
117.159
116.558
115.007
112.492
109.018
104.608
99.306
93.182
86.343
78.929
71.097
62.999
54.767
46.532
38.434
30.611
23.194
16.309
10.051
4.485
-0.326
-4.343
-7.565
-10.014
-11.766
-12.938
-13.645
-13.996
-14.102
-14.066
-14.012
-14.072
-14.359
-15.031
-16.291
-18.236
-20.839
-23.919
-27.077
-29.899
-32.056
-33.106
-32.456
-29.762
-25.122
-19.135
-13.007
-7.969
-4.758
-4.015
-6.594
-12.914
-22.425
-33.55
-43.385
-48.58
-46.582
-34.963
-10.927
27.781
82.162
151.563
233.117
322.5
415.326
506.359
589.243
657.44
704.819
726.805
720.95
686.746
625.355
540.095
436.293
320.815
201.63
86.249
-18.414
-106.514
-174.549
-221.289
-247.382
-255.437
-249.506
-233.94
-213.756
-193.925
-177.551
-166.25
-160.562
-159.756
-162.493
-167.323
-172.15
-174.724
-173.897
-169.322
-161.216
-150.419
-137.812
-124.165
-110.503
-97.904
-87.037
-78.295
-71.802
-67.405
-64.972
-64.401
-65.5
-68.054
-71.877
-76.745
-82.444
-88.784
-95.537
-102.488
-109.437
-116.165
-122.45
-128.102
-132.981
-137.003
-140.133
-142.353
-143.655
-144.051
-143.589
-142.353
-140.451
-137.995
-135.088
-131.834
-128.336
-124.717
-121.11
-117.624
-114.332
-111.283
-108.498
-105.999
-103.806
-101.92
-100.323
-98.985
-97.873
-96.96
-96.222
-95.63
-95.148
-94.73
-94.327
-93.902
-93.429
-92.889
-92.269
-91.555
-90.736
-89.807
-88.77
-87.627
-86.377
-85.016
-83.536
-81.934
-80.211
-78.37
-76.413
-74.342
-72.158
-69.863
-67.461
-64.957
-62.354
-59.657
-56.868
-53.997
-51.051
-48.041
-44.98
-41.881
-38.757
-35.622
-32.491
-29.38
-26.302
-23.272
-20.305
-17.413
-14.612
-11.916
-9.338
-6.891
-4.588
-2.442
-0.464
1.334
2.944
4.357
5.564
6.56
7.338
7.894
8.226
8.331
8.21
7.864
7.296
6.508
5.507
4.3
2.893
1.295
-0.483
-2.432
-4.541
-6.796
-9.187
-11.7
-14.323
-17.042
-19.844
-22.716
-25.644
-28.614
-31.614
-34.631
-37.651
-40.663
-43.653
-46.612
-49.529
-52.393
-55.197
-57.93
-60.588
-63.162
-65.648
-68.042
-70.339
-72.538
-74.638
-76.638
-78.538
-80.339
-82.045
-83.656
-85.178
-86.613
-87.966
-89.241
-90.445
-91.581
-92.657
-93.677
-94.648
-95.575
-96.466
-97.324
-98.158
-98.971
-99.769
-100.557
-101.339
-102.12
-102.902
-103.69
-104.484
-105.288
-106.102
-106.926
-107.762
-108.608
-109.464
-110.328
-111.198
-112.071
-112.946
-113.819
-114.687
-115.546
-116.393
-117.225
-118.037
-118.826
-119.586
-120.316
-121.009
-121.663
-122.274
-122.837
-123.349
-123.807
-124.207
-124.547
-124.824
-125.036
-125.181
-125.258
-125.266
-125.205
-125.073
-124.872
-124.602
-124.264
-123.86
-123.391
-122.858
-122.265
-121.612
-120.904
-120.141
-119.326
-118.462
-117.552
-116.598
-115.603
-114.57
-113.502
-112.401
-111.271
-110.113
-108.932
-107.729
-106.508
-105.271
-104.021
-102.759
-101.488
-100.211
-98.928
-97.642
-96.353
-95.064
-93.774
-92.484
-91.196
-89.91
-88.626
-87.344
-86.065
-84.79
-83.518
-82.251
-80.988
-79.73
-78.478
-77.232
-75.993
-74.762
-73.539
-72.324
-71.12
-69.925
-68.742
-67.571
-66.412
-65.266
-64.135
-63.018
-61.916
-60.832
-59.765
-58.717
-57.689
-56.681
-55.695
-54.732
-53.792
-52.877
-51.986
-51.12
-50.279
-49.464
-48.672
-47.905
-47.159
-46.434
-45.728
-45.039
-44.363
-43.697
-43.039
-42.384
-41.73
-41.07
-40.402
-39.721
-39.021
-38.296
-37.542
-36.753
-35.921
-35.042
-34.109
-33.115
-32.055
-30.922
-29.71
-28.415
-27.029
-25.549
-23.968
-22.284
-20.492
-18.59
-16.575
-14.446
-12.202
-9.845
-7.376
-4.796
-2.11
0.678
3.563
6.539
9.599
12.734
15.935
19.191
22.49
25.819
29.163
32.506
35.832
39.124
42.363
45.531
48.609
51.579
54.425
57.129
59.675
62.047
64.227
66.199
67.948
69.46
70.72
71.713
72.429
72.859
73
72.851
72.409
71.674
70.638
69.297
67.654
65.714
63.483
60.976
58.21
55.217
52.048
48.756
45.39
41.997
38.613
35.274
32.023
28.906
25.974
23.277
20.85
18.72
16.92
15.46
14.335
13.496
12.837
12.247
11.624
10.881
9.968
8.82
7.345
5.454
3.051
0.042
-3.602
-7.943
-13.092
-18.976
-25.4
-32.004
-38.151
-43.305
-47.062
-48.871
-48.283
-45.275
-40.039
-33.211
-25.873
-18.672
-12.128
-7.071
-3.822
-1.988
-0.654
2.03
8.35
19.988
38.775
67.002
106.161
156.747
218.038
287.654
362.452
439.082
513.038
578.682
630.424
663.274
673.615
659.506
620.121
555.989
469.948
367.04
253.735
137.068
23.721
-80.128
-168.912
-238.347
-286.452
-313.621
-322.074
-315.181
-296.819
-271.282
-243.015
-216.033
-192.883
-174.567
-161.085
-151.705
-145.373
-140.787
-136.341
-130.487
-122.521
-112.517
-100.92
-88.476
-75.885
-63.778
-52.953
-44.177
-37.825
-33.945
-32.362
-32.741
-34.798
-38.29
-42.896
-48.259
-54.038
-59.928
-65.71
-71.213
-76.279
-80.762
-84.508
-87.412
-89.431
-90.559
-90.824
-90.269
-88.943
-86.92
-84.303
-81.206
-77.759
-74.102
-70.351
-66.627
-63.029
-59.628
-56.498
-53.684
-51.205
-49.068
-47.265
-45.774
-44.577
-43.651
-42.956
-42.456
-42.109
-41.864
-41.675
-41.491
-41.268
-40.974
-40.579
-40.063
-39.411
-38.611
-37.657
-36.546
-35.275
-33.839
-32.233
-30.452
-28.493
-26.356
-24.042
-21.553
-18.894
-16.068
-13.077
-9.926
-6.619
-3.161
0.44
4.18
8.05
12.039
16.136
20.324
24.59
28.918
33.291
37.692
42.102
46.506
50.885
55.225
59.508
63.719
67.841
71.858
75.755
79.517
83.129
86.577
89.848
92.928
95.807
98.475
100.921
103.137
105.117
106.854
108.343
109.581
110.565
111.295
111.771
111.994
111.967
111.695
111.183
110.437
109.465
108.276
106.878
105.28
103.492
101.525
99.389
97.095
94.656
92.083
89.388
86.585
83.686
80.705
77.655
74.55
71.401
68.223
65.027
61.826
58.632
55.456
52.309
49.201
46.141
43.14
40.204
37.341
34.558
31.859
29.25
26.735
24.316
21.997
19.78
17.667
15.659
13.756
11.959
10.266
8.678
7.193
5.808
4.521
3.328
2.227
1.213
0.283
-0.567
-1.342
-2.047
-2.686
-3.263
-3.783
-4.251
-4.67
-5.046
-5.382
-5.682
-5.948
-6.183
-6.391
-6.572
-6.729
-6.864
-6.979
-7.074
-7.152
-7.215
-7.262
-7.296
-7.318
-7.327
-7.325
-7.312
-7.287
-7.252
-7.204
-7.145
-7.074
-6.99
-6.893
-6.782
-6.657
-6.516
-6.359
-6.185
-5.994
-5.786
-5.561
-5.319
-5.06
-4.787
-4.499
-4.199
-3.888
-3.566
-3.236
-2.898
-2.554
-2.205
-1.852
-1.496
-1.139
-0.782
-0.426
-0.072
0.277
0.622
0.959
1.289
1.608
1.917
2.212
2.493
2.756
3.001
3.226
3.429
3.609
3.764
3.895
4.001
4.083
4.14
4.173
4.184
4.173
4.14
4.087
4.015
3.924
3.817
3.694
3.556
3.404
3.241
3.067
2.883
2.691
2.492
2.287
2.078
1.866
1.654
1.442
1.235
1.033
0.838
0.654
0.481
0.32
0.173
0.038
-0.082
-0.191
-0.286
-0.371
-0.445
-0.51
-0.566
-0.615
-0.657
-0.696
-0.733
-0.77
-0.809
-0.853
-0.902
-0.96
-1.027
-1.104
-1.193
-1.295
-1.412
-1.545
-1.695
-1.865
-2.056
-2.27
-2.507
-2.767
-3.051
-3.355
-3.678
-4.016
-4.364
-4.718
-5.074
-5.426
-5.77
-6.102
-6.417
-6.71
-6.978
-7.214
-7.411
-7.559
-7.649
-7.671
-7.615
-7.47
-7.227
-6.879
-6.419
-5.841
-5.142
-4.317
-3.358
-2.258
-1.004
0.413
1.996
3.744
5.65
7.7
9.873
12.147
14.494
16.895
19.336
21.813
24.331
26.897
29.519
32.195
34.909
37.646
40.392
43.14
45.886
48.638
51.418
54.251
57.175
60.21
63.357
66.592
69.865
73.108
76.241
79.198
81.931
84.394
86.55
88.36
89.785
90.781
91.292
91.249
90.567
89.179
87.04
84.15
80.544
76.283
71.465
66.178
60.509
54.555
48.395
42.105
35.759
29.421
23.164
17.086
11.297
5.907
1.009
-3.344
-7.127
-10.335
-13.006
-15.197
-17
-18.537
-19.915
-21.218
-22.506
-23.833
-25.284
-26.96
-28.973
-31.44
-34.434
-38.046
-42.43
-47.595
-53.389
-59.516
-65.403
-70.48
-74.389
-76.642
-76.682
-74.428
-70.037
-64.08
-57.869
-52.377
-48.12
-45.901
-46.288
-48.914
-52.987
-56.72
-57.121
-51.89
-39.008
-15.956
19.119
66.969
127.3
197.949
275.277
355.823
435.249
508.037
568.727
612.067
634.253
633.445
608.81
560.342
489.914
401.347
300.05
192.672
84.957
-18.032
-111.157
-190.269
-252.351
-296.052
-322.336
-333.578
-332.03
-320.454
-302.007
-279.312
-255.39
-232.615
-211.946
-194.049
-179.308
-167.444
-158.406
-152.427
-148.773
-146.71
-145.693
-144.654
-143.089
-141.004
-137.93
-133.287
-127.129
-119.65
-111.45
-103.693
-96.943
-91.329
-87.125
-84.534
-83.594
-84.305
-86.332
-89.004
-91.93
-94.948
-97.948
-100.913
-103.763
-106.325
-108.484
-110.245
-111.615
-112.587
-113.152
-113.251
-112.868
-112.048
-110.865
-109.402
-107.716
-105.83
-103.748
-101.498
-99.127
-96.704
-94.32
-92.032
-89.873
-87.873
-86.046
-84.408
-82.966
-81.698
-80.562
-79.517
-78.536
-77.598
-76.697
-75.816
-74.926
-73.992
-72.972
-71.837
-70.565
-69.135
-67.529
-65.734
-63.738
-61.544
-59.161
-56.594
-53.849
-50.927
-47.827
-44.552
-41.111
-37.511
-33.761
-29.87
-25.847
-21.704
-17.454
-13.109
-8.682
-4.185
0.369
4.968
9.596
14.236
18.873
23.488
28.066
32.589
37.04
41.404
45.664
49.807
53.818
57.685
61.395
64.936
68.298
71.471
74.447
77.217
79.774
82.113
84.229
86.116
87.773
89.196
90.385
91.338
92.058
92.546
92.806
92.843
92.662
92.271
91.677
90.888
89.915
88.766
87.453
85.985
84.376
82.634
80.773
78.804
76.737
74.585
72.357
70.066
67.722
65.334
62.912
60.466
58.005
55.538
53.073
50.618
48.182
45.771
43.392
41.052
38.755
36.508
34.313
32.173
30.092
28.071
26.11
24.21
22.371
20.591
18.87
17.205
15.594
14.036
12.526
11.063
9.643
8.263
6.92
5.611
4.334
3.087
1.867
0.672
-0.5
-1.65
-2.78
-3.892
-4.987
-6.068
-7.135
-8.19
-9.233
-10.264
-11.284
-12.293
-13.29
-14.273
-15.242
-16.195
-17.13
-18.045
-18.937
-19.805
-20.644
-21.452
-22.227
-22.965
-23.663
-24.319
-24.93
-25.494
-26.01
-26.476
-26.891
-27.255
-27.567
-27.827
-28.036
-28.192
-28.297
-28.351
-28.354
-28.308
-28.212
-28.069
-27.88
-27.647
-27.371
-27.056
-26.703
-26.316
-25.896
-25.448
-24.974
-24.479
-23.966
-23.438
-22.901
-22.358
-21.814
-21.271
-20.735
-20.207
-19.691
-19.189
-18.704
-18.238
-17.791
-17.366
-16.964
-16.586
-16.233
-15.905
-15.604
-15.33
-15.083
-14.865
-14.674
-14.51
-14.375
-14.266
-14.185
-14.131
-14.103
-14.099
-14.12
-14.164
-14.229
-14.313
-14.415
-14.531
-14.661
-14.802
-14.952
-15.11
-15.273
-15.442
-15.615
-15.791
-15.971
-16.152
-16.336
-16.521
-16.708
-16.898
-17.089
-17.282
-17.478
-17.677
-17.878
-18.082
-18.29
-18.501
-18.714
-18.93
-19.148
-19.368
-19.59
-19.814
-20.041
-20.27
-20.501
-20.736
-20.975
-21.217
-21.463
-21.713
-21.967
-22.225
-22.486
-22.751
-23.019
-23.289
-23.562
-23.836
-24.111
-24.386
-24.66
-24.931
-25.199
-25.461
-25.716
-25.965
-26.204
-26.435
-26.657
-26.869
-27.073
-27.267
-27.452
-27.628
-27.797
-27.957
-28.109
-28.253
-28.391
-28.522
-28.648
-28.767
-28.881
-28.988
-29.089
-29.181
-29.262
-29.33
-29.381
-29.414
-29.425
-29.412
-29.373
-29.308
-29.213
-29.091
-28.939
-28.757
-28.542
-28.29
-27.995
-27.653
-27.257
-26.801
-26.278
-25.678
-24.993
-24.221
-23.354
-22.386
-21.309
-20.107
-18.773
-17.306
-15.704
-13.972
-12.119
-10.152
-8.089
-5.956
-3.78
-1.583
0.615
2.81
5.001
7.18
9.341
11.474
13.581
15.68
17.797
19.947
22.15
24.428
26.809
29.352
32.1
35.081
38.312
41.779
45.456
49.319
53.335
57.455
61.613
65.713
69.643
73.319
76.652
79.557
81.949
83.709
84.737
84.964
84.334
82.82
80.419
77.133
72.979
68.017
62.327
56.027
49.27
42.189
34.907
27.551
20.236
13.095
6.26
-0.163
-6.079
-11.392
-16.04
-19.971
-23.136
-25.531
-27.203
-28.221
-28.714
-28.816
-28.615
-28.208
-27.705
-27.213
-26.864
-26.784
-27.065
-27.847
-29.305
-31.51
-34.428
-37.857
-41.363
-44.489
-46.844
-47.938
-47.208
-44.355
-39.492
-33.209
-26.642
-20.975
-16.986
-15.395
-17.101
-22.45
-30.779
-40.459
-48.738
-52.439
-48.999
-35.914
-10.284
29.974
85.37
154.862
235.487
322.858
412.34
498.402
574.32
633.651
671.182
683.171
667.769
625.153
556.963
467.033
361.562
247.667
132.408
22.368
-76.529
-159.443
-222.748
-265.034
-287.555
-292.969
-284.502
-265.51
-239.558
-210.577
-182.637
-158.748
-139.99
-126.376
-117.538
-113.224
-113.25
-116.627
-121.414
-125.712
-128.679
-130.244
-130.599
-129.696
-127.05
-122.609
-117.179
-111.913
-107.55
-104.297
-102.025
-100.609
-100.245
-101.061
-102.777
-104.839
-106.732
-108.153
-109.038
-109.452
-109.366
-108.713
-107.496
-105.791
-103.722
-101.404
-98.891
-96.196
-93.333
-90.339
-87.277
-84.229
-81.267
-78.447
-75.806
-73.361
-71.124
-69.105
-67.303
-65.712
-64.309
-63.068
-61.968
-60.995
-60.141
-59.392
-58.726
-58.118
-57.54
-56.972
-56.394
-55.791
-55.148
-54.447
-53.676
-52.823
-51.879
-50.836
-49.684
-48.411
-47.005
-45.457
-43.758
-41.9
-39.876
-37.681
-35.31
-32.76
-30.031
-27.123
-24.037
-20.777
-17.346
-13.751
-9.999
-6.098
-2.058
2.111
6.396
10.786
15.265
19.819
24.433
29.09
33.772
38.463
43.145
47.799
52.408
56.951
61.412
65.772
70.012
74.114
78.062
81.838
85.427
88.812
91.979
94.914
97.606
100.044
102.216
104.115
105.734
107.065
108.106
108.853
109.303
109.456
109.314
108.879
108.155
107.146
105.86
104.304
102.488
100.423
98.119
95.589
92.849
89.911
86.792
83.509
80.078
76.517
72.843
69.076
65.232
61.331
57.39
53.427
49.46
45.506
41.583
37.705
33.888
30.148
26.497
22.949
19.516
16.209
13.037
10.009
7.134
4.417
1.864
-0.521
-2.735
-4.776
-6.645
-8.341
-9.868
-11.229
-12.427
-13.469
-14.36
-15.108
-15.719
-16.202
-16.565
-16.816
-16.964
-17.019
-16.99
-16.884
-16.713
-16.484
-16.208
-15.891
-15.543
-15.171
-14.783
-14.386
-13.988
-13.593
-13.209
-12.84
-12.492
-12.169
-11.875
-11.612
-11.383
-11.19
-11.033
-10.912
-10.826
-10.774
-10.755
-10.766
-10.806
-10.872
-10.961
-11.071
-11.199
-11.342
-11.498
-11.664
-11.837
-12.015
-12.195
-12.375
-12.554
-12.73
-12.9
-13.064
-13.221
-13.368
-13.504
-13.629
-13.74
-13.837
-13.92
-13.987
-14.039
-14.076
-14.098
-14.108
-14.106
-14.094
-14.075
-14.049
-14.021
-13.99
-13.961
-13.935
-13.914
-13.901
-13.897
-13.904
-13.925
-13.96
-14.011
-14.08
-14.168
-14.275
-14.402
-14.552
-14.723
-14.919
-15.139
-15.385
-15.658
-15.96
-16.291
-16.652
-17.045
-17.469
-17.924
-18.41
-18.927
-19.472
-20.045
-20.644
-21.266
-21.91
-22.572
-23.251
-23.943
-24.646
-25.358
-26.074
-26.792
-27.51
-28.224
-28.931
-29.629
-30.313
-30.981
-31.629
-32.254
-32.853
-33.421
-33.955
-34.451
-34.906
-35.315
-35.674
-35.98
-36.23
-36.422
-36.553
-36.623
-36.63
-36.576
-36.462
-36.29
-36.061
-35.778
-35.444
-35.062
-34.636
-34.169
-33.666
-33.131
-32.569
-31.984
-31.382
-30.77
-30.152
-29.536
-28.927
-28.331
-27.757
-27.21
-26.697
-26.226
-25.803
-25.436
-25.132
-24.898
-24.74
-24.661
-24.667
-24.759
-24.939
-25.205
-25.556
-25.987
-26.495
-27.076
-27.724
-28.435
-29.203
-30.022
-30.888
-31.794
-32.734
-33.699
-34.679
-35.66
-36.632
-37.581
-38.494
-39.355
-40.149
-40.86
-41.476
-41.984
-42.368
-42.612
-42.695
-42.598
-42.314
-41.835
-41.16
-40.29
-39.231
-37.994
-36.606
-35.089
-33.465
-31.756
-29.963
-28.09
-26.142
-24.126
-22.053
-19.923
-17.716
-15.408
-12.986
-10.429
-7.72
-4.831
-1.706
1.7
5.414
9.453
13.802
18.429
23.308
28.4
33.649
38.98
44.286
49.441
54.349
58.912
63.037
66.628
69.557
71.71
73.009
73.39
72.818
71.285
68.787
65.338
60.993
55.837
49.995
43.637
36.908
29.947
22.89
15.867
9.019
2.487
-3.618
-9.204
-14.177
-18.471
-22.036
-24.823
-26.832
-28.097
-28.703
-28.806
-28.58
-28.18
-27.742
-27.367
-27.16
-27.249
-27.75
-28.775
-30.44
-32.797
-35.92
-39.932
-44.787
-50.294
-56.101
-61.558
-66.063
-69.18
-70.359
-69.154
-65.577
-59.861
-52.664
-45.155
-38.094
-32.028
-27.766
-25.544
-24.784
-24.43
-22.532
-16.612
-4.83
14.718
44.32
85.327
137.983
201.388
273.07
349.674
427.566
502.014
567.283
617.842
648.834
656.755
639.656
596.952
529.856
441.871
338.44
226.291
112.655
4.264
-92.521
-172.363
-232.222
-271.323
-290.855
-293.755
-283.917
-265.458
-243.098
-221.241
-202.57
-188.413
-178.957
-173.35
-170.393
-168.783
-166.723
-162.494
-155.36
-145.26
-132.684
-118.553
-103.69
-88.843
-74.891
-62.662
-52.641
-45.021
-39.747
-36.572
-35.287
-35.704
-37.588
-40.675
-44.691
-49.373
-54.474
-59.776
-65.075
-70.158
-74.852
-79.01
-82.505
-85.263
-87.256
-88.474
-88.934
-88.672
-87.728
-86.168
-84.088
-81.584
-78.774
-75.777
-72.696
-69.647
-66.721
-63.985
-61.497
-59.289
-57.37
-55.744
-54.399
-53.316
-52.475
-51.85
-51.403
-51.102
-50.906
-50.771
-50.651
-50.496
-50.262
-49.918
-49.436
-48.798
-47.991
-47.003
-45.828
-44.468
-42.921
-41.185
-39.261
-37.147
-34.842
-32.351
-29.678
-26.831
-23.818
-20.644
-17.316
-13.84
-10.226
-6.48
-2.61
1.376
5.468
9.656
13.925
18.262
22.651
27.077
31.524
35.974
40.41
44.815
49.173
53.469
57.686
61.81
65.827
69.721
73.48
77.093
80.546
83.831
86.936
89.852
92.572
95.088
97.394
99.485
101.355
103.001
104.419
105.607
106.564
107.288
107.779
108.04
108.071
107.877
107.461
106.83
105.988
104.944
103.705
102.28
100.677
98.906
96.978
94.901
92.688
90.348
87.893
85.334
82.682
79.948
77.144
74.281
71.37
68.423
65.45
62.462
59.472
56.489
53.524
50.59
47.696
44.853
42.071
39.36
36.729
34.186
31.74
29.396
27.161
25.041
23.04
21.162
19.41
17.785
16.291
14.926
13.691
12.585
11.606
10.753
10.021
9.408
8.91
8.522
8.24
8.057
7.97
7.971
8.054
8.213
8.439
8.724
9.061
9.441
9.856
10.297
10.756
11.226
11.697
12.164
12.618
13.054
13.465
13.845
14.19
14.494
14.755
14.968
15.133
15.247
15.31
15.321
15.282
15.192
15.055
14.871
14.643
14.374
14.066
13.724
13.35
12.95
12.528
12.089
11.638
11.181
10.722
10.266
9.819
9.385
8.969
8.574
8.205
7.866
7.558
7.287
7.052
6.858
6.704
6.591
6.52
6.488
6.495
6.538
6.616
6.725
6.862
7.023
7.205
7.405
7.617
7.837
8.061
8.285
8.503
8.711
8.906
9.082
9.236
9.365
9.465
9.535
9.573
9.575
9.542
9.471
9.362
9.216
9.031
8.809
8.552
8.261
7.938
7.586
7.21
6.811
6.394
5.963
5.521
5.074
4.625
4.179
3.74
3.313
2.901
2.508
2.138
1.794
1.478
1.192
0.937
0.713
0.521
0.359
0.227
0.123
0.046
-0.007
-0.037
-0.048
-0.043
-0.026
-0.002
0.026
0.052
0.072
0.08
0.073
0.046
-0.006
-0.087
-0.202
-0.353
-0.546
-0.784
-1.071
-1.408
-1.798
-2.242
-2.739
-3.289
-3.889
-4.535
-5.223
-5.946
-6.699
-7.475
-8.269
-9.072
-9.878
-10.681
-11.471
-12.242
-12.985
-13.689
-14.342
-14.931
-15.444
-15.867
-16.189
-16.4
-16.491
-16.45
-16.27
-15.947
-15.473
-14.84
-14.04
-13.057
-11.88
-10.511
-8.951
-7.211
-5.309
-3.263
-1.089
1.186
3.541
5.965
8.453
11.016
13.664
16.396
19.201
22.052
24.922
27.805
30.695
33.589
36.5
39.437
42.414
45.47
48.623
51.86
55.15
58.422
61.589
64.592
67.387
69.939
72.223
74.197
75.818
77.062
77.886
78.244
78.081
77.304
75.843
73.691
70.866
67.433
63.495
59.125
54.397
49.407
44.227
38.938
33.615
28.299
23.042
17.921
13.026
8.485
4.406
0.834
-2.213
-4.733
-6.772
-8.374
-9.613
-10.63
-11.544
-12.45
-13.423
-14.483
-15.675
-17.088
-18.815
-20.974
-23.669
-26.911
-30.745
-35.268
-40.39
-45.917
-51.495
-56.482
-60.363
-62.801
-63.295
-61.455
-57.284
-50.938
-43.026
-34.68
-26.593
-19.309
-13.766
-10.358
-8.735
-8.162
-6.909
-2.473
6.914
22.847
48.094
84.807
133.468
193.997
262.832
332.829
400.721
464.547
522.826
579.118
627.667
654.626
648.361
594.9
495.427
367.909
229.852
100.65
-10.042
-105.23
-185.367
-250.711
-300.541
-330.816
-342.05
-338.164
-322.843
-300.896
-276.425
-251.638
-228.071
-206.767
-187.731
-170.665
-155.813
-142.91
-131.542
-122.136
-115.19
-110.948
-109.725
-111.183
-114.121
-117.85
-121.899
-125.374
-127.727
-128.675
-127.965
-126.053
-123.941
-122.162
-121.024
-120.865
-121.649
-123.274
-125.699
-128.546
-131.261
-133.539
-135.175
-136.029
-136.144
-135.55
-134.244
-132.322
-129.922
-127.143
-124.101
-120.911
-117.647
-114.397
-111.238
-108.217
-105.372
-102.735
-100.317
-98.125
-96.166
-94.433
-92.923
-91.635
-90.56
-89.677
-88.955
-88.346
-87.803
-87.287
-86.765
-86.208
-85.594
-84.9
-84.114
-83.231
-82.246
-81.15
-79.934
-78.582
-77.084
-75.432
-73.62
-71.645
-69.507
-67.204
-64.733
-62.095
-59.292
-56.323
-53.188
-49.886
-46.418
-42.786
-38.997
-35.06
-30.983
-26.777
-22.455
-18.032
-13.523
-8.944
-4.309
0.364
5.061
9.763
14.455
19.12
23.741
28.302
32.788
37.181
41.467
45.631
49.658
53.534
57.245
60.779
64.124
67.268
70.201
72.913
75.396
77.642
79.643
81.395
82.893
84.134
85.118
85.845
86.316
86.534
86.504
86.231
85.721
84.981
84.02
82.844
81.464
79.888
78.126
76.19
74.09
71.837
69.443
66.92
64.281
61.538
58.704
55.791
52.814
49.786
46.72
43.629
40.527
37.428
34.344
31.288
28.272
25.307
22.404
19.572
16.82
14.155
11.585
9.117
6.754
4.503
2.367
0.35
-1.545
-3.315
-4.96
-6.478
-7.868
-9.131
-10.266
-11.276
-12.162
-12.926
-13.571
-14.1
-14.517
-14.828
-15.036
-15.147
-15.169
-15.107
-14.969
-14.761
-14.491
-14.166
-13.794
-13.38
-12.932
-12.454
-11.954
-11.437
-10.907
-10.37
-9.831
-9.294
-8.763
-8.243
-7.737
-7.249
-6.782
-6.338
-5.921
-5.534
-5.177
-4.854
-4.565
-4.312
-4.097
-3.919
-3.778
-3.674
-3.606
-3.571
-3.568
-3.595
-3.647
-3.724
-3.822
-3.939
-4.073
-4.22
-4.38
-4.549
-4.727
-4.912
-5.101
-5.294
-5.489
-5.684
-5.879
-6.072
-6.262
-6.449
-6.631
-6.808
-6.978
-7.14
-7.294
-7.438
-7.571
-7.693
-7.803
-7.901
-7.989
-8.065
-8.133
-8.192
-8.244
-8.291
-8.332
-8.371
-8.407
-8.44
-8.473
-8.504
-8.534
-8.563
-8.591
-8.618
-8.642
-8.664
-8.683
-8.697
-8.706
-8.709
-8.705
-8.693
-8.673
-8.645
-8.609
-8.564
-8.512
-8.452
-8.383
-8.306
-8.22
-8.125
-8.019
-7.903
-7.774
-7.634
-7.481
-7.316
-7.138
-6.947
-6.744
-6.531
-6.306
-6.072
-5.83
-5.582
-5.329
-5.074
-4.819
-4.566
-4.319
-4.078
-3.848
-3.629
-3.423
-3.233
-3.06
-2.904
-2.768
-2.654
-2.562
-2.494
-2.453
-2.439
-2.454
-2.501
-2.579
-2.69
-2.834
-3.013
-3.226
-3.474
-3.757
-4.075
-4.426
-4.812
-5.229
-5.677
-6.154
-6.656
-7.181
-7.727
-8.29
-8.868
-9.456
-10.053
-10.653
-11.255
-11.856
-12.45
-13.033
-13.602
-14.151
-14.675
-15.168
-15.624
-16.036
-16.399
-16.709
-16.96
-17.148
-17.269
-17.317
-17.29
-17.183
-16.991
-16.707
-16.323
-15.833
-15.231
-14.514
-13.679
-12.721
-11.638
-10.43
-9.099
-7.646
-6.07
-4.367
-2.525
-0.543
1.573
3.811
6.153
8.582
11.085
13.642
16.225
18.816
21.402
23.983
26.578
29.191
31.814
34.43
37.004
39.518
41.97
44.363
46.702
48.998
51.25
53.481
55.733
58.019
60.326
62.609
64.781
66.78
68.571
70.126
71.444
72.507
73.275
73.719
73.811
73.513
72.8
71.614
69.867
67.523
64.59
61.127
57.269
53.126
48.774
44.292
39.738
35.176
30.691
26.349
22.201
18.314
14.745
11.571
8.91
6.815
5.287
4.259
3.557
3.025
2.527
1.934
1.158
0.092
-1.4
-3.416
-6.054
-9.412
-13.524
-18.485
-24.453
-31.389
-39.12
-47.24
-55.002
-61.754
-66.969
-70.012
-70.43
-68.113
-63.185
-56.422
-49.118
-42.292
-36.897
-33.78
-33.011
-34.025
-35.622
-35.465
-30.78
-18.9
3.067
37.545
85.672
147.259
220.604
302.472
388.887
474.879
554.305
620.897
668.977
694.493
695.185
669.935
618.809
543.919
449.585
341.788
227.597
113.317
4.45
-93.419
-175.52
-238.714
-281.785
-305.644
-313.045
-306.992
-290.57
-267.576
-241.667
-215.837
-192.453
-172.913
-157.313
-145.263
-136.324
-129.66
-124.494
-120.436
-116.832
-112.836
-108.304
-103.457
-98.467
-93.693
-89.313
-85.105
-81.299
-78.6
-77.285
-77.384
-78.833
-81.298
-84.593
-88.78
-93.599
-98.515
-103.174
-107.31
-110.776
-113.631
-115.833
-117.229
-117.798
-117.605
-116.718
-115.256
-113.304
-110.897
-108.134
-105.165
-102.123
-99.138
-96.294
-93.624
-91.157
-88.923
-86.939
-85.222
-83.771
-82.567
-81.599
-80.858
-80.324
-79.974
-79.763
-79.63
-79.523
-79.398
-79.219
-78.966
-78.616
-78.153
-77.564
-76.846
-75.992
-74.999
-73.857
-72.555
-71.082
-69.433
-67.608
-65.606
-63.431
-61.083
-58.562
-55.874
-53.02
-50.005
-46.832
-43.503
-40.022
-36.398
-32.639
-28.757
-24.763
-20.672
-16.497
-12.253
-7.958
-3.628
0.723
5.078
9.42
13.733
18
22.207
26.337
30.374
34.305
38.112
41.783
45.303
48.658
51.837
54.826
57.615
60.193
62.552
64.684
66.582
68.24
69.654
70.821
71.737
72.403
72.819
72.985
72.905
72.583
72.022
71.23
70.213
68.977
67.532
65.885
64.044
62.021
59.824
57.464
54.951
52.297
49.513
46.612
43.606
40.507
37.329
34.085
30.787
27.449
24.084
20.704
17.32
13.945
10.589
7.264
3.979
0.743
-2.434
-5.545
-8.583
-11.54
-14.411
-17.191
-19.875
-22.46
-24.94
-27.314
-29.579
-31.732
-33.772
-35.698
-37.509
-39.205
-40.786
-42.254
-43.61
-44.856
-45.996
-47.032
-47.968
-48.808
-49.555
-50.215
-50.79
-51.286
-51.705
-52.053
-52.333
-52.548
-52.704
-52.802
-52.846
-52.839
-52.785
-52.685
-52.543
-52.36
-52.141
-51.886
-51.599
-51.282
-50.938
-50.57
-50.179
-49.768
-49.339
-48.895
-48.435
-47.962
-47.477
-46.98
-46.472
-45.953
-45.425
-44.887
-44.34
-43.784
-43.22
-42.648
-42.07
-41.484
-40.893
-40.296
-39.695
-39.09
-38.482
-37.873
-37.262
-36.652
-36.042
-35.433
-34.825
-34.22
-33.615
-33.013
-32.411
-31.811
-31.212
-30.614
-30.017
-29.421
-28.828
-28.236
-27.647
-27.062
-26.48
-25.902
-25.329
-24.761
-24.199
-23.643
-23.095
-22.554
-22.023
-21.502
-20.99
-20.49
-20.002
-19.526
-19.064
-18.615
-18.18
-17.761
-17.359
-16.974
-16.607
-16.261
-15.935
-15.63
-15.348
-15.088
-14.852
-14.639
-14.45
-14.285
-14.142
-14.023
-13.927
-13.853
-13.802
-13.771
-13.759
-13.766
-13.79
-13.829
-13.88
-13.942
-14.012
-14.088
-14.166
-14.246
-14.323
-14.395
-14.459
-14.512
-14.551
-14.573
-14.575
-14.556
-14.512
-14.442
-14.345
-14.218
-14.061
-13.872
-13.652
-13.401
-13.116
-12.8
-12.451
-12.07
-11.659
-11.218
-10.748
-10.252
-9.732
-9.19
-8.629
-8.053
-7.464
-6.867
-6.266
-5.664
-5.066
-4.476
-3.898
-3.338
-2.799
-2.286
-1.801
-1.348
-0.929
-0.547
-0.203
0.102
0.367
0.593
0.78
0.93
1.042
1.119
1.163
1.177
1.164
1.128
1.073
1.003
0.924
0.842
0.763
0.694
0.642
0.614
0.62
0.667
0.764
0.919
1.142
1.44
1.823
2.299
2.874
3.556
4.351
5.264
6.3
7.462
8.754
10.176
11.731
13.418
15.237
17.186
19.264
21.465
23.787
26.222
28.765
31.407
34.138
36.95
39.829
42.762
45.735
48.731
51.734
54.728
57.694
60.613
63.464
66.231
68.894
71.434
73.833
76.072
78.132
79.995
81.646
83.07
84.251
85.176
85.829
86.2
86.282
86.068
85.553
84.733
83.598
82.148
80.388
78.325
75.971
73.343
70.454
67.33
64.007
60.525
56.93
53.261
49.549
45.832
42.148
38.538
35.056
31.741
28.618
25.715
23.046
20.614
18.437
16.495
14.736
13.102
11.513
9.895
8.209
6.411
4.472
2.349
-0.035
-2.734
-5.802
-9.287
-13.172
-17.481
-22.297
-27.516
-32.89
-38.008
-42.199
-44.91
-45.776
-44.315
-40.172
-33.379
-24.19
-13.505
-2.777
6.884
14.496
19.145
20.703
19.709
17.275
15.84
18.489
28.013
47.385
79.132
124.27
182.647
252.726
330.893
412.5
492.278
563.929
621.281
659.333
674.273
663.901
628.189
568.661
488.633
393.455
289.399
182.85
79.947
-13.795
-93.954
-157.3
-202.53
-230.443
-243.105
-243.348
-234.442
-219.884
-203.2
-187.588
-174.942
-165.803
-159.966
-156.723
-155.155
-154.222
-152.623
-149.026
-142.844
-134.206
-123.594
-111.76
-99.387
-87.064
-75.494
-65.419
-57.294
-51.277
-47.333
-45.251
-44.838
-45.95
-48.384
-51.885
-56.195
-61.068
-66.271
-71.612
-76.91
-81.961
-86.6
-90.682
-94.079
-96.724
-98.583
-99.647
-99.932
-99.474
-98.319
-96.539
-94.23
-91.491
-88.435
-85.176
-81.82
-78.482
-75.254
-72.207
-69.403
-66.877
-64.646
-62.718
-61.088
-59.738
-58.651
-57.801
-57.154
-56.679
-56.337
-56.085
-55.882
-55.675
-55.425
-55.1
-54.673
-54.123
-53.436
-52.598
-51.6
-50.44
-49.114
-47.615
-45.939
-44.08
-42.034
-39.801
-37.38
-34.776
-31.991
-29.029
-25.893
-22.589
-19.122
-15.499
-11.727
-7.814
-3.769
0.395
4.663
9.018
13.445
17.925
22.441
26.972
31.499
36.004
40.468
44.873
49.199
53.43
57.546
61.53
65.366
69.038
72.528
75.824
78.911
81.777
84.41
86.801
88.94
90.82
92.435
93.78
94.85
95.645
96.165
96.409
96.382
96.088
95.533
94.725
93.671
92.383
90.869
89.143
87.217
85.102
82.811
80.36
77.761
75.031
72.183
69.233
66.195
63.083
59.913
56.698
53.453
50.189
46.921
43.659
40.419
37.212
34.052
30.951
27.914
24.952
22.071
19.278
16.581
13.983
11.487
9.096
6.817
4.653
2.611
0.693
-1.106
-2.787
-4.357
-5.814
-7.153
-8.37
-9.467
-10.44
-11.293
-12.023
-12.626
-13.104
-13.466
-13.724
-13.892
-13.977
-13.978
-13.892
-13.707
-13.435
-13.107
-12.755
-12.421
-12.117
-11.815
-11.51
-11.215
-10.935
-10.715
-10.529
-10.244
-9.905
-9.706
-9.816
-10.474
-11.665
-13.007
-14.358
-15.844
-17.253
-18.198
-18.228
-16.608
-13.331
-9.272
-4.897
-0.322
4.038
7.785
10.299
10.468
8.216
4.595
0.239
-4.469
-9.086
-13.451
-17.093
-19.044
-19.187
-18.252
-16.714
-14.974
-13.298
-11.591
-10.005
-8.999
-8.638
-8.647
-8.827
-8.951
-8.93
-8.897
-8.871
-8.773
-8.595
-8.357
-8.09
-7.854
-7.661
-7.463
-7.235
-6.961
-6.636
-6.278
-5.898
-5.498
-5.082
-4.651
-4.211
-3.766
-3.325
-2.893
-2.476
-2.08
-1.711
-1.376
-1.083
-0.843
-0.658
-0.527
-0.45
-0.427
-0.456
-0.54
-0.679
-0.871
-1.115
-1.41
-1.753
-2.142
-2.576
-3.05
-3.561
-4.104
-4.675
-5.271
-5.887
-6.519
-7.163
-7.812
-8.463
-9.109
-9.746
-10.369
-10.974
-11.556
-12.112
-12.639
-13.135
-13.597
-14.024
-14.417
-14.776
-15.1
-15.391
-15.649
-15.878
-16.079
-16.255
-16.408
-16.541
-16.658
-16.763
-16.859
-16.949
-17.038
-17.128
-17.223
-17.326
-17.44
-17.568
-17.712
-17.875
-18.059
-18.267
-18.498
-18.755
-19.036
-19.34
-19.666
-20.01
-20.367
-20.732
-21.097
-21.457
-21.804
-22.13
-22.429
-22.694
-22.916
-23.092
-23.216
-23.28
-23.276
-23.192
-23.021
-22.751
-22.374
-21.878
-21.253
-20.488
-19.578
-18.521
-17.314
-15.953
-14.431
-12.738
-10.87
-8.832
-6.629
-4.27
-1.765
0.866
3.595
6.379
9.176
11.954
14.694
17.388
20.025
22.595
25.084
27.482
29.795
32.031
34.194
36.281
38.291
40.236
42.154
44.109
46.155
48.315
50.585
52.942
55.359
57.801
60.221
62.557
64.715
66.609
68.176
69.371
70.153
70.467
70.23
69.334
67.695
65.272
62.061
58.094
53.414
48.081
42.183
35.845
29.225
22.469
15.698
9.012
2.5
-3.742
-9.603
-14.95
-19.685
-23.748
-27.119
-29.83
-31.937
-33.509
-34.636
-35.43
-36.01
-36.495
-37.008
-37.638
-38.487
-39.646
-41.159
-43.142
-45.725
-48.864
-52.379
-55.894
-58.777
-60.468
-60.519
-58.323
-53.419
-45.793
-35.733
-24.171
-12.55
-2.095
5.971
10.434
10.879
7.815
2.617
-2.117
-3.356
2.139
18.388
48.711
95.1
156.449
227.813
305.698
387.38
471.515
559.395
642.273
704.906
733.347
711.879
640.716
535.232
409.982
283.176
165.046
54.222
-47.235
-136.803
-211.245
-264.486
-294.974
-305.458
-299.811
-283
-259.985
-235.013
-211.972
-193.563
-180.766
-173.273
-170.002
-169.615
-170.646
-171.424
-170.315
-166.466
-159.865
-150.996
-140.714
-129.794
-118.868
-108.69
-100.004
-93.228
-88.529
-85.833
-84.846
-85.323
-87.054
-89.767
-93.196
-97.057
-101.053
-104.964
-108.63
-111.928
-114.788
-117.142
-118.915
-120.065
-120.55
-120.366
-119.552
-118.147
-116.196
-113.769
-110.941
-107.83
-104.593
-101.355
-98.213
-95.234
-92.446
-89.877
-87.558
-85.503
-83.716
-82.194
-80.915
-79.867
-79.045
-78.427
-77.985
-77.674
-77.429
-77.2
-76.949
-76.645
-76.268
-75.798
-75.214
-74.505
-73.667
-72.694
-71.578
-70.31
-68.876
-67.267
-65.476
-63.502
-61.348
-59.014
-56.5
-53.808
-50.94
-47.899
-44.689
-41.312
-37.77
-34.067
-30.209
-26.205
-22.066
-17.805
-13.434
-8.966
-4.418
0.194
4.855
9.548
14.258
18.967
23.658
28.316
32.922
37.46
41.913
46.264
50.497
54.594
58.542
62.325
65.929
69.34
72.547
75.537
78.3
80.827
83.109
85.139
86.911
88.42
89.662
90.635
91.339
91.773
91.94
91.843
91.487
90.876
90.018
88.919
87.588
86.032
84.263
82.289
80.122
77.774
75.258
72.586
69.772
66.831
63.777
60.625
57.39
54.088
50.733
47.341
43.928
40.508
37.096
33.706
30.352
27.048
23.804
20.632
17.544
14.548
11.653
8.867
6.197
3.649
1.228
-1.061
-3.214
-5.228
-7.101
-8.83
-10.417
-11.859
-13.16
-14.319
-15.34
-16.225
-16.98
-17.608
-18.114
-18.505
-18.787
-18.968
-19.054
-19.053
-18.973
-18.823
-18.611
-18.343
-18.028
-17.674
-17.288
-16.875
-16.444
-15.999
-15.547
-15.093
-14.641
-14.198
-13.767
-13.353
-12.959
-12.588
-12.244
-11.93
-11.646
-11.396
-11.18
-10.999
-10.852
-10.741
-10.665
-10.621
-10.609
-10.627
-10.672
-10.74
-10.83
-10.936
-11.057
-11.188
-11.326
-11.468
-11.609
-11.747
-11.879
-12.002
-12.114
-12.211
-12.291
-12.352
-12.392
-12.41
-12.405
-12.374
-12.318
-12.236
-12.128
-11.994
-11.834
-11.65
-11.442
-11.211
-10.959
-10.689
-10.402
-10.101
-9.788
-9.467
-9.142
-8.815
-8.49
-8.172
-7.863
-7.567
-7.287
-7.027
-6.791
-6.58
-6.399
-6.25
-6.135
-6.057
-6.018
-6.019
-6.061
-6.145
-6.27
-6.436
-6.643
-6.888
-7.171
-7.489
-7.841
-8.222
-8.632
-9.065
-9.519
-9.99
-10.474
-10.966
-11.462
-11.959
-12.451
-12.935
-13.406
-13.863
-14.3
-14.714
-15.102
-15.46
-15.788
-16.08
-16.335
-16.55
-16.724
-16.856
-16.945
-16.992
-16.997
-16.961
-16.887
-16.777
-16.634
-16.461
-16.263
-16.043
-15.805
-15.556
-15.301
-15.045
-14.795
-14.554
-14.33
-14.128
-13.952
-13.807
-13.696
-13.621
-13.586
-13.594
-13.643
-13.736
-13.872
-14.051
-14.276
-14.545
-14.858
-15.212
-15.605
-16.035
-16.499
-16.989
-17.498
-18.015
-18.532
-19.039
-19.528
-19.988
-20.408
-20.777
-21.084
-21.321
-21.479
-21.544
-21.498
-21.32
-20.999
-20.533
-19.926
-19.178
-18.289
-17.258
-16.094
-14.808
-13.407
-11.885
-10.222
-8.399
-6.406
-4.249
-1.946
0.484
3.036
5.717
8.538
11.498
14.594
17.826
21.212
24.776
28.518
32.398
36.342
40.279
44.154
47.937
51.609
55.147
58.511
61.655
64.535
67.124
69.391
71.287
72.739
73.669
74.034
73.847
73.168
72.055
70.539
68.636
66.345
63.684
60.687
57.379
53.776
49.894
45.764
41.45
37.061
32.704
28.456
24.354
20.388
16.563
12.911
9.468
6.284
3.394
0.809
-1.44
-3.314
-4.794
-5.899
-6.707
-7.358
-7.988
-8.692
-9.535
-10.564
-11.86
-13.527
-15.666
-18.378
-21.699
-25.674
-30.446
-36.008
-42.209
-48.74
-54.976
-60.315
-64.403
-66.742
-66.752
-64.335
-59.55
-52.885
-45.682
-38.844
-32.77
-28.28
-25.942
-25.45
-26.284
-26.893
-24.154
-15.792
-0.232
25.2
62.825
113.367
177.296
251.73
329.123
405.693
479.577
549.306
618.494
681.477
723.364
731.264
690.39
600.331
478.396
341.404
207.989
88.457
-19.747
-115.98
-198.698
-265.457
-310.662
-333.492
-337.021
-325.013
-302.607
-274.958
-246.27
-220.251
-199.27
-183.882
-173.619
-167.485
-164.17
-162.108
-159.635
-155.3
-148.443
-139.287
-128.471
-116.777
-104.948
-93.647
-83.611
-75.56
-69.853
-66.495
-65.285
-65.871
-67.944
-71.269
-75.554
-80.457
-85.654
-90.829
-95.754
-100.313
-104.402
-107.929
-110.799
-112.9
-114.176
-114.636
-114.318
-113.279
-111.583
-109.284
-106.472
-103.28
-99.859
-96.375
-92.953
-89.666
-86.569
-83.707
-81.122
-78.86
-76.938
-75.342
-74.051
-73.046
-72.31
-71.83
-71.573
-71.483
-71.501
-71.562
-71.616
-71.632
-71.58
-71.435
-71.174
-70.776
-70.23
-69.536
-68.689
-67.678
-66.492
-65.119
-63.551
-61.788
-59.831
-57.681
-55.337
-52.8
-50.071
-47.155
-44.054
-40.77
-37.307
-33.666
-29.855
-25.882
-21.758
-17.497
-13.112
-8.617
-4.031
0.63
5.347
10.104
14.882
19.663
24.43
29.165
33.85
38.466
42.997
47.425
51.732
55.903
59.921
63.771
67.439
70.913
74.179
77.228
80.048
82.631
84.969
87.056
88.884
90.451
91.753
92.788
93.556
94.059
94.299
94.279
94.005
93.484
92.722
91.728
90.51
89.078
87.442
85.613
83.604
81.426
79.093
76.618
74.015
71.299
68.483
65.582
62.611
59.584
56.516
53.42
50.311
47.203
44.11
41.045
38.02
35.049
32.144
29.315
26.572
23.926
21.384
18.954
16.644
14.459
12.403
10.482
8.698
7.055
5.552
4.192
2.972
1.892
0.95
0.142
-0.534
-1.085
-1.513
-1.826
-2.028
-2.126
-2.127
-2.037
-1.865
-1.619
-1.306
-0.935
-0.514
-0.053
0.441
0.959
1.494
2.036
2.579
3.116
3.64
4.144
4.623
5.071
5.483
5.855
6.184
6.466
6.7
6.883
7.015
7.095
7.123
7.098
7.023
6.897
6.722
6.5
6.232
5.922
5.573
5.186
4.766
4.317
3.842
3.345
2.831
2.303
1.765
1.223
0.678
0.137
-0.398
-0.923
-1.434
-1.928
-2.402
-2.855
-3.283
-3.686
-4.063
-4.412
-4.733
-5.026
-5.291
-5.526
-5.733
-5.912
-6.062
-6.186
-6.283
-6.355
-6.402
-6.427
-6.431
-6.416
-6.383
-6.334
-6.271
-6.197
-6.113
-6.022
-5.928
-5.832
-5.738
-5.648
-5.565
-5.492
-5.431
-5.384
-5.353
-5.339
-5.343
-5.368
-5.414
-5.484
-5.578
-5.699
-5.848
-6.026
-6.235
-6.477
-6.75
-7.058
-7.399
-7.776
-8.188
-8.635
-9.119
-9.638
-10.194
-10.786
-11.412
-12.073
-12.764
-13.486
-14.234
-15.008
-15.803
-16.617
-17.447
-18.289
-19.141
-19.999
-20.859
-21.716
-22.565
-23.4
-24.215
-25.002
-25.754
-26.463
-27.123
-27.726
-28.267
-28.74
-29.138
-29.458
-29.694
-29.844
-29.9
-29.854
-29.699
-29.429
-29.036
-28.514
-27.856
-27.054
-26.104
-25.007
-23.761
-22.367
-20.821
-19.113
-17.242
-15.214
-13.037
-10.724
-8.289
-5.748
-3.131
-0.476
2.177
4.792
7.349
9.842
12.265
14.604
16.848
18.981
21.002
22.932
24.781
26.553
28.262
29.916
31.559
33.26
35.076
37.042
39.171
41.435
43.812
46.279
48.795
51.312
53.753
56.014
58.022
59.729
61.076
62.005
62.42
62.186
61.207
59.419
56.787
53.33
49.07
44.042
38.336
32.068
25.385
18.459
11.423
4.374
-2.577
-9.315
-15.692
-21.537
-26.723
-31.153
-34.76
-37.531
-39.467
-40.607
-41.055
-40.927
-40.372
-39.575
-38.681
-37.824
-37.146
-36.751
-36.798
-37.513
-38.99
-41.187
-43.921
-46.748
-49.221
-50.994
-51.573
-50.364
-47.074
-41.73
-34.816
-27.547
-21.106
-16.295
-13.984
-14.91
-19.14
-26.064
-34.138
-40.443
-41.87
-35.721
-19.13
10.286
53.909
112.101
183.618
265.252
352.763
441.164
524.308
596.043
650.526
682.473
688.224
665.669
614.416
536.543
436.614
320.576
195.672
69.833
-49.507
-154.895
-240.054
-301.638
-338.889
-353.052
-347.357
-326.221
-294.476
-258.014
-222.493
-191.492
-166.974
-149.57
-138.612
-132.904
-130.959
-130.494
-129.21
-125.962
-120.4
-112.762
-103.794
-94.201
-84.663
-76.15
-69.595
-65.423
-63.691
-64.164
-66.399
-70.042
-74.784
-80.219
-85.914
-91.514
-96.748
-101.472
-105.634
-109.154
-111.93
-113.861
-114.883
-115
-114.265
-112.746
-110.512
-107.649
-104.267
-100.518
-96.576
-92.589
-88.673
-84.902
-81.324
-77.986
-74.935
-72.21
-69.832
-67.794
-66.081
-64.677
-63.57
-62.738
-62.143
-61.728
-61.423
-61.177
-60.949
-60.71
-60.438
-60.107
-59.695
-59.186
-58.572
-57.847
-56.999
-56.015
-54.878
-53.576
-52.101
-50.452
-48.626
-46.622
-44.434
-42.062
-39.503
-36.759
-33.83
-30.714
-27.41
-23.921
-20.252
-16.41
-12.405
-8.247
-3.948
0.479
5.018
9.654
14.37
19.15
23.977
28.833
33.7
38.559
43.39
48.175
52.894
57.529
62.059
66.467
70.734
74.843
78.779
82.525
86.067
89.392
92.489
95.346
97.954
100.306
102.392
104.208
105.749
107.012
107.995
108.697
109.12
109.264
109.134
108.734
108.07
107.149
105.977
104.563
102.917
101.048
98.97
96.692
94.229
91.594
88.801
85.866
82.802
79.626
76.354
73
69.58
66.11
62.604
59.077
55.543
52.016
48.51
45.037
41.609
38.239
34.937
31.714
28.579
25.541
22.608
19.787
17.085
14.508
12.059
9.745
7.567
5.529
3.632
1.876
0.261
-1.215
-2.553
-3.756
-4.83
-5.779
-6.607
-7.321
-7.928
-8.432
-8.841
-9.163
-9.403
-9.568
-9.667
-9.706
-9.691
-9.63
-9.528
-9.393
-9.231
-9.047
-8.848
-8.638
-8.423
-8.209
-7.999
-7.801
-7.617
-7.452
-7.31
-7.194
-7.108
-7.053
-7.031
-7.043
-7.09
-7.17
-7.283
-7.429
-7.606
-7.812
-8.045
-8.303
-8.584
-8.886
-9.207
-9.543
-9.894
-10.256
-10.628
-11.009
-11.396
-11.789
-12.186
-12.586
-12.987
-13.388
-13.788
-14.183
-14.573
-14.955
-15.326
-15.687
-16.033
-16.365
-16.681
-16.98
-17.262
-17.527
-17.775
-18.006
-18.222
-18.423
-18.611
-18.788
-18.953
-19.11
-19.26
-19.405
-19.545
-19.683
-19.818
-19.951
-20.083
-20.213
-20.34
-20.464
-20.584
-20.701
-20.814
-20.923
-21.028
-21.129
-21.228
-21.324
-21.417
-21.508
-21.597
-21.684
-21.768
-21.849
-21.926
-21.999
-22.067
-22.127
-22.179
-22.221
-22.251
-22.265
-22.264
-22.243
-22.202
-22.14
-22.056
-21.949
-21.822
-21.674
-21.508
-21.326
-21.129
-20.92
-20.701
-20.474
-20.241
-20.004
-19.765
-19.527
-19.293
-19.063
-18.843
-18.633
-18.436
-18.255
-18.092
-17.949
-17.829
-17.735
-17.669
-17.636
-17.638
-17.678
-17.76
-17.886
-18.058
-18.278
-18.544
-18.856
-19.212
-19.608
-20.038
-20.499
-20.984
-21.489
-22.008
-22.536
-23.068
-23.596
-24.116
-24.621
-25.102
-25.55
-25.954
-26.302
-26.583
-26.788
-26.908
-26.935
-26.859
-26.674
-26.374
-25.954
-25.404
-24.716
-23.872
-22.859
-21.676
-20.323
-18.809
-17.15
-15.36
-13.454
-11.458
-9.39
-7.259
-5.069
-2.807
-0.459
1.975
4.483
7.043
9.628
12.233
14.854
17.489
20.155
22.863
25.63
28.497
31.484
34.58
37.753
40.932
44.03
46.986
49.754
52.3
54.6
56.615
58.308
59.65
60.594
61.083
61.056
60.422
59.114
57.12
54.458
51.199
47.458
43.333
38.912
34.282
29.507
24.652
19.782
14.944
10.206
5.654
1.383
-2.492
-5.878
-8.73
-11.03
-12.816
-14.201
-15.313
-16.277
-17.218
-18.201
-19.286
-20.562
-22.103
-24.006
-26.391
-29.333
-32.958
-37.438
-42.783
-48.871
-55.41
-61.832
-67.575
-72.249
-75.33
-76.247
-74.877
-71.405
-66.446
-61.184
-56.486
-52.7
-50.398
-50.224
-51.982
-54.807
-56.905
-55.461
-48.35
-34.265
-11.401
22.223
67.544
124.547
191.483
264.852
341.717
419.38
493.636
559.429
611.879
646.372
660.179
652.38
621.612
567.308
491.533
398.22
292.783
181.841
71.161
-34.105
-127.814
-204.678
-261.914
-298.729
-316.445
-318.102
-306.8
-286.011
-260.486
-234.715
-211.664
-193.017
-179.067
-169.109
-162.398
-157.925
-153.942
-148.737
-141.435
-131.865
-120.487
-108.121
-95.45
-83.118
-71.99
-62.91
-56.344
-52.43
-51.002
-51.693
-54.196
-58.239
-63.475
-69.511
-75.963
-82.465
-88.749
-94.655
-100.033
-104.742
-108.64
-111.606
-113.586
-114.586
-114.65
-113.837
-112.209
-109.842
-106.85
-103.376
-99.587
-95.656
-91.721
-87.876
-84.195
-80.741
-77.575
-74.745
-72.267
-70.129
-68.312
-66.796
-65.565
-64.603
-63.868
-63.309
-62.864
-62.471
-62.084
-61.668
-61.193
-60.633
-59.967
-59.178
-58.258
-57.208
-56.027
-54.708
-53.242
-51.621
-49.842
-47.907
-45.815
-43.57
-41.171
-38.618
-35.915
-33.063
-30.064
-26.92
-23.63
-20.197
-16.624
-12.918
-9.088
-5.142
-1.09
3.055
7.278
11.559
15.883
20.236
24.603
28.971
33.327
37.653
41.935
46.164
50.326
54.406
58.385
62.239
65.948
69.495
72.872
76.072
79.083
81.888
84.468
86.805
88.885
90.696
92.221
93.439
94.332
94.894
95.135
95.086
94.766
94.191
93.359
92.258
90.897
89.305
87.529
85.642
83.681
81.65
79.554
77.387
75.176
72.99
70.796
68.447
65.904
63.231
60.716
58.893
57.974
57.774
58.037
58.509
58.932
59.021
57.867
53.875
46.15
34.81
20.755
5.468
-9.959
-24.763
-37.365
-45.245
-46.597
-41.004
-29.718
-15.334
0.315
16.161
30.62
41.419
46.526
45.014
37.871
27.647
16.169
4.373
-6.82
-16.335
-22.865
-25.542
-24.806
-22.169
-18.774
-15.171
-11.624
-8.226
-5.376
-3.5
-2.529
-1.999
-1.508
-0.859
-0.068
0.69
1.375
2.048
2.711
3.328
3.838
4.191
4.396
4.508
4.57
4.601
4.603
4.564
4.48
4.36
4.214
4.058
3.902
3.747
3.59
3.427
3.253
3.07
2.875
2.665
2.434
2.179
1.902
1.611
1.312
1.007
0.698
0.382
0.06
-0.267
-0.598
-0.931
-1.267
-1.605
-1.945
-2.285
-2.624
-2.96
-3.294
-3.626
-3.955
-4.282
-4.605
-4.925
-5.24
-5.549
-5.853
-6.15
-6.439
-6.719
-6.989
-7.248
-7.495
-7.73
-7.95
-8.155
-8.343
-8.514
-8.666
-8.798
-8.909
-8.998
-9.064
-9.107
-9.126
-9.12
-9.091
-9.038
-8.961
-8.862
-8.74
-8.596
-8.432
-8.249
-8.047
-7.827
-7.592
-7.342
-7.08
-6.806
-6.522
-6.231
-5.935
-5.635
-5.333
-5.033
-4.737
-4.449
-4.17
-3.905
-3.657
-3.428
-3.223
-3.044
-2.892
-2.772
-2.684
-2.629
-2.611
-2.629
-2.684
-2.777
-2.908
-3.078
-3.287
-3.533
-3.818
-4.139
-4.497
-4.889
-5.315
-5.774
-6.262
-6.779
-7.322
-7.889
-8.475
-9.077
-9.69
-10.309
-10.928
-11.54
-12.139
-12.718
-13.268
-13.783
-14.256
-14.679
-15.044
-15.346
-15.576
-15.728
-15.796
-15.771
-15.649
-15.423
-15.086
-14.635
-14.063
-13.367
-12.543
-11.586
-10.494
-9.263
-7.893
-6.382
-4.73
-2.936
-1.005
1.061
3.256
5.573
8.005
10.54
13.167
15.871
18.638
21.452
24.297
27.154
30.006
32.833
35.62
38.349
41.003
43.562
46.009
48.325
50.49
52.486
54.293
55.896
57.277
58.423
59.326
59.978
60.371
60.497
60.339
59.884
59.125
58.058
56.681
55.002
53.033
50.801
48.352
45.726
42.966
40.109
37.179
34.202
31.213
28.248
25.363
22.608
20.026
17.652
15.52
13.647
12.025
10.599
9.274
7.953
6.557
5.041
3.368
1.471
-0.72
-3.295
-6.357
-9.967
-14.229
-19.304
-25.205
-31.782
-38.713
-45.406
-51.27
-55.921
-58.84
-59.418
-57.538
-53.462
-47.927
-42.303
-37.596
-34.202
-32.752
-33.961
-37.623
-42.792
-47.474
-48.546
-43.557
-30.84
-8.272
26.423
74.467
135.894
208.903
289.878
375.258
461.309
542.908
613.992
668.637
701.824
710.383
692.879
648.724
578.834
486.665
377.815
259.183
137.846
20.209
-87.65
-180.142
-253.144
-304.901
-335.876
-348.031
-343.844
-326.017
-298.26
-264.839
-229.673
-195.615
-164.346
-137.069
-115.252
-100.19
-92.006
-89.907
-92.665
-99.092
-108.367
-119.377
-130.204
-138.995
-144.667
-146.784
-145.534
-141.337
-134.506
-125.745
-116.348
-107.438
-99.744
-93.658
-89.129
-85.996
-84.158
-83.311
-82.97
-82.812
-82.676
-82.526
-82.481
-82.639
-83.025
-83.681
-84.648
-85.9
-87.351
-88.898
-90.422
-91.823
-93.06
-94.109
-94.94
-95.528
-95.845
-95.866
-95.58
-94.986
-94.075
-92.859
-91.373
-89.669
-87.829
-85.923
-84.001
-82.11
-80.274
-78.506
-76.817
-75.204
-73.654
-72.159
-70.708
-69.285
-67.881
-66.48
-65.055
-63.573
-61.994
-60.282
-58.414
-56.37
-54.136
-51.705
-49.073
-46.245
-43.232
-40.044
-36.69
-33.179
-29.519
-25.718
-21.79
-17.748
-13.608
-9.385
-5.094
-0.748
3.637
8.045
12.464
16.878
21.276
25.643
29.965
34.226
38.41
42.5
46.482
50.339
54.056
57.618
61.011
64.224
67.245
70.065
72.674
75.065
77.23
79.166
80.866
82.328
83.548
84.524
85.257
85.744
85.989
85.993
85.759
85.292
84.595
83.676
82.541
81.196
79.651
77.913
75.993
73.899
71.644
69.237
66.692
64.021
61.236
58.35
55.378
52.33
49.22
46.06
42.863
39.64
36.403
33.164
29.933
26.723
23.544
20.406
17.32
14.295
11.339
8.462
5.669
2.969
0.367
-2.13
-4.517
-6.789
-8.942
-10.973
-12.879
-14.658
-16.31
-17.833
-19.229
-20.498
-21.643
-22.667
-23.571
-24.359
-25.034
-25.6
-26.061
-26.421
-26.685
-26.858
-26.945
-26.951
-26.883
-26.747
-26.547
-26.291
-25.984
-25.632
-25.242
-24.818
-24.368
-23.896
-23.41
-22.915
-22.417
-21.92
-21.43
-20.951
-20.487
-20.041
-19.616
-19.214
-18.838
-18.489
-18.17
-17.88
-17.623
-17.398
-17.207
-17.05
-16.929
-16.842
-16.791
-16.774
-16.793
-16.846
-16.934
-17.054
-17.207
-17.391
-17.605
-17.848
-18.117
-18.41
-18.725
-19.058
-19.408
-19.772
-20.148
-20.532
-20.923
-21.318
-21.716
-22.115
-22.514
-22.909
-23.301
-23.686
-24.064
-24.433
-24.791
-25.136
-25.466
-25.779
-26.074
-26.349
-26.601
-26.828
-27.03
-27.202
-27.345
-27.456
-27.534
-27.578
-27.588
-27.562
-27.502
-27.407
-27.278
-27.116
-26.921
-26.695
-26.439
-26.155
-25.844
-25.508
-25.151
-24.773
-24.379
-23.971
-23.551
-23.122
-22.688
-22.253
-21.818
-21.388
-20.966
-20.556
-20.163
-19.789
-19.44
-19.119
-18.83
-18.578
-18.365
-18.195
-18.073
-18
-17.979
-18.012
-18.103
-18.252
-18.461
-18.73
-19.058
-19.446
-19.891
-20.391
-20.941
-21.537
-22.173
-22.846
-23.549
-24.278
-25.026
-25.789
-26.564
-27.344
-28.124
-28.897
-29.656
-30.39
-31.093
-31.753
-32.359
-32.901
-33.366
-33.743
-34.024
-34.197
-34.252
-34.174
-33.945
-33.555
-32.996
-32.264
-31.36
-30.288
-29.057
-27.685
-26.199
-24.621
-22.974
-21.274
-19.53
-17.757
-15.965
-14.163
-12.361
-10.561
-8.747
-6.903
-5.008
-3.02
-0.902
1.399
3.953
6.807
10
13.558
17.487
21.791
26.46
31.459
36.745
42.261
47.918
53.62
59.254
64.673
69.741
74.316
78.242
81.4
83.686
85.006
85.297
84.511
82.63
79.671
75.67
70.682
64.803
58.155
50.906
43.26
35.405
27.517
19.77
12.31
5.28
-1.186
-6.98
-12.019
-16.259
-19.679
-22.261
-24.011
-24.985
-25.293
-25.131
-24.715
-24.225
-23.814
-23.599
-23.702
-24.268
-25.422
-27.273
-29.898
-33.292
-37.498
-42.608
-48.553
-55.126
-61.906
-68.162
-73.243
-76.638
-77.732
-76.074
-71.558
-64.293
-55.008
-44.924
-35.034
-26.342
-19.847
-15.822
-13.895
-13.09
-11.258
-5.785
5.799
26.347
58.526
103.807
162.461
233.283
313.197
398.194
483.384
562.569
629.087
676.802
700.765
697.72
666.364
607.006
522.185
416.901
297.952
173.202
50.39
-63.319
-161.58
-239.358
-294.003
-325.403
-335.579
-328.24
-307.741
-278.838
-246.598
-215.638
-189
-168.095
-153.104
-143.199
-137.196
-133.635
-130.606
-126.286
-119.764
-110.973
-100.345
-88.67
-76.699
-65.127
-54.852
-46.748
-41.261
-38.474
-38.202
-40.06
-43.713
-48.878
-55.198
-62.266
-69.697
-77.138
-84.323
-91.095
-97.311
-102.821
-107.473
-111.139
-113.76
-115.337
-115.906
-115.517
-114.232
-112.126
-109.308
-105.921
-102.123
-98.081
-93.941
-89.81
-85.772
-81.9
-78.264
-74.917
-71.886
-69.168
-66.749
-64.615
-62.752
-61.143
-59.755
-58.544
-57.459
-56.446
-55.455
-54.448
-53.394
-52.269
-51.052
-49.73
-48.292
-46.74
-45.076
-43.299
-41.404
-39.387
-37.244
-34.976
-32.584
-30.069
-27.433
-24.679
-21.808
-18.821
-15.721
-12.509
-9.184
-5.751
-2.209
1.436
5.178
9.009
12.92
16.899
20.935
25.016
29.129
33.26
37.395
41.523
45.63
49.703
53.728
57.693
61.585
65.39
69.096
72.69
76.16
79.493
82.678
85.702
88.555
91.227
93.708
95.99
98.064
99.923
101.562
102.974
104.157
105.107
105.823
106.305
106.553
106.569
106.356
105.918
105.262
104.391
103.313
102.036
100.567
98.914
97.086
95.093
92.943
90.649
88.219
85.665
82.999
80.233
77.378
74.448
71.454
68.41
65.328
62.22
59.099
55.977
52.865
49.776
46.719
43.705
40.743
37.843
35.012
32.257
29.586
27.004
24.516
22.125
19.835
17.65
15.57
13.597
11.733
9.977
8.33
6.789
5.355
4.025
2.796
1.665
0.629
-0.316
-1.175
-1.952
-2.652
-3.28
-3.841
-4.34
-4.783
-5.175
-5.522
-5.828
-6.099
-6.339
-6.553
-6.744
-6.917
-7.074
-7.218
-7.353
-7.479
-7.6
-7.716
-7.83
-7.942
-8.053
-8.164
-8.275
-8.387
-8.498
-8.61
-8.72
-8.829
-8.936
-9.04
-9.141
-9.237
-9.328
-9.413
-9.492
-9.564
-9.628
-9.684
-9.731
-9.77
-9.801
-9.825
-9.841
-9.852
-9.859
-9.863
-9.867
-9.873
-9.882
-9.896
-9.92
-9.954
-10.002
-10.066
-10.15
-10.256
-10.386
-10.544
-10.733
-10.954
-11.209
-11.501
-11.831
-12.201
-12.61
-13.061
-13.553
-14.086
-14.66
-15.276
-15.931
-16.625
-17.356
-18.123
-18.921
-19.75
-20.604
-21.482
-22.378
-23.289
-24.211
-25.139
-26.068
-26.993
-27.91
-28.813
-29.696
-30.555
-31.384
-32.178
-32.932
-33.643
-34.305
-34.916
-35.472
-35.971
-36.41
-36.787
-37.102
-37.352
-37.537
-37.657
-37.712
-37.701
-37.627
-37.49
-37.292
-37.035
-36.721
-36.354
-35.936
-35.471
-34.961
-34.412
-33.826
-33.211
-32.569
-31.908
-31.232
-30.549
-29.864
-29.183
-28.513
-27.859
-27.224
-26.615
-26.035
-25.487
-24.975
-24.501
-24.069
-23.679
-23.336
-23.039
-22.791
-22.591
-22.441
-22.341
-22.289
-22.287
-22.333
-22.427
-22.567
-22.752
-22.981
-23.251
-23.558
-23.899
-24.267
-24.657
-25.06
-25.468
-25.871
-26.26
-26.628
-26.966
-27.265
-27.519
-27.722
-27.868
-27.955
-27.975
-27.921
-27.786
-27.562
-27.242
-26.819
-26.284
-25.629
-24.846
-23.931
-22.882
-21.699
-20.376
-18.907
-17.281
-15.493
-13.548
-11.451
-9.212
-6.84
-4.353
-1.782
0.83
3.444
6.028
8.568
11.058
13.487
15.847
18.125
20.314
22.419
24.453
26.419
28.312
30.134
31.901
33.654
35.456
37.358
39.38
41.517
43.745
46.043
48.376
50.698
52.94
55.007
56.827
58.344
59.523
60.332
60.718
60.606
59.907
58.558
56.531
53.828
50.461
46.453
41.852
36.737
31.233
25.488
19.618
13.712
7.845
2.072
-3.532
-8.878
-13.895
-18.543
-22.808
-26.691
-30.183
-33.26
-35.91
-38.17
-40.14
-41.951
-43.698
-45.468
-47.295
-49.235
-51.444
-53.927
-56.516
-58.897
-60.492
-60.797
-59.585
-56.524
-51.205
-43.717
-34.391
-23.999
-14.155
-6.071
-0.393
2.007
0.669
-3.804
-10.371
-16.959
-20.17
-17.327
-6.149
16.051
50.896
98.617
158.457
227.855
302.797
379.502
453.418
518.929
571.1
605.719
619.796
612.207
582.687
531.547
461.229
376.12
281.254
182.344
84.539
-7.923
-90.272
-158.048
-209.004
-242.763
-260.105
-263.214
-254.313
-235.39
-209.998
-182.355
-155.376
-131.179
-111.372
-96.371
-86.607
-82.89
-84.561
-89.952
-97.892
-107.041
-115.945
-124.042
-130.663
-134.677
-135.817
-134.439
-130.81
-125.714
-120.168
-114.54
-109.155
-104.531
-100.802
-97.974
-96.055
-94.681
-93.359
-91.933
-90.364
-88.651
-86.945
-85.322
-83.812
-82.555
-81.691
-81.298
-81.415
-82.001
-82.952
-84.184
-85.626
-87.22
-88.934
-90.699
-92.418
-94.003
-95.377
-96.481
-97.277
-97.721
-97.774
-97.414
-96.641
-95.485
-93.991
-92.215
-90.222
-88.058
-85.757
-83.358
-80.897
-78.406
-75.911
-73.424
-70.943
-68.471
-66.011
-63.561
-61.114
-58.653
-56.153
-53.586
-50.92
-48.132
-45.208
-42.135
-38.906
-35.521
-31.98
-28.293
-24.473
-20.535
-16.489
-12.346
-8.116
-3.814
0.546
4.944
9.365
13.791
18.207
22.597
26.947
31.242
35.47
39.62
43.682
47.645
51.497
55.227
58.824
62.274
65.57
68.699
71.652
74.42
76.995
79.37
81.54
83.498
85.242
86.768
88.071
89.152
90.007
90.637
91.042
91.223
91.182
90.922
90.447
89.762
88.871
87.783
86.503
85.039
83.401
81.597
79.637
77.531
75.289
72.924
70.445
67.866
65.198
62.454
59.645
56.784
53.885
50.958
48.017
45.074
42.139
39.227
36.347
33.512
30.732
28.017
25.379
22.826
20.367
18.011
15.764
13.633
11.623
9.738
7.983
6.36
4.87
3.515
2.294
1.208
0.253
-0.572
-1.27
-1.845
-2.302
-2.645
-2.879
-3.011
-3.047
-2.993
-2.855
-2.642
-2.361
-2.019
-1.624
-1.184
-0.706
-0.2
0.328
0.87
1.418
1.966
2.506
3.032
3.539
4.021
4.474
4.894
5.277
5.62
5.922
6.18
6.393
6.562
6.685
6.763
6.797
6.789
6.738
6.648
6.52
6.356
6.158
5.929
5.67
5.385
5.075
4.745
4.396
4.03
3.652
3.263
2.866
2.464
2.058
1.652
1.247
0.845
0.448
0.057
-0.326
-0.7
-1.065
-1.421
-1.766
-2.101
-2.426
-2.741
-3.046
-3.342
-3.63
-3.91
-4.181
-4.445
-4.701
-4.95
-5.192
-5.425
-5.651
-5.868
-6.076
-6.275
-6.463
-6.639
-6.805
-6.957
-7.097
-7.223
-7.335
-7.432
-7.515
-7.582
-7.635
-7.673
-7.696
-7.704
-7.697
-7.676
-7.641
-7.592
-7.53
-7.456
-7.37
-7.273
-7.166
-7.051
-6.929
-6.801
-6.671
-6.539
-6.41
-6.285
-6.168
-6.064
-5.974
-5.905
-5.859
-5.84
-5.853
-5.902
-5.989
-6.117
-6.29
-6.509
-6.777
-7.094
-7.463
-7.884
-8.358
-8.886
-9.468
-10.105
-10.796
-11.54
-12.337
-13.186
-14.085
-15.033
-16.029
-17.069
-18.152
-19.273
-20.429
-21.615
-22.826
-24.055
-25.294
-26.535
-27.77
-28.987
-30.177
-31.332
-32.441
-33.495
-34.488
-35.412
-36.261
-37.028
-37.708
-38.292
-38.773
-39.141
-39.386
-39.497
-39.466
-39.283
-38.941
-38.432
-37.752
-36.898
-35.864
-34.647
-33.239
-31.628
-29.809
-27.779
-25.543
-23.108
-20.493
-17.719
-14.813
-11.805
-8.717
-5.567
-2.362
0.901
4.228
7.626
11.091
14.609
18.166
21.753
25.364
28.996
32.659
36.373
40.165
44.069
48.103
52.265
56.525
60.832
65.118
69.305
73.327
77.136
80.684
83.932
86.84
89.367
91.459
93.059
94.091
94.473
94.15
93.089
91.294
88.799
85.656
81.945
77.741
73.105
68.097
62.771
57.181
51.388
45.478
39.537
33.67
27.995
22.605
17.582
12.989
8.868
5.254
2.153
-0.445
-2.537
-4.132
-5.256
-5.939
-6.244
-6.264
-6.072
-5.771
-5.492
-5.358
-5.503
-6.054
-7.097
-8.759
-11.207
-14.487
-18.528
-23.105
-27.782
-32.145
-35.877
-38.561
-39.652
-38.819
-36.089
-31.921
-27.304
-23.212
-20.144
-18.553
-19.091
-21.989
-26.707
-31.887
-35.072
-33.576
-25.476
-8.791
18.83
59.056
112.53
178.457
254.11
335.981
420.624
503.359
578.345
639.823
682.32
701.929
696.752
665.586
608.302
527.407
427.6
314.956
196.7
79.387
-31.204
-128.833
-208.344
-267.239
-305.209
-323.931
-326.705
-316.889
-298.094
-275.146
-252.531
-233.04
-218.112
-207.8
-201.196
-197.442
-195.49
-193.514
-189.704
-183.14
-173.618
-161.646
-148.147
-133.858
-119.464
-105.837
-93.85
-84.058
-76.68
-71.635
-68.636
-67.438
-67.841
-69.599
-72.429
-76.042
-80.179
-84.604
-89.126
-93.564
-97.713
-101.406
-104.502
-106.879
-108.478
-109.285
-109.302
-108.565
-107.123
-105.031
-102.37
-99.243
-95.751
-92.009
-88.135
-84.232
-80.416
-76.784
-73.406
-70.345
-67.631
-65.278
-63.286
-61.646
-60.333
-59.324
-58.587
-58.08
-57.769
-57.613
-57.563
-57.573
-57.586
-57.556
-57.444
-57.219
-56.853
-56.327
-55.622
-54.725
-53.632
-52.335
-50.828
-49.104
-47.157
-44.981
-42.574
-39.938
-37.076
-33.992
-30.689
-27.171
-23.444
-19.518
-15.4
-11.1
-6.628
-1.995
2.781
7.684
12.696
17.799
22.974
28.201
33.458
38.725
43.981
49.204
54.373
59.464
64.452
69.312
74.025
78.568
82.924
87.073
90.998
94.683
98.118
101.289
104.186
106.792
109.085
111.056
112.702
114.028
115.044
115.762
116.188
116.338
116.234
115.891
115.316
114.505
113.436
112.102
110.508
108.667
106.612
104.358
101.901
99.241
96.37
93.279
89.969
86.419
82.59
78.471
74.078
69.46
64.703
59.87
55
50.122
45.25
40.409
35.647
31.001
26.5
22.185
18.092
14.286
10.861
7.868
5.316
3.175
1.363
-0.174
-1.463
-2.533
-3.403
-4.099
-4.657
-5.1
-5.428
-5.665
-5.835
-5.993
-6.222
-6.566
-7.036
-7.619
-8.262
-8.931
-9.615
-10.294
-10.95
-11.57
-12.137
-12.655
-13.145
-13.614
-14.057
-14.461
-14.793
-15.037
-15.196
-15.283
-15.32
-15.326
-15.31
-15.287
-15.273
-15.282
-15.319
-15.384
-15.463
-15.551
-15.646
-15.751
-15.871
-16.01
-16.163
-16.331
-16.51
-16.698
-16.894
-17.094
-17.293
-17.487
-17.676
-17.86
-18.043
-18.227
-18.412
-18.6
-18.793
-18.989
-19.192
-19.401
-19.615
-19.833
-20.055
-20.282
-20.513
-20.75
-20.991
-21.237
-21.489
-21.746
-22.009
-22.278
-22.553
-22.834
-23.121
-23.413
-23.709
-24.008
-24.31
-24.612
-24.914
-25.215
-25.513
-25.808
-26.098
-26.382
-26.658
-26.927
-27.185
-27.432
-27.667
-27.889
-28.098
-28.296
-28.482
-28.657
-28.823
-28.981
-29.133
-29.281
-29.427
-29.571
-29.715
-29.861
-30.011
-30.167
-30.331
-30.506
-30.695
-30.9
-31.125
-31.373
-31.646
-31.946
-32.277
-32.639
-33.035
-33.466
-33.935
-34.444
-34.993
-35.583
-36.216
-36.892
-37.609
-38.367
-39.161
-39.989
-40.847
-41.728
-42.628
-43.539
-44.457
-45.375
-46.289
-47.193
-48.082
-48.95
-49.791
-50.599
-51.366
-52.082
-52.736
-53.315
-53.81
-54.209
-54.505
-54.689
-54.753
-54.689
-54.494
-54.162
-53.685
-53.055
-52.255
-51.275
-50.112
-48.77
-47.258
-45.592
-43.786
-41.856
-39.826
-37.713
-35.525
-33.264
-30.912
-28.453
-25.882
-23.204
-20.44
-17.609
-14.713
-11.75
-8.721
-5.608
-2.4
0.921
4.393
8.036
11.837
15.766
19.755
23.718
27.597
31.346
34.93
38.324
41.482
44.356
46.913
49.098
50.86
52.138
52.845
52.916
52.333
51.103
49.274
46.925
44.109
40.871
37.259
33.313
29.09
24.656
20.072
15.407
10.739
6.157
1.765
-2.343
-6.107
-9.486
-12.458
-15.029
-17.196
-18.959
-20.324
-21.313
-21.976
-22.387
-22.642
-22.829
-23.021
-23.312
-23.816
-24.65
-25.93
-27.754
-30.179
-33.294
-37.233
-42.02
-47.553
-53.555
-59.528
-64.992
-69.577
-72.868
-74.376
-73.839
-71.344
-67.419
-63.094
-59.321
-56.582
-55.235
-55.675
-57.893
-61.208
-64.19
-64.507
-59.746
-48.209
-28.305
1.514
42.129
94.04
156.544
227.202
303.481
380.797
453.782
519.855
574.882
618.362
651.223
665.338
655.345
614.775
537.353
433.68
314.509
190.205
74.334
-31.425
-125.248
-202.342
-262.407
-302.87
-322.372
-324.048
-311.431
-288.789
-261.746
-235.08
-211.686
-193.316
-180.52
-172.678
-168.779
-167.608
-167.16
-165.378
-161.315
-154.734
-145.974
-135.828
-124.961
-113.953
-103.648
-94.943
-88.341
-84.02
-81.866
-81.523
-82.712
-85.223
-88.775
-93.042
-97.689
-102.379
-106.854
-110.983
-114.671
-117.831
-120.39
-122.255
-123.356
-123.687
-123.281
-122.184
-120.448
-118.121
-115.268
-111.994
-108.449
-104.798
-101.18
-97.687
-94.371
-91.274
-88.434
-85.889
-83.664
-81.752
-80.132
-78.789
-77.709
-76.886
-76.3
-75.91
-75.659
-75.482
-75.329
-75.165
-74.962
-74.696
-74.342
-73.882
-73.303
-72.601
-71.774
-70.812
-69.701
-68.427
-66.979
-65.35
-63.539
-61.545
-59.364
-56.994
-54.435
-51.687
-48.752
-45.632
-42.326
-38.837
-35.167
-31.326
-27.322
-23.166
-18.873
-14.455
-9.928
-5.309
-0.616
4.133
8.922
13.732
18.545
23.342
28.107
32.819
37.462
42.017
46.466
50.79
54.972
58.994
62.84
66.493
69.938
73.161
76.148
78.888
81.37
83.585
85.525
87.183
88.554
89.634
90.423
90.919
91.124
91.04
90.672
90.026
89.11
87.931
86.498
84.822
82.912
80.781
78.439
75.901
73.179
70.288
67.243
64.06
60.754
57.343
53.843
50.272
46.646
42.982
39.298
35.609
31.932
28.282
24.674
21.123
17.642
14.244
10.941
7.742
4.659
1.698
-1.132
-3.827
-6.38
-8.788
-11.048
-13.158
-15.115
-16.92
-18.572
-20.073
-21.425
-22.63
-23.693
-24.618
-25.411
-26.077
-26.623
-27.055
-27.382
-27.611
-27.75
-27.806
-27.787
-27.703
-27.561
-27.37
-27.137
-26.87
-26.576
-26.261
-25.933
-25.595
-25.253
-24.912
-24.574
-24.243
-23.923
-23.616
-23.324
-23.048
-22.79
-22.551
-22.331
-22.131
-21.948
-21.783
-21.634
-21.5
-21.379
-21.269
-21.17
-21.078
-20.991
-20.909
-20.828
-20.745
-20.66
-20.569
-20.471
-20.364
-20.247
-20.119
-19.98
-19.828
-19.665
-19.491
-19.307
-19.114
-18.913
-18.706
-18.494
-18.279
-18.063
-17.848
-17.637
-17.433
-17.237
-17.052
-16.881
-16.726
-16.588
-16.47
-16.374
-16.3
-16.251
-16.228
-16.231
-16.263
-16.325
-16.416
-16.538
-16.69
-16.872
-17.084
-17.324
-17.591
-17.883
-18.199
-18.535
-18.889
-19.259
-19.64
-20.03
-20.425
-20.821
-21.214
-21.599
-21.973
-22.332
-22.67
-22.986
-23.275
-23.533
-23.759
-23.949
-24.1
-24.211
-24.279
-24.302
-24.28
-24.209
-24.09
-23.922
-23.703
-23.434
-23.115
-22.746
-22.328
-21.863
-21.351
-20.796
-20.198
-19.561
-18.887
-18.18
-17.443
-16.68
-15.896
-15.095
-14.282
-13.463
-12.643
-11.828
-11.022
-10.23
-9.458
-8.711
-7.991
-7.305
-6.655
-6.045
-5.479
-4.961
-4.492
-4.077
-3.718
-3.417
-3.177
-3
-2.887
-2.841
-2.861
-2.949
-3.105
-3.329
-3.623
-3.983
-4.41
-4.901
-5.454
-6.064
-6.728
-7.439
-8.19
-8.973
-9.781
-10.607
-11.443
-12.281
-13.113
-13.935
-14.741
-15.524
-16.278
-16.996
-17.669
-18.289
-18.846
-19.33
-19.729
-20.032
-20.228
-20.306
-20.257
-20.073
-19.742
-19.253
-18.588
-17.737
-16.695
-15.458
-14.029
-12.414
-10.624
-8.676
-6.6
-4.42
-2.159
0.163
2.538
4.956
7.413
9.903
12.413
14.947
17.521
20.158
22.888
25.744
28.76
31.98
35.465
39.266
43.418
47.94
52.829
58.067
63.626
69.468
75.552
81.807
88.141
94.441
100.581
106.442
111.909
116.853
121.134
124.624
127.226
128.872
129.526
129.173
127.806
125.432
122.075
117.799
112.696
106.884
100.509
93.709
86.624
79.419
72.264
65.315
58.706
52.528
46.853
41.748
37.28
33.517
30.506
28.253
26.746
25.944
25.757
26.092
26.831
27.816
28.914
29.999
30.935
31.612
31.919
31.727
30.935
29.398
26.92
23.447
19.069
14.046
8.905
4.184
0.307
-2.199
-2.721
-0.998
2.782
7.921
13.11
17.092
19.138
18.61
14.818
7.776
-1.493
-10.996
-17.607
-18.062
-9.936
9.087
41.473
88.709
150.792
226.146
311.356
402.07
494.035
582.121
660.13
722.195
763.4
780.295
771.246
735.965
675.178
591.84
491.295
379.901
264.444
151.413
46.64
-44.365
-116.829
-168.468
-199.689
-212.327
-209.31
-194.055
-170.076
-141.934
-114.708
-91.59
-73.836
-61.865
-55.235
-53.374
-55.965
-61.291
-66.516
-70.064
-71.409
-70.452
-67.762
-63.558
-57.474
-50.108
-42.89
-36.639
-31.795
-28.472
-26.248
-25.01
-25.017
-26.1
-27.761
-29.606
-31.244
-32.463
-33.313
-33.746
-33.636
-32.95
-31.698
-29.933
-27.759
-25.245
-22.418
-19.318
-15.986
-12.473
-8.848
-5.177
-1.523
2.056
5.511
8.807
11.923
14.847
17.573
20.111
22.478
24.699
26.802
28.811
30.74
32.61
34.444
36.266
38.101
39.971
41.895
43.888
45.968
48.146
50.435
52.842
55.372
58.027
60.809
63.719
66.758
69.927
73.224
76.643
80.181
83.829
87.58
91.422
95.343
99.326
103.356
107.414
111.48
115.534
119.553
123.515
127.396
131.172
134.817
138.308
141.619
144.724
147.6
150.223
152.57
154.618
156.349
157.741
158.779
159.446
159.728
159.614
159.094
158.16
156.806
155.029
152.829
150.206
147.164
143.711
139.854
135.605
130.979
125.991
120.659
115.003
109.047
102.812
96.326
89.615
82.706
75.628
68.413
61.09
53.69
46.245
38.785
31.343
23.947
16.629
9.416
2.337
-4.58
-11.311
-17.83
-24.115
-30.144
-35.897
-41.355
-46.503
-51.327
-55.814
-59.955
-63.742
-67.17
-70.234
-72.936
-75.274
-77.252
-78.876
-80.152
-81.089
-81.697
-81.988
-81.976
-81.676
-81.102
-80.273
-79.205
-77.916
-76.425
-74.751
-72.912
-70.928
-68.818
-66.6
-64.294
-61.918
-59.49
-57.028
-54.548
-52.067
-49.599
-47.158
-44.757
-42.408
-40.12
-37.902
-35.763
-33.709
-31.744
-29.872
-28.096
-26.416
-24.834
-23.347
-21.954
-20.65
-19.434
-18.299
-17.241
-16.255
-15.334
-14.472
-13.663
-12.901
-12.178
-11.487
-10.822
-10.174
-9.537
-8.904
-8.269
-7.624
-6.965
-6.286
-5.583
-4.852
-4.089
-3.292
-2.46
-1.592
-0.689
0.25
1.222
2.223
3.25
4.299
5.363
6.438
7.515
8.589
9.651
10.694
11.71
12.69
13.625
14.506
15.324
16.069
16.731
17.299
17.764
18.116
18.344
18.438
18.389
18.187
17.823
17.289
16.576
15.676
14.583
13.29
11.792
10.084
8.163
6.026
3.672
1.1
-1.689
-4.694
-7.913
-11.342
-14.978
-18.816
-22.849
-27.072
-31.476
-36.054
-40.794
-45.686
-50.719
-55.88
-61.156
-66.531
-71.992
-77.522
-83.106
-88.725
-94.364
-100.003
-105.624
-111.21
-116.74
-122.198
-127.564
-132.821
-137.952
-142.939
-147.766
-152.419
-156.882
-161.141
-165.183
-168.994
-172.562
-175.877
-178.927
-181.704
-184.2
-186.407
-188.321
-189.937
-191.253
-192.268
-192.981
-193.394
-193.509
-193.33
-192.861
-192.11
-191.083
-189.788
-188.235
-186.435
-184.398
-182.136
-179.66
-176.981
-174.112
-171.063
-167.845
-164.469
-160.944
-157.281
-153.494
-149.592
-145.586
-141.49
-137.316
-133.078
-128.785
-124.448
-120.073
-115.665
-111.232
-106.776
-102.3
-97.804
-93.289
-88.755
-84.208
-79.649
-75.081
-70.499
-65.896
-61.268
-56.619
-51.952
-47.277
-42.601
-37.936
-33.302
-28.734
-24.261
-19.913
-15.706
-11.638
-7.713
-3.936
-0.311
3.152
6.461
9.643
12.716
15.692
18.59
21.426
24.242
27.11
30.081
33.196
36.466
39.867
43.377
46.978
50.629
54.283
57.868
61.279
64.434
67.275
69.729
71.732
73.189
73.971
73.981
73.158
71.474
68.948
65.614
61.505
56.692
51.273
45.368
39.135
32.706
26.185
19.694
13.35
7.284
1.651
-3.421
-7.863
-11.644
-14.779
-17.321
-19.31
-20.802
-21.897
-22.722
-23.443
-24.223
-25.189
-26.453
-28.167
-30.542
-33.702
-37.619
-42.067
-46.59
-50.72
-54.11
-56.363
-56.953
-55.598
-52.417
-47.967
-43.388
-39.801
-37.786
-37.844
-40.616
-46.18
-53.782
-61.803
-67.485
-67.956
-61.22
-45.237
-17.691
22.914
76.991
143.45
219.274
300.88
384.889
466.735
540.748
601.395
643.448
663.251
659.096
629.667
574.514
495.845
397.987
286.652
168.783
50.551
-62.455
-163.581
-246.962
-309.368
-349.478
-368.145
-368.006
-351.374
-321.326
-283.207
-242.425
-203.145
-168.757
-140.803
-119.724
-106.557
-101.381
-102.342
-107.135
-113.481
-119.148
-123.241
-125.386
-124.617
-120.58
-113.817
-105.211
-96.107
-87.983
-81.446
-76.708
-74.155
-73.83
-75.584
-79.165
-83.895
-88.945
-93.847
-98.353
-102.289
-105.646
-108.343
-110.235
-111.334
-111.72
-111.454
-110.6
-109.179
-107.174
-104.637
-101.683
-98.453
-95.117
-91.798
-88.56
-85.455
-82.523
-79.806
-77.356
-75.191
-73.302
-71.674
-70.295
-69.16
-68.269
-67.598
-67.097
-66.708
-66.366
-66.021
-65.645
-65.209
-64.69
-64.068
-63.323
-62.447
-61.44
-60.3
-59.018
-57.584
-55.986
-54.217
-52.279
-50.172
-47.9
-45.462
-42.862
-40.1
-37.181
-34.11
-30.889
-27.523
-24.013
-20.367
-16.595
-12.706
-8.714
-4.633
-0.477
3.738
7.996
12.278
16.57
20.854
25.113
29.332
33.494
37.583
41.583
45.48
49.257
52.9
56.395
59.729
62.888
65.86
68.635
71.2
73.548
75.67
77.558
79.206
80.609
81.763
82.665
83.314
83.71
83.852
83.744
83.389
82.792
81.958
80.895
79.61
78.111
76.407
74.508
72.424
70.165
67.741
65.165
62.449
59.603
56.641
53.575
50.419
47.185
43.886
40.536
37.146
33.731
30.302
26.873
23.454
20.059
16.698
13.382
10.122
6.927
3.805
0.766
-2.184
-5.038
-7.792
-10.44
-12.978
-15.403
-17.712
-19.904
-21.977
-23.931
-25.765
-27.481
-29.079
-30.563
-31.934
-33.195
-34.351
-35.405
-36.362
-37.225
-38.001
-38.694
-39.309
-39.853
-40.331
-40.749
-41.114
-41.431
-41.706
-41.945
-42.153
-42.335
-42.496
-42.639
-42.769
-42.888
-43
-43.107
-43.211
-43.315
-43.42
-43.527
-43.636
-43.749
-43.864
-43.982
-44.102
-44.223
-44.343
-44.463
-44.579
-44.692
-44.798
-44.897
-44.986
-45.063
-45.127
-45.174
-45.203
-45.211
-45.197
-45.159
-45.096
-45.005
-44.888
-44.744
-44.571
-44.372
-44.147
-43.895
-43.619
-43.32
-42.999
-42.658
-42.299
-41.924
-41.536
-41.138
-40.731
-40.319
-39.904
-39.489
-39.078
-38.672
-38.274
-37.887
-37.514
-37.158
-36.822
-36.509
-36.22
-35.961
-35.731
-35.534
-35.372
-35.246
-35.157
-35.106
-35.093
-35.119
-35.182
-35.284
-35.423
-35.598
-35.809
-36.054
-36.332
-36.642
-36.982
-37.351
-37.748
-38.17
-38.617
-39.086
-39.578
-40.089
-40.618
-41.165
-41.728
-42.305
-42.894
-43.494
-44.103
-44.719
-45.341
-45.967
-46.597
-47.228
-47.862
-48.496
-49.133
-49.772
-50.413
-51.059
-51.711
-52.368
-53.034
-53.707
-54.391
-55.085
-55.791
-56.509
-57.241
-57.987
-58.748
-59.525
-60.317
-61.126
-61.951
-62.793
-63.651
-64.525
-65.415
-66.322
-67.244
-68.181
-69.134
-70.102
-71.083
-72.076
-73.078
-74.087
-75.097
-76.105
-77.104
-78.087
-79.048
-79.98
-80.877
-81.733
-82.542
-83.296
-83.993
-84.628
-85.193
-85.682
-86.086
-86.396
-86.604
-86.7
-86.675
-86.517
-86.218
-85.771
-85.171
-84.415
-83.496
-82.405
-81.13
-79.661
-78
-76.149
-74.111
-71.894
-69.51
-66.982
-64.345
-61.636
-58.878
-56.082
-53.249
-50.384
-47.492
-44.585
-41.673
-38.748
-35.8
-32.826
-29.83
-26.812
-23.761
-20.639
-17.383
-13.946
-10.308
-6.482
-2.503
1.596
5.773
9.974
14.128
18.132
21.892
25.345
28.444
31.14
33.362
35.001
35.924
36.034
35.271
33.614
31.069
27.654
23.417
18.451
12.888
6.889
0.591
-5.911
-12.539
-19.208
-25.804
-32.18
-38.178
-43.686
-48.621
-52.912
-56.529
-59.474
-61.804
-63.647
-65.157
-66.468
-67.696
-68.948
-70.322
-71.94
-73.943
-76.432
-79.55
-83.474
-88.225
-93.715
-99.695
-105.621
-110.954
-115.304
-118.122
-118.817
-117.298
-113.723
-108.691
-103.543
-99.24
-96.209
-95.126
-96.431
-99.621
-103.744
-106.875
-105.789
-98.025
-81.752
-54.691
-15.251
36.996
101.746
176.914
258.608
343.27
426.993
504.611
571.244
622.344
653.851
663.581
650.85
615.407
558.492
483.442
394.675
297.758
198.588
102.344
13.926
-62.227
-122.787
-166.101
-192.268
-202.827
-199.827
-185.718
-163.377
-135.497
-104.956
-74.171
-44.394
-16.552
8.33
29.844
47.747
61.553
71.607
78.45
82.227
83.671
83.952
83.699
83.584
84.501
86.611
89.833
94.129
98.812
102.9
105.901
107.408
106.997
104.709
100.708
95.193
88.734
82.013
75.431
69.286
63.814
59.052
55.045
51.845
49.37
47.517
46.23
45.449
45.138
45.28
45.798
46.582
47.531
48.519
49.456
50.284
50.94
51.387
51.607
51.591
51.346
50.893
50.242
49.411
48.422
47.296
46.067
44.776
43.47
42.205
41.027
39.967
39.054
38.306
37.736
37.357
37.175
37.186
37.396
37.805
38.415
39.235
40.271
41.526
43
44.684
46.568
48.649
50.92
53.375
56.007
58.805
61.754
64.857
68.113
71.517
75.066
78.742
82.523
86.394
90.331
94.328
98.381
102.47
106.58
110.706
114.838
118.976
123.127
127.254
131.323
135.309
139.174
142.911
146.511
149.954
153.226
156.306
159.167
161.804
164.209
166.355
168.221
169.779
170.994
171.888
172.485
172.796
172.846
172.634
172.162
171.448
170.51
169.36
168.013
166.474
164.746
162.857
160.833
158.702
156.499
154.216
151.844
149.391
146.855
144.249
141.587
138.868
136.093
133.277
130.433
127.578
124.731
121.891
119.058
116.237
113.43
110.657
107.938
105.277
102.676
100.142
97.677
95.289
92.984
90.753
88.584
86.484
84.451
82.495
80.625
78.834
77.115
75.461
73.863
72.328
70.866
69.47
68.135
66.869
65.67
64.554
63.537
62.597
61.711
60.863
60.028
59.208
58.406
57.613
56.823
56.024
55.2
54.352
53.485
52.578
51.621
50.591
49.462
48.264
47.024
45.761
44.498
43.241
41.988
40.76
39.569
38.424
37.337
36.306
35.329
34.429
33.622
32.929
32.377
31.948
31.624
31.4
31.263
31.211
31.245
31.352
31.517
31.742
32.026
32.368
32.772
33.222
33.703
34.202
34.7
35.198
35.695
36.185
36.661
37.118
37.546
37.944
38.31
38.634
38.904
39.112
39.247
39.307
39.289
39.188
39.003
38.728
38.361
37.898
37.341
36.685
35.932
35.079
34.125
33.073
31.926
30.687
29.36
27.949
26.458
24.895
23.266
21.58
19.842
18.063
16.249
14.411
12.556
10.695
8.837
6.988
5.16
3.358
1.593
-0.129
-1.802
-3.417
-4.97
-6.454
-7.865
-9.198
-10.449
-11.613
-12.687
-13.666
-14.548
-15.33
-16.008
-16.58
-17.044
-17.4
-17.646
-17.784
-17.815
-17.741
-17.564
-17.288
-16.917
-16.456
-15.91
-15.284
-14.584
-13.817
-12.989
-12.107
-11.178
-10.209
-9.207
-8.179
-7.132
-6.073
-5.008
-3.946
-2.892
-1.853
-0.838
0.147
1.094
1.996
2.846
3.635
4.356
5.005
5.574
6.059
6.455
6.76
6.972
7.088
7.11
7.038
6.874
6.621
6.283
5.866
5.375
4.818
4.203
3.539
2.835
2.102
1.349
0.588
-0.171
-0.915
-1.633
-2.312
-2.939
-3.502
-3.987
-4.38
-4.668
-4.836
-4.871
-4.762
-4.497
-4.064
-3.454
-2.659
-1.671
-0.485
0.902
2.492
4.286
6.281
8.473
10.856
13.421
16.158
19.053
22.091
25.256
28.529
31.892
35.322
38.798
42.297
45.795
49.269
52.694
56.044
59.294
62.417
65.386
68.175
70.757
73.104
75.191
76.995
78.494
79.672
80.515
81.009
81.14
80.894
80.26
79.233
77.81
75.99
73.779
71.189
68.243
64.981
61.441
57.66
53.672
49.505
45.19
40.766
36.274
31.761
27.273
22.85
18.532
14.364
10.375
6.582
2.964
-0.547
-4.012
-7.484
-11.003
-14.578
-18.241
-22.061
-26.105
-30.445
-35.159
-40.275
-45.878
-52.141
-59.056
-66.463
-74.035
-81.152
-87.288
-92.167
-95.347
-96.283
-94.906
-91.399
-86.414
-81.388
-77.311
-74.572
-73.875
-75.767
-79.908
-85.578
-91.019
-93.057
-89.274
-77.832
-56.307
-22.881
23.217
82.125
152.096
229.431
310.634
391.635
466.96
531.316
579.563
606.97
610.72
589.563
542.98
472.388
381.59
275.637
160.947
44.493
-67.347
-168.346
-252.932
-317.382
-360.304
-382.317
-385.827
-374.293
-351.668
-322.639
-291.9
-263.313
-239.25
-220.568
-207.115
-198.103
-192.37
-188.336
-184.247
-178.621
-170.816
-160.993
-149.691
-137.659
-125.651
-114.404
-104.722
-97.3
-92.444
-90.122
-90.119
-92.108
-95.794
-100.919
-107.161
-114.166
-121.613
-129.219
-136.753
-144.019
-150.829
-156.999
-162.382
-166.892
-170.488
-173.173
-174.972
-175.923
-176.08
-175.52
-174.335
-172.623
-170.5
-168.083
-165.49
-162.844
-160.246
-157.778
-155.504
-153.458
-151.655
-150.097
-148.771
-147.654
-146.722
-145.943
-145.283
-144.714
-144.2
-143.7
-143.174
-142.573
-141.859
-141.006
-139.994
-138.811
-137.451
-135.908
-134.188
-132.298
-130.248
-128.043
-125.69
-123.192
-120.557
-117.792
-114.909
-111.919
-108.835
-105.665
-102.42
-99.111
-95.749
-92.344
-88.905
-85.442
-81.964
-78.484
-75.014
-71.568
-68.159
-64.801
-61.505
-58.286
-55.156
-52.127
-49.21
-46.414
-43.749
-41.224
-38.847
-36.625
-34.566
-32.675
-30.958
-29.419
-28.062
-26.892
-25.911
-25.122
-24.525
-24.121
-23.913
-23.898
-24.077
-24.448
-25.01
-25.76
-26.696
-27.814
-29.112
-30.585
-32.228
-34.037
-36.007
-38.132
-40.407
-42.824
-45.379
-48.064
-50.874
-53.802
-56.84
-59.982
-63.22
-66.547
-69.955
-73.436
-76.98
-80.579
-84.224
-87.905
-91.611
-95.333
-99.061
-102.783
-106.488
-110.166
-113.804
-117.392
-120.917
-124.368
-127.732
-130.999
-134.156
-137.192
-140.097
-142.859
-145.47
-147.918
-150.195
-152.293
-154.203
-155.917
-157.429
-158.733
-159.823
-160.695
-161.344
-161.769
-161.968
-161.94
-161.685
-161.203
-160.498
-159.572
-158.429
-157.073
-155.512
-153.751
-151.799
-149.664
-147.356
-144.886
-142.264
-139.504
-136.616
-133.615
-130.511
-127.32
-124.053
-120.723
-117.346
-113.932
-110.497
-107.052
-103.61
-100.183
-96.784
-93.423
-90.111
-86.859
-83.676
-80.57
-77.551
-74.625
-71.799
-69.08
-66.473
-63.983
-61.614
-59.367
-57.246
-55.25
-53.379
-51.633
-50.009
-48.505
-47.117
-45.842
-44.674
-43.61
-42.644
-41.771
-40.984
-40.278
-39.645
-39.08
-38.576
-38.126
-37.724
-37.364
-37.039
-36.743
-36.471
-36.216
-35.972
-35.734
-35.495
-35.25
-34.993
-34.72
-34.424
-34.102
-33.75
-33.364
-32.943
-32.483
-31.983
-31.442
-30.859
-30.232
-29.563
-28.851
-28.097
-27.301
-26.466
-25.592
-24.681
-23.736
-22.758
-21.749
-20.711
-19.646
-18.555
-17.442
-16.307
-15.154
-13.986
-12.807
-11.621
-10.432
-9.245
-8.064
-6.894
-5.741
-4.608
-3.5
-2.42
-1.372
-0.36
0.612
1.541
2.425
3.261
4.046
4.779
5.459
6.084
6.656
7.175
7.64
8.052
8.412
8.721
8.979
9.188
9.35
9.467
9.543
9.583
9.593
9.579
9.549
9.512
9.477
9.455
9.456
9.487
9.559
9.681
9.861
10.109
10.434
10.844
11.349
11.96
12.688
13.545
14.537
15.672
16.955
18.39
19.984
21.738
23.651
25.724
27.959
30.36
32.938
35.694
38.619
41.7
44.914
48.239
51.659
55.146
58.666
62.193
65.706
69.197
72.676
76.136
79.563
82.93
86.196
89.339
92.351
95.229
97.973
100.585
103.062
105.419
107.692
109.89
111.997
113.97
115.728
117.218
118.414
119.295
119.86
120.087
119.939
119.392
118.43
117.032
115.184
112.854
109.988
106.591
102.7
98.389
93.778
88.95
83.965
78.887
73.777
68.709
63.767
59.015
54.496
50.266
46.373
42.863
39.769
37.062
34.68
32.559
30.63
28.838
27.122
25.401
23.576
21.562
19.294
16.68
13.58
9.942
5.869
1.648
-2.204
-5.172
-6.92
-7.072
-5.131
-0.892
5.417
13.087
20.808
27.365
32.155
34.657
34.194
30.629
24.653
17.879
13.07
13.114
20.1
36.091
63.455
103.932
158.1
225.062
302.068
385.308
470.794
553.598
627.646
686.745
725.415
739.524
726.676
686.21
619.046
528.447
420.023
300.797
178.237
59.559
-48.308
-139.291
-208.927
-255.408
-279.498
-283.684
-271.312
-246.141
-212.903
-176.971
-143.243
-114.711
-92.502
-76.734
-67.218
-63.739
-65.178
-69.196
-73.065
-75.175
-75.131
-73.063
-69.108
-63.026
-54.886
-45.679
-36.975
-29.859
-24.729
-21.574
-20.204
-20.706
-23.177
-27.296
-32.396
-37.848
-43.201
-48.228
-52.903
-57.12
-60.728
-63.643
-65.816
-67.263
-68.035
-68.152
-67.606
-66.414
-64.609
-62.26
-59.493
-56.439
-53.232
-50.002
-46.825
-43.761
-40.862
-38.172
-35.733
-33.572
-31.681
-30.045
-28.656
-27.504
-26.584
-25.877
-25.335
-24.91
-24.552
-24.208
-23.844
-23.432
-22.943
-22.353
-21.645
-20.802
-19.821
-18.697
-17.423
-15.989
-14.385
-12.601
-10.635
-8.485
-6.15
-3.633
-0.935
1.943
4.997
8.223
11.617
15.174
18.889
22.758
26.771
30.916
35.182
39.553
44.014
48.549
53.139
57.767
62.413
67.059
71.687
76.278
80.813
85.273
89.64
93.896
98.022
102
105.815
109.448
112.886
116.113
119.116
121.883
124.403
126.666
128.664
130.389
131.835
132.998
133.875
134.465
134.768
134.786
134.522
133.981
133.169
132.092
130.76
129.182
127.367
125.327
123.073
120.617
117.972
115.151
112.17
109.042
105.782
102.404
98.925
95.359
91.722
88.028
84.293
80.531
76.756
72.983
69.225
65.496
61.809
58.175
54.606
51.112
47.703
44.387
41.173
38.067
35.076
32.205
29.458
26.841
24.356
22.006
19.793
17.717
15.779
13.979
12.315
10.785
9.388
8.121
6.979
5.961
5.06
4.274
3.596
3.022
2.547
2.165
1.868
1.653
1.511
1.437
1.424
1.466
1.558
1.692
1.863
2.066
2.294
2.543
2.806
3.078
3.355
3.632
3.905
4.169
4.421
4.657
4.876
5.075
5.252
5.404
5.532
5.634
5.708
5.756
5.776
5.769
5.735
5.676
5.591
5.484
5.354
5.204
5.036
4.851
4.652
4.441
4.219
3.99
3.757
3.521
3.286
3.054
2.828
2.611
2.405
2.212
2.034
1.873
1.728
1.602
1.495
1.407
1.337
1.286
1.252
1.234
1.232
1.243
1.266
1.298
1.337
1.382
1.429
1.476
1.52
1.558
1.588
1.607
1.61
1.596
1.561
1.5
1.412
1.291
1.135
0.94
0.703
0.422
0.095
-0.281
-0.707
-1.184
-1.712
-2.291
-2.921
-3.6
-4.326
-5.098
-5.913
-6.768
-7.659
-8.583
-9.536
-10.513
-11.51
-12.522
-13.546
-14.575
-15.606
-16.632
-17.65
-18.653
-19.636
-20.593
-21.518
-22.406
-23.251
-24.048
-24.791
-25.475
-26.096
-26.65
-27.133
-27.543
-27.878
-28.135
-28.315
-28.418
-28.443
-28.393
-28.271
-28.079
-27.821
-27.501
-27.125
-26.696
-26.222
-25.707
-25.157
-24.58
-23.982
-23.37
-22.75
-22.131
-21.521
-20.926
-20.355
-19.816
-19.316
-18.864
-18.466
-18.13
-17.863
-17.67
-17.557
-17.529
-17.589
-17.741
-17.985
-18.324
-18.756
-19.279
-19.892
-20.589
-21.367
-22.219
-23.138
-24.118
-25.148
-26.221
-27.325
-28.451
-29.587
-30.722
-31.841
-32.934
-33.985
-34.982
-35.91
-36.755
-37.504
-38.143
-38.656
-39.032
-39.258
-39.32
-39.208
-38.91
-38.418
-37.722
-36.817
-35.697
-34.359
-32.801
-31.023
-29.027
-26.816
-24.396
-21.774
-18.958
-15.96
-12.79
-9.464
-5.996
-2.404
1.293
5.073
8.914
12.792
16.683
20.558
24.393
28.159
31.83
35.379
38.781
42.01
45.042
47.851
50.413
52.705
54.705
56.391
57.744
58.748
59.39
59.664
59.566
59.093
58.242
57.006
55.38
53.368
50.972
48.199
45.062
41.58
37.788
33.739
29.483
25.074
20.562
15.985
11.39
6.827
2.346
-1.991
-6.124
-10.013
-13.61
-16.866
-19.755
-22.273
-24.466
-26.423
-28.235
-29.983
-31.725
-33.52
-35.463
-37.652
-40.188
-43.179
-46.682
-50.779
-55.631
-61.257
-67.533
-74.18
-80.614
-86.232
-90.62
-93.205
-93.348
-90.919
-86.043
-79.295
-72.061
-65.433
-60.082
-57.045
-57.116
-60.014
-64.929
-69.977
-71.817
-67.665
-55.05
-30.859
7.403
60.811
129.313
210.885
301.248
395.801
489.06
574.096
643.974
692.351
714.092
706.042
667.443
599.499
505.852
392.539
267.124
138.196
14.067
-97.465
-189.889
-259.319
-304.504
-326.479
-328.388
-314.864
-290.916
-262.292
-234.598
-211.368
-194.444
-184.32
-180.09
-180.247
-183.157
-186.505
-187.902
-186.152
-180.876
-172.324
-161.378
-148.875
-135.549
-122.371
-110.303
-99.884
-91.388
-84.859
-80.112
-77.003
-75.405
-75.098
-75.845
-77.436
-79.677
-82.406
-85.488
-88.795
-92.214
-95.664
-99.075
-102.374
-105.474
-108.258
-110.617
-112.479
-113.809
-114.596
-114.851
-114.604
-113.901
-112.818
-111.436
-109.82
-108.015
-106.045
-103.93
-101.703
-99.411
-97.121
-94.904
-92.813
-90.881
-89.133
-87.577
-86.214
-85.034
-84.008
-83.098
-82.273
-81.511
-80.797
-80.121
-79.463
-78.797
-78.091
-77.305
-76.408
-75.376
-74.187
-72.823
-71.272
-69.524
-67.58
-65.446
-63.125
-60.619
-57.929
-55.054
-51.995
-48.76
-45.354
-41.787
-38.067
-34.204
-30.209
-26.093
-21.869
-17.549
-13.143
-8.662
-4.119
0.472
5.094
9.733
14.37
18.99
23.575
28.106
32.567
36.939
41.206
45.351
49.358
53.211
56.896
60.398
63.703
66.801
69.679
72.329
74.741
76.908
78.825
80.484
81.884
83.02
83.891
84.496
84.836
84.912
84.728
84.288
83.596
82.66
81.486
80.083
78.461
76.629
74.6
72.384
69.997
67.45
64.76
61.94
59.006
55.973
52.859
49.677
46.445
43.176
39.887
36.592
33.305
30.04
26.809
23.627
20.504
17.452
14.482
11.605
8.83
6.165
3.619
1.198
-1.09
-3.24
-5.248
-7.109
-8.82
-10.381
-11.789
-13.044
-14.148
-15.103
-15.911
-16.576
-17.103
-17.496
-17.763
-17.908
-17.938
-17.861
-17.683
-17.412
-17.054
-16.618
-16.11
-15.54
-14.913
-14.239
-13.525
-12.779
-12.008
-11.22
-10.423
-9.624
-8.831
-8.051
-7.291
-6.559
-5.86
-5.202
-4.589
-4.027
-3.52
-3.072
-2.687
-2.368
-2.116
-1.933
-1.821
-1.779
-1.809
-1.91
-2.081
-2.321
-2.629
-3.003
-3.442
-3.942
-4.5
-5.114
-5.779
-6.492
-7.249
-8.044
-8.872
-9.729
-10.608
-11.503
-12.408
-13.315
-14.219
-15.113
-15.99
-16.843
-17.667
-18.455
-19.203
-19.904
-20.554
-21.15
-21.686
-22.159
-22.568
-22.909
-23.18
-23.38
-23.509
-23.566
-23.552
-23.468
-23.315
-23.096
-22.812
-22.467
-22.065
-21.61
-21.106
-20.559
-19.974
-19.358
-18.717
-18.059
-17.389
-16.715
-16.045
-15.386
-14.744
-14.125
-13.537
-12.986
-12.476
-12.013
-11.601
-11.244
-10.946
-10.709
-10.535
-10.425
-10.38
-10.399
-10.482
-10.628
-10.834
-11.097
-11.415
-11.784
-12.2
-12.658
-13.153
-13.68
-14.232
-14.804
-15.389
-15.98
-16.572
-17.156
-17.727
-18.279
-18.805
-19.3
-19.759
-20.177
-20.549
-20.873
-21.145
-21.364
-21.527
-21.633
-21.684
-21.679
-21.62
-21.509
-21.348
-21.141
-20.892
-20.602
-20.278
-19.923
-19.541
-19.137
-18.717
-18.283
-17.843
-17.399
-16.957
-16.52
-16.093
-15.679
-15.281
-14.901
-14.541
-14.203
-13.885
-13.59
-13.315
-13.058
-12.817
-12.589
-12.368
-12.149
-11.927
-11.694
-11.442
-11.163
-10.848
-10.49
-10.078
-9.604
-9.059
-8.433
-7.719
-6.908
-5.991
-4.962
-3.814
-2.539
-1.134
0.407
2.087
3.908
5.872
7.979
10.228
12.616
15.14
17.796
20.576
23.473
26.478
29.578
32.762
36.016
39.323
42.666
46.025
49.38
52.709
55.991
59.203
62.322
65.326
68.193
70.904
73.437
75.773
77.892
79.772
81.397
82.747
83.809
84.569
85.017
85.144
84.95
84.435
83.599
82.442
80.958
79.143
76.999
74.53
71.744
68.659
65.295
61.681
57.861
53.875
49.761
45.553
41.278
36.962
32.642
28.36
24.176
20.149
16.327
12.757
9.485
6.534
3.901
1.56
-0.55
-2.477
-4.24
-5.866
-7.388
-8.854
-10.339
-11.923
-13.675
-15.716
-18.224
-21.283
-24.852
-28.702
-32.374
-35.399
-37.42
-38.045
-36.775
-33.371
-28.037
-21.469
-14.97
-9.836
-6.811
-6.497
-9.638
-16.462
-26.269
-37.382
-46.865
-51.462
-48.74
-36.382
-11.775
27.064
80.881
148.86
228.125
314.533
403.906
491.212
570.316
634.996
679.619
699.966
693.748
660.413
600.793
517.922
417.03
304.703
188.205
74.531
-29.701
-118.526
-187.428
-234.404
-259.828
-265.79
-255.427
-232.313
-201.017
-166.976
-135.238
-108.991
-89.663
-77.567
-72.571
-74.485
-82.113
-92.922
-103.974
-113.422
-120.582
-125.38
-127.803
-127.45
-124.312
-119.3
-113.846
-108.931
-104.887
-101.645
-99.026
-97.166
-96.199
-95.872
-95.64
-95.028
-93.795
-91.915
-89.533
-86.711
-83.459
-79.88
-76.153
-72.485
-69.062
-66.012
-63.387
-61.226
-59.572
-58.456
-57.914
-57.95
-58.536
-59.617
-61.103
-62.9
-64.925
-67.078
-69.248
-71.325
-73.204
-74.798
-76.053
-76.931
-77.405
-77.461
-77.089
-76.301
-75.131
-73.631
-71.867
-69.896
-67.759
-65.497
-63.153
-60.763
-58.359
-55.957
-53.558
-51.16
-48.764
-46.363
-43.952
-41.513
-39.024
-36.455
-33.774
-30.96
-27.998
-24.881
-21.603
-18.162
-14.562
-10.812
-6.931
-2.933
1.171
5.368
9.648
13.995
18.393
22.823
27.268
31.712
36.136
40.525
44.863
49.137
53.335
57.447
61.464
65.377
69.177
72.856
76.404
79.81
83.061
86.146
89.05
91.763
94.272
96.566
98.636
100.473
102.071
103.43
104.545
105.411
106.021
106.363
106.432
106.231
105.762
105.028
104.04
102.813
101.372
99.758
97.996
96.102
94.084
91.938
89.663
87.262
84.732
82.074
79.283
76.349
73.272
70.06
66.704
63.184
59.46
55.465
51.163
46.549
41.631
36.441
31.019
25.407
19.669
13.892
8.151
2.517
-2.957
-8.239
-13.275
-17.99
-22.295
-26.071
-29.235
-31.748
-33.582
-34.734
-35.223
-35.079
-34.374
-33.22
-31.704
-29.901
-27.868
-25.636
-23.257
-20.805
-18.357
-16.008
-13.833
-11.876
-10.182
-8.783
-7.689
-6.898
-6.373
-6.043
-5.858
-5.791
-5.822
-5.955
-6.179
-6.475
-6.83
-7.228
-7.657
-8.112
-8.583
-9.06
-9.543
-10.043
-10.581
-11.197
-11.914
-12.744
-13.696
-14.765
-15.95
-17.249
-18.653
-20.147
-21.719
-23.358
-25.055
-26.805
-28.599
-30.424
-32.265
-34.104
-35.926
-37.72
-39.473
-41.175
-42.818
-44.392
-45.894
-47.32
-48.667
-49.93
-51.105
-52.186
-53.168
-54.048
-54.823
-55.488
-56.042
-56.484
-56.815
-57.035
-57.148
-57.156
-57.063
-56.872
-56.588
-56.215
-55.759
-55.225
-54.617
-53.942
-53.204
-52.41
-51.565
-50.674
-49.743
-48.777
-47.782
-46.761
-45.721
-44.666
-43.602
-42.534
-41.467
-40.408
-39.361
-38.334
-37.33
-36.355
-35.414
-34.511
-33.649
-32.831
-32.06
-31.337
-30.665
-30.043
-29.475
-28.959
-28.499
-28.093
-27.743
-27.45
-27.214
-27.035
-26.915
-26.855
-26.854
-26.914
-27.035
-27.216
-27.458
-27.758
-28.114
-28.521
-28.975
-29.471
-30.004
-30.568
-31.157
-31.766
-32.389
-33.024
-33.667
-34.312
-34.954
-35.587
-36.205
-36.801
-37.365
-37.89
-38.366
-38.782
-39.13
-39.403
-39.59
-39.682
-39.666
-39.526
-39.25
-38.83
-38.262
-37.542
-36.674
-35.665
-34.528
-33.286
-31.959
-30.566
-29.125
-27.643
-26.126
-24.579
-23.006
-21.415
-19.804
-18.157
-16.451
-14.656
-12.74
-10.669
-8.401
-5.877
-3.048
0.122
3.654
7.549
11.793
16.358
21.21
26.307
31.584
36.952
42.303
47.516
52.474
57.065
61.167
64.644
67.374
69.26
70.234
70.259
69.317
67.406
64.532
60.727
56.051
50.594
44.467
37.809
30.752
23.431
16
8.614
1.417
-5.472
-11.967
-17.999
-23.509
-28.439
-32.735
-36.37
-39.345
-41.667
-43.362
-44.502
-45.172
-45.483
-45.582
-45.582
-45.559
-45.595
-45.764
-46.153
-46.861
-47.996
-49.615
-51.795
-54.692
-58.32
-62.564
-67.121
-71.377
-74.716
-76.709
-76.84
-74.574
-69.917
-63.186
-55.167
-47.52
-41.603
-38.259
-38.588
-43.247
-51.634
-62.532
-73.645
-81.137
-81.768
-72.78
-50.916
-13.96
38.511
105.757
185.072
271.549
360.161
445.262
520.047
578.339
615.091
626.494
610.701
568.099
500.626
412.248
308.886
197.251
84.477
-22.66
-117.942
-196.325
-254.919
-293.039
-311.846
-313.979
-303.115
-283.233
-258.972
-234.893
-213.822
-197.19
-185.367
-177.7
-173.137
-170.514
-168.001
-163.612
-156.381
-146.084
-133.055
-118.152
-102.132
-85.663
-69.662
-55.109
-42.648
-32.614
-25.044
-19.718
-16.448
-15.089
-15.442
-17.286
-20.386
-24.499
-29.398
-34.897
-40.836
-47.039
-53.321
-59.469
-65.247
-70.487
-75.092
-79.013
-82.232
-84.74
-86.528
-87.62
-88.085
-88.01
-87.488
-86.608
-85.426
-84.01
-82.445
-80.834
-79.297
-77.917
-76.733
-75.764
-75.018
-74.498
-74.206
-74.122
-74.196
-74.384
-74.643
-74.938
-75.244
-75.526
-75.738
-75.831
-75.752
-75.459
-74.927
-74.134
-73.063
-71.7
-70.035
-68.067
-65.807
-63.26
-60.432
-57.324
-53.939
-50.282
-46.364
-42.198
-37.796
-33.17
-28.333
-23.3
-18.086
-12.709
-7.185
-1.53
4.241
10.106
16.047
22.04
28.063
34.091
40.1
46.067
51.966
57.774
63.467
69.022
74.419
79.636
84.655
89.455
94.022
98.339
102.392
106.168
109.655
112.845
115.729
118.3
120.553
122.483
124.09
125.371
126.328
126.963
127.281
127.285
126.985
126.387
125.502
124.341
122.916
121.241
119.33
117.198
114.863
112.341
109.649
106.804
103.825
100.729
97.533
94.255
90.911
87.517
84.088
80.639
77.185
73.739
70.314
66.923
63.575
60.284
57.058
53.907
50.839
47.862
44.983
42.207
39.54
36.986
34.547
32.227
30.026
27.946
25.986
24.146
22.424
20.817
19.323
17.939
16.66
15.483
14.404
13.419
12.523
11.714
10.987
10.339
9.767
9.267
8.835
8.469
8.165
7.921
7.733
7.598
7.514
7.478
7.487
7.539
7.631
7.761
7.927
8.127
8.359
8.621
8.91
9.226
9.567
9.931
10.318
10.727
11.155
11.602
12.067
12.547
13.041
13.546
14.061
14.582
15.107
15.634
16.159
16.681
17.196
17.702
18.196
18.676
19.139
19.582
20.004
20.402
20.773
21.116
21.428
21.708
21.954
22.165
22.338
22.473
22.567
22.62
22.631
22.597
22.519
22.397
22.229
22.016
21.758
21.457
21.113
20.728
20.302
19.838
19.337
18.8
18.229
17.625
16.992
16.329
15.641
14.928
14.193
13.438
12.666
11.879
11.079
10.269
9.452
8.63
7.806
6.984
6.165
5.354
4.553
3.766
2.995
2.243
1.511
0.803
0.121
-0.535
-1.163
-1.761
-2.328
-2.862
-3.363
-3.828
-4.256
-4.647
-5
-5.312
-5.585
-5.818
-6.01
-6.163
-6.275
-6.347
-6.382
-6.379
-6.341
-6.269
-6.166
-6.036
-5.88
-5.703
-5.51
-5.302
-5.085
-4.863
-4.638
-4.416
-4.199
-3.992
-3.798
-3.621
-3.465
-3.335
-3.234
-3.167
-3.138
-3.152
-3.212
-3.323
-3.487
-3.709
-3.991
-4.337
-4.748
-5.226
-5.772
-6.388
-7.072
-7.825
-8.642
-9.523
-10.463
-11.458
-12.503
-13.593
-14.721
-15.883
-17.07
-18.276
-19.495
-20.717
-21.935
-23.14
-24.323
-25.474
-26.581
-27.635
-28.624
-29.538
-30.364
-31.093
-31.712
-32.212
-32.581
-32.808
-32.886
-32.803
-32.553
-32.127
-31.52
-30.726
-29.743
-28.568
-27.201
-25.643
-23.895
-21.96
-19.842
-17.548
-15.081
-12.451
-9.666
-6.735
-3.672
-0.488
2.801
6.179
9.627
13.125
16.653
20.19
23.713
27.198
30.623
33.963
37.198
40.304
43.26
46.042
48.631
51.004
53.142
55.028
56.643
57.97
58.995
59.707
60.1
60.171
59.914
59.325
58.395
57.119
55.498
53.538
51.245
48.633
45.721
42.542
39.149
35.596
31.935
28.216
24.478
20.759
17.105
13.567
10.198
7.049
4.155
1.542
-0.762
-2.745
-4.416
-5.827
-7.085
-8.311
-9.616
-11.089
-12.787
-14.771
-17.132
-19.962
-23.345
-27.364
-32.04
-37.408
-43.585
-50.527
-58.042
-65.778
-73.068
-79.253
-83.869
-86.329
-85.996
-82.736
-76.657
-68.293
-58.991
-49.849
-41.601
-35.353
-31.932
-31.138
-32.28
-33.674
-32.241
-25.352
-10.596
15.095
54.096
107.356
174.732
254.2
341.583
432.293
520.843
600.379
664.173
706.268
721.904
708.223
664.759
593.036
496.931
382.603
257.545
130.024
8.066
-100.743
-190.187
-256.637
-299.025
-318.496
-318.126
-302.358
-276.107
-245.123
-215.005
-189.333
-170.024
-157.696
-151.675
-150.686
-153.231
-157.045
-159.707
-159.993
-157.509
-152.463
-145.657
-137.816
-129.555
-121.755
-115.301
-110.615
-107.807
-106.713
-106.933
-108.174
-110.206
-112.748
-115.54
-118.349
-120.975
-123.279
-125.174
-126.583
-127.454
-127.757
-127.477
-126.636
-125.282
-123.48
-121.313
-118.852
-116.166
-113.319
-110.369
-107.383
-104.434
-101.589
-98.908
-96.434
-94.189
-92.19
-90.446
-88.952
-87.693
-86.646
-85.779
-85.07
-84.499
-84.048
-83.699
-83.432
-83.224
-83.054
-82.901
-82.747
-82.575
-82.367
-82.108
-81.784
-81.385
-80.9
-80.319
-79.631
-78.825
-77.889
-76.811
-75.58
-74.187
-72.623
-70.88
-68.952
-66.835
-64.526
-62.023
-59.326
-56.436
-53.356
-50.089
-46.639
-43.012
-39.217
-35.261
-31.154
-26.907
-22.532
-18.041
-13.449
-8.771
-4.023
0.78
5.619
10.479
15.34
20.184
24.992
29.746
34.427
39.015
43.491
47.838
52.037
56.071
59.922
63.576
67.017
70.231
73.206
75.932
78.396
80.591
82.509
84.144
85.491
86.546
87.309
87.778
87.955
87.842
87.444
86.767
85.818
84.604
83.137
81.426
79.484
77.325
74.963
72.414
69.693
66.819
63.809
60.68
57.453
54.145
50.775
47.364
43.928
40.488
37.059
33.661
30.309
27.019
23.805
20.683
17.664
14.76
11.981
9.336
6.834
4.48
2.279
0.234
-1.651
-3.377
-4.944
-6.355
-7.611
-8.718
-9.681
-10.506
-11.201
-11.773
-12.232
-12.587
-12.847
-13.024
-13.127
-13.167
-13.155
-13.1
-13.014
-12.907
-12.787
-12.665
-12.548
-12.446
-12.365
-12.312
-12.293
-12.313
-12.377
-12.488
-12.647
-12.857
-13.118
-13.43
-13.79
-14.197
-14.648
-15.138
-15.664
-16.219
-16.8
-17.4
-18.013
-18.632
-19.253
-19.867
-20.47
-21.055
-21.616
-22.148
-22.645
-23.102
-23.516
-23.882
-24.197
-24.456
-24.658
-24.799
-24.879
-24.894
-24.845
-24.73
-24.55
-24.305
-23.998
-23.63
-23.203
-22.723
-22.191
-21.613
-20.992
-20.334
-19.644
-18.927
-18.187
-17.431
-16.663
-15.889
-15.112
-14.339
-13.572
-12.816
-12.075
-11.351
-10.647
-9.966
-9.31
-8.681
-8.082
-7.513
-6.977
-6.477
-6.012
-5.585
-5.197
-4.848
-4.538
-4.267
-4.034
-3.838
-3.678
-3.553
-3.46
-3.398
-3.365
-3.358
-3.376
-3.416
-3.475
-3.551
-3.641
-3.742
-3.852
-3.97
-4.093
-4.219
-4.348
-4.479
-4.611
-4.743
-4.872
-4.997
-5.116
-5.227
-5.328
-5.416
-5.49
-5.547
-5.587
-5.609
-5.613
-5.599
-5.565
-5.512
-5.439
-5.346
-5.233
-5.1
-4.947
-4.774
-4.584
-4.377
-4.156
-3.922
-3.677
-3.424
-3.164
-2.898
-2.628
-2.351
-2.069
-1.783
-1.492
-1.198
-0.901
-0.604
-0.312
-0.03
0.236
0.486
0.719
0.936
1.138
1.324
1.498
1.665
1.828
1.989
2.142
2.274
2.383
2.475
2.559
2.654
2.775
2.933
3.147
3.444
3.84
4.344
4.951
5.633
6.381
7.195
8.089
9.095
10.227
11.47
12.813
14.232
15.696
17.183
18.636
19.968
21.132
22.104
22.898
23.58
24.181
24.715
25.195
25.608
25.972
26.34
26.758
27.275
27.967
28.908
30.212
32.045
34.504
37.636
41.441
45.837
50.773
56.209
62.083
68.336
74.888
81.615
88.402
95.137
101.653
107.79
113.357
118.11
121.881
124.557
126.065
126.416
125.615
123.659
120.59
116.456
111.317
105.279
98.444
90.918
82.874
74.479
65.92
57.435
49.21
41.394
34.121
27.465
21.484
16.257
11.826
8.222
5.482
3.593
2.542
2.302
2.77
3.832
5.355
7.149
9.061
10.947
12.626
13.955
14.798
14.99
14.428
12.979
10.433
6.762
2.067
-3.433
-9.225
-14.809
-19.855
-23.79
-25.929
-26.086
-24.297
-21.029
-17.519
-14.614
-12.688
-12.505
-14.667
-18.844
-24.26
-29.068
-30.048
-24.742
-11.206
13.11
50.149
100.724
164.847
240.539
323.841
411.072
498.074
579.215
648.996
702.13
733.782
741.152
723.129
679.125
610.258
520.141
413.706
297.25
177.72
61.414
-45.588
-137.558
-210.345
-262.284
-293.777
-306.85
-304.434
-289.832
-267.185
-240.953
-214.983
-191.315
-170.309
-151.842
-135.842
-122.289
-110.539
-99.366
-87.638
-75.474
-64.136
-54.628
-47.193
-41.363
-36.827
-33.863
-32.872
-33.628
-35.21
-36.825
-38.307
-40.169
-42.889
-46.492
-50.741
-55.393
-60.458
-66.021
-71.917
-77.68
-82.862
-87.162
-90.464
-92.824
-94.268
-94.795
-94.472
-93.413
-91.752
-89.654
-87.251
-84.651
-81.984
-79.343
-76.8
-74.432
-72.293
-70.434
-68.896
-67.677
-66.754
-66.108
-65.72
-65.574
-65.653
-65.912
-66.299
-66.762
-67.25
-67.724
-68.155
-68.508
-68.757
-68.879
-68.858
-68.688
-68.373
-67.906
-67.28
-66.487
-65.519
-64.375
-63.056
-61.563
-59.898
-58.062
-56.058
-53.89
-51.563
-49.078
-46.44
-43.649
-40.711
-37.629
-34.413
-31.071
-27.616
-24.06
-20.417
-16.702
-12.93
-9.118
-5.281
-1.435
2.404
6.22
9.996
13.717
17.366
20.928
24.387
27.729
30.94
34.006
36.916
39.659
42.224
44.602
46.786
48.768
50.542
52.102
53.443
54.562
55.456
56.125
56.568
56.788
56.787
56.569
56.141
55.508
54.68
53.664
52.47
51.107
49.585
47.917
46.113
44.186
42.149
40.013
37.793
35.501
33.15
30.753
28.322
25.87
23.407
20.945
18.495
16.069
13.677
11.329
9.036
6.806
4.649
2.573
0.584
-1.311
-3.107
-4.801
-6.388
-7.867
-9.235
-10.492
-11.637
-12.671
-13.594
-14.409
-15.116
-15.721
-16.225
-16.633
-16.949
-17.178
-17.323
-17.39
-17.384
-17.307
-17.166
-16.965
-16.709
-16.402
-16.05
-15.659
-15.233
-14.779
-14.3
-13.803
-13.291
-12.769
-12.24
-11.707
-11.175
-10.646
-10.123
-9.608
-9.105
-8.617
-8.144
-7.69
-7.257
-6.845
-6.458
-6.096
-5.761
-5.455
-5.179
-4.937
-4.729
-4.559
-4.429
-4.342
-4.299
-4.303
-4.356
-4.46
-4.617
-4.828
-5.096
-5.422
-5.808
-6.257
-6.77
-7.35
-7.998
-8.717
-9.507
-10.369
-11.303
-12.312
-13.393
-14.548
-15.776
-17.077
-18.449
-19.891
-21.401
-22.977
-24.616
-26.315
-28.07
-29.877
-31.731
-33.627
-35.56
-37.525
-39.518
-41.531
-43.56
-45.599
-47.642
-49.681
-51.711
-53.725
-55.715
-57.674
-59.597
-61.476
-63.306
-65.08
-66.793
-68.439
-70.014
-71.512
-72.929
-74.262
-75.506
-76.659
-77.718
-78.681
-79.547
-80.315
-80.986
-81.56
-82.037
-82.419
-82.708
-82.905
-83.014
-83.036
-82.976
-82.838
-82.626
-82.345
-82.001
-81.601
-81.149
-80.654
-80.122
-79.56
-78.975
-78.376
-77.768
-77.159
-76.557
-75.97
-75.404
-74.867
-74.366
-73.907
-73.497
-73.142
-72.847
-72.618
-72.459
-72.375
-72.371
-72.449
-72.613
-72.867
-73.214
-73.655
-74.192
-74.826
-75.556
-76.384
-77.306
-78.321
-79.427
-80.619
-81.894
-83.247
-84.672
-86.163
-87.715
-89.319
-90.967
-92.652
-94.363
-96.091
-97.827
-99.561
-101.281
-102.977
-104.639
-106.255
-107.816
-109.309
-110.723
-112.047
-113.27
-114.379
-115.363
-116.211
-116.912
-117.455
-117.831
-118.031
-118.047
-117.87
-117.494
-116.914
-116.124
-115.121
-113.903
-112.467
-110.813
-108.943
-106.861
-104.57
-102.076
-99.385
-96.507
-93.451
-90.228
-86.85
-83.33
-79.683
-75.925
-72.072
-68.143
-64.158
-60.137
-56.103
-52.08
-48.093
-44.168
-40.33
-36.607
-33.024
-29.609
-26.386
-23.38
-20.612
-18.106
-15.882
-13.961
-12.364
-11.108
-10.212
-9.69
-9.556
-9.821
-10.493
-11.57
-13.054
-14.943
-17.235
-19.936
-23.047
-26.56
-30.468
-34.758
-39.41
-44.398
-49.681
-55.198
-60.893
-66.708
-72.589
-78.496
-84.383
-90.191
-95.864
-101.335
-106.54
-111.443
-116.007
-120.188
-123.969
-127.36
-130.424
-133.269
-136.003
-138.704
-141.428
-144.232
-147.207
-150.467
-154.125
-158.287
-163.007
-168.34
-174.415
-181.229
-188.629
-196.298
-203.627
-210.01
-215.045
-218.243
-219.062
-217.417
-213.439
-207.628
-201.212
-195.096
-189.752
-185.963
-184.25
-184.193
-184.986
-184.972
-181.299
-171.757
-154.476
-127.003
-87.553
-35.604
28.461
102.582
182.968
265.845
346.706
419.747
479.308
520.306
538.657
532.06
499.906
442.647
362.823
265.22
155.865
41.671
-70.555
-174.611
-264.902
-336.934
-388.428
-419.386
-431.572
-428.207
-413.076
-390.336
-364.497
-339.662
-318.511
-302.259
-291
-283.973
-280.093
-278.009
-275.999
-272.406
-266.37
-257.822
-247.184
-235.197
-222.602
-210.098
-198.503
-188.649
-180.99
-175.619
-172.425
-171.112
-171.413
-173.132
-176.005
-179.709
-183.967
-188.522
-193.146
-197.695
-202.002
-205.861
-209.107
-211.586
-213.192
-213.898
-213.702
-212.607
-210.643
-207.846
-204.27
-200.009
-195.157
-189.805
-184.056
-177.995
-171.715
-165.333
-158.941
-152.614
-146.406
-140.34
-134.422
-128.665
-123.067
-117.614
-112.291
-107.07
-101.926
-96.843
-91.798
-86.768
-81.723
-76.624
-71.442
-66.157
-60.756
-55.233
-49.585
-43.807
-37.902
-31.879
-25.744
-19.506
-13.168
-6.732
-0.202
6.416
13.113
19.879
26.705
33.584
40.505
47.461
54.441
61.434
68.432
75.427
82.409
89.365
96.282
103.147
109.945
116.662
123.284
129.795
136.179
142.423
148.511
154.431
160.169
165.71
171.041
176.149
181.023
185.648
190.015
194.111
197.926
201.452
204.681
207.605
210.218
212.517
214.497
216.156
217.495
218.513
219.212
219.596
219.669
219.436
218.905
218.084
216.982
215.609
213.976
212.096
209.982
207.647
205.105
202.371
199.46
196.388
193.172
189.827
186.372
182.823
179.198
175.514
171.789
168.038
164.279
160.528
156.798
153.106
149.463
145.884
142.38
138.963
135.641
132.425
129.322
126.339
123.482
120.755
118.163
115.708
113.392
111.217
109.183
107.29
105.537
103.924
102.447
101.106
99.895
98.813
97.854
97.015
96.291
95.677
95.169
94.761
94.451
94.233
94.103
94.058
94.093
94.207
94.394
94.653
94.981
95.375
95.835
96.36
96.95
97.604
98.323
99.108
99.959
100.879
101.866
102.922
104.046
105.239
106.501
107.832
109.231
110.699
112.234
113.836
115.505
117.238
119.034
120.89
122.804
124.773
126.794
128.863
130.978
133.136
135.336
137.574
139.849
142.156
144.49
146.848
149.224
151.61
153.998
156.38
158.749
161.1
163.43
165.735
168.014
170.265
172.491
174.691
176.87
179.029
181.163
183.272
185.357
187.42
189.473
191.517
193.551
195.57
197.569
199.539
201.474
203.352
205.142
206.818
208.356
209.745
210.994
212.107
213.084
213.931
214.649
215.255
215.786
216.27
216.726
217.184
217.671
218.237
218.962
219.904
221.101
222.573
224.302
226.276
228.486
230.904
233.497
236.208
238.958
241.685
244.351
246.903
249.282
251.406
253.156
254.443
255.219
255.455
255.153
254.318
252.953
251.077
248.738
245.988
242.887
239.477
235.777
231.821
227.675
223.424
219.182
215.047
211.079
207.33
203.847
200.665
197.821
195.357
193.301
191.7
190.641
190.224
190.565
191.778
193.927
197.055
201.204
206.408
212.709
220.157
228.787
238.647
249.803
262.289
276.107
291.213
307.477
324.747
342.859
361.619
380.866
400.447
420.179
439.891
459.428
478.611
497.254
515.154
532.047
547.71
561.983
574.753
585.99
595.688
603.837
610.472
615.64
619.382
621.775
622.881
622.731
621.394
618.978
615.614
611.5
606.812
601.648
596.091
590.197
584.016
577.626
571.068
564.352
557.503
550.546
543.541
536.589
529.747
523.034
516.461
510.012
503.705
497.615
491.801
486.298
481.125
476.277
471.776
467.67
463.981
460.695
457.759
455.092
452.663
450.457
448.435
446.545
444.674
442.696
440.523
438.106
435.419
432.439
429.12
425.408
421.283
416.756
411.868
406.662
401.129
395.274
389.146
382.828
376.476
370.23
364.178
358.392
352.925
347.836
343.202
339.094
335.547
332.584
330.203
328.407
327.239
326.7
326.74
327.265
328.105
329.103
330.134
331.062
331.752
332.063
331.847
330.994
329.426
327.052
323.805
319.617
314.397
308.163
300.945
292.754
283.791
274.349
264.854
256.031
248.614
243.159
240.324
240.718
244.469
251.485
261.043
271.491
281.244
288.949
293.182
293.036
288.506
280.079
269.628
260.723
257.038
262.007
278.845
309.939
356.056
416.58
489.139
566.671
640.89
706.162
755.052
784.176
791.858
767.86
706.149
603.087
457.62
282.761
90.374
-110.797
-312.93
-512.125
-697.427
-852.324
-961.707
-1018.142
-1029.308
-1014.136
-990.845
-971.929
-960.135
-947.162
-927.608
-898.478
-857.593
-811.373
-763.929
-716.607
-672.997
-631.647
-590.414
-550.223
-511.348
-474.272
-439.85
-406.973
-373.318
-337.945
-300.691
-261.273
-219.89
-176.801
-132.141
-86.997
-43.15
-1.599
37.196
73.04
106.176
136.74
164.772
190.664
215.061
238.444
261.122
283.244
304.812
325.905
346.704
367.388
388.056
408.764
429.584
450.568
471.798
493.381
515.349
537.712
560.478
583.611
607.071
630.825
654.75
678.671
702.37
725.529
747.865
769.164
789.184
807.747
824.698
839.806
852.918
863.956
872.674
878.74
881.718
880.929
875.851
866.208
851.661
832.069
807.736
779.178
747.39
713.886
679.793
645.956
613.271
581.877
551.015
519.394
484.756
444.139
395.143
335.502
262.905
176.611
77.461
-32.556
-149.836
-269.825
-388.233
-500.34
-601.021
-686.922
-756.41
-809.128
-846.539
-871.057
-885.124
-892.064
-896.034
-900.08
-906.367
-916.592
-931.232
-950.339
-974.214
-1002.583
-1034.518
-1069.555
-1107.084
-1146.012
-1185.823
-1225.964
-1265.25
-1302.782
-1338.066
-1370.268
-1399.382
-1426.723
-1453.34
-1482.761
-1521.821
-1576.466
-1652.405
-1751.023
-1866.747
-1995.001
-2133.59
-2283.053
-2444.8
-2617.903
-2795.386
-2977.836
-3205.182
-3472.015
-3637.741
-3643.522
-3747.804
-4124.836
-4196.548
-4403.965
-11.942
34.139
-15.435
53.386
-29.856
61.741
108.728
43.103
-32.819
-37.57
1.879
34.731
35.744
-1.945
-68.469
-147.525
