Name,Criss Capps
Date of Birth,"Feb 5, 1952"
Recorded Date,2020-09-06 13:33:22 -0400
Classification,Poor Recording
Symptoms,
Software Version,1.90
Device,"Watch5,4"
Sample Rate,512.844 hertz


Lead,Lead I
Unit,µV

-1184.492
-1227.223
-1333.237
-1388.296
-1461.777
-1463.349
-1394.249
-1313.683
-1234.777
-1158.665
-1092.66
-1037.535
-992.908
-953.347
-912.386
-870.209
-832.281
-812.254
-822.099
-866.164
-943.549
-1040.667
-1139.74
-1224.206
-1275.792
-1285.631
-1253.866
-1187.348
-1100.312
-1007.468
-921.367
-848.084
-788.091
-738.358
-692.238
-648.055
-609.621
-581.501
-568.326
-568.107
-568.925
-557.625
-525.526
-472.563
-412.55
-365.435
-348.873
-372.257
-431.852
-516.095
-611.864
-710.327
-806.882
-896.702
-972.736
-1025.59
-1049.686
-1046.767
-1024.925
-994.261
-961.141
-927.035
-889.911
-848.87
-805.342
-762.175
-723.799
-693.124
-671.214
-658.582
-654.558
-658.146
-669.498
-689.17
-716.737
-751.241
-790.932
-833.543
-877.713
-921.976
-963.443
-998.217
-1022.47
-1034.477
-1035.223
-1025.513
-1005.241
-971.38
-918.077
-844.906
-755.819
-660.405
-576.734
-517.216
-486.98
-483.899
-491.084
-492.311
-480.279
-452.75
-419.181
-391.873
-372.765
-359.582
-349.329
-337.154
-327.245
-332.052
-357.197
-405.506
-474.894
-550.352
-618.15
-667.535
-685.739
-667.146
-612.457
-522.391
-402.7
-265.045
-119.07
21.828
141.037
231.238
289.481
320.161
337.335
349.054
357.927
361.714
352.26
327.149
288.654
241.588
193.282
146.526
102.916
63.382
27.175
-2.325
-20.969
-23.442
-3.335
40.44
103.352
174.998
243.33
298.97
338.473
367.269
391.996
419.109
453.333
489.743
521.576
542.282
543.659
527.039
498.664
466.913
445.557
441.965
457.63
490.25
530.681
572.725
614.741
654.612
691.871
724.068
744.643
752.377
751.266
746.068
744.386
748.797
754.851
759.875
762.525
763.956
769.324
780.755
796.191
813.77
833.297
858.098
893.148
938.583
986.829
1024.517
1039.907
1028.421
993.333
943.852
887.917
831.167
779.693
740.568
722.135
729.744
762.08
810.855
865.933
920.399
971.2
1019.358
1065.213
1105.995
1138.052
1157.455
1161.984
1152.179
1130.113
1098.752
1061.683
1022.574
984.638
950.877
924.031
905.984
897.934
899.902
910.83
929.196
952.925
979.702
1005.814
1027.164
1041.291
1045.736
1041.003
1028.992
1007.252
975.018
929.438
864.487
782.578
688.141
590.475
508.177
453.123
430.251
437.565
462.102
493.232
526.934
562.809
605.015
656
714.505
776.801
836.766
889.843
932.483
965.653
995.452
1023.096
1046.971
1059.141
1042.864
990.965
901.799
778.886
641.709
506.41
389.798
312.284
276.197
278.985
313.038
360.304
414.161
470.088
521.562
568.785
606.229
631.384
649.608
663.682
679.57
700.698
724.43
750.924
779.787
810.735
846.403
887.486
932.63
980.281
1027.279
1069.584
1104.764
1130.894
1145.513
1147.186
1135.583
1110.747
1075.58
1034.511
989.565
944.104
900.399
859.98
830.025
815.966
822.826
855.378
909.513
980.252
1062.071
1147.199
1233.216
1317.444
1395.557
1464.453
1518.843
1554.813
1570.949
1567.217
1546.804
1512.379
1465.908
1408.932
1340.77
1265.893
1193.573
1133.25
1095.535
1081.917
1084.733
1097.333
1112.191
1126.626
1144.406
1166.222
1191.362
1218.94
1244.898
1264.766
1276.765
1279.952
1275.035
1266.335
1253.806
1232.484
1195.669
1134.344
1046.6
937.894
819.117
705.768
608.108
532.936
480.786
444.17
418.395
399.396
386.041
384.096
396.928
424.869
467.206
518.632
572.566
625.808
675.604
722.344
770.77
820.34
865.673
894.652
888.663
838.473
745.852
623.927
495.382
375.597
272.19
187.444
118.1
65.839
34.577
25.706
41.377
80.275
141.062
225.98
332.592
454.376
579.192
688.097
768.285
814.327
827.662
819.31
799.43
777.409
763.846
762.616
773.805
793.574
812.442
826.142
835.912
843.551
850.866
851.18
831.913
783.615
703.316
600.772
493.911
401.576
337.659
304.209
294.489
296.432
299.699
301.086
301.979
306.931
318.137
333.783
351.075
366.65
378.786
387.528
393.082
395.935
396.916
396.696
395.681
394.4
392.894
390.837
388.428
384.754
378.552
370.208
359.099
346.562
334.568
320.851
304.345
281.216
248.04
208.104
164.362
125.04
97.969
84.997
88.538
103.799
124.687
147.929
168.153
185.013
199.363
210.476
219.225
224.913
227.147
227.644
228.126
229.929
233.97
238.554
241.372
242.206
239.337
232.805
223.045
205.042
176.336
134.719
77.535
10.987
-58.517
-124.867
-179.841
-222.298
-252.731
-270.896
-278.063
-272.897
-254.833
-225.788
-188.427
-146.176
-101.348
-56.03
-14.127
20.373
45.467
62.868
77.581
92.372
102.974
98.495
68.485
9.393
-72.61
-162.331
-245.578
-314.055
-364.221
-398.214
-418.408
-424.173
-414.158
-387.089
-342.983
-285.34
-221.153
-156.967
-97.171
-42.904
7.555
54.636
95.066
119.572
118.99
87.489
23.631
-60.628
-149.146
-225.066
-269.982
-279.764
-259.39
-219.012
-176.024
-140.191
-113.985
-95.899
-79.05
-60.652
-42.085
-27.216
-21.481
-25.294
-37.366
-54.59
-73.878
-98.728
-131.263
-173.185
-225.868
-282.421
-337.23
-385.445
-420.447
-442.205
-450.821
-446.39
-432.307
-409
-376.975
-337.536
-289.791
-236.2
-181.183
-128.312
-84.245
-50.933
-23.589
2.572
37.928
90.267
154.999
223.068
277.263
295.586
267.391
191.121
72.458
-71.081
-221.066
-362.577
-478.395
-558.167
-599.67
-603.341
-578.159
-535.155
-482.637
-430.101
-382.964
-344.153
-313.899
-287.359
-261.001
-232.417
-202.537
-176.067
-154.986
-140.093
-131.006
-125.76
-124.378
-127.472
-135.009
-147.948
-167.717
-195.074
-230.427
-273.211
-321.503
-373.5
-427.811
-482.157
-533.377
-578.487
-614.386
-638.856
-650.504
-646.711
-626.552
-591.292
-544.302
-493.701
-444.324
-395.049
-343.164
-279.302
-198.152
-108.255
-21.403
41.811
60.306
32.206
-37.619
-135.424
-242.002
-353.84
-469.275
-586.088
-701.587
-797.923
-860.386
-882.903
-865.573
-826.344
-783.01
-745.305
-720.204
-699.928
-672.495
-632.616
-575.074
-503.593
-427.407
-349.169
-271.899
-195.232
-116.122
-40.127
27.05
79.234
109.337
119.679
113.231
92.287
60.834
17.58
-37.753
-102.887
-176.194
-253.676
-331.782
-408.038
-478.539
-540.091
-590.273
-626.732
-648.596
-655.472
-646.437
-621.517
-582.534
-532.022
-473.199
-409.91
-344.909
-280.673
-220.66
-168.178
-125.65
-94.989
-77.155
-71.884
-79.408
-100.236
-133.554
-177.765
-230.792
-289.809
-352.113
-415.581
-477.192
-533.095
-580.145
-615.29
-636.129
-641.911
-631.684
-605.784
-567.602
-519.12
-461.806
-397.196
-322.106
-239.11
-159.462
-92.937
-54.044
-50.413
-70.805
-104.264
-137.095
-155.61
-166.529
-180.497
-207.515
-263.452
-347.61
-446.698
-545.79
-621.276
-659.104
-661.365
-635.273
-596.366
-558.535
-526.144
-500.189
-477.912
-456.447
-436.466
-420.405
-411.638
-411.583
-419.485
-433.425
-450.208
-467.716
-485.175
-501.124
-515.216
-529.137
-542.256
-553.333
-560.865
-560.09
-552.485
-545.458
-545.9
-562.494
-595.607
-636.487
-677.141
-709.077
-729.1
-740.395
-744.862
-744.093
-738.001
-724.317
-703.064
-675.411
-643.078
-608.637
-573.114
-536.97
-501.112
-465.834
-431.074
-397.082
-363.968
-332.465
-304.788
-282.653
-267.145
-259.679
-261.497
-273.584
-296.514
-329.139
-368.491
-411.942
-457.238
-501.802
-543.155
-578.458
-605.004
-621.882
-629.88
-629.933
-623.022
-610.349
-592.866
-572.091
-550.052
-527.724
-505.199
-482.413
-459.049
-435.134
-411.863
-390.687
-372.608
-359.165
-352.137
-353.239
-364.644
-388.002
-421.844
-463.425
-511.32
-562.453
-615.989
-671.081
-719.777
-755.747
-773.049
-766.087
-739.005
-696.217
-641.002
-579.024
-511.182
-438.602
-364.278
-289.515
-217.079
-149.676
-88.932
-36.374
7.68
43.432
70.989
90.757
103.06
108.095
106.528
99.12
86.222
68.454
46.524
20.425
-9.699
-43.13
-79.224
-116.983
-154.776
-191.535
-226.376
-257.503
-283.461
-303.516
-317.061
-324.44
-326.869
-325.102
-320.02
-313.196
-305.765
-298.502
-292.128
-286.409
-280.479
-273.534
-264.126
-250.552
-231.806
-208.099
-180.873
-151.906
-122.183
-89.707
-51.592
-8.388
34.384
64.274
67.58
37.81
-21.558
-97.343
-175.002
-245.586
-307.228
-363.127
-414.296
-458.374
-491.571
-509.712
-511.14
-496.226
-465.491
-420.221
-364.072
-301.118
-233.725
-164.894
-95.111
-24.792
39.018
90.932
125.564
137.379
130.639
109.828
79.207
45.629
10.014
-26.386
-60.305
-89.711
-110.55
-120.019
-117.916
-104.561
-81.592
-51.161
-15.638
21.379
56.514
87.816
114.117
134.824
149.698
158.009
159.754
156.727
150.908
143.636
135.587
127.17
119.283
113.915
113.006
116.994
125.575
138.337
155.337
175.249
194.482
209.083
215.701
215.675
214.735
215.853
215.189
201.503
159.719
79.033
-37.985
-174.994
-309.38
-415.903
-477.142
-491.225
-463.096
-405.334
-335.022
-262.427
-197.823
-148.63
-113.412
-88.704
-66.334
-37.445
0.53
46.381
96.239
147.824
200.414
252.64
303.591
349.736
390.847
432.732
475.489
515.836
543.195
535.258
480.296
375.719
225.91
53.1
-121.377
-278.872
-397.897
-468.849
-491.173
-468.017
-410.741
-333.069
-244.852
-157.427
-83.605
-31.211
-4.246
-0.917
-9.398
-16.516
-14.531
0.029
23.431
49.101
75.526
103.948
135.127
168.592
201.204
229.067
253.361
278.141
303.365
324.442
331.216
311.676
262.222
186.916
94.453
-1.276
-89.528
-161.304
-205.2
-216.818
-192.882
-132.944
-49.8
44.186
134.051
202.056
245.35
266.657
272.984
278.3
288.358
303.303
321.345
336.44
345.68
349.712
350.093
349.759
350.02
350.298
349.437
345.898
339.185
329.427
316.495
300.629
282.267
261.777
240.258
217.949
193.52
168.058
143.89
124.555
116.316
118.903
126.671
133.879
132.152
121.203
108.787
100.679
103.128
116.649
134.888
153.857
170.944
185.49
199.826
215.254
232.298
251.689
273.51
296.811
319.218
338.067
352.411
365.416
381.936
404.289
429.601
445.059
436.237
395.083
321.422
231.905
149.393
90.726
67.305
73.945
95.864
124.025
152.583
185.927
234.732
299.856
374.358
442.826
486.682
497.832
479.16
443.05
404.17
370.912
345.139
323.532
303.473
286.497
276.3
276.532
288.247
309.998
339.257
373.929
412.816
454.081
495.685
536.424
575.421
612.403
647.522
679.294
705.471
724.725
735.865
739.29
736.633
728.658
713.374
690.244
665.273
623.133
539.972
464.365
457.215
473.145
458.583
438.351
428.793
418.571
409.936
408.014
414.408
430.161
453.367
483.262
520.125
561.756
605.921
651.661
695.77
736.33
771.631
794.469
799.386
780.522
733.67
665.934
584.223
496.088
407.688
313.715
213.715
112.304
18.262
-48.249
-74.163
-55.591
2.807
81.035
159.247
221.027
256.256
268.908
267.397
262.59
264.094
273.922
291.167
312.363
333.64
354.497
375.91
399.5
426.468
456.033
486.179
515.15
542.027
566.485
588.524
607.981
624.323
637.329
647.194
654.061
658.056
659.189
657.287
652.317
644.405
633.676
620.277
604.387
586.178
565.907
543.931
520.633
496.427
471.719
446.873
422.251
398.22
375.158
353.444
333.425
315.403
299.571
286.069
275.053
266.517
260.309
256.147
253.457
251.655
250.431
249.456
248.387
247.213
245.829
244.186
242.852
242.184
241.968
241.99
241.529
239.178
233.979
224.914
210.158
188.31
158.469
119.867
73.105
19.901
-38.371
-99.918
-162.085
-222.343
-277.914
-326.089
-365.729
-396.733
-419.018
-433.116
-440.122
-441.384
-439.048
-435.272
-431.225
-427.532
-424.591
-422.449
-421.097
-420.31
-419.351
-417.664
-415.154
-411.992
-408.803
-406.345
-404.966
-405.216
-407.897
-413.176
-422.207
-435.828
-452.325
-471.035
-489.517
-504.805
-519.938
-536.906
-558.941
-590.761
-628.782
-669.497
-709.681
-744.295
-775.113
-804.081
-830.955
-856.255
-877.624
-893.111
-903.294
-908.99
-911.074
-910.291
-906.943
-901.656
-895.608
-889.619
-883.738
-877.45
-870.416
-862.718
-854.562
-846.032
-836.782
-826.419
-815.075
-803.419
-792.121
-781.481
-771.661
-762.887
-755.769
-751.101
-749.079
-749.097
-750.179
-751.637
-752.982
-753.688
-752.872
-749.386
-742.733
-733.436
-722.643
-711.306
-700.065
-689.428
-680.126
-673.246
-669.439
-668.594
-670.107
-673.365
-678.011
-684.099
-691.625
-699.973
-708.761
-717.966
-727.147
-737.259
-749.318
-761.537
-773.047
-781.226
-781.583
-776.417
-769.167
-763.462
-766.469
-776.741
-787.056
-792.51
-785.535
-764.497
-736.633
-706.343
-678.084
-655.144
-634.125
-613.127
-591.733
-568.57
-544.936
-522.702
-503.244
-487.738
-475.062
-460.32
-437.513
-402.694
-356.894
-310.197
-274.815
-260.96
-274.318
-306.849
-347.168
-383.57
-402.007
-400.203
-378.992
-341.143
-299.463
-263.612
-243.156
-245.936
-267.697
-299.518
-329.195
-345.81
-347.139
-336.775
-321.96
-308.693
-298.84
-291.773
-285.325
-278.356
-271.089
-263.817
-256.865
-250.19
-243.466
-236.618
-229.739
-222.886
-216.141
-209.596
-203.33
-197.44
-192.006
-187.037
-182.51
-178.408
-174.712
-171.398
-168.443
-165.804
-163.435
-161.291
-159.319
-157.458
-155.651
-153.826
-151.915
-149.863
-147.616
-145.132
-142.375
-139.303
-135.88
-132.082
-127.893
-123.317
-118.38
-113.111
-107.566
-101.822
-95.969
-90.116
-84.386
-78.889
-73.736
-69.05
-64.945
-61.534
-58.925
-57.198
-56.414
-56.598
-57.73
-59.766
-62.622
-66.177
-70.308
-74.849
-79.591
-84.315
-88.753
-92.604
-95.609
-97.461
-97.808
-96.436
-93.243
-88.266
-81.794
-74.063
-65.175
-55.348
-44.733
-33.115
-20.104
-4.969
13.443
35.867
62.638
94.078
129.871
168.852
209.468
249.464
285.937
316.585
339.443
352.57
355.299
348.237
332.642
310.841
286.032
261.221
239.826
225.685
221.396
228.413
247.452
278.138
319.256
369.136
424.895
482.674
539.081
591.21
636.78
674.254
702.624
721.561
731.937
735.605
734.651
731.198
726.871
722.844
719.997
718.707
718.748
719.372
719.475
717.8
713.477
705.969
694.974
680.508
662.753
642.044
618.947
594.158
568.223
541.549
514.458
487.139
459.803
432.702
406.039
379.983
354.724
330.442
307.312
285.516
265.191
246.41
229.202
213.534
199.332
186.513
174.972
164.606
155.295
146.888
139.222
132.142
125.504
119.187
113.085
107.084
101.073
94.953
88.663
82.209
75.646
69.056
62.507
56.013
49.564
43.177
36.912
30.827
24.874
18.914
12.882
6.846
1.094
-3.927
-7.987
-11.05
-12.92
-13.736
-14.042
-14.143
-15.011
-17.164
-19.568
-23.046
-29.226
-40.364
-60.802
-88.839
-117.427
-138.61
-142.216
-127.125
-101.163
-71.973
-48.784
-34.17
-23.797
-16.273
-10.95
-8.838
-13.147
-23.751
-38.405
-55.823
-74.523
-93.13
-111.193
-127.982
-142.72
-156.369
-169.926
-182.166
-193.573
-206.223
-222.43
-248.643
-287.163
-330.964
-371.389
-396.21
-397.163
-382.322
-364.785
-357.93
-373.54
-407.024
-445.372
-478.879
-498.562
-504.48
-504.083
-500.688
-495.839
-489.365
-478.063
-460.837
-438.409
-411.145
-379.82
-345.318
-308.597
-271.098
-234.792
-201.82
-173.841
-152.4
-139.009
-134.786
-140.378
-155.519
-178.622
-207.062
-238.18
-269.291
-297.694
-321.067
-337.305
-345.153
-344.78
-337.513
-325.069
-309.463
-292.844
-276.995
-263.652
-254.077
-248.611
-246.99
-248.649
-252.722
-258.251
-264.59
-271.137
-277.492
-283.654
-289.739
-295.943
-302.572
-309.897
-317.984
-326.805
-336.221
-345.944
-355.669
-365.061
-373.751
-381.398
-387.716
-392.484
-395.52
-396.688
-395.873
-392.99
-388.018
-380.982
-371.938
-360.963
-348.146
-333.615
-317.576
-300.3
-282.086
-263.235
-244.022
-224.682
-205.492
-186.772
-168.736
-151.447
-134.785
-118.566
-102.788
-87.711
-73.612
-60.532
-48.514
-37.763
-28.786
-22.215
-18.18
-16.066
-14.908
-14.04
-12.966
-11.114
-7.599
-1.283
8.384
20.941
35.298
50.566
66.145
81.523
96.011
108.587
118.571
126.033
131.579
135.73
138.724
140.624
141.507
141.704
141.512
140.932
139.736
137.739
134.944
131.515
127.702
123.661
119.492
115.358
111.463
108.025
105.224
103.163
101.875
101.372
101.658
102.718
104.525
106.998
110.01
113.405
117.02
120.723
124.423
128.039
131.516
134.806
137.867
140.682
143.259
145.615
147.796
149.883
151.976
154.194
156.673
159.546
163.005
167.288
172.537
178.73
185.649
193.012
200.685
208.764
217.398
226.501
235.968
245.989
257.148
270.243
285.781
303.467
322.33
341.638
360.775
378.728
394.189
405.462
410.942
410.328
404.718
395.297
383.414
370.92
359.512
351.245
348.444
352.152
361.977
377.178
396.424
417.853
440.142
461.847
481.168
497.141
509.579
518.542
524.742
529.256
532.619
535.307
537.955
540.804
543.958
547.493
551.124
554.474
557.474
560.145
562.552
564.925
567.436
570.239
573.603
577.762
582.867
589.035
596.304
604.669
614.147
624.727
636.371
649.039
662.651
677.116
692.344
708.214
724.601
741.388
758.46
775.737
793.17
810.711
828.319
845.962
863.603
881.223
898.812
916.338
933.77
951.078
968.236
985.238
1002.069
1018.681
1034.982
1050.849
1066.134
1080.687
1094.367
1107.027
1118.529
1128.74
1137.553
1144.901
1150.758
1155.125
1158.017
1159.475
1159.594
1158.528
1156.513
1153.825
1150.756
1147.633
1144.811
1142.669
1141.608
1142.012
1144.209
1148.537
1155.348
1164.839
1177.053
1191.814
1208.667
1227.134
1246.791
1267.092
1287.34
1307.021
1325.942
1344.39
1363.197
1382.96
1403.74
1425.396
1447.75
1470.331
1491.924
1510.225
1521.86
1523.648
1513.35
1489.308
1450.098
1394.526
1322.465
1235.619
1137.489
1032.132
923.132
813.826
707.748
608.894
520.738
445.01
381.653
329.62
287.744
254.731
228.782
207.158
186.919
166.195
144.232
121.008
96.752
71.686
46.252
21.501
-1.237
-21.187
-38.155
-52.354
-64.227
-74.124
-82.333
-89.295
-95.531
-101.324
-106.72
-111.634
-115.823
-119.029
-121.175
-122.26
-122.362
-121.775
-120.779
-119.505
-118.085
-116.651
-114.953
-112.564
-108.933
-103.092
-94.321
-82.381
-67.286
-49.509
-30.332
-11.458
5.279
17.462
22.99
20.476
8.973
-11.473
-39.547
-73.143
-109.904
-146.796
-180.807
-209.571
-230.999
-243.955
-248.615
-245.991
-237.472
-225.126
-211.29
-197.83
-186.575
-178.892
-175.185
-175.336
-178.882
-184.76
-191.734
-199.1
-206.332
-212.981
-219.266
-225.985
-234.023
-244.641
-259.299
-277.396
-297.816
-321.316
-346.921
-375.407
-408.009
-439.239
-465.117
-481.36
-483.124
-474.99
-461.715
-447.402
-437.567
-431.023
-426.261
-423.411
-421.098
-420.237
-421.431
-423.432
-425.699
-427.632
-428.604
-428.658
-427.691
-425.331
-421.687
-417.269
-412.461
-407.523
-402.616
-397.826
-393.784
-391.768
-392.569
-396.176
-402.067
-409.355
-417.241
-424.943
-430.879
-432.517
-427.812
-415.911
-397.123
-372.708
-344.04
-312.64
-281.051
-253.015
-232.037
-220.583
-219.957
-230.259
-251.197
-281.982
-320.533
-363.392
-406.939
-447.855
-483.252
-511.104
-529.764
-538.51
-537.929
-529.556
-515.456
-496.788
-474.883
-452.433
-430.884
-412.956
-400.573
-389.509
-376.848
-358.48
-329.374
-293.481
-254.947
-218.06
-189.375
-169.029
-155.906
-149.562
-149.556
-158.076
-177.969
-211.951
-256.687
-303.841
-344.629
-368.228
-372.576
-364.546
-349.897
-336.194
-326.051
-314.758
-300.782
-284.244
-265.925
-249.378
-237.046
-229.342
-226.786
-230.201
-238.575
-249.314
-262.051
-277.101
-295.792
-322.853
-356.884
-390.682
-417.803
-429.736
-425.697
-413.991
-401.38
-394.627
-395.269
-397.938
-399.159
-396.585
-389.476
-379.91
-368.674
-355.641
-340.967
-324.446
-306.276
-287.039
-267.081
-246.68
-226.167
-205.816
-185.81
-166.256
-147.188
-128.614
-110.592
-93.188
-76.431
-60.312
-44.815
-29.936
-15.682
-2.067
10.916
23.281
35.014
46.067
56.334
65.658
73.86
80.766
86.147
89.726
91.33
90.894
88.498
84.419
78.851
71.858
63.611
54.263
43.712
31.681
17.546
0.422
-20.031
-43.635
-70.2
-99.165
-129.577
-160.242
-189.137
-213.892
-233.11
-246.067
-252.115
-251.13
-243.052
-227.917
-207.186
-182.839
-156.054
-127.728
-98.872
-70.509
-44.637
-23.722
-8.719
-0.088
1.394
-4.948
-19.878
-43.472
-73.917
-108.418
-145.076
-182.125
-217.86
-250.587
-277.667
-297.108
-308.664
-312.877
-310.243
-301.531
-287.185
-267.79
-245.594
-222.775
-200.78
-181.071
-164.565
-151.719
-143.529
-140.93
-143.404
-150.146
-160.156
-171.808
-184.188
-196.855
-208.872
-219.284
-227.798
-234.305
-239.168
-243.367
-247.326
-251.1
-254.937
-259.02
-263.444
-268.314
-273.429
-278.292
-282.658
-286.464
-289.683
-292.413
-294.709
-296.579
-298.133
-299.527
-300.882
-302.278
-303.72
-305.134
-306.439
-307.542
-308.338
-308.722
-308.563
-307.716
-306.044
-303.407
-299.674
-294.715
-288.397
-280.593
-271.198
-260.129
-247.356
-232.895
-216.796
-199.146
-180.066
-159.702
-138.238
-115.886
-92.865
-69.403
-45.74
-22.127
1.173
23.894
45.784
66.619
86.211
104.41
121.098
136.181
149.613
161.388
171.546
180.174
187.383
193.311
198.127
202.025
205.229
207.978
210.519
213.087
215.898
219.147
223.014
227.675
233.278
239.935
247.728
256.689
266.823
278.111
290.502
303.925
318.288
333.476
349.363
365.822
382.737
400.01
417.556
435.277
453.092
470.943
488.784
506.602
524.396
542.164
559.947
577.821
595.848
614.084
632.572
651.294
670.267
689.566
709.072
728.538
747.702
766.206
783.868
800.775
816.772
831.451
844.683
856.491
866.951
876.394
884.528
890.307
893.083
892.585
888.321
879.848
866.601
847.637
823.029
793.96
761.283
725.662
687.875
648.48
608.344
568.807
530.402
492.869
456.179
420.339
385.437
351.842
319.611
288.455
258.39
229.673
202.447
176.83
152.761
129.938
108.143
87.236
67.028
47.301
27.806
8.277
-11.483
-31.579
-52.073
-72.998
-94.374
-116.216
-138.489
-161.122
-184.01
-207.038
-230.103
-253.111
-275.972
-298.582
-320.82
-342.566
-363.714
-384.186
-403.926
-422.885
-441.008
-458.253
-474.611
-490.093
-504.727
-518.527
-531.489
-543.589
-554.807
-565.137
-574.578
-583.127
-590.772
-597.504
-603.319
-608.236
-612.292
-615.518
-617.924
-619.514
-620.288
-620.276
-619.529
-618.123
-616.144
-613.686
-610.858
-607.788
-604.621
-601.502
-598.572
-595.955
-593.757
-592.085
-591.059
-590.811
-591.468
-593.137
-595.898
-599.799
-604.865
-611.096
-618.46
-626.889
-636.275
-646.478
-657.339
-668.687
-680.344
-692.129
-703.829
-715.193
-725.963
-735.88
-744.695
-752.198
-758.192
-762.479
-764.905
-765.352
-763.747
-760.086
-754.396
-746.736
-737.2
-725.909
-713.037
-698.831
-683.574
-667.574
-651.165
-634.663
-618.399
-602.741
-588.034
-574.596
-562.715
-552.616
-544.486
-538.498
-534.775
-533.39
-534.36
-537.615
-543.028
-550.421
-559.555
-570.167
-581.952
-594.543
-607.567
-620.66
-633.45
-645.611
-656.835
-666.812
-675.269
-681.974
-686.728
-689.389
-689.88
-688.18
-684.335
-678.448
-670.669
-661.197
-650.256
-638.081
-624.918
-610.987
-596.494
-581.642
-566.611
-551.56
-536.646
-521.998
-507.697
-493.774
-480.208
-466.921
-453.804
-440.722
-427.521
-414.034
-400.105
-385.609
-370.451
-354.57
-337.937
-320.537
-302.373
-283.468
-263.893
-243.762
-223.237
-202.528
-181.874
-161.533
-141.79
-122.936
-105.243
-88.948
-74.264
-61.347
-50.32
-41.275
-34.261
-29.291
-26.336
-25.316
-26.116
-28.567
-32.462
-37.553
-43.558
-50.172
-57.101
-64.056
-70.758
-76.953
-82.409
-86.926
-90.362
-92.618
-93.601
-93.239
-91.46
-88.234
-83.628
-77.777
-70.836
-62.957
-54.313
-45.133
-35.789
-26.665
-17.907
-9.546
-1.558
6.037
13.025
19.323
25.125
30.554
35.226
38.53
40.598
42.516
45.433
49.205
49.851
41.4
21.733
-5.789
-31.349
-43.506
-38.115
-19.556
1.807
16.124
18.988
12.04
0.823
-10.956
-21.373
-29.723
-37.462
-45.135
-52.206
-58.408
-62.845
-64.475
-63.592
-61.065
-57.431
-53.275
-48.881
-44.195
-39.478
-35.225
-31.558
-28.304
-25.325
-22.416
-19.516
-16.769
-14.22
-11.844
-9.646
-7.615
-5.68
-3.755
-1.703
0.656
3.434
6.773
10.875
15.834
21.608
27.971
34.594
41.312
48.212
55.436
62.958
70.731
78.81
87.657
97.941
109.932
123.368
137.525
151.647
165.128
177.232
186.575
191.553
191.027
184.42
172.17
155.245
134.542
111.329
87.657
65.613
47.01
33.437
25.292
22.178
23.625
28.532
35.172
42.086
47.895
51.146
51.254
48.182
42
33.402
23.376
12.528
1.424
-9.31
-19.43
-28.812
-37.364
-45.339
-53.042
-60.533
-67.806
-74.801
-81.363
-87.414
-92.896
-97.679
-101.641
-104.715
-106.898
-108.258
-108.904
-108.925
-108.403
-107.418
-106.07
-104.489
-102.788
-101.073
-99.413
-97.833
-96.367
-95.046
-93.875
-92.86
-91.99
-91.228
-90.554
-89.963
-89.417
-88.893
-88.412
-87.972
-87.588
-87.301
-87.125
-87.093
-87.33
-87.982
-89.007
-90.335
-92.151
-94.541
-97.567
-101.652
-105.907
-109.454
-113.639
-118.901
-127.68
-142.878
-161.28
-180.694
-197.871
-208.376
-215.981
-223.869
-234.185
-250.524
-270.128
-290.22
-310.117
-328.092
-344.988
-361.89
-378.426
-394.614
-410.253
-425.002
-438.894
-451.893
-463.802
-474.471
-483.8
-491.731
-498.146
-502.838
-505.748
-506.959
-506.612
-504.954
-502.026
-497.594
-491.651
-484.438
-475.935
-466.001
-454.448
-440.857
-425.452
-409.213
-392.756
-376.399
-360.705
-346.195
-333.547
-323.827
-317.129
-312.538
-309.491
-307.605
-306.41
-305.668
-304.829
-302.888
-299.607
-295.467
-290.696
-285.469
-279.847
-273.606
-266.789
-259.742
-252.491
-244.799
-236.524
-227.53
-217.829
-207.629
-197.064
-186.2
-175.182
-164.217
-153.539
-143.406
-134.025
-125.526
-118.009
-111.534
-106.109
-101.721
-98.317
-95.816
-94.139
-93.171
-92.746
-92.654
-92.648
-92.467
-91.876
-90.598
-88.292
-84.727
-79.773
-73.504
-66.264
-58.221
-49.3
-39.448
-28.575
-16.558
-3.382
11.311
28.309
47.777
69.243
91.884
114.382
135.562
154.641
170.394
181.194
186.211
185.339
179.217
169.383
157.078
143.093
128.601
115.006
103.27
94.003
87.165
81.994
78.085
75.405
73.802
73.119
73.26
74.144
75.959
79.162
83.947
90.252
97.935
106.739
116.428
126.808
137.607
148.488
159.178
169.488
179.288
188.517
197.101
204.942
211.992
218.262
223.813
228.764
233.241
237.367
241.301
245.233
249.347
253.823
258.795
264.33
270.485
277.3
284.808
293.048
302.005
311.606
321.763
332.372
343.318
354.494
365.74
376.844
387.608
397.86
407.472
416.381
424.531
431.866
438.363
444.013
448.861
453.008
456.552
459.591
462.242
464.628
466.929
469.392
472.249
475.711
479.96
485.134
491.375
498.827
507.602
517.776
529.389
542.43
556.887
572.74
589.937
608.405
628.007
648.548
669.816
691.587
713.637
735.741
757.647
779.084
799.787
819.494
837.96
854.959
870.261
883.66
894.977
904.048
910.763
915.066
916.936
916.407
913.548
908.458
901.289
892.238
881.536
869.461
856.317
842.419
828.118
813.754
799.658
786.187
773.665
762.381
752.594
744.503
738.256
733.986
731.781
731.65
733.563
737.433
743.11
750.441
759.229
769.211
780.127
791.739
803.796
816.064
828.321
840.291
851.725
862.484
872.4
881.117
888.295
893.918
897.949
900.397
901.678
900.835
897.184
892.649
887.895
885.388
888.193
892.721
897.333
900.536
897.275
889.643
878.261
860.309
839.481
817.559
796.968
786.003
787.947
802.211
826.403
850.883
864.852
862.266
841.522
808.625
775.132
749.792
736.465
733.647
735.724
739.575
744.66
751.657
762.183
775.422
789.538
803.582
816.198
825.912
832.04
833.781
830.863
824.786
816.734
807.09
796.449
785.26
773.792
762.752
752.563
742.549
732.249
721.583
710.4
698.937
687.475
675.942
664.365
653.132
642.533
632.799
624.167
616.623
610.144
604.796
600.579
597.448
595.352
594.205
593.923
594.431
595.601
597.285
599.325
601.536
603.758
605.823
607.521
608.675
609.095
608.567
606.92
603.998
599.629
593.664
586.031
576.704
565.834
553.759
540.851
527.465
513.875
500.213
486.328
472.041
457.007
440.341
421.288
399.374
374.197
347.152
320.433
294.656
271.654
251.618
234.021
223.911
224.55
239.267
271.297
314.511
362.537
409.427
448.043
477.927
499.411
511.515
515.111
509.995
496.939
479.132
459.611
441.193
425.996
415.452
411
413.263
421.788
434.803
449.52
463.414
474.903
482.565
484.813
480.421
468.56
449.473
424.749
396.424
366.232
335.689
306.327
278.495
251.502
226.375
204.223
187.052
179.394
179.135
180.68
179.037
164.802
137.779
104.247
68.479
42.16
31.04
34.407
53.919
82.605
114.452
147.497
176.716
201.678
221.9
234.53
239.007
234.15
219.747
197.311
168.488
135.767
101.678
68.372
37.551
9.984
-14.377
-35.935
-55.48
-73.985
-92.082
-110.353
-129.177
-148.53
-168.205
-187.778
-206.643
-224.231
-240.218
-254.418
-266.8
-277.46
-286.534
-294.271
-300.952
-306.798
-311.878
-316.171
-319.605
-321.777
-322.269
-320.97
-317.546
-312.842
-308.258
-303.375
-298.831
-293.998
-286.385
-277.725
-268.799
-261.088
-261.414
-271.717
-292.92
-321.856
-336.412
-334.086
-329.68
-277.838
-139.951
19.542
137.682
218.265
265.258
272.211
240.651
179.673
104.016
21.82
-56.903
-118.078
-159.469
-182.59
-192.867
-202.809
-217.689
-237.7
-260.87
-281.338
-297.09
-309.289
-319.689
-331.465
-345.962
-362.673
-380.913
-399.38
-416.934
-433.243
-448.048
-461.044
-472.197
-481.547
-489.222
-495.652
-501.355
-506.645
-511.723
-516.72
-521.642
-526.515
-531.386
-536.218
-540.942
-545.503
-549.867
-554.032
-558.032
-561.887
-565.584
-569.095
-572.381
-575.397
-578.115
-580.513
-582.568
-584.258
-585.571
-586.5
-587.048
-587.234
-587.063
-586.535
-585.646
-584.389
-582.771
-580.818
-578.562
-576.037
-573.285
-570.348
-567.273
-564.107
-560.889
-557.649
-554.418
-551.221
-548.092
-545.069
-542.179
-539.444
-536.876
-534.482
-532.257
-530.193
-528.262
-526.42
-524.631
-522.862
-521.092
-519.31
-517.494
-515.616
-513.65
-511.579
-509.407
-507.158
-504.855
-502.528
-500.221
-497.987
-495.912
-494.105
-492.657
-491.643
-491.13
-491.179
-491.868
-493.297
-495.549
-498.677
-502.706
-507.628
-513.43
-520.096
-527.576
-535.791
-544.62
-553.908
-563.509
-573.289
-583.112
-592.826
-602.253
-611.173
-619.379
-626.707
-633.011
-638.173
-642.082
-644.627
-645.732
-645.377
-643.585
-640.415
-635.939
-630.223
-623.352
-615.445
-606.653
-597.17
-587.205
-576.933
-566.527
-556.159
-546.001
-536.244
-527.053
-518.536
-510.761
-503.773
-497.594
-492.249
-487.756
-484.094
-481.222
-479.077
-477.571
-476.631
-476.184
-476.127
-476.344
-476.703
-477.067
-477.355
-477.518
-477.514
-477.324
-476.92
-476.261
-475.334
-474.123
-472.593
-470.73
-468.494
-465.834
-462.74
-459.211
-455.247
-450.865
-446.033
-440.678
-434.736
-428.124
-420.759
-412.587
-403.541
-393.573
-382.692
-370.924
-358.348
-345.082
-331.228
-316.89
-302.189
-287.257
-272.297
-257.572
-243.346
-229.918
-217.583
-206.658
-197.545
-190.508
-185.635
-182.876
-181.95
-182.603
-184.784
-188.295
-192.785
-198.227
-204.735
-212.744
-223.237
-236.666
-252.765
-271.341
-292.076
-314.173
-336.734
-358.014
-375.244
-386.538
-391.057
-388.068
-377.176
-358.167
-330.661
-295.518
-255.074
-211.185
-165.007
-117.644
-70.325
-24.988
15.54
49.033
74.507
91.001
97.239
91.982
74.733
46.353
9.18
-33.782
-79.832
-126.125
-169.304
-205.839
-232.885
-248.774
-253.158
-246.969
-231.673
-209.331
-182.808
-155.615
-131.259
-112.6
-101.796
-99.952
-107.285
-123.43
-147.322
-176.699
-208.485
-239.685
-267.378
-289.405
-304.517
-311.56
-309.653
-299.242
-281.991
-260.155
-236.247
-211.974
-188.18
-165.781
-145.819
-128.725
-113.885
-99.766
-84.764
-68.131
-50.142
-31.737
-13.744
3.088
17.207
26.454
28.914
23.103
8.653
-13.392
-41.71
-74.747
-109.989
-144.818
-176.91
-203.704
-223.331
-234.979
-238.376
-234.354
-225.075
-212.774
-199.399
-187.346
-178.995
-176.507
-181.545
-194.226
-212.972
-235.598
-260.167
-284.333
-305.199
-319.75
-325.197
-319.949
-304.171
-278.915
-244.983
-203.729
-157.463
-108.72
-60.174
-13.851
29.572
69.654
104.262
130.67
147.742
155.749
158.572
161.787
166.191
168.053
159.244
130.157
77.947
8.786
-64.736
-129.344
-176.402
-204.498
-217.182
-216.823
-203.611
-177.936
-141.145
-95.243
-43.825
11.156
70.175
126.938
171.027
194.138
187.774
153.103
100.497
35.354
-37.071
-111.751
-186.178
-249.499
-289.567
-301.647
-286.864
-255.283
-219.403
-186.162
-157.428
-131
-104.529
-78.568
-55.656
-38.926
-29.926
-28.128
-32.072
-39.921
-50.685
-64.031
-79.362
-95.924
-112.849
-129.535
-145.765
-161.334
-175.418
-186.455
-193.012
-194.256
-189.738
-179.247
-162.604
-139.583
-110.794
-78.069
-43.494
-8.876
24.215
54.712
81.489
102.907
117.704
125.367
126.066
120.333
108.294
89.339
62.818
28.698
-11.254
-53.839
-97.438
-141.971
-189.793
-244.3
-304.065
-362.286
-407.459
-427.409
-416.156
-376.569
-319.792
-258.151
-199.651
-146.694
-96.111
-46.082
0.766
40.141
67.321
79.847
78.507
64.733
39.263
3.555
-39.745
-87.567
-136.51
-183.601
-226.824
-263.877
-291.845
-308.975
-314.92
-310.537
-297.767
-278.38
-254.245
-227.074
-197.756
-168.401
-140.999
-117.689
-102.592
-94.236
-86.464
-72.65
-44.374
-2.179
44.515
86.737
115.168
126.735
124.84
110.811
86.161
52.269
9.512
-39.109
-89.947
-140.131
-186.423
-225.729
-255.844
-275.801
-286.172
-288.464
-284.136
-274.127
-258.797
-239.162
-216.68
-192.87
-169.638
-148.145
-128.27
-107.478
-82.318
-52.123
-20.233
4.015
8.146
-14.562
-63.154
-130.168
-200.502
-260.071
-301.44
-319.376
-316.517
-301.7
-280.387
-258.193
-237.283
-213.77
-186.177
-154.319
-118.793
-82.512
-46.421
-11.242
22.035
54.378
85.007
114.626
144.528
169.92
187.047
191.905
180.31
157.283
128.626
99.502
76.445
60.072
50.666
49.439
55.637
69.884
91.63
118.556
148.55
178.705
206.372
230.101
248.853
262.28
270.991
275.819
277.83
278.362
278.183
277.622
277.076
276.531
275.517
273.344
269.109
262.153
252.72
241.43
228.493
214.326
199.678
185.589
173.516
164.443
158.251
154.463
153.108
153.978
156.552
159.969
162.614
163.142
160.995
155.666
146.356
132.626
114.283
91.446
65.092
36.329
6.255
-23.599
-51.74
-77.06
-98.556
-115.395
-127.218
-133.988
-136.232
-135.121
-131.585
-126.195
-119.452
-111.819
-103.786
-95.69
-87.33
-78.045
-67.412
-55.342
-41.915
-27.311
-11.567
5.281
22.92
40.808
58.456
75.511
91.751
107.064
121.27
134.177
145.681
155.743
164.369
171.565
177.283
181.473
184.118
185.22
184.837
183.01
179.707
175.069
169.383
162.919
156.027
148.86
141.269
133.337
125.397
117.448
109.326
100.828
91.497
81.546
71.965
63.322
55.826
49.944
46.133
45.022
47.652
54.056
63.163
74.243
86.79
100.23
114.225
128.118
140.766
151.795
161.653
170.593
178.802
186.352
192.964
198.607
203.59
207.913
211.318
213.647
214.74
214.585
213.409
211.369
208.551
205.114
201.214
197
192.655
188.328
184.13
180.181
176.57
173.361
170.61
168.345
166.57
165.264
164.383
163.866
163.655
163.69
163.928
164.333
164.857
165.446
166.046
166.613
167.125
167.57
167.946
168.253
168.508
168.753
169.037
169.42
169.963
170.722
171.759
173.152
174.99
177.367
180.37
184.046
188.433
193.591
199.606
206.596
214.662
223.851
234.177
245.68
258.446
272.483
287.652
303.634
320.055
336.715
353.662
371.008
388.653
406.508
424.661
443.474
463.436
484.572
506.187
527.239
546.988
564.852
580.168
591.981
599.096
600.922
597.899
591.09
581.373
569.356
555.58
540.819
526.204
512.54
499.89
487.801
475.913
464.18
452.766
441.831
431.301
421.146
411.624
403.227
396.405
391.412
388.327
387.109
387.747
390.242
394.496
400.32
407.485
415.766
424.958
434.875
445.307
456.003
466.694
477.121
487.044
496.236
504.474
511.54
517.236
521.402
523.931
524.76
523.857
521.21
516.824
510.74
503.043
493.852
483.317
471.594
458.839
445.236
430.998
416.357
401.555
386.808
372.288
358.149
344.532
331.572
319.406
308.134
297.82
288.515
280.257
273.083
267.025
262.074
258.175
255.248
253.199
251.941
251.405
251.516
252.198
253.37
254.953
256.888
259.125
261.592
264.196
266.832
269.398
271.823
274.073
276.122
277.948
279.542
280.906
282.054
283.005
283.76
284.306
284.61
284.66
284.476
284.112
283.636
283.103
282.548
281.989
281.442
280.919
280.399
279.825
279.116
278.203
277.042
275.616
273.915
271.9
269.502
266.628
263.185
259.098
254.305
248.753
242.397
235.216
227.234
218.525
209.193
199.335
189.035
178.371
167.436
156.362
145.31
134.459
123.991
114.085
104.92
96.681
89.541
83.639
79.079
75.928
74.226
74.009
75.309
78.129
82.436
88.153
95.164
103.333
112.507
122.503
133.109
144.088
155.197
166.208
176.906
187.074
196.503
204.978
212.29
218.277
222.815
225.81
227.203
226.948
225.021
221.451
216.312
209.72
201.814
192.739
182.648
171.725
160.171
148.206
136.057
123.908
111.92
100.25
89.04
78.437
68.579
59.553
51.403
44.138
37.744
32.197
27.461
23.469
20.132
17.345
15.001
13.017
11.323
9.842
8.489
7.156
5.739
4.161
2.374
0.352
-1.915
-4.432
-7.192
-10.175
-13.353
-16.692
-20.174
-23.799
-27.565
-31.471
-35.492
-39.571
-43.644
-47.65
-51.529
-55.239
-58.752
-62.04
-65.091
-67.898
-70.451
-72.735
-74.716
-76.338
-77.552
-78.319
-78.619
-78.481
-77.949
-77.087
-75.984
-74.723
-73.372
-71.998
-70.651
-69.367
-68.192
-67.172
-66.368
-65.861
-65.718
-65.992
-66.711
-67.866
-69.423
-71.325
-73.483
-75.801
-78.197
-80.597
-82.948
-85.224
-87.396
-89.441
-91.34
-93.073
-94.632
-96.037
-97.328
-98.559
-99.808
-101.161
-102.721
-104.601
-106.892
-109.663
-112.954
-116.766
-121.086
-125.874
-131.065
-136.567
-142.261
-147.997
-153.607
-158.914
-163.727
-167.855
-171.105
-173.293
-174.264
-173.894
-172.101
-168.853
-164.158
-158.075
-150.721
-142.262
-132.912
-122.927
-112.59
-102.206
-92.111
-82.637
-74.127
-66.904
-61.261
-57.478
-55.782
-56.352
-59.305
-64.676
-72.432
-82.483
-94.687
-108.865
-124.788
-142.145
-160.58
-179.705
-199.1
-218.412
-237.262
-255.203
-271.929
-287.24
-301.043
-313.512
-324.782
-334.753
-343.392
-350.678
-356.302
-360.013
-361.409
-359.674
-354.454
-345.978
-334.576
-321.03
-306.61
-292.493
-280.245
-271.768
-268.09
-269.627
-276.546
-288.22
-303.632
-321.603
-340.195
-357.449
-372.292
-383.904
-391.717
-395.693
-395.748
-392.264
-386.538
-379.598
-371.928
-364.003
-356.03
-348.167
-340.932
-334.32
-327.664
-320.586
-312.911
-304.54
-295.692
-286.459
-276.674
-266.513
-256.44
-246.806
-237.956
-230.11
-223.281
-217.565
-213.137
-210.073
-208.39
-208.08
-209.093
-211.406
-215.016
-219.862
-225.828
-232.729
-240.333
-248.403
-256.68
-264.904
-272.814
-280.134
-286.607
-292.014
-296.16
-298.872
-300.005
-299.427
-297.052
-292.85
-286.843
-279.128
-269.854
-259.199
-247.401
-234.726
-221.451
-207.88
-194.283
-180.888
-167.916
-155.574
-144.041
-133.49
-124.048
-115.797
-108.787
-103.02
-98.443
-94.968
-92.44
-90.664
-89.44
-88.553
-87.82
-87.096
-86.24
-85.119
-83.629
-81.672
-79.173
-76.082
-72.337
-67.899
-62.776
-57.004
-50.668
-43.887
-36.774
-29.447
-22.02
-14.591
-7.245
-0.063
6.908
13.632
20.063
26.152
31.821
36.989
41.61
45.657
49.124
52.019
54.36
56.17
57.51
58.46
59.089
59.462
59.625
59.61
59.476
59.314
59.24
59.379
59.843
60.719
62.094
64.047
66.626
69.851
73.684
78.026
82.769
87.802
93.007
98.269
103.446
108.353
112.774
116.503
119.341
121.114
121.668
120.863
118.604
114.855
109.65
103.109
95.398
86.708
77.259
67.299
57.102
46.994
37.342
28.492
20.772
14.495
9.927
7.301
6.815
8.601
12.71
19.124
27.726
38.317
50.674
64.527
79.566
95.477
111.837
128.146
144.074
159.418
173.986
187.688
200.248
211.137
220.116
227.239
232.319
235.058
235.145
232.071
226.03
218.04
208.778
198.601
188.124
177.963
168.923
162.214
158.084
155.715
154.611
154.484
154.971
155.93
156.919
157.007
155.999
154.445
152.668
150.931
149.389
147.873
146.431
145.423
144.876
144.541
144.272
143.892
143.339
142.758
142.205
141.657
141.182
140.884
140.861
141.226
142.031
143.274
144.979
147.158
149.813
152.939
156.499
160.462
164.823
169.579
174.72
180.233
186.081
192.215
198.597
205.187
211.943
218.81
225.709
232.563
239.296
245.857
252.221
258.345
264.161
269.594
274.572
279.027
282.912
286.184
288.79
290.699
291.9
292.426
292.354
291.776
290.793
289.479
287.88
286.055
284.079
282.04
280.025
278.12
276.398
274.944
273.859
273.222
273.075
273.401
274.125
275.15
276.369
277.695
279.062
280.398
281.618
282.637
283.365
283.711
283.588
282.889
281.481
279.255
276.138
272.124
267.269
261.649
255.355
248.474
241.094
233.315
225.253
217.019
208.725
200.496
192.454
184.755
177.569
171.047
165.31
160.418
156.375
153.164
150.749
149.075
148.063
147.618
147.617
147.934
148.437
148.955
149.301
149.285
148.701
147.299
144.85
141.17
136.107
129.583
121.568
111.96
100.658
87.792
73.555
57.906
40.931
22.762
3.17
-16.752
-35.904
-55.366
-75.29
-97.833
-125.631
-155.32
-184.586
-210.076
-227.267
-239.767
-250.647
-261.99
-277.342
-294.009
-309.268
-322.501
-332.112
-339.091
-344.739
-348.936
-351.95
-353.832
-354.496
-354.28
-353.515
-352.355
-350.957
-349.488
-348.091
-346.902
-346.073
-345.714
-345.89
-346.68
-348.124
-350.232
-353.021
-356.497
-360.646
-365.457
-370.89
-376.887
-383.414
-390.438
-397.917
-405.805
-414.019
-422.464
-431.059
-439.722
-448.378
-456.965
-465.385
-473.523
-481.254
-488.429
-494.917
-500.61
-505.378
-509.084
-511.607
-512.838
-512.719
-511.245
-508.421
-504.275
-498.859
-492.24
-484.546
-475.956
-466.69
-457.006
-447.158
-437.387
-427.965
-419.186
-411.337
-404.696
-399.492
-395.89
-394.039
-394.064
-396.056
-400.076
-406.114
-414.094
-423.894
-435.353
-448.303
-462.579
-477.978
-494.26
-511.176
-528.47
-545.908
-563.3
-580.448
-597.15
-613.216
-628.471
-642.777
-656.056
-668.25
-679.311
-689.193
-697.829
-705.18
-711.242
-716.021
-719.54
-721.826
-722.892
-722.778
-721.567
-719.359
-716.28
-712.461
-708.008
-703.043
-697.711
-692.201
-686.75
-681.595
-676.963
-673.049
-669.997
-667.965
-667.122
-667.578
-669.45
-672.827
-677.658
-683.965
-691.881
-701.376
-712.307
-724.47
-737.295
-749.967
-762.04
-773.033
-781.871
-788.929
-794.709
-798.189
-800.567
-800.198
-793.086
-781.297
-765.543
-750.293
-747.341
-755.782
-760.803
-757.692
-778.065
-815.913
-745.847
-527.761
-352.202
-331.457
-335.129
-272.307
-200.682
-156.382
-122.49
-96.316
-82.402
-78.022
-79.771
-84.418
-89.835
-95.119
-99.463
-102.661
-105.053
-106.951
-108.932
-111.875
-116.26
-122.128
-129.305
-137.322
-145.562
-153.413
-160.146
-165.034
-167.709
-168.204
-166.739
-163.455
-158.24
-151.137
-142.507
-132.449
-120.959
-107.76
-92.042
-74.818
-57.845
-40.884
-24.327
-6.304
15.466
36.561
53.439
62.09
58.325
47.241
33.112
18.845
8.82
0.973
-6.422
-13.233
-21.189
-29.873
-38.48
-47.396
-56.368
-65.369
-74.805
-84.619
-94.478
-103.979
-112.667
-120.238
-126.588
-131.732
-135.622
-138.2
-139.455
-139.393
-138.063
-135.529
-131.835
-126.999
-121.028
-113.937
-105.75
-96.51
-86.287
-75.15
-63.168
-50.411
-36.957
-22.895
-8.331
6.63
21.911
37.452
53.201
69.105
85.089
101.069
116.953
132.645
148.061
163.121
177.758
191.917
205.559
218.665
231.227
243.243
254.698
265.567
275.819
285.436
294.419
302.779
310.554
317.791
324.549
330.908
336.934
342.689
348.235
353.621
358.892
364.102
369.298
374.543
379.912
385.465
391.257
397.339
403.742
410.498
417.623
425.1
432.906
441.009
449.361
457.916
466.625
475.415
484.221
492.958
501.516
509.791
517.676
525.049
531.793
537.773
542.851
546.922
549.903
551.729
552.354
551.738
549.841
546.652
542.176
536.444
529.521
521.481
512.408
502.413
491.624
480.201
468.331
456.18
443.895
431.618
419.478
407.619
396.194
385.335
375.141
365.684
357.005
349.133
342.096
335.896
330.511
325.893
321.966
318.664
315.94
313.733
311.973
310.566
309.389
308.335
307.336
306.344
305.332
304.278
303.147
301.921
300.597
299.175
297.66
296.045
294.301
292.417
290.412
288.33
286.244
284.224
282.305
280.504
278.828
277.28
275.876
274.625
273.537
272.63
271.939
271.524
271.46
271.802
272.579
273.782
275.372
277.298
279.526
282.033
284.798
287.798
291
294.357
297.808
301.273
304.643
307.774
310.505
312.679
314.155
314.824
314.608
313.444
311.271
308.014
303.596
297.952
291.036
282.829
273.345
262.619
250.725
237.784
223.941
209.363
194.227
178.693
162.911
147.038
131.24
115.699
100.617
86.18
72.557
59.889
48.282
37.823
28.564
20.511
13.638
7.887
3.179
-0.563
-3.441
-5.587
-7.156
-8.329
-9.301
-10.261
-11.39
-12.849
-14.775
-17.291
-20.483
-24.404
-29.083
-34.521
-40.703
-47.602
-55.152
-63.249
-71.766
-80.555
-89.477
-98.397
-107.183
-115.719
-123.907
-131.671
-138.976
-145.817
-152.207
-158.185
-163.808
-169.15
-174.335
-179.518
-184.87
-190.57
-196.781
-203.652
-211.329
-219.949
-229.626
-240.448
-252.453
-265.657
-280.048
-295.589
-312.224
-329.862
-348.352
-367.503
-387.068
-406.779
-426.398
-445.709
-464.507
-482.609
-499.782
-515.824
-530.695
-544.333
-556.611
-567.262
-575.727
-581.478
-584.362
-584.368
-581.327
-575.134
-565.893
-554.24
-541.785
-530.181
-519.117
-507.307
-493.774
-478.17
-464.416
-456.102
-454.789
-456.564
-442.41
-414.458
-389.777
-330.009
-202.621
-64.095
27.101
78.494
106.313
105.273
79.971
46.485
11.992
-18.071
-35.633
-37.795
-23.026
6.992
42.886
75.905
101.153
117.812
130.67
143.988
158.45
172.716
184.383
192.762
199.223
205.132
211.215
217.423
223.374
229.053
234.572
239.751
244.117
247.194
248.739
248.725
247.238
244.322
240.013
234.418
227.713
220.099
211.753
202.893
193.816
184.74
175.74
166.713
157.507
148.175
139.065
130.566
122.825
115.974
110.308
106.453
105.171
106.681
110.392
115.289
120.63
125.87
130.38
133.171
132.977
129.125
122.011
112.735
102.164
90.841
79.24
68.024
58.224
50.547
44.871
40.475
36.742
33.358
30.199
27.162
23.885
20.056
15.7
11.123
6.622
2.336
-1.761
-5.793
-9.813
-13.845
-17.955
-22.24
-26.795
-31.645
-36.743
-41.984
-47.238
-52.376
-57.247
-61.702
-65.597
-68.804
-71.206
-72.686
-73.122
-72.382
-70.357
-66.972
-62.182
-55.984
-48.402
-39.496
-29.365
-18.157
-6.055
6.742
20.033
33.637
47.365
61.019
74.382
87.223
99.326
110.506
120.6
129.468
136.993
143.089
147.711
150.859
152.56
152.857
151.796
149.426
145.817
141.069
135.311
128.694
121.369
113.478
105.158
96.545
87.765
78.933
70.14
61.465
52.98
44.764
36.908
29.494
22.58
16.206
10.389
5.124
0.412
-3.753
-7.38
-10.47
-13.028
-15.069
-16.602
-17.652
-18.252
-18.448
-18.303
-17.885
-17.252
-16.462
-15.568
-14.606
-13.625
-12.675
-11.812
-11.117
-10.658
-10.481
-10.629
-11.128
-11.997
-13.265
-14.952
-17.058
-19.583
-22.522
-25.866
-29.618
-33.765
-38.268
-43.074
-48.103
-53.273
-58.526
-63.799
-69.018
-74.094
-78.908
-83.315
-87.192
-90.404
-92.796
-94.216
-94.496
-93.471
-91.013
-87.009
-81.356
-73.966
-64.747
-53.622
-40.562
-25.574
-8.712
9.915
30.182
51.935
74.96
99.021
123.843
149.118
174.553
199.843
224.648
248.637
271.474
292.823
312.394
329.933
345.212
358.062
368.342
375.94
380.812
382.96
382.432
379.339
373.809
366.016
356.201
344.63
331.596
317.42
302.411
286.872
271.122
255.459
240.176
225.573
211.914
199.434
188.34
178.798
170.948
164.888
160.649
158.22
157.55
158.558
161.155
165.234
170.647
177.235
184.811
193.16
202.066
211.309
220.67
229.931
238.878
247.325
255.121
262.153
268.341
273.617
277.915
281.195
283.448
284.685
284.947
284.298
282.81
280.575
277.697
274.297
270.503
266.432
262.187
257.845
253.463
249.096
244.798
240.607
236.542
232.61
228.802
225.103
221.495
217.946
214.416
210.853
207.201
203.409
199.429
195.228
190.785
186.084
181.115
175.873
170.364
164.599
158.597
152.377
145.961
139.374
132.642
125.799
118.877
111.912
104.944
98.009
91.135
84.355
77.697
71.194
64.881
58.79
52.946
47.375
42.097
37.138
32.521
28.266
24.387
20.891
17.775
15.035
12.665
10.65
8.96
7.559
6.396
5.425
4.611
3.912
3.292
2.711
2.131
1.533
0.911
0.273
-0.366
-0.978
-1.539
-1.999
-2.286
-2.322
-2.009
-1.258
0.01
1.886
4.467
7.839
12.078
17.228
23.296
30.27
38.12
46.796
56.237
66.351
77.017
88.101
99.445
110.883
122.241
133.323
143.907
153.778
162.733
170.605
177.27
182.634
186.628
189.208
190.351
190.061
188.367
185.317
180.993
175.502
168.978
161.597
153.569
145.116
136.466
127.819
119.338
111.16
103.394
96.128
89.437
83.373
77.984
73.304
69.344
66.092
63.513
61.526
60.025
58.893
57.991
57.2
56.431
55.615
54.711
53.701
52.582
51.372
50.097
48.78
47.45
46.144
44.907
43.821
42.971
42.447
42.358
42.799
43.844
45.567
48.015
51.203
55.126
59.746
65
70.831
77.178
83.98
91.175
98.675
106.394
114.253
122.158
130.023
137.758
145.251
152.403
159.137
165.383
171.112
176.318
180.994
185.136
188.738
191.792
194.302
196.263
197.656
198.463
198.658
198.235
197.219
195.637
193.525
190.923
187.855
184.335
180.393
176.066
171.406
166.478
161.354
156.13
150.93
145.902
141.208
137.003
133.411
130.554
128.534
127.435
127.341
128.312
130.377
133.536
137.759
142.982
149.12
156.05
163.597
171.548
179.659
187.686
195.401
202.575
208.989
214.437
218.725
221.707
223.276
223.374
221.973
219.086
214.757
209.074
202.189
194.308
185.668
176.518
167.104
157.678
148.496
139.828
131.913
124.947
119.086
114.45
111.138
109.23
108.783
109.81
112.265
116.054
121.049
127.11
134.08
141.786
150.038
158.625
167.362
176.102
184.713
193.071
201.046
208.493
215.271
221.267
226.398
230.598
233.826
236.056
237.281
237.523
236.814
235.2
232.702
229.317
225.053
219.94
214.034
207.421
200.205
192.485
184.371
175.992
167.467
158.911
150.422
142.08
133.968
126.181
118.834
112.053
105.939
100.563
95.971
92.188
89.215
87.042
85.632
84.913
84.812
85.258
86.187
87.537
89.231
91.168
93.232
95.311
97.32
99.189
100.861
102.284
103.417
104.236
104.734
104.921
104.802
104.377
103.646
102.617
101.319
99.79
98.074
96.202
94.189
92.052
89.815
87.499
85.122
82.702
80.246
77.776
75.339
72.973
70.709
68.567
66.547
64.654
62.9
61.295
59.851
58.558
57.377
56.272
55.199
54.1
52.91
51.529
49.821
47.674
44.991
41.683
37.682
32.902
27.242
20.619
12.974
4.274
-5.47
-16.228
-27.96
-40.575
-53.964
-67.975
-82.413
-97.106
-111.901
-126.633
-141.149
-155.274
-168.8
-181.538
-193.316
-203.972
-213.385
-221.463
-228.131
-233.378
-237.222
-239.712
-240.933
-240.963
-239.867
-237.727
-234.625
-230.659
-225.969
-220.7
-215
-209.04
-202.967
-196.915
-190.997
-185.283
-179.817
-174.63
-169.731
-165.129
-160.844
-156.888
-153.279
-150.037
-147.154
-144.604
-142.347
-140.315
-138.443
-136.67
-134.948
-133.251
-131.567
-129.896
-128.247
-126.636
-125.074
-123.567
-122.11
-120.684
-119.283
-117.907
-116.564
-115.278
-114.067
-112.959
-111.972
-111.114
-110.391
-109.794
-109.311
-108.929
-108.634
-108.414
-108.273
-108.222
-108.275
-108.459
-108.792
-109.296
-110.004
-110.934
-112.111
-113.566
-115.319
-117.391
-119.796
-122.527
-125.575
-128.925
-132.538
-136.365
-140.333
-144.343
-148.296
-152.096
-155.62
-158.752
-161.367
-163.326
-164.516
-164.842
-164.231
-162.637
-160.031
-156.4
-151.775
-146.224
-139.852
-132.811
-125.248
-117.316
-109.2
-101.097
-93.232
-85.842
-79.131
-73.278
-68.451
-64.798
-62.45
-61.515
-62.039
-64.004
-67.347
-71.96
-77.728
-84.524
-92.182
-100.505
-109.27
-118.245
-127.228
-136.037
-144.484
-152.366
-159.492
-165.687
-170.834
-174.88
-177.801
-179.611
-180.335
-180.014
-178.725
-176.569
-173.661
-170.11
-166.002
-161.405
-156.412
-151.138
-145.707
-140.247
-134.851
-129.58
-124.491
-119.62
-115.004
-110.67
-106.63
-102.891
-99.472
-96.404
-93.741
-91.562
-89.924
-88.864
-88.413
-88.568
-89.334
-90.722
-92.729
-95.354
-98.588
-102.415
-106.815
-111.766
-117.221
-123.121
-129.392
-135.927
-142.634
-149.434
-156.256
-163.071
-169.857
-176.586
-183.25
-189.844
-196.368
-202.827
-209.227
-215.569
-221.863
-228.123
-234.367
-240.627
-246.914
-253.214
-259.495
-265.682
-271.691
-277.434
-282.806
-287.695
-291.984
-295.566
-298.344
-300.236
-301.161
-301.028
-299.76
-297.29
-293.584
-288.647
-282.512
-275.256
-266.978
-257.8
-247.874
-237.371
-226.473
-215.351
-204.165
-193.074
-182.252
-171.893
-162.184
-153.298
-145.378
-138.537
-132.871
-128.438
-125.264
-123.331
-122.584
-122.949
-124.343
-126.69
-129.918
-133.942
-138.651
-143.913
-149.592
-155.556
-161.693
-167.895
-174.058
-180.109
-186.01
-191.767
-197.423
-203.029
-208.623
-214.229
-219.865
-225.55
-231.318
-237.204
-243.241
-249.461
-255.881
-262.514
-269.369
-276.422
-283.606
-290.811
-297.89
-304.688
-311.076
-316.945
-322.206
-326.776
-330.582
-333.558
-335.651
-336.81
-336.993
-336.163
-334.298
-331.417
-327.576
-322.884
-317.481
-311.526
-305.166
-298.524
-291.706
-284.806
-277.903
-271.073
-264.386
-257.916
-251.745
-245.955
-240.613
-235.751
-231.37
-227.434
-223.878
-220.616
-217.56
-214.627
-211.751
-208.879
-205.972
-202.991
-199.891
-196.607
-193.065
-189.183
-184.897
-180.171
-174.997
-169.389
-163.385
-157.046
-150.453
-143.7
-136.885
-130.086
-123.376
-116.836
-110.556
-104.659
-99.284
-94.567
-90.629
-87.564
-85.437
-84.293
-84.16
-85.029
-86.868
-89.61
-93.162
-97.435
-102.338
-107.754
-113.55
-119.551
-125.551
-131.345
-136.73
-141.513
-145.529
-148.624
-150.647
-151.481
-151.031
-149.232
-146.057
-141.493
-135.541
-128.242
-119.665
-109.913
-99.145
-87.541
-75.295
-62.631
-49.766
-36.924
-24.355
-12.306
-1.021
9.254
18.299
25.916
31.911
36.129
38.438
38.721
36.92
33.011
27.008
18.975
8.999
-2.808
-16.278
-31.206
-47.358
-64.464
-82.255
-100.471
-118.833
-137.076
-154.932
-172.114
-188.365
-203.462
-217.199
-229.419
-239.983
-248.771
-255.722
-260.833
-264.137
-265.71
-265.637
-263.992
-260.879
-256.412
-250.724
-243.993
-236.39
-228.073
-219.206
-209.941
-200.438
-190.868
-181.364
-172.017
-162.898
-154.059
-145.564
-137.511
-129.988
-123.079
-116.856
-111.37
-106.675
-102.841
-99.931
-98.003
-97.079
-97.161
-98.259
-100.409
-103.657
-108.043
-113.571
-120.2
-127.867
-136.502
-146.028
-156.354
-167.356
-178.881
-190.751
-202.792
-214.863
-226.831
-238.56
-249.898
-260.671
-270.721
-279.927
-288.2
-295.465
-301.656
-306.707
-310.575
-313.268
-314.834
-315.348
-314.902
-313.558
-311.382
-308.455
-304.856
-300.681
-296.015
-290.901
-285.379
-279.503
-273.326
-266.916
-260.346
-253.645
-246.826
-239.896
-232.845
-225.682
-218.421
-211.072
-203.664
-196.25
-188.901
-181.728
-174.851
-168.367
-162.377
-156.978
-152.235
-148.226
-145.025
-142.686
-141.28
-140.878
-141.525
-143.257
-146.072
-149.924
-154.74
-160.42
-166.834
-173.845
-181.299
-189.024
-196.882
-204.752
-212.517
-220.079
-227.323
-234.112
-240.345
-245.944
-250.847
-255.025
-258.451
-261.103
-263.002
-264.197
-264.759
-264.781
-264.325
-263.425
-262.119
-260.437
-258.418
-256.117
-253.553
-250.719
-247.626
-244.291
-240.755
-237.077
-233.283
-229.369
-225.327
-221.143
-216.833
-212.431
-207.965
-203.467
-198.984
-194.575
-190.342
-186.401
-182.838
-179.705
-177.027
-174.803
-173.053
-171.809
-171.09
-170.909
-171.26
-172.136
-173.546
-175.488
-177.93
-180.806
-184.003
-187.4
-190.9
-194.429
-197.936
-201.379
-204.706
-207.867
-210.825
-213.551
-216.016
-218.173
-219.949
-221.275
-222.102
-222.416
-222.244
-221.619
-220.567
-219.105
-217.242
-214.99
-212.364
-209.376
-206.026
-202.317
-198.246
-193.843
-189.163
-184.271
-179.236
-174.103
-168.891
-163.616
-158.288
-152.924
-147.546
-142.176
-136.832
-131.539
-126.322
-121.217
-116.272
-111.519
-106.98
-102.664
-98.569
-94.711
-91.121
-87.839
-84.92
-82.407
-80.33
-78.718
-77.603
-77.017
-77.001
-77.584
-78.771
-80.564
-82.954
-85.927
-89.476
-93.567
-98.142
-103.116
-108.375
-113.81
-119.322
-124.805
-130.142
-135.197
-139.801
-143.78
-146.974
-149.222
-150.377
-150.299
-148.842
-145.888
-141.343
-135.162
-127.334
-117.86
-106.737
-93.969
-79.585
-63.651
-46.283
-27.623
-7.823
12.949
34.519
56.7
79.295
102.104
124.942
147.665
170.15
192.286
213.956
235.027
255.383
274.935
293.628
311.43
328.315
344.26
359.245
373.26
386.298
398.36
409.437
419.485
428.442
436.232
442.781
448.043
451.977
454.525
455.615
455.177
453.152
449.515
444.271
437.444
429.081
419.248
408.036
395.587
382.081
367.729
352.766
337.415
321.899
306.472
291.404
276.97
263.429
250.993
239.824
230.059
221.798
215.116
210.057
206.61
204.717
204.287
205.201
207.33
210.539
214.656
219.474
224.786
230.387
236.119
241.87
247.544
253.068
258.396
263.5
268.392
273.119
277.745
282.346
287.011
291.829
296.92
302.425
308.479
315.204
322.686
330.969
340.081
350.033
360.804
372.361
384.64
397.549
410.992
424.863
439.04
453.404
467.822
482.14
496.225
509.957
523.235
535.995
548.183
559.763
570.73
581.091
590.872
600.12
608.885
617.221
625.205
632.906
640.394
647.758
655.068
662.39
669.783
677.289
684.936
692.741
700.697
708.781
716.964
725.199
733.443
741.654
749.78
757.775
765.593
773.182
780.494
787.478
794.079
800.245
805.934
811.117
815.785
819.952
823.642
826.892
829.733
832.193
834.301
836.086
837.581
838.824
839.86
840.743
841.533
842.302
843.117
844.026
845.052
846.195
847.435
848.737
850.074
851.415
852.723
853.954
855.048
855.933
856.528
856.732
856.437
855.531
853.898
851.444
848.107
843.841
838.623
832.44
825.276
817.121
807.989
797.903
786.914
775.098
762.543
749.368
735.703
721.669
707.391
692.973
678.494
664.024
649.628
635.357
621.276
607.446
593.904
580.675
567.767
555.154
542.797
530.631
518.572
506.552
494.51
482.403
470.206
457.899
445.462
432.884
420.148
407.228
394.115
380.801
367.284
353.587
339.743
325.803
311.834
297.891
284.012
270.227
256.551
242.994
229.564
216.259
203.07
189.997
177.037
164.195
151.484
138.907
126.457
114.124
101.888
89.739
77.685
65.731
53.886
42.163
30.573
19.143
7.916
-3.076
-13.806
-24.263
-34.455
-44.385
-54.052
-63.464
-72.625
-81.561
-90.315
-98.923
-107.412
-115.81
-124.144
-132.454
-140.797
-149.219
-157.755
-166.429
-175.246
-184.22
-193.37
-202.705
-212.231
-221.932
-231.764
-241.692
-251.688
-261.717
-271.75
-281.747
-291.653
-301.427
-311.041
-320.462
-329.658
-338.581
-347.164
-355.336
-363.022
-370.16
-376.71
-382.635
-387.899
-392.473
-396.328
-399.437
-401.78
-403.322
-404.013
-403.815
-402.704
-400.689
-397.814
-394.152
-389.794
-384.837
-379.375
-373.499
-367.293
-360.843
-354.236
-347.563
-340.927
-334.455
-328.3
-322.623
-317.572
-313.259
-309.753
-307.081
-305.246
-304.237
-304.029
-304.593
-305.908
-307.942
-310.662
-314.035
-318.007
-322.483
-327.331
-332.39
-337.483
-342.471
-347.248
-351.735
-355.878
-359.63
-362.955
-365.83
-368.229
-370.126
-371.492
-372.282
-372.463
-372.046
-371.066
-369.597
-367.74
-365.565
-363.124
-360.463
-357.612
-354.599
-351.447
-348.153
-344.708
-341.108
-337.355
-333.471
-329.475
-325.363
-321.116
-316.694
-312.037
-307.098
-301.836
-296.191
-290.1
-283.505
-276.355
-268.635
-260.362
-251.551
-242.221
-232.391
-222.089
-211.365
-200.278
-188.89
-177.264
-165.477
-153.623
-141.836
-130.279
-119.105
-108.456
-98.421
-89.044
-80.357
-72.388
-65.144
-58.603
-52.698
-47.308
-42.308
-37.586
-33.029
-28.516
-23.836
-18.68
-12.809
-6.14
1.23
9.127
17.537
26.69
36.811
47.864
59.787
72.68
86.95
103.143
121.305
140.718
160.241
178.994
196.257
211.237
222.839
229.733
231.184
227.485
219.655
208.579
194.889
179.199
162.326
145.442
129.439
114.495
100.264
86.518
73.343
61
49.744
39.584
30.542
22.932
17.27
13.975
13.218
14.935
18.918
24.976
32.926
42.482
53.258
64.827
76.79
88.818
100.655
112.057
122.755
132.464
140.933
147.987
153.546
157.612
160.234
161.506
161.57
160.613
158.878
156.628
154.106
151.522
149.054
146.871
145.168
144.17
144.084
145.063
147.19
150.486
154.933
160.481
167.03
174.431
182.492
191.01
199.805
208.717
217.607
226.329
234.713
242.56
249.674
255.89
261.09
265.199
268.181
270.027
270.762
270.451
269.194
267.09
264.235
260.715
256.609
252.002
246.997
241.718
236.297
230.86
225.491
220.242
215.128
210.148
205.29
200.523
195.801
191.072
186.295
181.438
176.485
171.425
166.237
160.896
155.373
149.654
143.767
137.785
131.815
125.977
120.397
115.211
110.573
106.646
103.568
101.457
100.414
100.522
101.88
104.577
108.684
114.242
121.247
129.639
139.326
150.192
162.088
174.844
188.261
202.114
216.208
230.36
244.387
258.11
271.326
283.835
295.464
306.067
315.523
323.749
330.687
336.301
340.608
343.645
345.477
346.191
345.852
344.522
342.283
339.228
335.47
331.125
326.285
321.024
315.426
309.561
303.491
297.266
290.894
284.377
277.714
270.907
263.976
256.944
249.81
242.568
235.204
227.718
220.133
212.486
204.796
197.077
189.345
181.626
173.971
166.426
159.016
151.75
144.616
137.612
130.743
124.019
117.438
110.973
104.573
98.179
91.741
85.221
78.58
71.766
64.712
57.367
49.705
41.722
33.423
24.803
15.851
6.566
-3.034
-12.899
-22.963
-33.154
-43.404
-53.653
-63.827
-73.835
-83.578
-92.977
-101.975
-110.529
-118.593
-126.093
-132.949
-139.091
-144.467
-149.052
-152.819
-155.724
-157.705
-158.7
-158.679
-157.652
-155.638
-152.611
-148.483
-143.148
-136.537
-128.65
-119.557
-109.29
-97.797
-85.086
-71.307
-56.793
-41.971
-27.122
-12.238
2.771
17.801
32.769
47.698
62.865
78.802
95.744
113.354
130.951
147.921
163.531
176.941
187.211
193.134
193.899
189.384
179.99
166.425
149.872
131.837
113.722
97.077
83.179
72.849
66.607
64.488
65.806
69.397
74.327
79.726
84.851
89.117
91.867
92.765
92.085
90.479
88.395
86.06
83.58
80.994
78.529
76.319
74.187
71.764
68.76
65.059
60.686
55.739
50.232
44.164
37.617
30.732
23.675
16.559
9.428
2.278
-4.89
-12.043
-19.146
-26.168
-33.098
-39.941
-46.696
-53.359
-59.921
-66.385
-72.764
-79.076
-85.345
-91.581
-97.783
-103.941
-110.046
-116.089
-122.07
-127.985
-133.829
-139.599
-145.297
-150.936
-156.532
-162.094
-167.629
-173.131
-178.591
-184.003
-189.363
-194.666
-199.901
-205.051
-210.093
-215.015
-219.804
-224.445
-228.911
-233.154
-237.129
-240.796
-244.123
-247.101
-249.723
-251.991
-253.921
-255.544
-256.911
-258.098
-259.177
-260.207
-261.236
-262.31
-263.491
-264.863
-266.502
-268.483
-270.867
-273.697
-277.022
-280.875
-285.259
-290.148
-295.476
-301.145
-307.055
-313.123
-319.279
-325.46
-331.596
-337.609
-343.434
-349.003
-354.258
-359.136
-363.56
-367.462
-370.804
-373.57
-375.786
-377.511
-378.811
-379.747
-380.388
-380.78
-380.966
-380.983
-380.849
-380.584
-380.214
-379.771
-379.31
-378.884
-378.539
-378.325
-378.272
-378.385
-378.662
-379.078
-379.589
-380.172
-380.809
-381.482
-382.188
-382.918
-383.656
-384.385
-385.08
-385.705
-386.207
-386.506
-386.513
-386.143
-385.322
-383.997
-382.131
-379.674
-376.583
-372.827
-368.382
-363.229
-357.357
-350.743
-343.359
-335.198
-326.276
-316.64
-306.366
-295.538
-284.247
-272.59
-260.665
-248.584
-236.46
-224.392
-212.474
-200.801
-189.471
-178.6
-168.324
-158.766
-150.046
-142.278
-135.557
-129.968
-125.59
-122.482
-120.69
-120.257
-121.208
-123.562
-127.342
-132.552
-139.192
-147.253
-156.692
-167.456
-179.479
-192.665
-206.917
-222.13
-238.185
-254.964
-272.349
-290.201
-308.394
-326.81
-345.317
-363.794
-382.109
-400.117
-417.697
-434.74
-451.145
-466.839
-481.758
-495.841
-509.054
-521.375
-532.783
-543.286
-552.894
-561.607
-569.453
-576.46
-582.664
-588.131
-592.915
-597.058
-600.612
-603.615
-606.095
-608.091
-609.626
-610.713
-611.384
-611.658
-611.547
-611.077
-610.257
-609.096
-607.618
-605.83
-603.746
-601.401
-598.827
-596.066
-593.186
-590.241
-587.287
-584.392
-581.593
-578.931
-576.452
-574.188
-572.174
-570.441
-569.001
-567.864
-567.042
-566.522
-566.284
-566.297
-566.499
-566.84
-567.275
-567.75
-568.235
-568.701
-569.115
-569.458
-569.714
-569.869
-569.919
-569.866
-569.703
-569.438
-569.086
-568.67
-568.229
-567.791
-567.377
-567.008
-566.693
-566.437
-566.243
-566.104
-566.006
-565.937
-565.879
-565.815
-565.731
-565.609
-565.427
-565.161
-564.781
-564.26
-563.581
-562.723
-561.674
-560.422
-558.956
-557.271
-555.368
-553.248
-550.909
-548.349
-545.566
-542.553
-539.31
-535.841
-532.151
-528.246
-524.138
-519.84
-515.368
-510.748
-506.001
-501.149
-496.212
-491.202
-486.138
-481.037
-475.922
-470.818
-465.746
-460.723
-455.76
-450.863
-446.029
-441.25
-436.502
-431.747
-426.947
-422.067
-417.087
-411.997
-406.798
-401.493
-396.085
-390.579
-384.987
-379.331
-373.639
-367.948
-362.299
-356.745
-351.364
-346.256
-341.525
-337.273
-333.573
-330.474
-328.008
-326.195
-325.054
-324.589
-324.79
-325.638
-327.103
-329.153
-331.765
-334.902
-338.497
-342.457
-346.673
-351.034
-355.459
-359.892
-364.278
-368.566
-372.702
-376.635
-380.335
-383.775
-386.917
-389.704
-392.047
-393.847
-395.03
-395.534
-395.301
-394.275
-392.362
-389.452
-385.455
-380.29
-373.888
-366.182
-357.086
-346.516
-334.427
-320.815
-305.727
-289.243
-271.438
-252.402
-232.249
-211.115
-189.178
-166.639
-143.674
-120.453
-97.153
-73.957
-51.077
-28.727
-7.082
13.719
33.574
52.412
70.173
86.817
102.344
116.791
130.222
142.72
154.354
165.2
175.352
184.924
194.058
202.902
211.584
220.221
228.912
237.736
246.754
255.998
265.466
275.131
284.948
294.866
304.835
314.795
324.672
334.376
343.793
352.808
361.3
369.14
376.211
382.408
387.655
391.912
395.158
397.397
398.642
398.912
398.231
396.629
394.125
390.753
386.562
381.614
375.991
369.792
363.115
356.057
348.701
341.113
333.354
325.477
317.53
309.571
301.674
293.937
286.499
279.515
273.136
267.512
262.784
259.095
256.591
255.416
255.703
257.579
261.169
266.599
273.99
283.431
294.971
308.597
324.229
341.745
360.993
381.796
403.945
427.201
451.302
475.97
500.935
525.932
550.685
574.895
598.271
620.539
641.463
660.875
678.661
694.749
709.111
721.752
732.719
742.096
749.998
756.559
761.92
766.227
769.642
772.364
774.595
776.535
778.374
780.252
782.274
784.52
787.031
789.829
792.913
796.257
799.82
803.544
807.36
811.196
814.967
818.565
821.868
824.747
827.068
828.734
829.676
829.847
829.228
827.807
825.583
822.566
818.781
814.268
809.081
803.278
796.931
790.134
782.998
775.657
768.249
760.884
753.655
746.631
739.876
733.457
727.438
721.876
716.826
712.32
708.388
705.051
702.304
700.114
698.427
697.154
696.217
695.552
695.095
694.786
694.55
694.29
693.904
693.28
692.288
690.8
688.673
685.766
681.976
677.229
671.469
664.664
656.761
647.705
637.464
626.021
613.391
599.619
584.769
568.934
552.263
534.937
517.168
499.183
481.174
463.322
445.802
428.79
412.489
397.088
382.75
369.625
357.837
347.494
338.688
331.466
325.804
321.637
318.863
317.365
317.047
317.805
319.529
322.105
325.406
329.329
333.788
338.689
343.945
349.46
355.141
360.936
366.831
372.826
378.942
385.192
391.576
398.097
404.743
411.478
418.241
424.923
431.401
437.561
443.28
448.438
452.91
456.543
459.182
460.689
460.921
459.742
457.033
452.688
446.643
438.898
429.501
418.562
406.218
392.617
377.941
362.394
346.201
329.613
312.867
296.185
279.804
263.968
248.918
234.878
222.023
210.466
200.275
191.477
184.066
178.016
173.255
169.681
167.172
165.589
164.803
164.69
165.1
165.863
166.805
167.758
168.589
169.204
169.523
169.491
169.069
168.245
167.037
165.483
163.623
161.5
159.149
156.608
153.943
151.232
148.555
146.001
143.636
141.52
139.72
138.284
137.244
136.61
136.364
136.484
136.951
137.751
138.872
140.286
141.938
143.762
145.687
147.624
149.484
151.16
152.519
153.446
153.843
153.631
152.758
151.169
148.796
145.578
141.455
136.394
130.396
123.478
115.671
107.029
97.627
87.572
77.013
66.091
54.933
43.66
32.377
21.204
10.276
-0.265
-10.289
-19.69
-28.393
-36.341
-43.484
-49.799
-55.281
-59.957
-63.893
-67.154
-69.801
-71.891
-73.485
-74.66
-75.517
-76.169
-76.716
-77.241
-77.807
-78.465
-79.262
-80.235
-81.407
-82.782
-84.343
-86.07
-87.947
-89.96
-92.085
-94.283
-96.497
-98.649
-100.682
-102.55
-104.216
-105.657
-106.847
-107.763
-108.401
-108.767
-108.875
-108.747
-108.401
-107.856
-107.153
-106.343
-105.495
-104.693
-104.008
-103.498
-103.226
-103.242
-103.588
-104.301
-105.391
-106.848
-108.657
-110.788
-113.207
-115.866
-118.68
-121.542
-124.338
-126.939
-129.22
-131.06
-132.316
-132.861
-132.589
-131.414
-129.291
-126.199
-122.129
-117.094
-111.14
-104.346
-96.842
-88.792
-80.359
-71.727
-63.098
-54.693
-46.77
-39.579
-33.334
-28.22
-24.391
-21.986
-21.126
-21.898
-24.331
-28.408
-34.068
-41.222
-49.778
-59.613
-70.554
-82.38
-94.831
-107.641
-120.57
-133.394
-145.886
-157.812
-168.962
-179.166
-188.31
-196.317
-203.115
-208.635
-212.812
-215.628
-217.131
-217.427
-216.652
-214.957
-212.499
-209.447
-206.014
-202.428
-198.887
-195.545
-192.525
-189.948
-187.962
-186.742
-186.45
-187.191
-189.01
-191.9
-195.83
-200.75
-206.566
-213.13
-220.238
-227.663
-235.211
-242.724
-250.043
-256.98
-263.313
-268.782
-273.159
-276.272
-278.001
-278.282
-277.065
-274.336
-270.132
-264.553
-257.792
-250.098
-241.724
-232.927
-223.963
-215.098
-206.7
-199.206
-192.936
-188.099
-184.692
-182.526
-181.636
-182.195
-184.273
-187.926
-193.195
-200.113
-209.159
-221.129
-236.157
-253.987
-274.225
-295.715
-317.171
-337.703
-355.587
-369.711
-380.907
-387.936
-388.89
-382.007
-362.883
-333.026
-298.838
-265.731
-242.115
-230.32
-227.785
-234.405
-246.528
-261.277
-273.126
-271.807
-248.38
-196.458
-121.44
-37.059
36.424
75.886
71.743
24.985
-49.036
-122.453
-173.679
-189.201
-169.314
-130.106
-89.442
-60.545
-48.653
-48.522
-50.906
-50.292
-45.388
-38.076
-32.081
-28.436
-25.706
-22.976
-19.65
-15.723
-11.938
-8.526
-5.206
-2.17
0.097
1.31
1.224
-0.171
-2.629
-6.056
-10.48
-15.82
-21.942
-28.681
-35.832
-43.239
-50.77
-58.258
-65.511
-72.302
-78.431
-83.745
-88.126
-91.499
-93.814
-95.039
-95.173
-94.247
-92.315
-89.445
-85.709
-81.18
-75.956
-70.153
-63.909
-57.385
-50.715
-44.006
-37.353
-30.83
-24.497
-18.403
-12.561
-6.969
-1.631
3.452
8.285
12.89
17.328
21.662
25.94
30.258
34.742
39.494
44.6
50.081
55.873
61.937
68.287
74.762
81.006
86.916
92.594
98.063
103.64
108.71
111.469
112.357
112.973
116.023
126.88
144.779
164.701
181.989
187.639
180.763
166.707
147.583
131.583
122.105
118.06
124.71
141.161
165.895
197.709
225.788
242.191
240.267
215.014
173.98
126.251
85.065
66.868
77.51
120.791
191.005
269.946
341.626
388.395
400.911
385.26
350.711
308.676
268.245
230.317
196.235
171.787
161.685
171.949
203.982
248.27
294.288
327.983
336.622
317.506
272.809
214.594
160.308
123.647
111.972
122.557
145.597
169.373
188.151
199.53
203.18
203.536
198.623
187.633
173.827
154.865
135.802
123.519
118.643
126.187
144.308
164.337
182.38
193.03
195.072
194.263
193.738
195.767
201.364
208.265
215.329
222.598
229.95
237.683
245.824
253.954
261.849
269.453
276.653
283.329
289.373
294.668
299.16
302.845
305.693
307.647
308.63
308.541
307.309
304.883
301.23
296.365
290.311
283.148
275.085
266.366
257.227
247.903
238.508
229.087
219.732
210.381
200.798
190.933
180.941
171.076
161.797
152.75
142.774
131.657
120.432
112.998
114.941
129.28
154.562
182.276
200.5
199.441
175.916
137.678
97.01
66.601
55.1
61.791
83.467
114.99
148.997
179.668
199.104
200.431
181.944
145.455
97.896
46.932
-1.298
-38.797
-60.996
-64.2
-45.804
-13.6
23.676
56.438
71.776
67.407
44.248
5.378
-36.676
-71.919
-92.062
-90.634
-70.158
-38.345
-3.71
26.835
47.644
58.816
62.106
56.296
45.589
32.379
16.899
2.369
-13.238
-31.938
-52.784
-75.235
-96.313
-112.967
-123.874
-127.84
-124.829
-116.253
-102.728
-84.655
-60.215
-24.878
21.723
74.382
121.648
150.198
154.888
140.624
120.381
106.793
104.559
111.691
122.681
133.565
144.66
157.956
174.484
194.144
215.97
238.013
258.171
274.54
284.475
285.815
277.93
260.302
233.012
197.781
156.823
112.674
68.893
28.39
-6.852
-34.635
-53.818
-64.921
-69.045
-67.895
-63.847
-58.472
-52.94
-48.818
-46.814
-46.698
-48.021
-49.822
-51.123
-51.837
-51.791
-50.505
-48.111
-44.781
-40.497
-35.561
-29.629
-22.705
-16.593
-12.34
-9.371
-3.977
9.887
34.025
63.507
86.444
89.922
68.932
28.212
-19.451
-61.537
-92.722
-115.338
-136.916
-162.798
-193.017
-222.036
-241.41
-247.705
-243.781
-238.334
-243.707
-266.958
-307.36
-358.782
-409.42
-448.295
-471.19
-477.867
-474.98
-471.874
-472.321
-477.035
-480.67
-478.635
-473.479
-469.237
-473.567
-488.704
-508.03
-526.092
-536.733
-537.862
-535.247
-533.322
-534.429
-539.102
-541.391
-533.987
-514.488
-486.163
-459.75
-448.14
-457.445
-483.718
-514.815
-538.932
-550.141
-549.431
-543.134
-535.12
-525.758
-514.724
-500.37
-482.758
-463.965
-445.315
-427.998
-413.564
-403.028
-396.756
-394.966
-397.169
-402.164
-409.375
-418.608
-429.308
-440.971
-453.127
-464.938
-475.935
-486.414
-496.286
-505.176
-513.133
-520.19
-526.75
-534.145
-543.324
-554.445
-567.893
-583.71
-600.974
-618.672
-634.979
-646.606
-650.938
-646.076
-629.568
-600.134
-558.394
-505.047
-442.99
-378.284
-314.519
-254.399
-200.4
-149.393
-101.185
-61.465
-36.128
-35.95
-66.602
-120.08
-182.586
-234.3
-259.924
-258.182
-236.348
-209.033
-188.761
-179.813
-181.06
-185.937
-189.053
-189.346
-187.492
-186.005
-186.47
-188.084
-189.953
-191.559
-192.701
-193.701
-194.693
-195.366
-195.567
-195.507
-195.357
-195.585
-196.839
-199.667
-205.045
-213.826
-226.295
-242.647
-262.627
-284.647
-306.768
-327.033
-342.533
-352.214
-355.743
-350.7
-336.65
-312.677
-278.144
-239.082
-201.047
-169.956
-152.308
-146.196
-149.278
-158.852
-169.991
-183.71
-200.5
-219.399
-240.956
-262.759
-282.729
-300.979
-317.49
-332.977
-348.632
-364.636
-380.882
-397.588
-414.621
-431.658
-448.43
-464.382
-478.86
-491.546
-502.273
-510.886
-517.419
-521.934
-524.485
-525.297
-524.641
-522.754
-519.907
-516.334
-512.231
-507.834
-503.346
-498.922
-494.715
-490.841
-487.386
-484.453
-482.095
-480.318
-479.108
-478.407
-478.124
-478.161
-478.379
-478.621
-478.746
-478.608
-478.098
-477.143
-475.674
-473.632
-470.972
-467.637
-463.592
-458.836
-453.369
-447.208
-440.393
-432.971
-425.017
-416.633
-407.917
-398.954
-389.817
-380.555
-371.206
-361.806
-352.387
-342.976
-333.599
-324.267
-314.986
-305.762
-296.593
-287.467
-278.361
-269.232
-260.023
-250.688
-241.185
-231.481
-221.567
-211.442
-201.111
-190.597
-179.926
-169.137
-158.29
-147.447
-136.665
-126.008
-115.542
-105.345
-95.525
-86.181
-77.401
-69.274
-61.848
-55.157
-49.227
-44.058
-39.63
-35.902
-32.795
-30.221
-28.107
-26.364
-24.901
-23.614
-22.355
-20.995
-19.419
-17.511
-15.192
-12.391
-9.027
-5.051
-0.438
4.822
10.706
17.188
24.269
31.925
40.117
48.793
57.859
67.245
76.908
86.798
96.882
107.114
117.423
127.752
138.062
148.299
158.42
168.363
178.025
187.329
196.22
204.65
212.598
220.014
226.812
232.919
238.267
242.813
246.556
249.5
251.652
253.051
253.752
253.849
253.483
252.787
251.879
250.885
249.919
249.126
248.692
248.796
249.612
251.283
253.906
257.566
262.332
268.252
275.353
283.629
293.02
303.46
314.879
327.203
340.359
354.24
368.694
383.549
398.63
413.788
428.9
443.852
458.516
472.748
486.393
499.323
511.421
522.589
532.717
541.665
549.307
555.565
560.39
563.761
565.698
566.167
565.107
562.493
558.27
552.33
544.645
535.292
524.193
511.312
496.984
481.401
464.852
448.422
431.811
414.213
396.904
380.065
366.63
361.408
362.502
366.501
365.366
348.599
315.846
272.01
229.752
204.258
202.806
228.03
270.97
317.594
354.528
367.167
353.523
319.882
276.982
241.087
219.369
211.782
215.287
222.908
231.916
242.944
256.172
272.14
289.928
307.376
322.635
334.055
340.182
339.491
331.499
317.077
297.211
274.457
251
226.265
200.877
174.019
144.434
115.476
87.707
63.752
48.597
41.109
43.084
50.795
53.453
46.874
25.802
-8.511
-46.3
-85.214
-123.886
-161.734
-200.094
-231.835
-248.917
-247.313
-227.032
-195.704
-159.943
-125.5
-98.024
-77.929
-68.39
-70.291
-77.569
-88.522
-100.041
-107.175
-112.585
-115.401
-112.843
-109.284
-105.693
-103.311
-106.035
-111.313
-116.926
-122.686
-127.642
-133.534
-141.72
-152.469
-165.709
-178.689
-189.939
-199.303
-206.286
-214.484
-224.329
-228.262
-217.545
-181.034
-112.76
-22.43
74.998
164.678
234.996
288.442
333.174
374.76
418.219
461.012
496.171
519.953
528.729
521.643
502.061
472.178
433.859
390.036
342.795
294.901
251.134
215.939
192.407
183.625
190.836
211.954
244.797
287.088
337.085
397.455
470.165
551.065
630.933
693.649
722.321
710.331
658.033
573.019
470.479
361.123
258.614
180.038
133.569
126.693
155.028
199.631
243.782
268.634
264.551
234.422
184.042
125.849
70.544
27.762
5.37
5.399
28.618
66.728
108.061
139.928
146.046
119.879
61.612
-20.465
-107.282
-181.829
-231.372
-253.242
-256.47
-253.668
-258.278
-275.652
-303.828
-337.497
-366.33
-384.128
-387.54
-374.14
-347.668
-311.223
-267.116
-219.45
-169.85
-120.998
-77.908
-43.944
-21.932
-13.109
-15.524
-27.338
-47.852
-78.15
-121.577
-179.145
-245.171
-306.334
-344.306
-345.086
-308.866
-249.129
-187.711
-146.751
-135.553
-153.409
-192.547
-235.909
-269.647
-282.294
-266.721
-229.436
-180.036
-128.717
-81.626
-35.895
10.659
56.287
91.817
104.545
87.766
43.382
-16.644
-78.032
-131.367
-172.837
-204.36
-227.573
-240.806
-241.389
-226.809
-197.373
-157.084
-111.23
-64.968
-23.186
9.734
31.276
40.775
38.202
25.443
1.959
-36.586
-89.644
-152.775
-214.288
-254
-261.105
-236.272
-189.425
-139.22
-94.572
-53.195
-11.23
34.915
79.156
109.476
119.315
107.508
80.603
48.95
21.153
6.977
13.364
41.994
89.67
146.112
200.984
248.929
288.876
322.965
351.219
370.683
377.143
367.665
343.601
306.444
257.577
198.799
129.957
56.898
-9.302
-58.897
-82.739
-81.253
-63.375
-36.171
-4.009
34.501
82.398
134.799
179.817
204.545
201.18
173.64
133.011
87.378
42.678
-1.328
-45.877
-82.614
-105.888
-110.503
-92.345
-61.332
-25.675
6.767
22.706
19.52
-4.114
-46.914
-95.259
-138.011
-164.934
-168.771
-154.917
-132.446
-112.044
-102.765
-105.608
-117.12
-131.489
-143.864
-152.846
-158.998
-163.972
-168.696
-173.054
-176.848
-179.853
-182.109
-183.88
-185.243
-186.149
-186.577
-186.477
-185.78
-184.422
-182.325
-179.426
-175.728
-171.28
-166.113
-160.262
-153.769
-146.673
-139.037
-130.92
-122.356
-113.378
-104.008
-94.26
-84.153
-73.688
-62.837
-51.559
-39.789
-27.435
-14.409
-0.623
14.025
29.614
46.216
63.89
82.669
102.578
123.644
145.892
169.333
193.951
219.691
246.469
274.178
302.68
331.831
361.472
391.424
421.521
451.619
481.584
511.301
540.642
569.461
597.593
624.886
651.21
676.461
700.553
723.406
744.955
765.144
783.943
801.336
817.302
831.796
844.758
856.125
865.864
873.975
880.484
885.417
888.783
890.597
890.89
889.707
887.114
883.173
877.939
871.471
863.859
855.222
845.709
835.481
824.672
813.411
801.825
790.053
778.261
766.598
755.195
744.169
733.626
723.68
714.456
706.065
698.587
692.086
686.607
682.192
678.904
676.789
675.87
676.16
677.654
680.36
684.298
689.485
695.925
703.598
712.465
722.481
733.602
745.769
758.897
772.878
787.57
802.838
818.544
834.53
850.617
866.592
882.224
897.277
911.525
924.748
936.73
947.28
956.227
963.436
968.818
972.318
973.921
973.639
971.519
967.668
962.251
955.483
947.607
938.895
929.644
920.177
910.846
901.972
893.85
886.754
880.921
876.568
873.878
872.984
873.96
876.806
881.46
887.805
895.696
904.936
915.28
926.42
938
949.689
961.165
972.112
982.229
991.214
998.794
1004.755
1008.954
1011.306
1011.788
1010.425
1007.275
1002.465
996.197
988.756
980.503
971.801
963.029
954.576
946.821
940.173
935.039
931.776
930.711
932.129
936.236
943.248
953.378
966.632
982.831
1001.571
1022.172
1044.019
1066.605
1089.287
1111.451
1132.782
1153.185
1172.997
1192.882
1212.975
1232.936
1252.288
1270.069
1284.794
1294.589
1296.845
1288.786
1268.616
1235.319
1188.418
1128.371
1056.287
973.912
883.981
789.345
692.046
593.642
495.41
398.057
301.791
206.522
111.638
16.301
-78.583
-171.883
-264.351
-355.598
-447.316
-541.469
-633.743
-721.054
-799.312
-863.743
-918.641
-967.827
-1013.951
-1060.269
-1102.853
-1138.621
-1168.285
-1194.462
-1222.742
-1256.364
-1293.891
-1326.662
-1343.97
-1337.43
-1301.448
-1244.144
-1180.105
-1125.813
-1101.004
-1110.543
-1151.001
-1214.731
-1284.776
-1351.931
-1409.087
-1447.738
-1464.322
-1451.668
-1404.415
-1319.183
-1199.746
-1070.71
-946.456
-811.775
-697.566
-715.107
-898.209
-1105.024
-1199.803
-1210.198
-1221.32
-1237.824
-1225.099
-1189.473
-1153.482
-1120.828
-1092.022
-1072.456
-1067.026
-1080.806
-1113.759
-1157.079
-1200.547
-1238.607
-1271.677
-1306.662
-1350.906
-1401.047
-1446.491
-1476.104
-1478.253
-1451.784
-1405.421
-1346.591
-1284.11
-1223.374
-1163.101
-1104.353
-1049.699
-1002.196
-966.844
-946.758
-942.806
-954.551
-979.943
-1015.863
-1058.515
-1103.84
-1147.927
-1187.103
-1217.92
-1237.117
-1243.559
-1239.08
-1224.59
-1200.167
-1164.921
-1114.633
-1050.365
-980.541
-913.839
-861.231
-828.56
-809.777
-795.972
-775.877
-740.876
-693.073
-640.629
-596.639
-570.35
-561.784
-566.581
-574.4
-581.49
-592.639
-609.325
-633.654
-657.378
-661.96
-635.73
-569.17
-466.019
-346.367
-229.758
-140.817
-95.925
-92.809
-125.335
-177.506
-230.249
-275.072
-301.932
-302.76
-278.057
-226.097
-151.578
-68.168
13.305
76.549
107.307
103.191
66.275
11.968
-39.551
-77.612
-96.312
-103.159
-112.707
-131.757
-165.021
-209.966
-256.949
-302.414
-345.023
-385.49
-429.546
-477.073
-521.685
-554.81
-566.989
-555.512
-526.615
-492.322
-463.667
-447.376
-445.42
-453.328
-467.629
-486.637
-508.851
-537.47
-575.104
-622.293
-679.252
-742.795
-808.78
-873.653
-934.264
-989.547
-1041.201
-1091.875
-1141.72
-1186.249
-1214.944
-1217.436
-1191.109
-1141.727
-1082.389
-1024.058
-969.688
-917.807
-866.61
-822.075
-795.673
-798.166
-834.482
-895.703
-966.648
-1031.126
-1075.129
-1095.755
-1096.122
-1083.274
-1067.86
-1059.102
-1064.983
-1089.324
-1132.331
-1189.26
-1250.704
-1310.722
-1362.009
-1398.548
-1420.22
-1423.221
-1408.132
-1381.746
-1347.742
-1312.884
-1281.578
-1251.137
-1220.631
-1189.513
-1157.554
-1127.866
-1102.771
-1082.272
-1067.261
-1058.227
-1053.396
-1052.639
-1054.137
-1055.065
-1058.645
-1066.827
-1081.752
-1106.833
-1137.59
-1169.682
-1199.453
-1221.508
-1236.057
-1243.759
-1244.746
-1240.293
-1228.688
-1208.312
-1179.154
-1141.307
-1096.713
-1047.909
-995.522
-941.333
-889.181
-840.913
-798.08
-760.748
-724.704
-691.369
-667.799
-660.585
-677.49
-717.041
-768.053
-820.317
-863.909
-894.824
-915.311
-925.901
-927.319
-919.75
-902.166
-875.907
-843.052
-805.465
-765.687
-725.692
-686.674
-649.411
-613.811
-579.341
-545.809
-513.528
-483.386
-456.443
-433.437
-415.272
-403.054
-397.637
-399.664
-408.748
-423.058
-440.53
-459.388
-477.586
-493.243
-504.789
-510.346
-509.027
-501.295
-487.653
-468.869
-446.085
-420.028
-391.461
-361.809
-332.025
-302.768
-275.199
-249.967
-227.741
-209.877
-197.358
-190.71
-190.395
-196.077
-206.53
-220.657
-236.509
-251.218
-262.348
-267.433
-264.446
-252.558
-231.575
-201.764
-164.88
-123.69
-80.9
-39.66
-2.48
29.097
53.535
69.981
78.96
81.792
80.236
76.635
72.666
69.403
68.201
69.877
74.499
81.833
91.119
101.178
111.358
121.334
130.607
139.061
146.862
154.032
160.808
167.578
174.369
181.288
188.71
196.637
204.859
213.483
222.636
232.493
243.541
255.631
267.9
279.87
291.315
301.768
310.792
317.759
321.66
322.411
320.931
317.821
313.491
308.412
302.864
297.411
293.046
290.072
288.054
286.775
286.125
286.096
286.977
288.855
291.519
295.052
299.824
306.107
314.159
324.123
335.906
349.472
364.863
382.015
400.8
421.058
442.56
465.091
488.483
512.529
537.003
561.696
586.379
610.839
634.889
658.33
680.977
702.677
723.282
742.679
760.799
777.61
793.118
807.372
820.439
832.412
843.414
853.572
863.022
871.901
880.334
888.447
896.356
904.171
911.999
919.941
928.068
936.401
944.901
953.496
962.108
970.664
979.107
987.33
995.167
1002.539
1009.508
1016.304
1023.209
1030.322
1037.492
1044.548
1051.542
1058.533
1065.418
1071.764
1077.004
1081.04
1084.482
1088.315
1093.232
1099.709
1108.283
1119.791
1135.289
1155.27
1179.221
1205.907
1234.276
1263.557
1293.017
1321.781
1348.658
1372.742
1393.897
1412.565
1429.098
1443.608
1456.071
1466.46
1475.017
1481.972
1487.254
1490.609
1491.849
1490.984
1488.226
1483.879
1478.179
1471.358
1463.698
1455.536
1447.228
1439.051
1431.19
1423.782
1416.94
1410.784
1405.444
1401.002
1397.491
1394.911
1393.219
1392.361
1392.276
1392.869
1394.037
1395.669
1397.638
1399.845
1402.217
1404.677
1407.168
1409.632
1411.992
1414.194
1416.198
1417.972
1419.504
1420.798
1421.856
1422.698
1423.345
1423.821
1424.173
1424.448
1424.704
1425.008
1425.408
1425.954
1426.699
1427.677
1428.947
1430.596
1432.706
1435.365
1438.633
1442.502
1447.01
1452.238
1458.123
1464.515
1471.077
1477.259
1482.746
1487.48
1491.373
1494.351
1496.4
1497.428
1497.726
1498.005
1498.342
1498.19
1496.685
1492.573
1484.763
1472.526
1454.696
1429.693
1396.764
1355.942
1307.986
1254.49
1196.78
1135.761
1072.74
1009.324
946.677
885.585
826.258
768.242
711.446
656.18
602.641
551.012
501.552
454.537
410.471
370.089
333.849
301.926
274.371
251.058
231.806
216.41
204.531
195.709
189.491
185.425
183.065
181.994
181.773
181.937
182.053
181.731
180.619
178.429
174.929
169.937
163.356
155.158
145.373
134.088
121.429
107.555
92.659
76.961
60.698
44.124
27.494
11.042
-4.994
-20.397
-34.981
-48.582
-61.098
-72.479
-82.708
-91.804
-99.808
-106.784
-112.829
-118.062
-122.603
-126.584
-130.134
-133.378
-136.46
-139.517
-142.664
-146.008
-149.606
-153.481
-157.641
-162.072
-166.74
-171.593
-176.553
-181.52
-186.408
-191.131
-195.604
-199.744
-203.443
-206.6
-209.134
-210.971
-212.066
-212.398
-211.953
-210.732
-208.764
-206.089
-202.776
-198.918
-194.593
-189.877
-184.844
-179.564
-174.119
-168.592
-163.049
-157.546
-152.125
-146.806
-141.602
-136.515
-131.527
-126.602
-121.677
-116.663
-111.471
-106.028
-100.269
-94.144
-87.598
-80.584
-73.072
-65.055
-56.553
-47.617
-38.32
-28.743
-18.991
-9.202
0.458
9.786
18.576
26.648
33.843
40.014
45.019
48.725
51.027
51.863
51.216
49.113
45.614
40.802
34.791
27.742
19.86
11.385
2.556
-6.415
-15.342
-24.047
-32.348
-40.074
-47.083
-53.278
-58.603
-63.036
-66.579
-69.257
-71.131
-72.307
-72.93
-73.165
-73.171
-73.074
-72.978
-72.98
-73.176
-73.647
-74.445
-75.593
-77.097
-78.958
-81.172
-83.727
-86.585
-89.681
-92.932
-96.25
-99.559
-102.803
-105.939
-108.935
-111.771
-114.453
-117.02
-119.522
-122.003
-124.486
-126.975
-129.474
-131.987
-134.523
-137.085
-139.663
-142.249
-144.831
-147.4
-149.946
-152.436
-154.809
-156.97
-158.818
-160.28
-161.307
-161.876
-161.98
-161.625
-160.842
-159.697
-158.277
-156.665
-154.937
-153.152
-151.368
-149.664
-148.141
-146.924
-146.149
-145.932
-146.378
-147.584
-149.635
-152.6
-156.512
-161.356
-167.091
-173.685
-181.116
-189.373
-198.453
-208.339
-219.009
-230.438
-242.587
-255.408
-268.837
-282.785
-297.157
-311.858
-326.817
-341.989
-357.34
-372.821
-388.367
-403.904
-419.343
-434.584
-449.508
-463.972
-477.845
-491.023
-503.439
-515.059
-525.871
-535.877
-545.077
-553.474
-561.079
-567.918
-574.031
-579.468
-584.302
-588.631
-592.585
-596.325
-599.996
-603.696
-607.493
-611.422
-615.509
-619.779
-624.227
-628.818
-633.486
-638.14
-642.687
-647.04
-651.055
-654.534
-657.346
-659.456
-660.989
-662.238
-663.465
-664.867
-666.621
-668.864
-671.448
-673.931
-675.623
-675.623
-673.364
-668.618
-661.331
-652.068
-642.247
-633.547
-628.075
-627.284
-630.563
-638.705
-653.484
-676.894
-713.101
-760.287
-810.497
-855.716
-886.104
-899.66
-903.94
-905.477
-911.121
-922.562
-934.106
-942.335
-944.857
-940.522
-931.434
-918.119
-900.443
-879.376
-855.271
-828.69
-800.701
-771.841
-742.499
-713.515
-685.468
-658.211
-631.818
-606.818
-583.838
-564.965
-553.564
-550.565
-555.397
-565.928
-575.768
-583.06
-591.285
-605.031
-635.422
-687.766
-756.181
-832.063
-897.358
-936.865
-948.732
-935.857
-913.735
-900.844
-905.466
-931.494
-970.056
-1005.549
-1028.655
-1032.136
-1016.503
-988.375
-950.754
-906.592
-858.112
-805.089
-749.043
-692.198
-636.205
-583.489
-536.85
-498.123
-467.826
-445.9
-432.184
-426.695
-429.762
-440.32
-455.005
-470.405
-485.323
-502.982
-528.641
-565.467
-611.63
-656.922
-688.778
-697.317
-678.647
-640.623
-597.997
-568.282
-564.941
-588.986
-630.896
-673.344
-701.258
-709.562
-701.179
-684.911
-667.325
-649.655
-630.866
-608.783
-583.347
-556.176
-528.391
-500.857
-473.883
-447.569
-422.413
-398.785
-376.534
-355.579
-336.303
-319.474
-306.347
-298.158
-295.378
-298.208
-307.056
-322.033
-342.76
-368.154
-396.033
-424.008
-450.629
-474.671
-494.624
-509.255
-517.527
-519.289
-516.261
-510.709
-504.069
-497.711
-493.19
-491.895
-495.624
-505.543
-520.554
-538.584
-557.861
-576.474
-592.848
-605.726
-613.101
-613.155
-605.936
-592.586
-574.665
-554.195
-532.547
-510.608
-489.887
-471.979
-457.612
-446.899
-439.341
-433.921
-430.181
-428.113
-427.489
-428.047
-429.644
-432.225
-436.057
-441.656
-449.234
-458.738
-470.026
-482.85
-496.998
-512.27
-528.353
-544.859
-561.429
-577.749
-593.564
-608.656
-622.765
-635.634
-647.023
-656.722
-664.58
-670.494
-674.389
-676.246
-676.085
-673.976
-670.028
-664.365
-657.109
-648.391
-638.341
-627.108
-614.877
-601.823
-588.116
-573.929
-559.418
-544.728
-530.001
-515.342
-500.809
-486.442
-472.269
-458.318
-444.645
-431.318
-418.387
-405.897
-393.888
-382.393
-371.489
-361.273
-351.807
-343.134
-335.283
-328.254
-322.16
-317.243
-313.553
-310.97
-309.335
-308.365
-308.032
-308.674
-310.286
-312.46
-315.123
-318.48
-323.041
-329.846
-339.06
-349.654
-360.988
-372.952
-385.066
-396.558
-405.881
-410.279
-409.187
-404.83
-398.815
-391.62
-380.605
-361.049
-331.593
-296.279
-265.086
-249.157
-256.312
-287.915
-334.814
-382.77
-416.114
-422.421
-400.73
-359.199
-311.505
-270.236
-240.097
-218.939
-200.476
-180.4
-158.573
-136.653
-117.052
-100.211
-84.835
-70.139
-55.759
-41.708
-28.169
-15.099
-2.454
9.436
20.003
28.919
36.147
41.809
46.096
49.107
50.862
51.47
51.16
50.164
48.711
47.01
45.195
43.416
41.856
40.698
40.141
40.365
41.487
43.582
46.703
50.885
56.162
62.557
70.05
78.583
88.065
98.371
109.385
120.988
133.036
145.377
157.841
170.236
182.416
194.269
205.698
216.633
227.011
236.735
245.721
253.974
261.519
268.402
274.7
280.424
285.574
290.249
294.588
298.529
301.964
305.029
307.733
310.07
312.441
313.895
313.515
312.707
311.896
313.607
320.836
330.171
339.33
344.921
342.305
335.52
327.995
322.117
321.841
324.424
327.082
329.225
329.16
327.951
326.979
326.12
325.703
325.806
326.325
327.604
329.958
333.508
338.402
344.772
352.683
362.199
373.392
386.311
400.998
417.499
435.809
455.878
477.617
500.916
525.653
551.67
578.78
606.776
635.449
664.609
694.098
723.733
753.304
782.593
811.369
839.42
866.564
892.625
917.432
940.828
962.669
982.838
1001.261
1017.874
1032.617
1045.432
1056.257
1065.065
1071.881
1076.757
1079.779
1081.064
1080.733
1078.947
1075.915
1071.867
1067.058
1061.763
1056.257
1050.835
1045.823
1041.551
1038.368
1036.608
1036.572
1038.543
1042.76
1049.416
1058.686
1070.688
1085.479
1103.064
1123.383
1146.309
1171.682
1199.284
1228.836
1260.025
1292.482
1325.801
1359.575
1393.378
1426.811
1459.498
1491.054
1521.115
1549.358
1575.498
1599.322
1620.682
1639.462
1655.589
1669.05
1679.886
1688.209
1694.192
1698.031
1699.949
1700.166
1698.906
1696.439
1693.051
1689.018
1684.597
1680.004
1675.416
1671.016
1666.987
1663.472
1660.569
1658.318
1656.711
1655.73
1655.349
1655.534
1656.222
1657.3
1658.625
1660.049
1661.439
1662.671
1663.628
1664.152
1664.053
1663.158
1661.315
1658.399
1654.299
1648.892
1642.045
1633.646
1623.624
1611.953
1598.632
1583.654
1567.009
1548.684
1528.687
1507.077
1483.956
1459.424
1433.596
1406.602
1378.591
1349.757
1320.295
1290.371
1260.12
1229.635
1199.009
1168.351
1137.781
1107.418
1077.383
1047.754
1018.592
989.962
961.883
934.34
907.278
880.585
854.164
827.95
801.894
775.973
750.158
724.394
698.625
672.783
646.77
620.504
593.895
566.844
539.309
511.29
482.822
453.996
424.896
395.589
366.161
336.697
307.29
278.066
249.147
220.676
192.847
165.867
139.952
115.327
92.167
70.615
50.799
32.798
16.674
2.472
-9.818
-20.238
-28.852
-35.759
-41.075
-44.944
-47.575
-49.195
-50.048
-50.384
-50.431
-50.415
-50.583
-51.155
-52.33
-54.281
-57.118
-60.913
-65.722
-71.569
-78.456
-86.36
-95.216
-104.949
-115.478
-126.723
-138.599
-151.002
-163.787
-176.806
-189.922
-203.007
-215.979
-228.77
-241.31
-253.545
-265.429
-276.916
-287.971
-298.55
-308.588
-318.014
-326.768
-334.806
-342.125
-348.734
-354.648
-359.883
-364.431
-368.29
-371.476
-374.001
-375.892
-377.191
-377.948
-378.229
-378.138
-377.792
-377.304
-376.782
-376.302
-375.924
-375.708
-375.707
-375.988
-376.607
-377.605
-379.017
-380.862
-383.149
-385.879
-389.036
-392.577
-396.44
-400.561
-404.871
-409.328
-413.902
-418.56
-423.261
-427.957
-432.597
-437.135
-441.529
-445.734
-449.694
-453.355
-456.671
-459.604
-462.131
-464.228
-465.871
-467.014
-467.609
-467.611
-466.99
-465.73
-463.825
-461.284
-458.124
-454.378
-450.113
-445.399
-440.313
-434.944
-429.385
-423.739
-418.127
-412.689
-407.569
-402.916
-398.874
-395.571
-393.124
-391.627
-391.163
-391.801
-393.583
-396.537
-400.671
-405.969
-412.396
-419.896
-428.38
-437.734
-447.816
-458.465
-469.508
-480.775
-492.094
-503.303
-514.226
-524.68
-534.482
-543.458
-551.449
-558.308
-563.899
-568.098
-570.807
-571.964
-571.542
-569.536
-565.949
-560.792
-554.087
-545.876
-536.228
-525.239
-513.021
-499.692
-485.379
-470.23
-454.405
-438.075
-421.404
-404.535
-387.6
-370.739
-354.113
-337.89
-322.229
-307.276
-293.16
-280.009
-267.954
-257.12
-247.605
-239.476
-232.779
-227.556
-223.845
-221.682
-221.073
-221.984
-224.34
-228.042
-232.989
-239.068
-246.142
-254.035
-262.539
-271.433
-280.512
-289.59
-298.468
-306.925
-314.73
-321.662
-327.547
-332.256
-335.693
-337.772
-338.407
-337.547
-335.192
-331.391
-326.242
-319.857
-312.35
-303.849
-294.518
-284.574
-274.262
-263.829
-253.488
-243.429
-233.846
-224.944
-216.943
-210.027
-204.332
-199.953
-196.954
-195.396
-195.326
-196.763
-199.68
-203.996
-209.598
-216.353
-224.126
-232.767
-242.098
-251.904
-261.947
-272.011
-281.896
-291.426
-300.436
-308.755
-316.23
-322.73
-328.151
-332.421
-335.495
-337.352
-338.007
-337.512
-335.962
-333.492
-330.262
-326.442
-322.22
-317.778
-313.301
-308.978
-304.974
-301.455
-298.591
-296.541
-295.454
-295.452
-296.616
-298.983
-302.563
-307.327
-313.209
-320.112
-327.892
-336.387
-345.425
-354.832
-364.443
-374.077
-383.525
-392.565
-400.984
-408.586
-415.208
-420.711
-424.967
-427.886
-429.418
-429.561
-428.37
-425.93
-422.344
-417.73
-412.222
-405.983
-399.21
-392.123
-384.935
-377.855
-371.082
-364.804
-359.206
-354.447
-350.64
-347.86
-346.142
-345.49
-345.89
-347.304
-349.66
-352.861
-356.789
-361.3
-366.255
-371.51
-376.911
-382.317
-387.589
-392.609
-397.291
-401.565
-405.382
-408.709
-411.528
-413.836
-415.656
-417.022
-417.974
-418.567
-418.854
-418.895
-418.761
-418.509
-418.186
-417.831
-417.462
-417.095
-416.742
-416.408
-416.09
-415.782
-415.47
-415.141
-414.783
-414.383
-413.924
-413.388
-412.751
-411.997
-411.115
-410.105
-408.967
-407.703
-406.313
-404.797
-403.155
-401.393
-399.509
-397.499
-395.37
-393.123
-390.758
-388.288
-385.713
-383.041
-380.316
-377.56
-374.751
-371.868
-368.902
-365.868
-362.847
-359.915
-357.058
-354.223
-351.534
-349.238
-347.337
-345.763
-344.464
-342.937
-341.927
-342.401
-343.143
-343.601
-341.139
-332.988
-322.515
-312.273
-306.127
-308.433
-315.027
-322.656
-328.981
-329.691
-326.85
-322.138
-314.701
-305.811
-294.537
-279.588
-261.733
-242.117
-222.582
-205.62
-193.811
-188.86
-192.062
-204.463
-226.079
-255.795
-291.508
-330.564
-369.72
-405.975
-436.856
-460.11
-474.382
-479.515
-476.388
-466.365
-451.418
-433.768
-415.158
-397.24
-381.239
-367.564
-356.095
-346.469
-337.928
-329.529
-320.747
-311.177
-300.59
-289.152
-277.138
-264.901
-252.98
-241.945
-232.131
-223.753
-216.915
-211.574
-207.699
-205.209
-203.912
-203.57
-203.945
-204.801
-205.944
-207.204
-208.374
-209.253
-209.673
-209.493
-208.625
-207.01
-204.573
-201.229
-196.899
-191.534
-185.166
-177.898
-169.882
-161.293
-152.297
-143.025
-133.67
-124.459
-115.49
-106.724
-97.959
-88.949
-79.669
-70.357
-61.24
-52.362
-43.8
-35.791
-28.9
-23.741
-20.319
-18.068
-16.223
-14.312
-12.106
-9.105
-4.179
3.849
15.303
29.82
46.593
65.082
85.318
106.784
127.999
147.488
164.432
178.535
190.056
199.006
204.705
207.2
207.538
206.691
205.388
204.054
202.648
201.429
201.219
202.306
204.358
207.107
210.292
214
218.671
224.241
230.418
237.197
244.402
253.098
264.324
276.675
289.479
300.054
305.322
308.428
311.398
317.341
330.563
346.941
363.03
376.459
383.397
386.609
388.912
390.988
394.597
398.811
402.479
406.013
409.339
412.498
415.549
418.102
419.988
421.432
422.615
423.448
423.846
423.951
424.264
425.392
427.435
429.819
431.715
432.742
432.717
431.164
427.034
419.003
406.52
390.005
370.356
347.932
322.709
295.136
266.481
238.571
212.482
188.341
165.999
146.019
129.596
117.313
108.798
103.001
99.438
98.377
99.941
103.286
106.674
108.861
109.447
108.563
105.961
100.759
92.395
81.288
68.759
55.895
43.172
30.715
18.836
8.348
-0.128
-6.627
-11.817
-16.307
-20.299
-23.758
-26.646
-29.205
-31.715
-34.191
-36.292
-37.662
-38.254
-38.162
-37.656
-36.986
-36.129
-35.101
-34.172
-33.647
-33.606
-34.061
-34.724
-35.134
-35.326
-35.442
-35.535
-35.735
-36.329
-37.751
-40.738
-46.207
-54.568
-65.965
-80.252
-96.95
-115.328
-134.133
-151.87
-166.942
-177.91
-183.562
-183.139
-176.277
-162.99
-144.267
-121.412
-95.803
-69.098
-43.043
-19.232
0.74
15.413
24.447
28.046
26.471
20.398
10.799
-1.237
-14.067
-25.609
-34.7
-40.867
-43.652
-42.934
-38.728
-30.996
-20.498
-8.817
3.04
14.588
25.364
35.201
43.8
50.519
55.327
58.867
61.508
63.423
64.708
65.143
64.669
63.546
61.761
59.073
55.371
50.522
44.463
37.335
29.245
20.287
10.681
0.596
-9.937
-20.811
-31.789
-42.432
-52.209
-60.831
-68.31
-74.72
-79.852
-83.443
-85.611
-87.056
-88.8
-91.518
-95.118
-99.006
-102.802
-106.06
-107.773
-106.33
-100.713
-91.372
-79.122
-64.025
-42.22
-7.534
41.675
99.958
153.825
187.87
195.021
179.919
156.149
137.299
130.453
134.403
142.376
149.817
155.541
160.378
166.844
175.477
185.015
194.697
203.723
211.495
218.083
223.48
227.637
230.898
233.646
235.939
237.714
238.833
239.065
238.282
236.411
233.295
228.791
222.853
215.495
206.794
196.884
185.884
173.926
161.184
147.854
134.141
120.278
106.516
93.106
80.305
68.37
57.511
47.899
39.68
32.957
27.814
24.319
22.487
22.287
23.648
26.464
30.617
35.978
42.378
49.628
57.52
65.823
74.341
82.91
91.354
99.511
107.215
114.285
120.589
126.044
130.59
134.189
136.815
138.438
139.06
138.715
137.452
135.339
132.438
128.796
124.497
119.652
114.389
108.873
103.245
97.616
92.103
86.831
81.913
77.465
73.602
70.407
67.97
66.389
65.742
66.103
67.509
69.952
73.401
77.794
83.051
89.089
95.796
103.019
110.613
118.428
126.283
134.001
141.383
148.189
154.206
159.238
163.096
165.625
166.698
166.203
164.072
160.279
154.833
147.799
139.267
129.351
118.226
106.099
93.214
79.867
66.357
52.981
40.06
27.912
16.826
7.083
-1.064
-7.415
-11.793
-14.081
-14.221
-12.212
-8.133
-2.107
5.707
15.093
25.807
37.543
49.915
62.545
75.082
87.182
98.541
108.825
117.618
124.708
130.084
133.773
135.924
136.53
135.314
132.276
127.721
121.712
114.204
105.113
94.108
81.502
68.407
55.572
43.415
32.587
23.67
17.395
14.896
16.338
20.823
27.766
36.74
47.205
58.842
71.027
82.673
93.444
103.741
113.728
123.511
133.105
142.23
150.856
159.239
167.308
174.725
181.247
186.647
190.856
194.012
196.173
197.32
197.494
196.776
195.271
193.096
190.316
186.93
182.93
178.315
173.099
167.313
160.981
154.117
146.724
138.815
130.419
121.585
112.389
102.915
93.238
83.449
73.656
63.98
54.569
45.572
37.108
29.277
22.171
15.869
10.459
6.01
2.549
0.063
-1.499
-2.214
-2.157
-1.429
-0.16
1.51
3.422
5.424
7.404
9.261
10.899
12.23
13.158
13.595
13.501
12.865
11.699
10.043
7.942
5.463
2.708
-0.219
-3.217
-6.199
-9.111
-11.909
-14.542
-16.968
-19.141
-21.015
-22.576
-23.818
-24.734
-25.34
-25.661
-25.732
-25.613
-25.359
-25.002
-24.572
-24.085
-23.555
-23.003
-22.446
-21.894
-21.364
-20.868
-20.417
-20.031
-19.715
-19.464
-19.272
-19.125
-19.022
-18.989
-19.04
-19.182
-19.42
-19.752
-20.179
-20.712
-21.345
-22.057
-22.828
-23.632
-24.453
-25.295
-26.147
-26.999
-27.824
-28.573
-29.208
-29.707
-30.044
-30.19
-30.115
-29.772
-29.14
-28.228
-27.048
-25.619
-23.954
-22.058
-19.948
-17.655
-15.219
-12.699
-10.15
-7.628
-5.205
-2.969
-1.026
0.501
1.504
1.904
1.637
0.653
-1.09
-3.632
-6.994
-11.186
-16.207
-22.048
-28.697
-36.125
-44.275
-53.074
-62.413
-72.162
-82.188
-92.369
-102.601
-112.806
-122.909
-132.845
-142.557
-151.989
-161.093
-169.816
-178.091
-185.863
-193.083
-199.705
-205.703
-211.066
-215.782
-219.83
-223.163
-225.699
-227.346
-228.014
-227.609
-226.036
-223.196
-218.995
-213.374
-206.295
-197.74
-187.712
-176.219
-163.282
-148.946
-133.291
-116.442
-98.579
-79.907
-60.638
-41.001
-21.246
-1.644
17.525
36.017
53.626
70.178
85.515
99.498
112.01
122.965
132.341
140.161
146.506
151.508
155.317
158.117
160.142
161.657
162.945
164.278
165.886
167.966
170.718
174.322
178.941
184.726
191.769
200.126
209.812
220.788
232.977
246.26
260.465
275.381
290.776
306.41
322.07
337.573
352.73
367.369
381.323
394.415
406.503
417.461
427.185
435.618
442.749
448.598
453.236
456.77
459.324
461.047
462.078
462.539
462.553
462.237
461.716
461.14
460.652
460.396
460.509
461.092
462.224
463.961
466.33
469.337
472.976
477.224
482.057
487.463
493.417
499.889
506.825
514.138
521.733
529.497
537.321
545.108
552.757
560.165
567.235
573.868
579.957
585.393
590.05
593.794
596.504
598.079
598.45
597.575
595.434
592.021
587.335
581.384
574.2
565.832
556.343
545.816
534.362
522.114
509.244
495.944
482.398
468.775
455.23
441.89
428.873
416.287
404.231
392.79
382.027
371.989
362.707
354.199
346.448
339.414
333.022
327.168
321.751
316.671
311.825
307.127
302.499
297.868
293.175
288.377
283.439
278.341
273.072
267.624
262.011
256.266
250.439
244.6
238.822
233.178
227.752
222.624
217.86
213.512
209.617
206.188
203.228
200.726
198.655
196.986
195.672
194.649
193.842
193.162
192.52
191.827
190.984
189.888
188.447
186.586
184.246
181.392
178
174.064
169.591
164.599
159.123
153.213
146.929
140.342
133.517
126.516
119.407
112.263
105.149
98.124
91.23
84.497
77.946
71.59
65.436
59.479
53.707
48.097
42.621
37.247
31.951
26.717
21.53
16.374
11.236
6.111
0.996
-4.098
-9.166
-14.199
-19.185
-24.109
-28.951
-33.688
-38.294
-42.746
-47.022
-51.109
-54.993
-58.667
-62.128
-65.375
-68.41
-71.237
-73.856
-76.269
-78.482
-80.502
-82.34
-84.007
-85.519
-86.897
-88.169
-89.364
-90.505
-91.605
-92.674
-93.72
-94.75
-95.773
-96.797
-97.823
-98.845
-99.866
-100.889
-101.922
-102.964
-104
-104.997
-105.924
-106.762
-107.508
-108.174
-108.767
-109.297
-109.788
-110.276
-110.819
-111.481
-112.304
-113.318
-114.544
-116.008
-117.758
-119.865
-122.388
-125.37
-128.836
-132.795
-137.259
-142.24
-147.717
-153.64
-159.923
-166.471
-173.222
-180.138
-187.192
-194.356
-201.585
-208.81
-215.979
-223.05
-229.979
-236.733
-243.265
-249.52
-255.475
-261.136
-266.535
-271.716
-276.692
-281.445
-285.936
-290.119
-293.958
-297.425
-300.489
-303.117
-305.299
-307.033
-308.334
-309.246
-309.804
-310.038
-309.981
-309.66
-309.117
-308.431
-307.712
-307.089
-306.695
-306.664
-307.112
-308.147
-309.853
-312.291
-315.495
-319.459
-324.145
-329.483
-335.371
-341.698
-348.339
-355.131
-361.863
-368.285
-374.129
-379.122
-383.017
-385.583
-386.592
-385.839
-383.151
-378.403
-371.535
-362.547
-351.484
-338.423
-323.471
-306.785
-288.595
-269.193
-248.907
-228.091
-207.083
-186.219
-165.866
-146.391
-128.139
-111.425
-96.487
-83.515
-72.663
-64.057
-57.782
-53.861
-52.235
-52.772
-55.293
-59.582
-65.412
-72.532
-80.643
-89.42
-98.536
-107.68
-116.582
-125.001
-132.696
-139.431
-145.007
-149.274
-152.153
-153.622
-153.695
-152.422
-149.877
-146.167
-141.435
-135.849
-129.583
-122.806
-115.672
-108.329
-100.935
-93.646
-86.6
-79.894
-73.582
-67.678
-62.174
-57.032
-52.186
-47.559
-43.057
-38.59
-34.071
-29.413
-24.538
-19.372
-13.853
-7.932
-1.588
5.177
12.323
19.775
27.433
35.16
42.797
50.195
57.208
63.699
69.546
74.622
78.8
81.977
84.074
85.035
84.84
83.482
80.998
77.469
73.01
67.784
61.977
55.755
49.284
42.737
36.273
30.061
24.282
19.079
14.582
10.911
8.158
6.404
5.696
6.021
7.33
9.527
12.486
16.084
20.179
24.601
29.185
33.751
38.103
42.084
45.533
48.276
50.161
51.032
50.764
49.288
46.565
42.596
37.421
31.107
23.766
15.564
6.673
-2.713
-12.387
-22.174
-31.879
-41.294
-50.228
-58.474
-65.851
-72.212
-77.432
-81.421
-84.122
-85.513
-85.629
-84.564
-82.458
-79.513
-75.928
-71.869
-67.512
-62.972
-58.414
-54.105
-50.167
-46.607
-43.423
-40.508
-37.91
-35.935
-34.655
-33.903
-33.742
-34.286
-35.777
-38.768
-43.317
-48.953
-55.37
-62.292
-69.158
-75.365
-80.044
-81.988
-80.585
-75.802
-67.837
-57.282
-45.113
-32.559
-21.03
-12.068
-6.929
-6.496
-11.075
-20.341
-33.406
-48.943
-65.795
-82.919
-99.141
-113.442
-125.276
-134.68
-142.437
-149.573
-156.436
-162.983
-169.334
-175.609
-181.694
-187.056
-190.369
-190.13
-187.002
-182.418
-176.277
-169.418
-160.028
-146.265
-133.338
-125.023
-125.582
-139.291
-160.357
-183.514
-205.362
-220.842
-231.082
-237.352
-238.86
-237.067
-232.49
-225.655
-217.931
-210.034
-202.8
-197.279
-194.353
-194.267
-196.305
-199.341
-202.528
-205.408
-207.844
-209.7
-210.589
-210.286
-208.947
-206.967
-204.73
-202.432
-200.08
-197.633
-195.177
-192.855
-190.781
-189.024
-187.615
-186.603
-186.085
-186.193
-187.034
-188.665
-191.102
-194.316
-198.269
-202.911
-208.18
-213.994
-220.235
-226.773
-233.467
-240.185
-246.813
-253.244
-259.37
-265.071
-270.246
-274.822
-278.757
-282.047
-284.702
-286.749
-288.231
-289.214
-289.794
-290.071
-290.152
-290.122
-290.052
-290.009
-290.058
-290.275
-290.721
-291.437
-292.452
-293.773
-295.403
-297.337
-299.559
-302.03
-304.7
-307.514
-310.417
-313.371
-316.35
-319.329
-322.287
-325.199
-328.046
-330.816
-333.506
-336.111
-338.627
-341.05
-343.378
-345.622
-347.798
-349.922
-352.013
-354.075
-356.108
-358.112
-360.091
-362.047
-363.984
-365.904
-367.809
-369.715
-371.643
-373.618
-375.666
-377.802
-380.037
-382.383
-384.855
-387.471
-390.25
-393.199
-396.31
-399.577
-402.99
-406.534
-410.184
-413.892
-417.584
-421.194
-424.667
-427.955
-431.024
-433.829
-436.329
-438.496
-440.318
-441.819
-443.049
-444.064
-444.927
-445.723
-446.56
-447.588
-448.994
-450.941
-453.576
-457.036
-461.448
-466.955
-473.691
-481.745
-491.165
-501.948
-514.047
-527.405
-541.94
-557.529
-574.006
-591.155
-608.724
-626.489
-644.237
-661.754
-678.824
-695.207
-710.676
-725.061
-738.238
-750.129
-760.684
-769.872
-777.687
-784.179
-789.433
-793.572
-796.734
-799.03
-800.568
-801.461
-801.827
-801.804
-801.509
-801.02
-800.389
-799.655
-798.847
-797.992
-797.095
-796.125
-795.033
-793.761
-792.258
-790.505
-788.487
-786.191
-783.616
-780.763
-777.658
-774.357
-770.906
-767.347
-763.713
-760.029
-756.329
-752.671
-749.117
-745.728
-742.557
-739.628
-736.96
-734.562
-732.427
-730.544
-728.865
-727.32
-725.841
-724.347
-722.795
-721.169
-719.457
-717.644
-715.662
-713.382
-710.709
-707.62
-704.028
-699.776
-694.555
-687.864
-679.418
-669.201
-657.252
-643.6
-628.287
-611.44
-593.65
-576.078
-559.544
-544.192
-529.721
-515.512
-500.992
-485.536
-467.783
-445.441
-416.623
-380.694
-338.079
-290.061
-238.081
-183.714
-129.618
-79.827
-38.182
-7.044
12.531
20.594
17.536
3.902
-18.415
-45.766
-74.254
-101.101
-124.501
-143.471
-157.157
-164.52
-165.574
-161.859
-155.318
-147.221
-138.178
-128.245
-117.52
-106.518
-95.262
-82.924
-68.386
-50.876
-30.154
-6.417
20.062
49.239
80.922
114.522
149.192
184.077
218.499
251.932
283.924
313.895
341.165
365.251
385.896
403.081
417.037
427.967
435.955
441.205
444.107
444.885
443.494
439.461
431.782
419.741
403.236
382.429
357.622
329.453
299.206
269.146
242.547
222.484
211.084
209.885
220.131
242.834
278.204
324.924
380.072
440.259
502.583
564.377
622.856
674.833
717.353
748.856
769.459
780.203
782.309
777.254
766.869
753.71
740.645
729.649
721.416
715.796
712.233
709.927
708.164
705.977
702.264
696.591
689.495
682.305
676.773
674.784
677.747
686.916
703.371
727.544
759.127
796.837
838.839
883.049
927.497
970.037
1008.525
1041.279
1066.993
1085.33
1096.345
1100.177
1097.455
1089.449
1077.646
1063.284
1047.411
1030.352
1012.622
995.284
978.785
962.93
947.421
932.098
917.166
903.465
891.208
879.674
868.567
857.975
848.055
839.06
830.81
822.565
814.18
806.247
799.163
793.198
788.466
784.772
782.159
780.981
781.286
782.814
785.335
788.574
792.37
796.77
801.742
807.171
812.994
819.17
825.663
832.472
839.577
846.924
854.483
862.225
870.127
878.187
886.408
894.803
903.388
912.172
921.158
930.346
939.748
949.379
959.254
969.383
979.752
990.326
1001.066
1011.93
1022.871
1033.842
1044.784
1055.629
1066.313
1076.776
1086.968
1096.853
1106.391
1115.54
1124.266
1132.544
1140.376
1147.793
1154.821
1161.483
1167.803
1173.794
1179.485
1184.906
1190.075
1194.997
1199.649
1203.982
1207.945
1211.478
1214.504
1216.929
1218.624
1219.429
1219.204
1217.821
1215.16
1211.112
1205.553
1198.365
1189.457
1178.769
1166.291
1152.047
1136.089
1118.486
1099.343
1078.797
1057.029
1034.251
1010.664
986.456
961.812
936.917
911.987
887.237
862.868
839.05
815.911
793.54
772.006
751.354
731.601
712.731
694.685
677.382
660.746
644.712
629.222
614.2
599.531
585.086
570.726
556.321
541.775
527.002
511.916
496.443
480.513
464.08
447.131
429.655
411.628
393.018
373.777
353.883
333.356
312.232
290.57
268.428
245.85
222.897
199.648
176.181
152.584
128.927
105.264
81.665
58.225
35.042
12.216
-10.185
-32.134
-53.618
-74.638
-95.208
-115.344
-135.094
-154.531
-173.728
-192.759
-211.696
-230.61
-249.6
-268.801
-288.335
-308.301
-328.761
-349.732
-371.218
-393.208
-415.668
-438.538
-461.727
-485.117
-508.592
-532.034
-555.313
-578.278
-600.747
-622.495
-643.314
-663.032
-681.506
-698.631
-714.323
-728.508
-741.141
-752.215
-761.74
-769.754
-776.304
-781.438
-785.234
-787.799
-789.271
-789.823
-789.629
-788.833
-787.573
-785.971
-784.133
-782.168
-780.168
-778.198
-776.322
-774.587
-773.025
-771.667
-770.522
-769.578
-768.811
-768.184
-767.652
-767.196
-766.793
-766.409
-766.024
-765.606
-765.129
-764.584
-763.963
-763.265
-762.503
-761.701
-760.885
-760.093
-759.353
-758.68
-758.081
-757.536
-757.025
-756.542
-756.078
-755.616
-755.134
-754.587
-753.913
-753.042
-751.881
-750.309
-748.208
-745.448
-741.905
-737.491
-732.137
-725.791
-718.409
-709.936
-700.315
-689.506
-677.489
-664.266
-649.873
-634.365
-617.825
-600.385
-582.182
-563.37
-544.11
-524.535
-504.766
-484.932
-465.158
-445.578
-426.349
-407.616
-389.512
-372.169
-355.686
-340.142
-325.589
-312.044
-299.516
-287.999
-277.478
-267.942
-259.378
-251.756
-245.04
-239.18
-234.093
-229.684
-225.842
-222.441
-219.364
-216.503
-213.753
-211.017
-208.191
-205.176
-201.879
-198.209
-194.086
-189.437
-184.189
-178.289
-171.712
-164.454
-156.543
-148.029
-138.972
-129.454
-119.575
-109.448
-99.215
-89.015
-78.986
-69.276
-60.022
-51.36
-43.432
-36.363
-30.259
-25.217
-21.316
-18.603
-17.1
-16.785
-17.598
-19.459
-22.25
-25.845
-30.106
-34.872
-39.988
-45.304
-50.663
-55.919
-60.929
-65.538
-69.594
-72.975
-75.587
-77.374
-78.316
-78.41
-77.687
-76.199
-74.021
-71.247
-67.966
-64.253
-60.184
-55.832
-51.27
-46.582
-41.855
-37.158
-32.554
-28.092
-23.809
-19.732
-15.876
-12.232
-8.774
-5.474
-2.317
0.699
3.556
6.228
8.675
10.847
12.678
14.106
15.08
15.555
15.497
14.875
13.654
11.797
9.258
6
1.995
-2.764
-8.26
-14.446
-21.249
-28.564
-36.253
-44.186
-52.236
-60.292
-68.261
-76.05
-83.572
-90.737
-97.46
-103.654
-109.234
-114.138
-118.325
-121.783
-124.527
-126.606
-128.1
-129.101
-129.702
-129.984
-130.01
-129.844
-129.551
-129.2
-128.855
-128.582
-128.434
-128.444
-128.624
-128.972
-129.461
-130.037
-130.622
-131.11
-131.386
-131.35
-130.914
-129.984
-128.453
-126.21
-123.145
-119.164
-114.204
-108.224
-101.209
-93.153
-84.074
-74.018
-63.051
-51.283
-38.831
-25.81
-12.341
1.44
15.371
29.277
42.971
56.3
69.135
81.367
92.912
103.689
113.638
122.717
130.899
138.188
144.605
150.181
154.97
159.055
162.544
165.569
168.28
170.803
173.253
175.739
178.349
181.171
184.288
187.775
191.718
196.193
201.255
206.938
213.258
220.193
227.707
235.749
244.246
253.136
262.354
271.836
281.536
291.413
301.426
311.522
321.627
331.65
341.517
351.176
360.583
369.71
378.526
387.001
395.114
402.845
410.173
417.077
423.512
429.415
434.723
439.39
443.39
446.724
449.378
451.321
452.528
452.978
452.668
451.61
449.813
447.282
444.026
440.06
435.417
430.159
424.344
418.019
411.22
403.964
396.279
388.22
379.831
371.148
362.195
352.983
343.531
333.879
324.071
314.152
304.169
294.158
284.16
274.236
264.45
254.885
245.617
236.696
228.18
220.139
212.644
205.772
199.593
194.143
189.443
185.507
182.336
179.931
178.289
177.39
177.208
177.717
178.894
180.725
183.198
186.283
189.938
194.115
198.762
203.852
209.362
215.259
221.502
228.04
234.802
241.713
248.679
255.572
262.234
268.492
274.164
279.073
283.057
285.956
287.604
287.844
286.53
283.546
278.816
272.295
263.969
253.854
241.998
228.519
213.617
197.558
180.647
163.207
145.539
127.928
110.721
94.302
78.964
64.851
51.93
40.121
29.508
20.402
13.106
7.643
3.993
2.294
2.976
6.564
13.084
21.795
31.562
41.58
51.234
59.808
66.227
69.14
67.778
62.433
54.138
43.757
31.853
18.943
5.752
-6.621
-17.359
-26.419
-34.375
-41.743
-48.744
-55.395
-61.656
-67.699
-73.681
-79.469
-84.704
-89.068
-92.42
-94.801
-96.387
-97.321
-97.73
-97.789
-97.681
-97.568
-97.571
-97.767
-98.211
-98.971
-100.113
-101.687
-103.733
-106.273
-109.317
-112.852
-116.83
-121.17
-125.77
-130.544
-135.432
-140.395
-145.403
-150.425
-155.423
-160.362
-165.219
-169.982
-174.64
-179.182
-183.604
-187.917
-192.156
-196.38
-200.658
-205.035
-209.539
-214.183
-218.97
-223.902
-228.983
-234.206
-239.553
-244.997
-250.505
-256.039
-261.548
-266.951
-272.152
-277.026
-281.445
-285.308
-288.527
-291.021
-292.729
-293.595
-293.571
-292.632
-290.758
-287.935
-284.166
-279.468
-273.889
-267.516
-260.462
-252.859
-244.852
-236.568
-228.132
-219.678
-211.314
-203.132
-195.218
-187.635
-180.445
-173.725
-167.526
-161.873
-156.771
-152.183
-148.066
-144.371
-141.037
-138.005
-135.212
-132.582
-130.069
-127.656
-125.326
-123.072
-120.881
-118.721
-116.586
-114.502
-112.497
-110.61
-108.874
-107.297
-105.9
-104.71
-103.748
-103.035
-102.556
-102.262
-102.11
-102.064
-102.095
-102.184
-102.292
-102.348
-102.304
-102.122
-101.78
-101.282
-100.62
-99.774
-98.74
-97.528
-96.168
-94.729
-93.267
-91.814
-90.407
-89.071
-87.841
-86.767
-85.864
-85.123
-84.524
-84.039
-83.653
-83.375
-83.207
-83.142
-83.182
-83.302
-83.492
-83.764
-84.123
-84.587
-85.184
-85.943
-86.917
-88.194
-89.86
-91.995
-94.665
-97.902
-101.725
-106.133
-111.085
-116.539
-122.445
-128.724
-135.301
-142.081
-148.94
-155.755
-162.397
-168.707
-174.537
-179.746
-184.187
-187.755
-190.377
-192.01
-192.673
-192.403
-191.253
-189.302
-186.651
-183.417
-179.76
-175.837
-171.779
-167.734
-163.839
-160.223
-157.04
-154.409
-152.415
-151.117
-150.528
-150.635
-151.415
-152.818
-154.76
-157.138
-159.819
-162.667
-165.585
-168.477
-171.258
-173.847
-176.148
-178.079
-179.587
-180.634
-181.197
-181.27
-180.849
-179.945
-178.601
-176.87
-174.823
-172.532
-170.046
-167.401
-164.631
-161.764
-158.833
-155.867
-152.878
-149.874
-146.859
-143.837
-140.811
-137.784
-134.748
-131.692
-128.598
-125.449
-122.239
-118.97
-115.649
-112.281
-108.866
-105.405
-101.901
-98.365
-94.812
-91.255
-87.708
-84.181
-80.676
-77.196
-73.754
-70.352
-66.987
-63.652
-60.324
-56.992
-53.666
-50.358
-47.087
-43.872
-40.715
-37.627
-34.619
-31.707
-28.921
-26.285
-23.811
-21.516
-19.431
-17.593
-16.061
-14.882
-14.067
-13.615
-13.513
-13.739
-14.287
-15.131
-16.233
-17.548
-19.018
-20.591
-22.235
-23.914
-25.578
-27.168
-28.602
-29.804
-30.735
-31.372
-31.702
-31.728
-31.445
-30.87
-30.044
-29.016
-27.845
-26.578
-25.246
-23.88
-22.518
-21.201
-19.982
-18.913
-18.019
-17.313
-16.8
-16.464
-16.294
-16.262
-16.325
-16.438
-16.555
-16.641
-16.673
-16.634
-16.508
-16.291
-15.981
-15.574
-15.082
-14.523
-13.924
-13.34
-12.823
-12.422
-12.187
-12.15
-12.33
-12.738
-13.371
-14.205
-15.207
-16.321
-17.471
-18.596
-19.624
-20.476
-21.067
-21.284
-21.009
-20.153
-18.639
-16.42
-13.479
-9.806
-5.418
-0.372
5.256
11.36
17.802
24.46
31.207
37.899
44.401
50.552
56.187
61.175
65.4
68.774
71.241
72.758
73.308
72.923
71.66
69.604
66.879
63.597
59.871
55.833
51.596
47.279
43.01
38.884
34.977
31.357
28.06
25.108
22.518
20.261
18.28
16.504
14.829
13.157
11.403
9.468
7.272
4.752
1.844
-1.476
-5.205
-9.332
-13.823
-18.626
-23.693
-28.932
-34.219
-39.423
-44.394
-48.984
-53.062
-56.485
-59.114
-60.842
-61.579
-61.281
-59.947
-57.586
-54.223
-49.909
-44.701
-38.7
-32.054
-24.911
-17.435
-9.8
-2.176
5.245
12.253
18.671
24.351
29.178
33.081
35.999
37.874
38.682
38.41
37.086
34.784
31.584
27.58
22.895
17.667
12.066
6.295
0.535
-5.058
-10.335
-15.176
-19.464
-23.085
-25.947
-27.969
-29.096
-29.306
-28.587
-26.943
-24.41
-21.05
-16.954
-12.247
-7.039
-1.432
4.471
10.575
16.79
23.034
29.238
35.34
41.29
47.057
52.622
57.979
63.151
68.175
73.105
78.017
82.973
88.025
93.227
98.625
104.254
110.137
116.277
122.671
129.31
136.17
143.216
150.395
157.625
164.825
171.909
178.779
185.359
191.58
197.37
202.665
207.413
211.571
215.116
218.034
220.301
221.902
222.844
223.154
222.894
222.122
220.885
219.235
217.21
214.852
212.222
209.388
206.416
203.378
200.346
197.398
194.638
192.175
190.098
188.468
187.318
186.686
186.624
187.203
188.494
190.543
193.37
196.962
201.285
206.287
211.887
217.975
224.404
231.006
237.619
244.108
250.359
256.253
261.657
266.402
270.31
273.239
275.079
275.761
275.262
273.59
270.786
266.942
262.193
256.701
250.649
244.205
237.51
230.716
223.982
217.505
211.511
206.203
201.744
198.259
195.818
194.456
194.181
194.953
196.685
199.256
202.507
206.269
210.399
214.744
219.143
223.401
227.276
230.533
232.965
234.402
234.719
233.817
231.611
228.03
223.051
216.686
208.987
200.034
189.897
178.65
166.387
153.244
139.409
125.091
110.492
95.781
81.109
66.634
52.522
38.966
26.145
14.209
3.293
-6.478
-14.975
-22.059
-27.606
-31.55
-33.862
-34.539
-33.589
-30.988
-26.724
-20.819
-13.326
-4.348
5.99
17.565
30.232
43.812
58.105
72.879
87.896
102.959
117.879
132.459
146.503
159.784
172.09
183.252
193.123
201.585
208.56
213.982
217.826
220.135
220.97
220.425
218.617
215.645
211.638
206.766
201.201
195.134
188.748
182.179
175.561
169.022
162.651
156.514
150.633
144.962
139.451
134.041
128.643
123.166
117.481
111.4
104.743
97.34
89.031
79.71
69.282
57.655
44.79
30.689
15.405
-0.942
-18.221
-36.297
-54.995
-74.115
-93.419
-112.595
-131.33
-149.329
-166.299
-181.989
-196.176
-208.637
-219.197
-227.741
-234.202
-238.582
-240.915
-241.248
-239.676
-236.33
-231.385
-225.09
-217.722
-209.557
-200.885
-191.977
-183.091
-174.493
-166.434
-159.112
-152.683
-147.252
-142.882
-139.627
-137.51
-136.516
-136.601
-137.666
-139.581
-142.21
-145.405
-149.016
-152.894
-156.876
-160.79
-164.502
-167.912
-170.947
-173.569
-175.741
-177.438
-178.658
-179.424
-179.782
-179.791
-179.513
-179.01
-178.35
-177.607
-176.868
-176.229
-175.762
-175.52
-175.545
-175.865
-176.513
-177.519
-178.895
-180.637
-182.731
-185.155
-187.892
-190.923
-194.225
-197.762
-201.486
-205.344
-209.299
-213.318
-217.365
-221.399
-225.363
-229.2
-232.868
-236.332
-239.568
-242.562
-245.301
-247.779
-250.011
-252.02
-253.849
-255.548
-257.143
-258.668
-260.163
-261.674
-263.277
-265.048
-267.057
-269.371
-272.055
-275.153
-278.701
-282.72
-287.19
-292.077
-297.321
-302.843
-308.586
-314.496
-320.508
-326.557
-332.543
-338.35
-343.861
-348.953
-353.484
-357.327
-360.362
-362.475
-363.598
-363.692
-362.742
-360.756
-357.73
-353.641
-348.471
-342.209
-334.868
-326.496
-317.146
-306.884
-295.815
-284.053
-271.725
-258.973
-245.904
-232.593
-219.111
-205.518
-191.894
-178.356
-165.033
-152.046
-139.515
-127.539
-116.218
-105.654
-95.911
-87.027
-79.021
-71.89
-65.66
-60.386
-56.113
-52.875
-50.671
-49.454
-49.157
-49.706
-51.008
-52.957
-55.432
-58.292
-61.417
-64.706
-68.058
-71.378
-74.535
-77.367
-79.722
-81.468
-82.505
-82.776
-82.236
-80.859
-78.648
-75.629
-71.851
-67.384
-62.281
-56.6
-50.417
-43.824
-36.956
-29.971
-23.017
-16.241
-9.762
-3.675
1.933
6.992
11.464
15.32
18.544
21.121
23.017
24.215
24.725
24.573
23.819
22.524
20.735
18.5
15.853
12.809
9.372
5.524
1.212
-3.613
-8.991
-14.953
-21.511
-28.693
-36.554
-45.155
-54.554
-64.792
-75.881
-87.822
-100.607
-114.199
-128.533
-143.506
-158.972
-174.788
-190.822
-206.942
-223.019
-238.902
-254.414
-269.379
-283.645
-297.086
-309.6
-321.102
-331.509
-340.774
-348.884
-355.862
-361.774
-366.68
-370.64
-373.722
-376.009
-377.602
-378.629
-379.208
-379.427
-379.361
-379.068
-378.6
-378.005
-377.31
-376.514
-375.599
-374.531
-373.278
-371.814
-370.098
-368.08
-365.699
-362.889
-359.599
-355.805
-351.489
-346.649
-341.29
-335.432
-329.107
-322.359
-315.239
-307.793
-300.068
-292.111
-283.979
-275.735
-267.441
-259.149
-250.899
-242.717
-234.614
-226.598
-218.654
-210.743
-202.823
-194.849
-186.784
-178.604
-170.287
-161.806
-153.133
-144.247
-135.137
-125.821
-116.327
-106.702
-97.009
-87.324
-77.753
-68.442
-59.542
-51.206
-43.579
-36.784
-30.947
-26.207
-22.693
-20.523
-19.787
-20.533
-22.781
-26.529
-31.743
-38.365
-46.288
-55.348
-65.353
-76.094
-87.353
-98.914
-110.548
-121.983
-132.933
-143.121
-152.282
-160.196
-166.674
-171.543
-174.651
-175.884
-175.186
-172.561
-168.066
-161.781
-153.811
-144.277
-133.345
-121.248
-108.263
-94.689
-80.83
-66.968
-53.376
-40.329
-28.1
-16.926
-6.984
1.597
8.736
14.365
18.428
20.898
21.805
21.244
19.366
16.358
12.422
7.772
2.637
-2.744
-8.125
-13.299
-18.113
-22.443
-26.192
-29.264
-31.557
-32.992
-33.538
-33.206
-32.037
-30.107
-27.508
-24.358
-20.816
-17.039
-13.176
-9.342
-5.605
-2.014
1.384
4.549
7.434
10.007
12.267
14.221
15.879
17.269
18.435
19.453
20.441
21.51
22.745
24.204
25.911
27.884
30.143
32.693
35.523
38.607
41.907
45.393
49.053
52.862
56.786
60.757
64.674
68.444
72.008
75.322
78.361
81.1
83.509
85.586
87.362
88.888
90.226
91.424
92.519
93.549
94.578
95.687
96.988
98.586
100.559
102.974
105.894
109.382
113.511
118.326
123.837
130.029
136.882
144.375
152.498
161.231
170.529
180.329
190.549
201.101
211.922
222.951
234.129
245.391
256.665
267.893
279.043
290.099
301.045
311.866
322.537
333.037
343.371
353.556
363.617
373.592
383.501
393.358
403.181
412.993
422.81
432.641
442.473
452.278
462.036
471.736
481.373
490.947
500.438
509.812
519.031
528.051
536.826
545.319
553.479
561.251
568.6
575.512
581.995
588.087
593.813
599.184
604.212
608.907
613.291
617.402
621.283
624.98
628.549
632.06
635.591
639.237
643.065
647.109
651.381
655.854
660.5
665.301
670.23
675.246
680.308
685.362
690.341
695.189
699.826
704.149
708.047
711.396
714.083
716.024
717.152
717.433
716.855
715.419
713.142
710.067
706.234
701.694
696.515
690.764
684.532
677.943
671.128
664.233
657.417
650.843
644.676
639.077
634.171
630.052
626.804
624.492
623.185
622.948
623.816
625.806
628.913
633.102
638.328
644.526
651.587
659.359
667.657
676.269
685.004
693.694
702.157
710.206
717.628
724.21
729.778
734.186
737.302
738.999
739.155
737.674
734.516
729.706
723.32
715.474
706.282
695.869
684.401
672.082
659.159
645.879
632.454
619.068
605.91
593.188
581.118
569.885
559.62
550.397
542.245
535.166
529.142
524.119
519.98
516.551
513.612
510.939
508.331
505.604
502.551
498.939
494.526
489.102
482.505
474.615
465.336
454.583
442.305
428.504
413.247
396.663
378.923
360.217
340.737
320.679
300.271
279.763
259.409
239.433
220.025
201.348
183.558
166.806
151.21
136.842
123.718
111.817
101.082
91.426
82.748
74.919
67.792
61.207
55.019
49.105
43.372
37.745
32.16
26.563
20.935
15.3
9.708
4.222
-1.069
-6.052
-10.583
-14.491
-17.599
-19.752
-20.813
-20.679
-19.265
-16.516
-12.405
-6.947
-0.204
7.714
16.679
26.552
37.167
48.318
59.752
71.179
82.309
92.882
102.651
111.386
118.858
124.872
129.28
131.99
132.966
132.219
129.786
125.728
120.153
113.23
105.189
96.304
86.857
77.123
67.389
57.955
49.135
41.222
34.455
29.031
25.105
22.797
22.195
23.342
26.217
30.737
36.764
44.117
