Name,Criss Capps
Date of Birth,"Feb 5, 1952"
Recorded Date,2023-07-25 16:10:06 -0400
Classification,Sinus Rhythm
Symptoms,
Software Version,1.90
Device,"Watch5,4"
Sample Rate,512.844 hertz


Lead,Lead I
Unit,µV

17.947
18.398
18.723
18.927
19.016
18.996
18.875
18.66
18.361
17.986
17.545
17.048
16.504
15.925
15.32
14.699
14.073
13.451
12.844
12.26
11.708
11.196
10.733
10.323
9.974
9.688
9.469
9.319
9.237
9.221
9.27
9.378
9.54
9.751
10
10.281
10.585
10.902
11.223
11.533
11.819
12.067
12.263
12.391
12.437
12.382
12.213
11.913
11.472
10.88
10.126
9.198
8.081
6.761
5.228
3.481
1.517
-0.663
-3.054
-5.647
-8.424
-11.352
-14.405
-17.561
-20.799
-24.108
-27.469
-30.852
-34.228
-37.561
-40.823
-44.001
-47.085
-50.061
-52.926
-55.673
-58.317
-60.909
-63.498
-66.13
-68.828
-71.555
-74.336
-77.267
-80.436
-83.958
-87.866
-92.042
-96.455
-101.201
-106.182
-111.182
-115.884
-119.729
-122.412
-123.993
-124.371
-123.335
-120.899
-117.14
-112.43
-107.629
-103.194
-99.169
-95.685
-92.721
-90.295
-88.498
-86.697
-83.707
-78.161
-68.231
-53.114
-32.876
-7.973
19.812
50.366
85.123
125.701
174.496
230.875
291.093
349.896
400.926
439.583
462.422
467.748
455.329
424.29
376.086
311.87
232.397
143.062
49.655
-39.308
-112.326
-164.482
-194.791
-206.733
-209.28
-207.297
-202.422
-194.789
-181.818
-163.492
-142.207
-120.294
-100.528
-84.644
-72.988
-65.606
-62.085
-61.669
-63.602
-67.138
-71.535
-76.003
-79.819
-82.365
-83.354
-82.912
-81.314
-78.877
-75.936
-72.828
-69.933
-67.661
-66.216
-65.56
-65.551
-65.967
-66.593
-67.278
-67.858
-68.142
-68.033
-67.507
-66.581
-65.33
-63.817
-62.074
-60.141
-58.063
-55.872
-53.608
-51.31
-49.005
-46.732
-44.521
-42.389
-40.351
-38.413
-36.575
-34.833
-33.176
-31.587
-30.058
-28.583
-27.156
-25.775
-24.429
-23.108
-21.802
-20.501
-19.194
-17.874
-16.533
-15.164
-13.763
-12.327
-10.856
-9.349
-7.805
-6.22
-4.592
-2.918
-1.197
0.574
2.395
4.268
6.193
8.167
10.19
12.259
14.371
16.525
18.716
20.943
23.202
25.49
27.802
30.136
32.486
34.849
37.219
39.591
41.962
44.325
46.675
49.007
51.315
53.594
55.838
58.042
60.2
62.305
64.353
66.337
68.251
70.09
71.848
73.519
75.099
76.581
77.962
79.235
80.398
81.444
82.371
83.174
83.849
84.393
84.802
85.075
85.207
85.198
85.046
84.749
84.307
83.72
82.988
82.112
81.094
79.935
78.639
77.209
75.649
73.964
72.158
70.238
68.21
66.081
63.858
61.55
59.165
56.712
54.199
51.638
49.037
46.408
43.76
41.105
38.453
35.814
33.2
30.621
28.087
25.608
23.193
20.853
18.596
16.429
14.361
12.398
10.548
8.815
7.204
5.72
4.366
3.144
2.057
1.104
0.286
-0.396
-0.946
-1.364
-1.654
-1.819
-1.864
-1.794
-1.613
-1.33
-0.95
-0.481
0.07
0.695
1.385
2.132
2.927
3.761
4.626
5.513
6.414
7.32
8.224
9.116
9.991
10.841
11.659
12.439
13.176
13.864
14.499
15.075
15.59
16.039
16.42
16.732
16.971
17.137
17.229
17.248
17.193
17.067
16.87
16.605
16.274
15.882
15.43
14.924
14.367
13.764
13.118
12.436
11.722
10.982
10.219
9.44
8.65
7.854
7.056
6.262
5.477
4.705
3.951
3.219
2.515
1.842
1.204
0.606
0.052
-0.456
-0.914
-1.321
-1.673
-1.969
-2.209
-2.391
-2.517
-2.585
-2.597
-2.554
-2.456
-2.305
-2.104
-1.855
-1.56
-1.223
-0.847
-0.436
0.007
0.476
0.97
1.482
2.009
2.547
3.091
3.636
4.178
4.711
5.23
5.73
6.206
6.655
7.073
7.455
7.799
8.104
8.369
8.593
8.776
8.918
9.021
9.084
9.109
9.096
9.048
8.964
8.848
8.704
8.536
8.351
8.156
7.957
7.763
7.582
7.421
7.289
7.189
7.127
7.108
7.141
7.234
7.399
7.646
7.977
8.398
8.909
9.503
10.174
10.901
11.665
12.453
13.258
14.076
14.917
15.784
16.682
17.619
18.589
19.59
20.625
21.687
22.773
23.895
25.067
26.325
27.712
29.248
30.938
32.776
34.728
36.758
38.822
40.856
42.811
44.647
46.32
47.809
49.093
50.133
50.884
51.281
51.239
50.709
49.666
48.093
46.014
43.469
40.514
37.246
33.763
30.139
26.448
22.736
19.04
15.42
11.941
8.678
5.73
3.169
1.036
-0.618
-1.778
-2.467
-2.723
-2.637
-2.32
-1.842
-1.266
-0.655
-0.045
0.497
0.9
1.122
1.091
0.732
0.029
-1.015
-2.323
-3.689
-4.888
-5.688
-5.803
-4.988
-3.085
-0.01
4.121
8.957
14.113
19.2
23.882
27.96
31.243
33.626
35.451
37.409
40.812
47.617
58.77
74.605
94.667
117.106
142.182
171.556
206.834
250.394
301.154
354.749
406.268
450.209
482.687
501.542
505.445
491.958
458.074
402.543
324.083
226.712
120.61
16.747
-71.133
-133.644
-170.571
-185.265
-184.798
-175.99
-160.82
-140.832
-118.723
-97
-78.905
-65.513
-54.143
-42.458
-29.422
-15.871
-4.924
1.452
3.221
1.284
-2.669
-7.319
-12.074
-16.378
-19.683
-21.728
-22.501
-22.169
-20.989
-19.255
-17.208
-15.148
-13.501
-12.463
-11.998
-12
-12.284
-12.69
-13.135
-13.489
-13.555
-13.227
-12.468
-11.259
-9.662
-7.736
-5.519
-3.097
-0.559
2.034
4.611
7.118
9.53
11.823
13.986
16.027
17.942
19.726
21.378
22.886
24.249
25.477
26.582
27.589
28.519
29.394
30.237
31.076
31.932
32.821
33.754
34.735
35.769
36.867
38.038
39.292
40.638
42.084
43.636
45.299
47.078
48.977
50.998
53.14
55.402
57.785
60.287
62.91
65.651
68.507
71.474
74.546
77.716
80.978
84.322
87.737
91.213
94.737
98.298
101.883
105.479
109.073
112.65
116.198
119.701
123.146
126.519
129.806
132.993
136.068
139.016
141.826
144.486
146.984
149.31
151.453
153.405
155.158
156.703
158.035
159.148
160.036
160.697
161.127
161.323
161.286
161.015
160.512
159.779
158.819
157.635
156.234
154.622
152.804
150.788
148.583
146.198
143.642
140.925
138.058
135.053
131.921
128.675
125.326
121.888
118.374
114.796
111.17
107.507
103.821
100.127
96.437
92.765
89.124
85.528
81.989
78.52
75.132
71.838
68.649
65.575
62.627
59.813
57.142
54.623
52.262
50.067
48.042
46.192
44.522
43.034
41.732
40.616
39.686
38.944
38.386
38.012
37.818
37.802
37.957
38.279
38.763
39.401
40.186
41.109
42.162
43.336
44.619
46.003
47.475
49.024
50.639
52.307
54.016
55.754
57.509
59.268
61.018
62.748
64.446
66.099
67.696
69.226
70.678
72.042
73.31
74.47
75.517
76.441
77.237
77.897
78.417
78.792
79.018
79.093
79.015
78.782
78.395
77.854
77.162
76.32
75.334
74.206
72.942
71.548
70.03
68.396
66.654
64.811
62.878
60.863
58.776
56.627
54.427
52.186
49.914
47.623
45.322
43.022
40.733
38.464
36.226
34.026
31.875
29.779
27.747
25.785
23.9
22.097
20.38
18.753
17.22
15.782
14.441
13.198
12.052
11.002
10.046
9.183
8.408
7.718
7.109
6.574
6.108
5.705
5.357
5.059
4.802
4.579
4.382
4.203
4.034
3.867
3.694
3.508
3.3
3.064
2.793
2.48
2.12
1.706
1.236
0.703
0.106
-0.559
-1.294
-2.099
-2.976
-3.925
-4.943
-6.031
-7.185
-8.402
-9.678
-11.009
-12.391
-13.818
-15.285
-16.785
-18.312
-19.86
-21.421
-22.989
-24.556
-26.115
-27.659
-29.181
-30.673
-32.129
-33.543
-34.908
-36.219
-37.472
-38.662
-39.786
-40.841
-41.825
-42.737
-43.577
-44.346
-45.045
-45.678
-46.248
-46.762
-47.225
-47.646
-48.031
-48.389
-48.73
-49.064
-49.399
-49.745
-50.113
-50.511
-50.952
-51.447
-52.008
-52.646
-53.375
-54.206
-55.151
-56.223
-57.43
-58.778
-60.276
-61.929
-63.746
-65.74
-67.918
-70.282
-72.835
-75.579
-78.509
-81.622
-84.902
-88.325
-91.873
-95.525
-99.27
-103.102
-107.009
-110.974
-114.985
-119.02
-123.069
-127.134
-131.207
-135.281
-139.364
-143.474
-147.655
-151.98
-156.503
-161.263
-166.29
-171.598
-177.224
-183.214
-189.597
-196.395
-203.588
-211.159
-219.147
-227.561
-236.33
-245.282
-254.123
-262.556
-270.397
-277.436
-283.394
-288.084
-291.425
-293.63
-295.21
-296.564
-298.039
-300.124
-303.282
-307.899
-313.587
-318.791
-322.015
-322.654
-321.914
-322
-323.013
-321.955
-313.065
-291.066
-255.143
-209.593
-161.813
-117.946
-81.189
-52.01
-31.244
-23.027
-32.521
-64.72
-120.506
-195.636
-284.233
-379.028
-474.541
-566.015
-647.684
-714.246
-759.565
-780.331
-776.647
-751.743
-713.657
-670.821
-631.526
-601.578
-581.531
-569.857
-562.63
-556.344
-549.215
-539.074
-525.666
-509.04
-490.161
-472.525
-458.319
-449.08
-445.046
-443.806
-443.678
-443.513
-442.495
-441.14
-439.702
-438.034
-436.096
-433.706
-430.786
-427.551
-424.293
-421.117
-418.034
-415.003
-411.875
-408.517
-404.839
-400.689
-395.9
-390.411
-384.22
-377.371
-369.979
-362.146
-353.968
-345.571
-337.087
-328.631
-320.293
-312.135
-304.206
-296.55
-289.207
-282.207
-275.566
-269.285
-263.366
-257.806
-252.591
-247.708
-243.136
-238.847
-234.816
-231.014
-227.417
-224.012
-220.785
-217.724
-214.823
-212.075
-209.473
-207.018
-204.704
-202.525
-200.474
-198.541
-196.72
-195.001
-193.377
-191.837
-190.373
-188.972
-187.621
-186.306
-185.013
-183.727
-182.435
-181.121
-179.77
-178.371
-176.913
-175.385
-173.777
-172.082
-170.291
-168.397
-166.394
-164.276
-162.039
-159.678
-157.19
-154.574
-151.828
-148.953
-145.949
-142.821
-139.569
-136.201
-132.719
-129.132
-125.446
-121.67
-117.812
-113.881
-109.889
-105.846
-101.763
-97.653
-93.526
-89.395
-85.271
-81.166
-77.091
-73.058
-69.077
-65.159
-61.312
-57.547
-53.872
-50.295
-46.822
-43.46
-40.215
-37.089
-34.088
-31.212
-28.463
-25.841
-23.344
-20.971
-18.717
-16.578
-14.547
-12.617
-10.78
-9.025
-7.342
-5.72
-4.146
-2.606
-1.088
0.425
1.946
3.49
5.075
6.714
8.424
10.22
12.118
14.133
16.279
18.57
21.02
23.64
26.443
29.439
32.637
36.047
39.675
43.528
47.61
51.925
56.474
61.258
66.275
71.521
76.993
82.685
88.587
94.692
100.987
107.461
114.1
120.889
127.812
134.851
141.988
149.205
156.48
163.793
171.122
178.447
185.744
192.992
200.168
207.25
214.217
221.046
227.716
234.207
240.499
246.572
252.409
257.991
263.304
268.331
273.061
277.481
281.581
285.354
288.791
291.889
294.644
297.055
299.123
300.849
302.237
303.292
304.02
304.43
304.532
304.336
303.854
303.1
302.087
300.832
299.349
297.656
295.771
293.71
291.492
289.137
286.663
284.09
281.435
278.718
275.957
273.171
270.375
267.585
264.816
262.082
259.393
256.759
254.189
251.688
249.263
246.918
244.656
242.478
240.386
238.379
236.458
234.62
232.861
231.177
229.56
228.001
226.492
225.021
223.576
222.144
220.709
219.256
217.773
216.245
214.656
212.989
211.223
209.341
207.331
205.183
202.892
200.455
197.871
195.145
192.293
189.328
186.26
183.102
179.85
176.503
173.061
169.525
165.9
162.185
158.362
154.413
150.325
146.079
141.66
137.048
132.198
127.079
121.673
115.968
109.984
103.751
97.298
90.666
83.901
77.058
70.216
63.465
56.869
50.494
44.398
38.635
33.296
28.46
24.184
20.517
17.475
15.052
13.243
12.032
11.379
11.245
11.564
12.254
13.272
14.589
16.181
18.042
20.127
22.374
24.742
27.182
29.662
32.169
34.676
37.15
39.577
41.936
44.216
46.423
48.52
50.435
52.084
53.362
54.189
54.526
54.325
53.547
52.159
50.116
47.391
43.992
39.924
35.198
29.833
23.834
17.234
10.127
2.628
-5.127
-13.009
-20.921
-28.767
-36.436
-43.818
-50.795
-57.264
-63.164
-68.443
-73.048
-76.941
-80.075
-82.42
-83.996
-84.852
-85.05
-84.668
-83.772
-82.44
-80.78
-78.902
-76.932
-75.006
-73.194
-71.525
-69.981
-68.444
-66.773
-64.853
-62.526
-59.581
-55.891
-51.377
-46.119
-40.483
-34.864
-29.639
-25.149
-21.666
-19.486
-18.744
-19.172
-20.131
-20.204
-17.808
-12.287
-2.624
11.303
29.205
53.249
84.022
121.401
165.343
211.528
256.888
300.556
340.228
375.003
401.484
411.779
399.872
362.862
301.968
224.149
136.64
44.587
-47.095
-133.798
-209.574
-267.552
-303.54
-317.953
-315.024
-300.913
-281.731
-260.71
-239.29
-218.32
-196.95
-175.583
-155.243
-136.478
-121.387
-110.847
-104.41
-101.712
-101.177
-101.407
-101.649
-100.89
-98.4
-93.967
-87.602
-79.65
-70.708
-61.288
-51.854
-42.966
-35.161
-28.748
-23.811
-20.251
-17.816
-16.261
-15.375
-14.923
-14.656
-14.393
-14.008
-13.397
-12.508
-11.31
-9.778
-7.916
-5.743
-3.269
-0.507
2.511
5.745
9.145
12.657
16.251
19.896
23.552
27.168
30.675
34.013
37.15
40.066
42.752
45.203
47.414
49.395
51.172
52.777
54.242
55.592
56.845
58.022
59.15
60.263
61.397
62.586
63.85
65.21
66.683
68.285
70.029
71.923
73.968
76.163
78.509
81.011
83.673
86.497
89.481
92.623
95.92
99.368
102.963
106.702
110.576
114.58
118.707
122.948
127.298
131.749
136.289
140.908
145.594
150.333
155.114
159.923
164.745
169.567
174.375
179.157
183.898
188.587
193.211
197.757
202.213
206.568
210.811
214.932
218.919
222.763
226.455
229.987
233.352
236.541
239.548
242.367
244.994
247.422
249.649
251.672
253.488
255.095
256.492
257.68
258.66
259.432
259.997
260.359
260.521
260.485
260.256
259.837
259.233
258.448
257.487
256.356
255.06
253.605
251.997
250.242
248.348
246.32
244.166
241.892
239.505
237.013
234.421
231.738
228.969
226.122
223.202
220.218
217.174
214.076
210.93
207.741
204.513
201.251
197.96
194.643
191.304
187.946
184.573
181.186
177.789
174.383
170.971
167.553
164.132
160.709
157.283
153.855
150.426
146.996
143.565
140.132
136.696
133.258
129.816
126.37
122.919
119.463
116
112.531
109.054
105.57
102.079
98.58
95.074
91.562
88.044
84.521
80.994
77.465
73.934
70.404
66.876
63.351
59.834
56.325
52.827
49.343
45.877
42.431
39.008
35.611
32.245
28.912
25.616
22.361
19.15
15.987
12.875
9.817
6.817
3.878
1.003
-1.806
-4.547
-7.217
-9.814
-12.336
-14.782
-17.15
-19.44
-21.65
-23.78
-25.829
-27.797
-29.684
-31.49
-33.217
-34.864
-36.434
-37.926
-39.344
-40.688
-41.961
-43.165
-44.303
-45.378
-46.392
-47.348
-48.251
-49.102
-49.905
-50.664
-51.382
-52.063
-52.71
-53.326
-53.915
-54.481
-55.026
-55.556
-56.072
-56.579
-57.079
-57.577
-58.074
-58.575
-59.083
-59.599
-60.128
-60.671
-61.231
-61.81
-62.409
-63.031
-63.676
-64.345
-65.038
-65.756
-66.499
-67.267
-68.059
-68.874
-69.712
-70.57
-71.447
-72.341
-73.249
-74.169
-75.098
-76.031
-76.967
-77.901
-78.829
-79.748
-80.654
-81.542
-82.408
-83.247
-84.055
-84.827
-85.558
-86.245
-86.884
-87.469
-87.999
-88.47
-88.879
-89.223
-89.502
-89.712
-89.854
-89.926
-89.929
-89.862
-89.728
-89.528
-89.266
-88.945
-88.57
-88.149
-87.686
-87.19
-86.667
-86.127
-85.578
-85.029
-84.49
-83.967
-83.471
-83.011
-82.597
-82.238
-81.945
-81.728
-81.597
-81.563
-81.635
-81.821
-82.129
-82.561
-83.123
-83.818
-84.651
-85.631
-86.762
-88.047
-89.484
-91.072
-92.804
-94.667
-96.642
-98.697
-100.803
-102.931
-105.056
-107.16
-109.222
-111.219
-113.125
-114.909
-116.548
-118.023
-119.319
-120.422
-121.33
-122.056
-122.643
-123.161
-123.679
-124.26
-124.947
-125.778
-126.802
-128.071
-129.641
-131.563
-133.859
-136.559
-139.718
-143.345
-147.382
-151.679
-155.927
-159.77
-162.905
-165.007
-165.747
-164.935
-162.499
-158.606
-153.785
-148.628
-143.633
-139.297
-135.995
-133.817
-132.621
-131.801
-130.131
-126.195
-118.574
-105.899
-86.989
-61.002
-27.516
13.333
60.029
109.757
159.552
206.202
247.724
284.505
316.022
340.592
355.118
352.626
327.315
277.059
201.808
107.928
5.772
-94.764
-181.684
-246.361
-287.355
-306.405
-310.35
-307.76
-302.146
-294.62
-284.411
-269.165
-249.39
-227.336
-205.085
-185.047
-168.69
-156.263
-147.493
-141.698
-138.023
-135.676
-134.118
-132.829
-131.007
-127.951
-123.373
-117.309
-110.142
-102.409
-94.489
-86.728
-79.634
-73.706
-69.238
-66.339
-64.899
-64.677
-65.455
-67.02
-69.128
-71.517
-73.986
-76.376
-78.561
-80.461
-82.019
-83.195
-83.971
-84.351
-84.329
-83.904
-83.099
-81.947
-80.499
-78.811
-76.918
-74.853
-72.663
-70.404
-68.152
-65.969
-63.893
-61.942
-60.13
-58.465
-56.957
-55.603
-54.379
-53.255
-52.206
-51.208
-50.248
-49.306
-48.358
-47.374
-46.32
-45.17
-43.906
-42.517
-40.991
-39.319
-37.493
-35.512
-33.382
-31.11
-28.699
-26.15
-23.463
-20.641
-17.691
-14.619
-11.432
-8.137
-4.74
-1.248
2.332
5.993
9.726
13.525
17.386
21.301
25.261
29.259
33.286
37.332
41.388
45.447
49.497
53.531
57.54
61.515
65.45
69.337
73.168
76.936
80.634
84.256
87.795
91.245
94.599
97.852
100.998
104.033
106.952
109.75
112.422
114.964
117.374
119.648
121.782
123.773
125.619
127.317
128.866
130.263
131.507
132.597
133.532
134.312
134.935
135.403
135.716
135.875
135.88
135.733
135.436
134.991
134.402
133.671
132.803
131.801
130.671
129.417
128.046
126.562
124.973
123.285
121.506
119.641
117.7
115.69
113.618
111.495
109.327
107.124
104.895
102.647
100.391
98.133
95.884
93.651
91.442
89.265
87.128
85.038
83
81.022
79.11
77.267
75.499
73.81
72.203
70.681
69.244
67.896
66.637
65.467
64.385
63.391
62.483
61.659
60.916
60.251
59.66
59.139
58.684
58.288
57.948
57.657
57.409
57.198
57.018
56.863
56.727
56.602
56.484
56.366
56.242
56.106
55.954
55.781
55.581
55.352
55.09
54.791
54.453
54.074
53.653
53.187
52.677
52.122
51.524
50.883
50.2
49.479
48.721
47.929
47.109
46.262
45.395
44.511
43.616
42.715
41.814
40.918
40.034
39.167
38.324
37.511
36.733
35.996
35.305
34.667
34.085
33.564
33.109
32.723
32.409
32.171
32.01
31.929
31.927
32.007
32.168
32.409
32.729
33.126
33.598
34.142
34.753
35.429
36.163
36.951
37.787
38.666
39.579
40.521
41.484
42.46
43.443
44.424
45.395
46.349
47.279
48.176
49.034
49.845
50.603
51.302
51.935
52.498
52.985
53.394
53.72
53.961
54.115
54.18
54.156
54.043
53.842
53.554
53.181
52.727
52.196
51.591
50.919
50.184
49.393
48.554
47.674
46.76
45.82
44.864
43.899
42.934
41.977
41.038
40.124
39.244
38.406
37.617
36.885
36.215
35.613
35.085
34.635
34.265
33.979
33.776
33.658
33.624
33.674
33.806
34.017
34.303
34.66
35.081
35.556
36.074
36.626
37.199
37.782
38.36
38.923
39.457
39.953
40.403
40.795
41.116
41.353
41.494
41.529
41.451
41.256
40.938
40.493
39.917
39.211
38.375
37.411
36.311
35.066
33.66
32.087
30.35
28.455
26.409
24.213
21.865
19.362
16.724
13.979
11.158
8.297
5.419
2.537
-0.303
-3.029
-5.598
-7.997
-10.284
-12.59
-14.952
-17.318
-19.627
-21.824
-23.864
-25.725
-27.249
-28.121
-28.231
-27.722
-26.885
-26.145
-25.844
-26.136
-27.248
-29.583
-33.296
-38.218
-43.919
-49.735
-55.158
-60.064
-64.456
-68.232
-71.451
-74.367
-77.344
-80.849
-85.187
-90.069
-94.722
-98.41
-99.672
-96.926
-89.502
-76.27
-57.411
-33.842
-4.243
31.722
74.599
124.443
176.239
225.093
266.535
297.519
320.482
336.853
346.395
345.672
326.185
282.327
211.574
117.695
12.975
-89.866
-177.72
-241.569
-282.03
-303.639
-313.691
-319.057
-319.707
-312.55
-295.575
-269.144
-239.526
-215.084
-200.435
-195.834
-196.847
-198.044
-196.891
-193.818
-191.392
-191.581
-194.5
-198.969
-203.111
-205.728
-206.636
-206.052
-204.381
-201.936
-198.907
-195.574
-192.338
-189.613
-187.62
-186.393
-185.868
-185.885
-186.28
-186.896
-187.532
-187.986
-188.148
-187.979
-187.48
-186.707
-185.708
-184.518
-183.188
-181.769
-180.297
-178.799
-177.305
-175.837
-174.432
-173.128
-171.956
-170.933
-170.071
-169.374
-168.843
-168.47
-168.244
-168.147
-168.165
-168.287
-168.502
-168.798
-169.161
-169.574
-170.017
-170.474
-170.926
-171.356
-171.748
-172.086
-172.357
-172.549
-172.65
-172.651
-172.539
-172.301
-171.927
-171.404
-170.72
-169.866
-168.832
-167.609
-166.19
-164.569
-162.741
-160.703
-158.452
-155.986
-153.305
-150.409
-147.3
-143.982
-140.458
-136.734
-132.817
-128.714
-124.435
-119.991
-115.391
-110.648
-105.777
-100.79
-95.702
-90.529
-85.288
-79.994
-74.666
-69.32
-63.975
-58.649
-53.36
-48.126
-42.966
-37.897
-32.936
-28.101
-23.407
-18.871
-14.507
-10.33
-6.352
-2.586
0.956
4.265
7.331
10.147
12.706
15.003
17.033
18.795
20.286
21.508
22.461
23.148
23.573
23.742
23.662
23.339
22.784
22.006
21.017
19.828
18.454
16.907
15.202
13.355
11.381
9.295
7.115
4.856
2.535
0.169
-2.227
-4.636
-7.044
-9.434
-11.792
-14.104
-16.358
-18.54
-20.64
-22.646
-24.548
-26.338
-28.008
-29.551
-30.962
-32.235
-33.368
-34.359
-35.205
-35.907
-36.466
-36.883
-37.161
-37.305
-37.319
-37.208
-36.978
-36.637
-36.192
-35.65
-35.02
-34.311
-33.53
-32.689
-31.794
-30.856
-29.883
-28.884
-27.868
-26.843
-25.816
-24.797
-23.791
-22.807
-21.85
-20.927
-20.042
-19.201
-18.407
-17.665
-16.977
-16.346
-15.773
-15.259
-14.804
-14.408
-14.071
-13.79
-13.564
-13.39
-13.264
-13.184
-13.145
-13.143
-13.175
-13.234
-13.317
-13.419
-13.535
-13.659
-13.788
-13.915
-14.036
-14.147
-14.243
-14.318
-14.369
-14.391
-14.38
-14.333
-14.245
-14.114
-13.937
-13.71
-13.431
-13.099
-12.711
-12.266
-11.765
-11.205
-10.587
-9.912
-9.181
-8.393
-7.552
-6.657
-5.713
-4.719
-3.68
-2.597
-1.473
-0.311
0.886
2.116
3.375
4.66
5.967
7.295
8.638
9.995
11.361
12.734
14.11
15.487
16.861
18.228
19.587
20.935
22.27
23.588
24.89
26.172
27.435
28.677
29.898
31.098
32.278
33.439
34.581
35.707
36.817
37.916
39.004
40.085
41.161
42.237
43.316
44.402
45.498
46.61
47.74
48.895
50.078
51.294
52.547
53.842
55.184
56.576
58.024
59.531
61.1
62.735
64.439
66.214
68.062
69.984
71.98
74.05
76.193
78.407
80.689
83.036
85.444
87.906
90.417
92.969
95.555
98.166
100.791
103.42
106.042
108.643
111.209
113.727
116.182
118.56
120.844
123.02
125.072
126.987
128.749
130.346
131.764
132.987
134.001
134.794
135.354
135.671
135.735
135.538
135.074
134.342
133.341
132.071
130.53
128.714
126.621
124.256
121.627
118.743
115.62
112.274
108.727
105.013
101.164
97.208
93.175
89.081
84.95
80.814
76.707
72.671
68.746
64.954
61.317
57.858
54.585
51.494
48.567
45.756
43.024
40.345
37.687
35.024
32.32
29.518
26.573
23.424
19.989
16.246
12.214
7.949
3.615
-0.593
-4.49
-7.799
-10.221
-11.594
-11.844
-11.069
-9.619
-7.841
-6.053
-4.689
-4.125
-4.539
-5.988
-8.23
-10.581
-12.227
-11.818
-7.393
2.671
19.291
41.651
67.667
95.901
126.312
161.478
204.247
255.3
312.735
370.593
422.075
460.694
480.431
477.766
449.864
396.38
319.733
224.101
117.288
8.522
-92.009
-174.145
-232.01
-265.28
-278.036
-277.453
-269.872
-256.918
-239.617
-219.261
-196.863
-176.96
-161.714
-149.753
-140.656
-132.227
-123.663
-117.014
-112.789
-111.067
-111.677
-113.005
-113.862
-113.739
-112.105
-108.956
-104.657
-99.501
-93.797
-87.934
-82.296
-77.274
-73.32
-70.681
-69.318
-69.093
-69.792
-71.175
-73.056
-75.234
-77.451
-79.511
-81.303
-82.762
-83.868
-84.625
-85.012
-85.023
-84.678
-83.998
-83.013
-81.769
-80.309
-78.677
-76.926
-75.098
-73.243
-71.427
-69.695
-68.082
-66.617
-65.306
-64.158
-63.181
-62.369
-61.707
-61.173
-60.742
-60.382
-60.07
-59.779
-59.477
-59.131
-58.7
-58.152
-57.463
-56.609
-55.573
-54.339
-52.891
-51.218
-49.316
-47.181
-44.809
-42.196
-39.338
-36.233
-32.883
-29.292
-25.465
-21.409
-17.129
-12.633
-7.93
-3.03
2.055
7.314
12.736
18.306
24.008
29.825
35.738
41.728
47.775
53.857
59.952
66.038
72.094
78.097
84.025
89.856
95.568
101.14
106.55
111.779
116.806
121.611
126.178
130.487
134.524
138.274
141.722
144.857
147.668
150.144
152.278
154.063
155.493
156.565
157.276
157.627
157.617
157.25
156.529
155.459
154.048
152.302
150.233
147.85
145.165
142.191
138.941
135.432
131.679
127.698
123.507
119.124
114.567
109.855
105.008
100.045
94.986
89.851
84.659
79.431
74.184
68.938
63.711
58.521
53.385
48.32
43.342
38.465
33.703
29.07
24.579
20.239
16.063
12.059
8.234
4.597
1.153
-2.092
-5.137
-7.977
-10.611
-13.039
-15.261
-17.28
-19.097
-20.716
-22.141
-23.379
-24.433
-25.312
-26.022
-26.571
-26.968
-27.219
-27.336
-27.325
-27.198
-26.963
-26.629
-26.207
-25.706
-25.135
-24.504
-23.821
-23.097
-22.34
-21.557
-20.758
-19.949
-19.138
-18.331
-17.535
-16.755
-15.996
-15.263
-14.559
-13.888
-13.254
-12.657
-12.099
-11.582
-11.106
-10.672
-10.278
-9.925
-9.61
-9.334
-9.092
-8.885
-8.708
-8.559
-8.436
-8.335
-8.253
-8.185
-8.129
-8.081
-8.037
-7.993
-7.946
-7.892
-7.827
-7.748
-7.652
-7.537
-7.398
-7.234
-7.043
-6.823
-6.572
-6.29
-5.976
-5.63
-5.251
-4.84
-4.398
-3.926
-3.425
-2.897
-2.344
-1.769
-1.174
-0.563
0.063
0.698
1.34
1.985
2.629
3.268
3.897
4.514
5.112
5.689
6.241
6.763
7.252
7.704
8.117
8.486
8.811
9.088
9.316
9.494
9.62
9.695
9.718
9.69
9.613
9.488
9.317
9.104
8.851
8.562
8.242
7.895
7.527
7.143
6.749
6.352
5.958
5.575
5.209
4.868
4.56
4.293
4.075
3.913
3.814
3.786
3.837
3.972
4.198
4.522
4.948
5.481
6.127
6.889
7.771
8.773
9.898
11.147
12.52
14.015
15.63
17.363
19.209
21.165
23.225
25.383
27.631
29.963
32.368
34.837
37.36
39.924
42.515
45.121
47.728
50.323
52.891
55.417
57.891
60.299
62.63
64.874
67.017
69.048
70.956
72.729
74.359
75.837
77.156
78.308
79.29
80.104
80.748
81.224
81.528
81.651
81.591
81.349
80.928
80.334
79.579
78.674
77.641
76.511
75.315
74.082
72.836
71.592
70.372
69.201
68.107
67.129
66.294
65.618
65.117
64.798
64.652
64.661
64.783
64.957
65.124
65.222
65.194
64.986
64.536
63.803
62.735
61.256
59.324
56.935
54.144
51.125
48.081
45.174
42.625
40.727
39.699
39.718
40.76
42.436
44.347
46.222
47.691
48.329
47.817
45.883
43.138
41.33
41.919
45.703
52.116
59.736
68.818
81.987
103.755
137.748
184.08
238.899
295.945
350.336
399.26
441.46
474.635
493.57
492.821
467.567
417.501
346.922
260.474
165.229
68.113
-24.255
-102.446
-160.4
-196.856
-213.657
-217.229
-212.506
-199.946
-180.349
-154.848
-126.856
-103.097
-87.224
-78.765
-74.606
-70.217
-63.489
-55.48
-48.632
-44.633
-43.708
-44.954
-46.835
-48.517
-49.858
-50.704
-51.013
-50.854
-50.226
-49.211
-48.016
-46.757
-45.503
-44.431
-43.745
-43.494
-43.636
-44.083
-44.684
-45.348
-46.031
-46.622
-46.974
-46.999
-46.646
-45.91
-44.855
-43.53
-41.987
-40.311
-38.584
-36.878
-35.267
-33.796
-32.487
-31.355
-30.404
-29.634
-29.051
-28.665
-28.483
-28.514
-28.749
-29.178
-29.78
-30.526
-31.39
-32.342
-33.35
-34.389
-35.437
-36.477
-37.498
-38.492
-39.447
-40.348
-41.18
-41.927
-42.577
-43.115
-43.53
-43.811
-43.949
-43.935
-43.763
-43.428
-42.922
-42.24
-41.374
-40.319
-39.07
-37.625
-35.981
-34.139
-32.1
-29.869
-27.449
-24.849
-22.076
-19.139
-16.049
-12.816
-9.452
-5.971
-2.387
1.284
5.026
8.823
12.656
16.508
20.36
24.192
27.986
31.723
35.383
38.947
42.396
45.712
48.876
51.871
54.679
57.285
59.673
61.828
63.737
65.387
66.768
67.87
68.685
69.207
69.429
69.349
68.966
68.278
67.287
65.996
64.409
62.534
60.379
57.952
55.264
52.329
49.161
45.774
42.185
38.412
34.474
30.39
26.18
21.867
17.472
13.018
8.527
4.024
-0.47
-4.932
-9.337
-13.665
-17.893
-22.001
-25.967
-29.772
-33.399
-36.829
-40.047
-43.039
-45.792
-48.294
-50.537
-52.511
-54.211
-55.632
-56.772
-57.629
-58.205
-58.501
-58.523
-58.276
-57.767
-57.006
-56.004
-54.772
-53.324
-51.675
-49.839
-47.835
-45.68
-43.39
-40.986
-38.487
-35.911
-33.278
-30.609
-27.921
-25.235
-22.57
-19.942
-17.371
-14.872
-12.461
-10.153
-7.962
-5.901
-3.981
-2.211
-0.602
0.839
2.107
3.196
4.102
4.825
5.362
5.715
5.886
5.877
5.695
5.344
4.83
4.163
3.35
2.401
1.326
0.137
-1.157
-2.543
-4.009
-5.543
-7.132
-8.765
-10.429
-12.112
-13.801
-15.486
-17.156
-18.799
-20.406
-21.968
-23.475
-24.919
-26.293
-27.591
-28.806
-29.933
-30.968
-31.908
-32.751
-33.496
-34.142
-34.69
-35.141
-35.498
-35.763
-35.942
-36.037
-36.055
-36
-35.878
-35.695
-35.459
-35.177
-34.855
-34.502
-34.125
-33.733
-33.332
-32.932
-32.539
-32.161
-31.804
-31.477
-31.185
-30.936
-30.735
-30.588
-30.5
-30.477
-30.522
-30.639
-30.83
-31.095
-31.436
-31.852
-32.342
-32.904
-33.535
-34.231
-34.989
-35.806
-36.678
-37.599
-38.564
-39.568
-40.604
-41.666
-42.745
-43.83
-44.912
-45.981
-47.028
-48.045
-49.023
-49.953
-50.826
-51.634
-52.373
-53.036
-53.612
-54.091
-54.458
-54.707
-54.838
-54.858
-54.77
-54.576
-54.281
-53.893
-53.426
-52.887
-52.277
-51.583
-50.794
-49.906
-48.929
-47.878
-46.772
-45.62
-44.419
-43.166
-41.863
-40.516
-39.125
-37.678
-36.155
-34.554
-32.9
-31.245
-29.64
-28.121
-26.707
-25.408
-24.237
-23.217
-22.379
-21.749
-21.339
-21.166
-21.252
-21.641
-22.386
-23.513
-25.011
-26.836
-28.939
-31.292
-33.874
-36.67
-39.651
-42.774
-45.995
-49.278
-52.602
-55.936
-59.241
-62.453
-65.5
-68.329
-70.916
-73.27
-75.396
-77.293
-78.964
-80.424
-81.706
-82.862
-83.939
-84.972
-86.002
-87.074
-88.25
-89.614
-91.234
-93.189
-95.563
-98.375
-101.612
-105.196
-108.932
-112.603
-116.006
-118.874
-120.946
-122.083
-122.238
-121.573
-120.528
-119.558
-119.076
-119.52
-121.201
-124.197
-128.477
-133.576
-138.442
-141.954
-142.436
-138.199
-128.495
-112.373
-90.124
-62.611
-29.348
8.342
49.647
93.948
137.835
179.911
218.133
248.526
268.301
272.674
256.686
218.054
156.636
74.609
-22.282
-125.267
-225.179
-311.145
-374.231
-411.859
-424.683
-418.231
-401.327
-380.177
-360.425
-345.505
-334.552
-326.037
-316.962
-304.675
-289.689
-273.939
-260.373
-251.061
-245.95
-243.94
-243.45
-243.397
-243.261
-242.569
-240.907
-238.028
-233.933
-228.883
-223.272
-217.461
-211.806
-206.712
-202.594
-199.688
-198.002
-197.394
-197.614
-198.402
-199.535
-200.791
-201.947
-202.86
-203.46
-203.706
-203.589
-203.111
-202.268
-201.072
-199.56
-197.757
-195.693
-193.419
-191.001
-188.522
-186.076
-183.725
-181.505
-179.447
-177.568
-175.887
-174.427
-173.189
-172.165
-171.348
-170.733
-170.309
-170.07
-169.991
-170.034
-170.157
-170.316
-170.475
-170.608
-170.691
-170.703
-170.626
-170.444
-170.145
-169.725
-169.173
-168.477
-167.625
-166.603
-165.401
-164.013
-162.435
-160.663
-158.692
-156.519
-154.14
-151.553
-148.755
-145.743
-142.515
-139.067
-135.4
-131.514
-127.415
-123.106
-118.594
-113.885
-108.989
-103.915
-98.674
-93.277
-87.735
-82.061
-76.267
-70.368
-64.377
-58.309
-52.179
-46.005
-39.8
-33.584
-27.372
-21.181
-15.03
-8.934
-2.912
3.021
8.847
14.55
20.115
25.527
30.769
35.828
40.691
45.346
49.781
53.986
57.951
61.67
65.136
68.342
71.287
73.966
76.378
78.523
80.403
82.018
83.374
84.475
85.327
85.939
86.318
86.476
86.423
86.172
85.737
85.13
84.369
83.467
82.443
81.313
80.094
78.804
77.462
76.085
74.69
73.297
71.922
70.582
69.293
68.072
66.933
65.89
64.956
64.144
63.463
62.925
62.538
62.308
62.243
62.347
62.624
63.075
63.702
64.504
65.48
66.627
67.94
69.415
71.045
72.822
74.739
76.786
78.954
81.231
83.608
86.072
88.612
91.215
93.869
96.561
99.28
102.013
104.748
107.473
110.178
112.851
115.483
118.064
120.586
123.04
125.419
127.717
129.929
132.049
134.075
136.003
137.832
139.561
141.19
142.72
144.152
145.49
146.737
147.897
148.974
149.974
150.904
151.769
152.577
153.335
154.051
154.733
155.39
156.03
156.661
157.292
157.933
158.59
159.274
159.992
160.752
161.562
162.429
163.361
164.364
165.445
166.609
167.861
169.207
170.651
172.195
173.843
175.598
177.462
179.435
181.519
183.714
186.019
188.434
190.957
193.586
196.319
199.153
202.085
205.11
208.225
211.425
214.705
218.06
221.484
224.971
228.515
232.11
235.748
239.423
243.127
246.853
250.594
254.341
258.089
261.829
265.554
269.256
272.929
276.565
280.158
283.7
287.185
290.606
293.958
297.234
300.429
303.537
306.553
309.472
312.29
315.001
317.604
320.093
322.466
324.719
326.85
328.855
330.733
332.482
334.099
335.583
336.933
338.148
339.227
340.17
340.976
341.644
342.173
342.563
342.814
342.924
342.892
342.718
342.401
341.939
341.331
340.576
339.671
338.613
337.401
336.031
334.499
332.802
330.931
328.883
326.65
324.227
321.606
318.781
315.746
312.494
309.02
305.321
301.391
297.224
292.814
288.155
283.242
278.068
272.63
266.925
260.948
254.698
248.18
241.395
234.346
227.032
219.448
211.592
203.466
195.075
186.432
177.553
168.457
159.174
149.746
140.214
130.62
121.005
111.397
101.828
92.336
82.961
73.758
64.771
56.035
47.579
39.419
31.554
23.976
16.645
9.494
2.458
-4.536
-11.563
-18.68
-25.955
-33.457
-41.243
-49.397
-58.01
-67.111
-76.669
-86.584
-96.65
-106.658
-116.41
-125.599
-133.875
-140.996
-146.81
-151.34
-154.85
-157.564
-159.577
-161.088
-162.271
-163.062
-163.395
-163.028
-161.283
-157.499
-150.683
-139.209
-121.917
-98.525
-70.082
-38.873
-6.285
28.279
67.57
114.752
170.19
230.971
291.134
344.159
386.074
414.346
427.84
425.095
402.443
357.481
288.806
198.502
95.372
-9.842
-103.939
-175.397
-221.493
-244.456
-251.808
-253.229
-252.599
-250.455
-245.109
-233.547
-216.143
-195.407
-173.956
-154.595
-138.852
-127.037
-119.23
-115.053
-113.823
-114.87
-117.5
-121.002
-124.633
-127.662
-129.436
-129.648
-128.383
-125.874
-122.429
-118.388
-114.113
-110.037
-106.613
-104.076
-102.434
-101.584
-101.335
-101.492
-101.876
-102.282
-102.498
-102.407
-101.981
-101.24
-100.245
-99.052
-97.697
-96.23
-94.702
-93.154
-91.618
-90.126
-88.705
-87.392
-86.232
-85.255
-84.482
-83.925
-83.584
-83.456
-83.53
-83.791
-84.222
-84.807
-85.535
-86.395
-87.368
-88.431
-89.559
-90.722
-91.901
-93.081
-94.235
-95.345
-96.389
-97.339
-98.2
-98.98
-99.628
-100.104
-100.362
-100.341
-100.077
-99.633
-98.971
-98.063
-96.986
-95.775
-94.531
-93.386
-92.204
-90.827
-89.257
-87.455
-85.328
-82.845
-79.844
-76.133
-71.895
-67.318
-62.447
-57.392
-52.219
-46.947
-41.749
-36.809
-32.022
-27.291
-22.596
-17.869
-13.133
-8.441
-3.736
1.033
5.792
10.48
15.046
19.422
23.605
27.599
31.367
34.88
38.127
41.092
43.767
46.151
48.22
49.958
51.351
52.387
53.06
53.37
53.312
52.884
52.087
50.922
49.393
47.505
45.267
42.687
39.776
36.545
33.01
29.184
25.084
20.73
16.137
11.325
6.312
1.121
-4.228
-9.712
-15.308
-20.993
-26.743
-32.536
-38.347
-44.153
-49.931
-55.658
-61.313
-66.874
-72.32
-77.631
-82.789
-87.777
-92.578
-97.178
-101.562
-105.72
-109.64
-113.315
-116.737
-119.901
-122.802
-125.439
-127.811
-129.919
-131.765
-133.353
-134.689
-135.779
-136.633
-137.26
-137.671
-137.879
-137.897
-137.739
-137.421
-136.959
-136.369
-135.668
-134.874
-134.005
-133.078
-132.112
-131.123
-130.13
-129.149
-128.196
-127.288
-126.438
-125.661
-124.969
-124.375
-123.889
-123.521
-123.279
-123.17
-123.2
-123.373
-123.694
-124.162
-124.779
-125.544
-126.453
-127.504
-128.69
-130.006
-131.444
-132.996
-134.652
-136.401
-138.232
-140.134
-142.092
-144.095
-146.128
-148.177
-150.228
-152.267
-154.28
-156.253
-158.172
-160.024
-161.797
-163.479
-165.057
-166.523
-167.865
-169.075
-170.145
-171.068
-171.84
-172.454
-172.909
-173.203
-173.334
-173.303
-173.112
-172.764
-172.263
-171.615
-170.827
-169.905
-168.86
-167.7
-166.437
-165.083
-163.648
-162.147
-160.593
-159
-157.382
-155.753
-154.128
-152.522
-150.949
-149.423
-147.958
-146.567
-145.265
-144.062
-142.97
-142
-141.163
-140.466
-139.917
-139.524
-139.292
-139.225
-139.326
-139.597
-140.038
-140.649
-141.426
-142.367
-143.465
-144.716
-146.11
-147.638
-149.292
-151.059
-152.927
-154.882
-156.91
-158.996
-161.124
-163.278
-165.439
-167.591
-169.716
-171.798
-173.817
-175.757
-177.601
-179.332
-180.933
-182.388
-183.683
-184.803
-185.734
-186.464
-186.981
-187.276
-187.339
-187.164
-186.743
-186.074
-185.152
-183.977
-182.549
-180.868
-178.941
-176.771
-174.365
-171.734
-168.886
-165.837
-162.599
-159.189
-155.624
-151.922
-148.103
-144.186
-140.192
-136.141
-132.054
-127.951
-123.855
-119.785
-115.767
-111.82
-107.968
-104.231
-100.629
-97.182
-93.908
-90.822
-87.936
-85.262
-82.81
-80.593
-78.624
-76.913
-75.465
-74.283
-73.365
-72.705
-72.29
-72.103
-72.115
-72.298
-72.626
-73.075
-73.626
-74.256
-74.94
-75.647
-76.338
-76.982
-77.552
-78.025
-78.379
-78.608
-78.716
-78.728
-78.692
-78.65
-78.637
-78.688
-78.833
-79.112
-79.575
-80.27
-81.24
-82.532
-84.2
-86.253
-88.663
-91.339
-94.104
-96.744
-99.036
-100.719
-101.527
-101.297
-99.949
-97.523
-94.256
-90.399
-86.231
-82.076
-78.155
-74.596
-71.471
-68.608
-65.555
-61.305
-54.179
-42.747
-26.365
-5.919
16.676
40.639
67.476
100.809
143.714
196.354
254.678
311.897
363.071
405.326
437.663
459.578
467.524
456.382
422.028
362.845
280.574
181.643
75.793
-26.54
-113.296
-176.172
-213.975
-229.563
-230.873
-226.221
-218.728
-209.072
-195.974
-177.46
-154.669
-130.122
-106.107
-85.093
-68.232
-55.549
-46.89
-41.65
-38.957
-38.083
-38.438
-39.274
-39.921
-39.812
-38.393
-35.528
-31.458
-26.501
-20.995
-15.343
-9.902
-5.039
-1.18
1.517
3.123
3.795
3.79
3.359
2.704
2.042
1.605
1.531
1.887
2.718
4.006
5.733
7.894
10.459
13.384
16.633
20.155
23.886
27.758
31.697
35.623
39.482
43.231
46.834
50.265
53.497
56.513
59.308
61.883
64.24
66.383
68.316
70.053
71.618
73.042
74.358
75.604
76.806
77.989
79.173
80.376
81.613
82.896
84.234
85.633
87.102
88.651
90.29
92.031
93.881
95.846
97.929
100.136
102.468
104.93
107.525
110.255
113.124
116.134
119.287
122.587
126.032
129.621
133.351
137.217
141.212
145.329
149.56
153.896
158.324
162.836
167.418
172.059
176.746
181.465
186.202
190.942
195.671
200.373
205.031
209.631
214.155
218.589
222.917
227.122
231.191
235.108
238.859
242.43
245.809
248.982
251.937
254.665
257.156
259.4
261.39
263.119
264.583
265.778
266.7
267.349
267.725
267.827
267.66
267.225
266.529
265.577
264.376
262.936
261.264
259.373
257.273
254.977
252.499
249.852
247.052
244.114
241.054
237.889
234.636
231.311
227.932
224.517
221.081
217.642
214.216
210.82
207.469
204.178
200.962
197.834
194.806
191.891
189.1
186.442
183.926
181.56
179.349
177.3
175.415
173.698
172.151
170.774
169.566
168.525
167.649
166.932
166.371
165.959
165.689
165.553
165.542
165.647
165.858
166.165
166.557
167.021
167.548
168.125
168.74
169.381
170.037
170.695
171.344
171.973
172.571
173.128
173.633
174.079
174.455
174.754
174.97
175.094
175.123
175.05
174.871
174.583
174.184
173.671
173.044
172.303
171.449
170.482
169.405
168.221
166.933
165.546
164.062
162.488
160.828
159.089
157.276
155.396
153.456
151.462
149.421
147.34
145.226
143.086
140.926
138.752
136.572
134.39
132.212
130.044
127.89
125.756
123.644
121.559
119.504
117.482
115.494
113.542
111.628
109.751
107.913
106.113
104.35
102.624
100.933
99.275
97.648
96.05
94.478
92.93
91.402
89.891
88.393
86.906
85.425
83.947
82.469
80.988
79.499
78
76.488
74.96
73.413
71.845
70.255
68.639
66.998
65.329
63.633
61.908
60.155
58.374
56.566
54.731
52.872
50.989
49.084
47.161
45.22
43.266
41.3
39.327
37.35
35.372
33.397
31.429
29.472
27.53
25.608
23.709
21.838
20
18.198
16.438
14.723
13.056
11.442
9.885
8.387
6.952
5.582
4.28
3.048
1.889
0.803
-0.207
-1.141
-1.999
-2.779
-3.483
-4.111
-4.664
-5.143
-5.55
-5.888
-6.158
-6.365
-6.511
-6.601
-6.639
-6.631
-6.582
-6.499
-6.391
-6.263
-6.124
-5.982
-5.846
-5.723
-5.622
-5.548
-5.509
-5.51
-5.559
-5.664
-5.832
-6.069
-6.38
-6.771
-7.246
-7.81
-8.465
-9.209
-10.041
-10.962
-11.974
-13.085
-14.298
-15.614
-17.031
-18.544
-20.147
-21.832
-23.584
-25.38
-27.198
-29.017
-30.817
-32.59
-34.321
-35.988
-37.569
-39.028
-40.338
-41.485
-42.456
-43.244
-43.854
-44.298
-44.605
-44.828
-45.022
-45.239
-45.534
-45.953
-46.552
-47.395
-48.553
-50.117
-52.139
-54.619
-57.514
-60.699
-64.012
-67.285
-70.294
-72.768
-74.532
-75.493
-75.696
-75.422
-75.007
-74.797
-75.158
-76.335
-78.472
-81.669
-85.747
-90.152
-93.6
-94.102
-90.017
-80.48
-66.326
-49.564
-30.794
-8.776
19.878
58.98
108.981
166.952
226.95
282.022
327.49
359.229
374.379
371.243
346.463
299.744
232.315
145.245
45.683
-58.327
-157.076
-237.517
-294.034
-326.62
-340.038
-344.24
-344.902
-342.529
-335.207
-320.782
-299.701
-275.947
-254.279
-235.904
-220.985
-208.68
-197.319
-188.068
-181.78
-178.116
-177.113
-177.664
-178.497
-179.123
-178.895
-177.249
-174.129
-169.681
-164.183
-158.059
-151.742
-145.582
-139.981
-135.42
-132.112
-130.052
-129.148
-129.182
-129.955
-131.333
-133.134
-135.129
-137.16
-139.104
-140.847
-142.325
-143.483
-144.262
-144.643
-144.63
-144.226
-143.449
-142.328
-140.894
-139.176
-137.201
-134.984
-132.54
-129.902
-127.116
-124.245
-121.36
-118.515
-115.748
-113.089
-110.556
-108.159
-105.899
-103.762
-101.724
-99.769
-97.883
-96.058
-94.29
-92.568
-90.871
-89.179
-87.461
-85.696
-83.868
-81.962
-79.967
-77.875
-75.683
-73.391
-71.008
-68.537
-65.98
-63.337
-60.606
-57.787
-54.883
-51.895
-48.827
-45.682
-42.461
-39.17
-35.812
-32.391
-28.91
-25.374
-21.785
-18.146
-14.464
-10.746
-6.998
-3.23
0.551
4.335
8.111
11.87
15.601
19.293
22.936
26.519
30.03
33.459
36.794
40.024
43.137
46.122
48.967
51.662
54.196
56.558
58.737
60.724
62.508
64.082
65.437
66.567
67.463
68.122
68.538
68.707
68.628
68.298
67.717
66.885
65.803
64.476
62.907
61.1
59.063
56.802
54.325
51.642
48.764
45.699
42.462
39.064
35.519
31.84
28.044
24.144
20.157
16.098
11.984
7.832
3.657
-0.524
-4.695
-8.841
-12.945
-16.993
-20.97
-24.864
-28.66
-32.346
-35.911
-39.344
-42.636
-45.778
-48.762
-51.583
-54.234
-56.711
-59.011
-61.133
-63.074
-64.836
-66.419
-67.827
-69.061
-70.126
-71.028
-71.772
-72.366
-72.816
-73.131
-73.319
-73.391
-73.355
-73.221
-72.999
-72.7
-72.334
-71.912
-71.444
-70.939
-70.408
-69.862
-69.308
-68.757
-68.217
-67.697
-67.203
-66.743
-66.323
-65.949
-65.625
-65.357
-65.147
-64.998
-64.912
-64.891
-64.935
-65.043
-65.216
-65.45
-65.745
-66.096
-66.5
-66.954
-67.452
-67.991
-68.563
-69.165
-69.79
-70.431
-71.084
-71.74
-72.393
-73.038
-73.666
-74.272
-74.849
-75.391
-75.891
-76.345
-76.746
-77.089
-77.371
-77.587
-77.733
-77.807
-77.805
-77.726
-77.569
-77.333
-77.017
-76.624
-76.152
-75.606
-74.986
-74.296
-73.539
-72.719
-71.841
-70.909
-69.928
-68.904
-67.843
-66.75
-65.633
-64.497
-63.351
-62.2
-61.051
-59.911
-58.787
-57.685
-56.612
-55.572
-54.572
-53.617
-52.712
-51.859
-51.064
-50.329
-49.655
-49.045
-48.499
-48.017
-47.597
-47.239
-46.939
-46.695
-46.503
-46.358
-46.255
-46.188
-46.151
-46.136
-46.136
-46.142
-46.145
-46.135
-46.105
-46.043
-45.94
-45.787
-45.573
-45.288
-44.924
-44.471
-43.92
-43.263
-42.49
-41.597
-40.575
-39.42
-38.127
-36.692
-35.112
-33.388
-31.518
-29.504
-27.347
-25.051
-22.62
-20.06
-17.378
-14.582
-11.682
-8.688
-5.615
-2.475
0.716
3.943
7.189
10.438
13.673
16.875
20.03
23.121
26.131
29.043
31.841
34.507
37.024
39.379
41.557
43.544
45.33
46.903
48.26
49.395
50.305
50.986
51.427
51.622
51.572
51.277
50.742
49.976
48.991
47.805
46.448
44.951
43.342
41.649
39.893
38.095
36.285
34.497
32.769
31.136
29.622
28.247
27.033
25.988
25.104
24.355
23.691
23.064
22.437
21.763
20.993
20.072
18.93
17.513
15.761
13.589
10.965
7.898
4.444
0.787
-2.84
-6.223
-9.073
-11.068
-12.016
-11.804
-10.482
-8.432
-6.1
-3.891
-2.288
-1.711
-2.361
-4.276
-7.113
-9.913
-11.447
-10.413
-5.389
5.032
22.065
46.663
79.426
119.567
164.839
212.923
261.154
307.874
353.761
398.045
437.538
467.239
478.763
465.087
424.871
359.796
275.283
179.657
79.079
-19.337
-106.993
-178.348
-229.298
-258.882
-270.775
-268.927
-256.304
-236.455
-212.908
-188.629
-167.651
-151.554
-138.512
-127.431
-116.734
-106.309
-98.556
-94.363
-93.755
-96.05
-99.237
-101.912
-103.275
-102.637
-99.946
-95.444
-89.404
-82.286
-74.59
-66.791
-59.431
-53.04
-47.916
-44.119
-41.568
-40.065
-39.392
-39.358
-39.754
-40.349
-40.988
-41.584
-42.075
-42.452
-42.711
-42.82
-42.756
-42.509
-42.068
-41.428
-40.607
-39.62
-38.496
-37.276
-35.996
-34.69
-33.397
-32.158
-31.02
-30.022
-29.184
-28.524
-28.062
-27.812
-27.781
-27.967
-28.351
-28.912
-29.628
-30.476
-31.433
-32.47
-33.556
-34.657
-35.736
-36.764
-37.715
-38.565
-39.292
-39.877
-40.302
-40.553
-40.625
-40.509
-40.197
-39.682
-38.956
-38.015
-36.857
-35.481
-33.89
-32.083
-30.064
-27.835
-25.4
-22.764
-19.934
-16.915
-13.714
-10.339
-6.801
-3.112
0.714
4.664
8.722
12.873
17.1
21.385
25.713
30.064
34.422
38.77
43.09
47.364
51.574
55.703
59.734
63.65
67.434
71.072
74.547
77.845
80.953
83.858
86.548
89.012
91.239
93.22
94.948
96.415
97.616
98.547
99.204
99.586
99.692
99.523
99.081
98.368
97.391
96.153
94.661
92.923
90.947
88.743
86.322
83.694
80.872
77.87
74.699
71.376
67.914
64.33
60.639
56.856
53
49.086
45.13
41.151
37.164
33.185
29.231
25.317
21.458
17.669
13.964
10.356
6.856
3.477
0.228
-2.879
-5.837
-8.639
-11.277
-13.746
-16.042
-18.161
-20.101
-21.861
-23.441
-24.841
-26.063
-27.111
-27.986
-28.695
-29.241
-29.633
-29.875
-29.977
-29.946
-29.791
-29.521
-29.146
-28.677
-28.123
-27.494
-26.801
-26.054
-25.263
-24.439
-23.591
-22.73
-21.863
-21
-20.148
-19.317
-18.511
-17.738
-17.003
-16.311
-15.666
-15.073
-14.534
-14.051
-13.627
-13.262
-12.957
-12.712
-12.525
-12.395
-12.321
-12.298
-12.324
-12.396
-12.509
-12.66
-12.842
-13.052
-13.284
-13.533
-13.793
-14.059
-14.324
-14.584
-14.834
-15.067
-15.28
-15.468
-15.626
-15.752
-15.841
-15.891
-15.899
-15.863
-15.782
-15.655
-15.48
-15.258
-14.988
-14.672
-14.311
-13.906
-13.46
-12.976
-12.455
-11.903
-11.322
-10.715
-10.089
-9.446
-8.791
-8.13
-7.467
-6.807
-6.156
-5.519
-4.901
-4.307
-3.742
-3.21
-2.715
-2.261
-1.853
-1.492
-1.182
-0.925
-0.724
-0.579
-0.492
-0.464
-0.493
-0.58
-0.722
-0.919
-1.167
-1.463
-1.805
-2.188
-2.607
-3.058
-3.536
-4.035
-4.55
-5.072
-5.597
-6.116
-6.622
-7.108
-7.565
-7.987
-8.365
-8.692
-8.96
-9.163
-9.293
-9.343
-9.308
-9.18
-8.955
-8.627
-8.191
-7.644
-6.982
-6.203
-5.307
-4.291
-3.156
-1.903
-0.534
0.947
2.537
4.233
6.029
7.919
9.894
11.948
14.072
16.256
18.488
20.757
23.049
25.351
27.65
29.932
32.182
34.387
36.533
38.607
40.6
42.498
44.289
45.959
47.498
48.894
50.138
51.222
52.137
52.877
53.439
53.825
54.034
54.068
53.925
53.595
53.078
52.375
51.489
50.428
49.203
47.824
46.314
44.702
43.017
41.288
39.536
37.777
36.031
34.327
32.693
31.17
29.787
28.563
27.523
26.679
26.028
25.562
25.252
25.051
24.915
24.795
24.633
24.38
23.976
23.369
22.49
21.242
19.58
17.515
15.118
12.577
10.107
7.891
6.189
5.3
5.377
6.47
8.425
10.738
12.916
14.525
15.042
14.117
11.733
7.942
3.205
-1.276
-4.327
-4.278
1.365
13.807
33.373
59.665
89.933
122.969
159.878
201.267
249.381
303.99
359.752
411.559
452.642
476.471
481.563
465.655
427.126
367.349
285.725
186.113
78.218
-27.673
-117.753
-181.764
-218.665
-231.865
-230.059
-222.531
-212.593
-200.773
-185.771
-165.537
-141.245
-115.607
-91.202
-70.775
-55.642
-45.832
-40.872
-39.772
-41.426
-44.902
-49.314
-53.648
-56.926
-58.365
-57.609
-54.809
-50.373
-44.79
-38.574
-32.266
-26.439
-21.668
-18.274
-16.286
-15.602
-16.008
-17.27
-19.204
-21.591
-24.176
-26.804
-29.372
-31.795
-34.047
-36.086
-37.858
-39.351
-40.562
-41.483
-42.119
-42.48
-42.581
-42.461
-42.151
-41.668
-41.036
-40.279
-39.434
-38.561
-37.703
-36.893
-36.159
-35.515
-34.971
-34.536
-34.204
-33.953
-33.762
-33.604
-33.456
-33.306
-33.132
-32.915
-32.627
-32.236
-31.716
-31.047
-30.213
-29.199
-27.994
-26.589
-24.978
-23.168
-21.16
-18.957
-16.562
-13.975
-11.2
-8.242
-5.107
-1.805
1.656
5.271
9.028
12.919
16.932
21.057
25.283
29.599
33.992
38.45
42.956
47.495
52.05
56.605
61.142
65.643
70.09
74.466
78.754
82.937
86.999
90.923
94.695
98.3
101.723
104.952
107.972
110.773
113.344
115.674
117.754
119.576
121.133
122.418
123.426
124.154
124.598
124.756
124.628
124.216
123.521
122.546
121.297
119.779
118
115.967
113.692
111.183
108.452
105.513
102.377
99.058
95.572
91.931
88.152
84.251
80.241
76.141
71.965
67.73
63.453
59.148
54.831
50.519
46.226
41.966
37.754
33.604
29.528
25.538
21.646
17.862
14.196
10.657
7.251
3.987
0.868
-2.1
-4.914
-7.571
-10.071
-12.413
-14.597
-16.625
-18.5
-20.224
-21.802
-23.238
-24.537
-25.705
-26.749
-27.676
-28.492
-29.206
-29.826
-30.36
-30.816
-31.203
-31.529
-31.802
-32.031
-32.224
-32.39
-32.535
-32.668
-32.796
-32.925
-33.062
-33.213
-33.382
-33.576
-33.797
-34.05
-34.339
-34.665
-35.031
-35.439
-35.889
-36.382
-36.92
-37.5
-38.122
-38.785
-39.488
-40.228
-41.003
-41.81
-42.647
-43.51
-44.397
-45.302
-46.224
-47.158
-48.1
-49.047
-49.995
-50.94
-51.878
-52.807
-53.721
-54.619
-55.496
-56.351
-57.181
-57.983
-58.755
-59.495
-60.203
-60.876
-61.515
-62.117
-62.684
-63.215
-63.711
-64.173
-64.601
-64.998
-65.366
-65.705
-66.019
-66.311
-66.582
-66.837
-67.078
-67.308
-67.532
-67.752
-67.973
-68.197
-68.429
-68.673
-68.93
-69.206
-69.504
-69.826
-70.175
-70.555
-70.968
-71.416
-71.9
-72.423
-72.986
-73.59
-74.236
-74.922
-75.65
-76.418
-77.225
-78.069
-78.949
-79.86
-80.801
-81.767
-82.755
-83.759
-84.776
-85.799
-86.824
-87.844
-88.854
-89.847
-90.815
-91.754
-92.654
-93.509
-94.312
-95.054
-95.729
-96.329
-96.846
-97.274
-97.604
-97.83
-97.946
-97.945
-97.82
-97.566
-97.178
-96.651
-95.981
-95.164
-94.197
-93.079
-91.808
-90.382
-88.803
-87.07
-85.185
-83.15
-80.969
-78.645
-76.182
-73.586
-70.864
-68.023
-65.07
-62.015
-58.869
-55.642
-52.347
-48.997
-45.606
-42.188
-38.756
-35.325
-31.911
-28.525
-25.181
-21.894
-18.677
-15.545
-12.512
-9.592
-6.796
-4.136
-1.622
0.734
2.924
4.946
6.793
8.462
9.946
11.231
12.309
13.178
13.839
14.296
14.557
14.63
14.531
14.286
13.925
13.472
12.952
12.379
11.769
11.154
10.568
10.053
9.646
9.367
9.227
9.238
9.401
9.704
10.12
10.595
11.064
11.471
11.762
11.885
11.784
11.398
10.645
9.418
7.658
5.382
2.663
-0.347
-3.48
-6.606
-9.509
-11.865
-13.457
-14.19
-14.096
-13.479
-12.645
-11.702
-10.87
-10.45
-10.49
-10.917
-11.557
-11.777
-10.719
-7.817
-1.816
9.315
26.233
49.069
77.174
107.336
138.664
173.092
211.966
258.736
314.26
373.231
430.142
477.614
507.355
516.243
502.608
465.672
408.99
335.229
246.236
147.488
44.605
-54.221
-137.016
-196.117
-228.945
-238.263
-233.214
-222.07
-208.757
-194.522
-177.632
-156.382
-132.081
-106.826
-82.955
-63.011
-47.95
-37.697
-31.899
-29.587
-29.726
-31.769
-35.038
-38.563
-41.513
-43.125
-43.029
-41.466
-38.844
-35.475
-31.734
-28.061
-24.913
-22.827
-22.068
-22.55
-24.061
-26.305
-28.992
-31.919
-34.852
-37.519
-39.747
-41.436
-42.546
-43.124
-43.205
-42.802
-41.951
-40.69
-39.061
-37.14
-35
-32.724
-30.398
-28.081
-25.819
-23.653
-21.616
-19.743
-18.055
-16.554
-15.233
-14.092
-13.129
-12.344
-11.732
-11.267
-10.918
-10.652
-10.43
-10.227
-10.022
-9.794
-9.526
-9.206
-8.825
-8.379
-7.869
-7.29
-6.637
-5.902
-5.077
-4.159
-3.147
-2.039
-0.834
0.468
1.869
3.367
4.965
6.662
8.461
10.363
12.369
14.48
16.694
19.009
21.419
23.921
26.509
29.177
31.917
34.722
37.585
40.496
43.449
46.433
49.44
52.46
55.483
58.497
61.493
64.459
67.383
70.254
73.06
75.79
78.431
80.971
83.401
85.707
87.88
89.907
91.779
93.486
95.018
96.366
97.521
98.476
99.225
99.76
100.076
100.17
100.037
99.675
99.083
98.259
97.204
95.919
94.405
92.668
90.71
88.537
86.156
83.575
80.801
77.845
74.717
71.429
67.993
64.422
60.731
56.932
53.042
49.076
45.049
40.978
36.879
32.767
28.66
24.573
20.522
16.523
12.592
8.743
4.99
1.347
-2.174
-5.559
-8.799
-11.883
-14.803
-17.549
-20.115
-22.495
-24.685
-26.681
-28.481
-30.083
-31.489
-32.698
-33.713
-34.539
-35.179
-35.639
-35.926
-36.045
-36.006
-35.817
-35.487
-35.026
-34.444
-33.751
-32.96
-32.081
-31.125
-30.105
-29.03
-27.914
-26.767
-25.599
-24.42
-23.242
-22.074
-20.923
-19.8
-18.711
-17.664
-16.665
-15.72
-14.833
-14.008
-13.249
-12.558
-11.937
-11.385
-10.904
-10.493
-10.15
-9.874
-9.663
-9.512
-9.419
-9.379
-9.386
-9.437
-9.525
-9.644
-9.789
-9.951
-10.126
-10.306
-10.484
-10.653
-10.808
-10.94
-11.044
-11.112
-11.138
-11.117
-11.043
-10.909
-10.712
-10.447
-10.11
-9.697
-9.204
-8.63
-7.972
-7.228
-6.396
-5.476
-4.467
-3.37
-2.185
-0.914
0.442
1.881
3.4
4.995
6.664
8.402
10.205
12.069
13.989
15.959
17.974
20.029
22.117
24.233
26.369
28.52
30.679
32.841
34.998
37.146
39.278
41.389
43.474
45.526
47.542
49.517
51.446
53.325
55.152
56.922
58.634
60.286
61.876
63.403
64.868
66.27
67.61
68.889
70.108
71.269
72.375
73.428
74.432
75.39
76.307
77.186
78.032
78.851
79.647
80.426
81.192
81.95
82.705
83.463
84.226
85
85.788
86.594
87.421
88.273
89.15
90.054
90.987
91.947
92.935
93.948
94.983
96.035
97.101
98.175
99.251
100.325
101.389
102.437
103.463
104.463
105.428
106.351
107.224
108.037
108.783
109.454
110.043
110.542
110.945
111.245
111.443
111.536
111.522
111.395
111.143
110.761
110.246
109.6
108.824
107.926
106.911
105.794
104.6
103.353
102.074
100.782
99.488
98.204
96.954
95.765
94.67
93.694
92.85
92.147
91.593
91.187
90.914
90.747
90.633
90.516
90.344
90.066
89.629
88.974
88.044
86.767
85.046
82.837
80.156
77.071
73.725
70.279
66.862
63.687
61.052
59.143
58.031
57.647
57.695
57.884
58.045
57.912
57.144
55.62
53.453
50.916
48.632
47.45
48.054
51.7
60.429
75.118
95.85
121.924
150.464
180.453
213.182
249.59
292.475
342.288
394.985
446.211
488.296
513.335
517.244
496.377
451.755
387.681
307.194
215.957
119.591
23.842
-61.545
-128.501
-173.116
-195.266
-201.288
-199.469
-194.298
-187.582
-178.37
-164.2
-145.401
-124.125
-102.449
-82.619
-65.819
-52.01
-40.952
-32.351
-25.651
-20.271
-15.975
-12.517
-9.485
-6.675
-3.851
-0.699
2.699
6.098
9.415
12.511
15.175
17.295
18.65
18.95
18.186
16.494
14.035
11.028
7.682
4.172
0.74
-2.326
-4.853
-6.766
-8.038
-8.703
-8.781
-8.28
-7.242
-5.748
-3.879
-1.712
0.672
3.219
5.855
8.485
11.028
13.414
15.587
17.525
19.211
20.632
21.782
22.667
23.297
23.695
23.883
23.878
23.702
23.381
22.944
22.431
21.873
21.296
20.719
20.156
19.621
19.126
18.679
18.282
17.938
17.651
17.426
17.27
17.191
17.192
17.278
17.454
17.727
18.105
18.597
19.209
19.948
20.817
21.822
22.969
24.258
25.688
27.258
28.968
30.822
32.821
34.957
37.22
39.594
42.058
44.596
47.19
49.812
52.441
55.062
57.663
60.247
62.817
65.365
67.876
70.328
72.696
74.974
77.161
79.253
81.259
83.183
85.029
86.824
88.584
90.3
91.955
93.504
94.897
96.112
97.14
97.973
98.605
99.01
99.149
98.995
98.509
97.645
96.363
94.594
92.282
89.419
86.012
82.091
77.705
72.862
67.553
61.795
55.604
49.018
42.1
34.9
27.487
19.956
12.399
4.922
-2.376
-9.444
-16.249
-22.759
-28.962
-34.81
-40.236
-45.209
-49.704
-53.706
-57.232
-60.298
-62.935
-65.218
-67.218
-68.999
-70.627
-72.132
-73.532
-74.859
-76.133
-77.392
-78.692
-80.066
-81.542
-83.149
-84.896
-86.781
-88.799
-90.907
-93.067
-95.258
-97.458
-99.666
-101.888
-104.119
-106.359
-108.612
-110.869
-113.125
-115.379
-117.624
-119.862
-122.101
-124.352
-126.641
-128.989
-131.41
-133.911
-136.495
-139.161
-141.905
-144.723
-147.604
-150.54
-153.524
-156.547
-159.606
-162.693
-165.797
-168.907
-172.01
-175.091
-178.139
-181.143
-184.091
-186.975
-189.788
-192.523
-195.176
-197.743
-200.22
-202.602
-204.884
-207.062
-209.134
-211.096
-212.947
-214.684
-216.307
-217.818
-219.217
-220.506
-221.689
-222.767
-223.745
-224.626
-225.414
-226.115
-226.732
-227.272
-227.739
-228.139
-228.478
-228.76
-228.992
-229.179
-229.325
-229.435
-229.515
-229.568
-229.598
-229.609
-229.604
-229.587
-229.561
-229.528
-229.491
-229.453
-229.415
-229.38
-229.348
-229.321
-229.3
-229.286
-229.277
-229.275
-229.28
-229.291
-229.308
-229.33
-229.356
-229.386
-229.418
-229.452
-229.486
-229.52
-229.553
-229.582
-229.609
-229.632
-229.649
-229.66
-229.664
-229.66
-229.645
-229.619
-229.58
-229.527
-229.456
-229.366
-229.255
-229.12
-228.959
-228.769
-228.547
-228.29
-227.994
-227.656
-227.273
-226.84
-226.355
-225.813
-225.211
-224.546
-223.813
-223.009
-222.131
-221.175
-220.139
-219.018
-217.81
-216.513
-215.124
-213.642
-212.066
-210.397
-208.635
-206.782
-204.842
-202.818
-200.715
-198.538
-196.294
-193.989
-191.629
-189.221
-186.772
-184.29
-181.782
-179.26
-176.732
-174.211
-171.705
-169.227
-166.785
-164.392
-162.056
-159.787
-157.589
-155.473
-153.447
-151.529
-149.732
-148.068
-146.544
-145.164
-143.93
-142.838
-141.879
-141.035
-140.283
-139.601
-138.966
-138.366
-137.784
-137.202
-136.594
-135.924
-135.16
-134.28
-133.271
-132.129
-130.857
-129.468
-128.001
-126.519
-125.088
-123.778
-122.657
-121.781
-121.219
-121.046
-121.323
-122.134
-123.577
-125.687
-128.452
-131.791
-135.518
-139.43
-143.323
-146.895
-149.799
-151.782
-152.668
-152.48
-151.514
-150.037
-148.281
-146.557
-145.109
-144.072
-143.503
-143.061
-141.896
-139.084
-133.569
-124.212
-110.101
-90.249
-63.719
-30.14
10.363
56.838
107.101
158.864
209.771
257.918
303.284
345.311
381.806
409.196
420.753
409.841
374.258
314.913
236.741
148.503
56.664
-33.028
-113.83
-182.556
-235.786
-269.752
-285.322
-282.716
-262.347
-229.343
-188.261
-145.719
-110.903
-87.311
-75.476
-72.818
-72.555
-71.389
-68.73
-65.312
-64.105
-65.855
-69.279
-72.875
-74.644
-73.766
-70.613
-65.626
-59.377
-52.416
-45.169
-38.165
-31.945
-26.75
-22.584
-19.344
-16.831
-14.833
-13.159
-11.575
-9.851
-7.87
-5.616
-3.127
-0.485
2.232
4.994
7.788
10.593
13.396
16.184
18.935
21.636
24.274
26.816
29.232
31.494
33.578
35.486
37.24
38.865
40.397
41.849
43.205
44.459
45.606
46.645
47.587
48.438
49.197
49.873
50.489
51.064
51.623
52.175
52.719
53.255
53.78
54.303
54.845
55.424
56.054
56.751
57.526
58.396
59.378
60.484
61.716
63.078
64.569
66.195
67.963
69.878
71.944
74.162
76.529
79.046
81.71
84.518
87.464
90.542
93.744
97.061
100.487
104.015
107.635
111.338
115.111
118.943
122.822
126.736
130.669
134.608
138.537
142.441
146.306
150.115
153.853
157.505
161.054
164.486
167.785
170.938
173.928
176.743
179.369
181.793
184.004
185.991
187.743
189.251
190.507
191.505
192.239
192.705
192.899
192.819
192.466
191.838
190.939
189.772
188.34
186.65
184.708
182.523
180.104
177.462
174.607
171.554
168.314
164.904
161.338
157.631
153.802
149.866
145.843
141.749
137.604
133.425
129.23
125.039
120.869
116.736
112.659
108.653
104.734
100.916
97.214
93.64
90.207
86.926
83.806
80.857
78.085
75.499
73.103
70.901
68.897
67.093
65.49
64.086
62.881
61.873
61.056
60.427
59.98
59.707
59.601
59.653
59.854
60.195
60.663
61.249
61.941
62.727
63.595
64.534
65.532
66.575
67.653
68.753
69.865
70.976
72.076
73.154
74.2
75.205
76.16
77.054
77.882
78.634
79.304
79.885
80.373
80.762
81.048
81.228
81.299
81.26
81.11
80.849
80.477
79.997
79.41
78.719
77.929
77.043
76.066
75.004
73.864
72.651
71.372
70.036
68.65
67.222
65.761
64.275
62.774
61.266
59.761
58.268
56.797
55.358
53.959
52.611
51.323
50.103
48.96
47.903
46.939
46.076
45.322
44.681
44.16
43.763
43.496
43.362
43.363
43.501
43.778
44.195
44.75
45.444
46.273
47.235
48.326
49.544
50.882
52.335
53.897
55.562
57.322
59.169
61.095
63.092
65.15
67.259
69.411
71.596
73.802
76.022
78.245
80.461
82.662
84.838
86.981
89.083
91.137
93.136
95.074
96.944
98.743
100.466
102.111
103.675
105.156
106.555
107.871
109.105
110.259
111.335
112.337
113.268
114.131
114.932
115.676
116.368
117.015
117.622
118.196
118.744
119.272
119.787
120.295
120.801
121.311
121.831
122.365
122.916
123.489
124.085
124.707
125.355
126.03
126.73
127.453
128.195
128.953
129.722
130.492
131.257
132.008
132.735
133.428
134.078
134.672
135.201
135.655
136.024
136.299
136.468
136.519
136.442
136.227
135.866
135.35
134.671
133.824
132.803
131.61
130.245
128.708
126.995
125.098
123.016
120.751
118.309
115.697
112.929
110.016
106.979
103.85
100.659
97.433
94.194
90.957
87.745
84.586
81.513
78.571
75.789
73.185
70.783
68.596
66.626
64.866
63.29
61.849
60.508
59.227
57.96
56.677
55.323
53.851
52.199
50.27
48.02
45.455
42.627
39.697
36.851
34.244
32.111
30.745
30.312
30.898
32.391
34.346
36.364
38.096
39.12
39.135
37.952
35.508
32.23
29.095
27.128
27.487
31.444
40.024
54.26
75.086
102.794
137.064
177.292
221.618
267.017
310.642
349.186
381.437
408.994
431.989
449.662
457.278
445.401
407.781
341.598
250.729
147.376
43.837
-48.069
-120.122
-171.279
-202.685
-217.814
-221.389
-215.583
-203.013
-186.914
-169.3
-153.168
-139.758
-127.348
-114.969
-101.576
-87.606
-75.939
-68.249
-65.234
-66.545
-70.469
-75.901
-82.059
-88.154
-93.675
-98.007
-100.758
-101.978
-101.837
-100.562
-98.503
-96.008
-93.486
-91.416
-90.012
-89.253
-89.041
-89.195
-89.555
-90.018
-90.434
-90.624
-90.51
-90.086
-89.391
-88.514
-87.513
-86.413
-85.255
-84.077
-82.915
-81.808
-80.781
-79.854
-79.04
-78.351
-77.793
-77.372
-77.089
-76.932
-76.889
-76.942
-77.077
-77.287
-77.561
-77.892
-78.267
-78.67
-79.086
-79.501
-79.899
-80.267
-80.589
-80.851
-81.041
-81.149
-81.166
-81.085
-80.897
-80.593
-80.164
-79.601
-78.896
-78.045
-77.039
-75.875
-74.547
-73.055
-71.397
-69.572
-67.582
-65.428
-63.112
-60.638
-58.01
-55.234
-52.315
-49.262
-46.082
-42.786
-39.384
-35.887
-32.308
-28.658
-24.953
-21.207
-17.434
-13.65
-9.87
-6.11
-2.386
1.286
4.889
8.408
11.827
15.129
18.301
21.325
24.189
26.878
29.379
31.679
33.767
35.631
37.261
38.65
39.787
40.667
41.283
41.63
41.706
41.508
41.035
40.288
39.268
37.978
36.424
34.61
32.544
30.233
27.686
24.914
21.929
18.741
15.365
11.813
8.101
4.243
0.256
-3.845
-8.042
-12.319
-16.659
-21.044
-25.457
-29.882
-34.3
-38.695
-43.052
-47.354
-51.587
-55.735
-59.786
-63.726
-67.544
-71.227
-74.768
-78.155
-81.382
-84.442
-87.329
-90.038
-92.565
-94.909
-97.067
-99.039
-100.826
-102.428
-103.848
-105.09
-106.156
-107.053
-107.784
-108.357
-108.778
-109.054
-109.193
-109.202
-109.091
-108.867
-108.54
-108.117
-107.608
-107.021
-106.364
-105.647
-104.877
-104.062
-103.21
-102.327
-101.421
-100.497
-99.563
-98.623
-97.682
-96.745
-95.817
-94.9
-93.999
-93.115
-92.253
-91.413
-90.598
-89.809
-89.046
-88.31
-87.601
-86.919
-86.264
-85.634
-85.03
-84.45
-83.893
-83.357
-82.84
-82.343
-81.862
-81.397
-80.945
-80.505
-80.076
-79.656
-79.243
-78.838
-78.437
-78.04
-77.647
-77.256
-76.865
-76.476
-76.086
-75.695
-75.302
-74.907
-74.51
-74.11
-73.708
-73.302
-72.894
-72.484
-72.071
-71.656
-71.24
-70.824
-70.408
-69.992
-69.579
-69.168
-68.76
-68.358
-67.961
-67.571
-67.188
-66.815
-66.451
-66.098
-65.757
-65.428
-65.113
-64.811
-64.525
-64.254
-64
-63.762
-63.542
-63.341
-63.158
-62.994
-62.848
-62.721
-62.612
-62.521
-62.447
-62.388
-62.344
-62.313
-62.292
-62.281
-62.277
-62.276
-62.276
-62.273
-62.264
-62.245
-62.212
-62.16
-62.086
-61.984
-61.85
-61.68
-61.469
-61.212
-60.906
-60.544
-60.123
-59.638
-59.085
-58.459
-57.756
-56.972
-56.105
-55.151
-54.108
-52.975
-51.749
-50.43
-49.017
-47.513
-45.916
-44.231
-42.458
-40.603
-38.67
-36.665
-34.594
-32.465
-30.287
-28.07
-25.824
-23.561
-21.291
-19.026
-16.778
-14.559
-12.379
-10.25
-8.183
-6.19
-4.283
-2.476
-0.78
0.794
2.234
3.531
4.674
5.657
6.476
7.128
7.61
7.917
8.038
7.966
7.701
7.244
6.6
5.778
4.79
3.655
2.402
1.061
-0.342
-1.78
-3.24
-4.705
-6.148
-7.542
-8.85
-10.041
-11.099
-12.012
-12.763
-13.355
-13.803
-14.14
-14.428
-14.726
-15.076
-15.528
-16.127
-16.917
-17.966
-19.324
-21.047
-23.208
-25.811
-28.826
-32.185
-35.707
-39.175
-42.369
-44.998
-46.771
-47.534
-47.19
-45.808
-43.732
-41.297
-38.864
-36.817
-35.347
-34.578
-34.612
-35.154
-35.498
-34.349
-29.742
-20.195
-5.125
14.587
36.93
61.281
88.618
121.672
163.539
213.84
269.175
324.124
372.722
411.454
437.956
449.87
444.066
416.253
363.951
286.855
189.431
81.867
-24.352
-116.068
-183.687
-225.917
-245.277
-248.316
-242.347
-230.095
-213.631
-195.742
-178.209
-163.504
-152.532
-142.442
-130.743
-116.589
-100.611
-85.649
-73.877
-65.504
-59.766
-55.441
-51.789
-48.498
-45.407
-42.335
-38.885
-34.976
-30.802
-26.438
-22.01
-17.731
-13.75
-10.373
-7.996
-6.702
-6.408
-6.999
-8.261
-10.016
-12.117
-14.306
-16.294
-17.891
-18.983
-19.533
-19.571
-19.098
-18.112
-16.641
-14.729
-12.444
-9.851
-7.001
-3.946
-0.736
2.561
5.859
9.081
12.17
15.082
17.797
20.303
22.583
24.635
26.465
28.083
29.509
30.763
31.856
32.806
33.633
34.365
35.036
35.673
36.297
36.924
37.563
38.222
38.91
39.633
40.388
41.176
41.998
42.856
43.758
44.708
45.708
46.759
47.864
49.022
50.237
51.513
52.85
54.251
55.719
57.255
58.863
60.544
62.299
64.124
66.019
67.98
70.002
72.082
74.213
76.39
78.605
80.853
83.126
85.417
87.718
90.02
92.314
94.59
96.839
99.051
101.214
103.318
105.351
107.303
109.162
110.917
112.557
114.071
115.447
116.677
117.749
118.655
119.387
119.936
120.295
120.459
120.422
120.18
119.73
119.07
118.198
117.116
115.824
114.324
112.619
110.713
108.611
106.32
103.846
101.199
98.387
95.421
92.311
89.071
85.713
82.252
78.701
75.075
71.391
67.663
63.909
60.145
56.387
52.652
48.956
45.315
41.744
38.258
34.873
31.601
28.456
25.451
22.595
19.901
17.377
15.032
12.872
10.905
9.135
7.567
6.203
5.045
4.093
3.347
2.805
2.463
2.318
2.364
2.595
3.004
3.581
4.32
5.208
6.237
7.394
8.669
10.048
11.52
13.072
14.691
16.364
18.079
19.823
21.583
23.347
25.104
26.842
28.551
30.22
31.839
33.4
34.894
36.313
37.652
38.904
40.064
41.127
42.091
42.952
43.711
44.364
44.914
45.361
45.707
45.954
46.107
46.169
46.145
46.041
45.863
45.618
45.312
44.953
44.548
44.106
43.635
43.142
42.635
42.123
41.613
41.113
40.63
40.171
39.742
39.351
39.001
38.7
38.451
38.258
38.126
38.056
38.052
38.114
38.243
38.441
38.706
39.038
39.433
39.891
40.408
40.98
41.603
42.271
42.981
43.725
44.498
45.293
46.104
46.924
47.745
48.562
49.367
50.154
50.915
51.646
52.338
52.988
53.589
54.136
54.626
55.054
55.418
55.713
55.938
56.091
56.17
56.176
56.109
55.969
55.759
55.48
55.135
54.729
54.266
53.751
53.188
52.586
51.948
51.284
50.598
49.9
49.196
48.494
47.801
47.126
46.476
45.858
45.279
44.745
44.263
43.838
43.475
43.18
42.957
42.808
42.737
42.746
42.837
43.01
43.264
43.599
44.012
44.5
45.057
45.679
46.357
47.085
47.854
48.655
49.479
50.314
51.152
51.982
52.794
53.578
54.323
55.017
55.65
56.211
56.689
57.073
57.354
57.524
57.575
57.504
57.306
56.979
56.517
55.913
55.161
54.259
53.207
52.009
50.67
49.202
47.622
45.957
44.232
42.471
40.695
38.92
37.162
35.44
33.777
32.203
30.741
29.409
28.223
27.197
26.332
25.614
25.01
24.462
23.916
23.329
22.664
21.885
20.951
19.813
18.419
16.733
14.713
12.298
9.465
6.221
2.647
-1.047
-4.599
-7.747
-10.2
-11.66
-11.929
-10.899
-8.652
-5.58
-2.179
1.075
3.684
5.219
5.462
4.399
2.378
0.319
-0.562
1.021
6.434
17.034
33.948
57.992
89.591
127.903
170.889
216.387
261.774
305.319
346.783
384.945
417.721
441.326
450.145
439.419
406.054
349.909
272.881
179.427
77.64
-23.264
-111.465
-176.83
-216.721
-233.233
-234.203
-229.454
-223.199
-216.369
-207.587
-193.945
-175.74
-155.23
-134.458
-115.781
-100.543
-88.889
-80.776
-75.835
-73.374
-72.783
-73.703
-75.614
-77.805
-79.629
-80.421
-79.844
-78.032
-75.2
-71.528
-67.307
-62.863
-58.562
-54.853
-51.913
-49.666
-47.982
-46.665
-45.557
-44.549
-43.475
-42.141
-40.454
-38.394
-35.985
-33.287
-30.313
-27.068
-23.597
-19.97
-16.284
-12.624
-9.048
-5.61
-2.359
0.668
3.438
5.933
8.16
10.118
11.81
13.233
14.369
15.206
15.75
16.01
16.011
15.781
15.337
14.705
13.913
12.982
11.932
10.779
9.527
8.184
6.762
5.274
3.739
2.174
0.596
-0.982
-2.543
-4.075
-5.563
-6.993
-8.356
-9.641
-10.836
-11.928
-12.905
-13.754
-14.464
-15.026
-15.43
-15.67
-15.738
-15.63
-15.344
-14.878
-14.231
-13.403
-12.395
-11.21
-9.852
-8.326
-6.638
-4.795
-2.806
-0.68
1.572
3.938
6.405
8.96
11.589
14.275
17.003
19.756
22.518
25.27
27.995
30.675
33.292
35.825
38.258
40.571
42.745
44.763
46.606
48.257
49.701
50.92
51.901
52.63
53.093
53.279
53.176
52.777
52.072
51.055
49.72
48.065
46.086
43.783
41.159
38.214
34.955
31.385
27.515
23.351
18.906
14.19
9.218
4.004
-1.436
-7.084
-12.923
-18.932
-25.093
-31.383
-37.782
-44.267
-50.817
-57.409
-64.02
-70.627
-77.209
-83.744
-90.21
-96.585
-102.85
-108.986
-114.972
-120.792
-126.429
-131.869
-137.096
-142.099
-146.866
-151.387
-155.655
-159.661
-163.401
-166.87
-170.067
-172.99
-175.638
-178.015
-180.123
-181.966
-183.549
-184.88
-185.965
-186.814
-187.435
-187.84
-188.039
-188.043
-187.864
-187.516
-187.01
-186.36
-185.579
-184.681
-183.677
-182.582
-181.408
-180.166
-178.87
-177.529
-176.155
-174.758
-173.346
-171.929
-170.515
-169.109
-167.72
-166.352
-165.011
-163.7
-162.423
-161.182
-159.98
-158.817
-157.695
-156.614
-155.572
-154.57
-153.605
-152.676
-151.78
-150.915
-150.077
-149.264
-148.472
-147.696
-146.934
-146.181
-145.435
-144.69
-143.945
-143.195
-142.439
-141.673
-140.896
-140.107
-139.303
-138.484
-137.65
-136.801
-135.937
-135.059
-134.168
-133.266
-132.355
-131.438
-130.516
-129.594
-128.674
-127.759
-126.854
-125.963
-125.089
-124.237
-123.412
-122.618
-121.86
-121.143
-120.471
-119.849
-119.282
-118.773
-118.327
-117.947
-117.636
-117.396
-117.229
-117.138
-117.123
-117.183
-117.32
-117.532
-117.817
-118.174
-118.599
-119.09
-119.642
-120.251
-120.911
-121.618
-122.364
-123.142
-123.946
-124.768
-125.6
-126.433
-127.259
-128.068
-128.851
-129.598
-130.3
-130.946
-131.527
-132.032
-132.454
-132.781
-133.007
-133.122
-133.119
-132.992
-132.733
-132.338
-131.802
-131.121
-130.293
-129.315
-128.187
-126.909
-125.482
-123.91
-122.195
-120.344
-118.362
-116.259
-114.042
-111.723
-109.31
-106.817
-104.256
-101.639
-98.977
-96.285
-93.576
-90.863
-88.162
-85.49
-82.86
-80.289
-77.79
-75.378
-73.066
-70.867
-68.789
-66.839
-65.028
-63.364
-61.864
-60.541
-59.4
-58.445
-57.679
-57.094
-56.687
-56.444
-56.34
-56.351
-56.453
-56.624
-56.853
-57.126
-57.418
-57.701
-57.938
-58.095
-58.156
-58.111
-57.946
-57.665
-57.285
-56.839
-56.392
-56.004
-55.722
-55.598
-55.678
-56.011
-56.661
-57.681
-59.136
-61.111
-63.616
-66.617
-70.031
-73.648
-77.257
-80.654
-83.521
-85.532
-86.497
-86.28
-84.962
-82.936
-80.494
-77.917
-75.615
-73.845
-72.714
-72.365
-72.516
-72.221
-70.673
-66.529
-57.681
-43.214
-22.68
3.867
34.108
67.17
104.328
146.227
195.155
251.293
309.859
366.137
413.649
445.561
459.015
450.53
417.825
361.935
283.815
188.839
86.027
-15.236
-103.908
-172.507
-218.134
-241.157
-245.4
-235.066
-214.721
-188.941
-162.755
-140.748
-124.262
-112.344
-101.31
-87.457
-70.5
-52.147
-35.449
-22.869
-14.59
-9.519
-6.368
-4.295
-2.775
-1.522
-0.238
1.574
4.044
7.015
10.447
14.221
18.104
21.938
25.43
28.224
30.293
31.758
32.749
33.445
33.964
34.388
34.884
35.667
36.862
38.518
40.615
43.09
45.904
49.025
52.394
55.917
59.473
62.963
66.319
69.505
72.507
75.304
77.871
80.191
82.25
84.047
85.594
86.896
87.953
88.776
89.383
89.807
90.098
90.298
90.438
90.545
90.64
90.742
90.873
91.05
91.283
91.583
91.962
92.434
93.017
93.728
94.577
95.575
96.727
98.04
99.523
101.181
103.021
105.047
107.263
109.672
112.281
115.092
118.105
121.319
124.728
128.328
132.113
136.075
140.204
144.489
148.918
153.48
158.16
162.946
167.821
172.771
177.777
182.824
187.894
192.969
198.029
203.056
208.031
212.935
217.748
222.453
227.029
231.46
235.726
239.813
243.702
247.378
250.826
254.031
256.98
259.661
262.061
264.17
265.979
267.479
268.664
269.528
270.065
270.273
270.149
269.69
268.897
267.771
266.312
264.526
262.414
259.984
257.24
254.192
250.846
247.214
243.304
239.129
234.7
230.03
225.132
220.019
214.706
209.208
203.54
197.716
191.752
185.665
179.468
173.179
166.813
160.385
153.91
147.404
140.88
134.353
127.837
121.346
114.892
108.487
102.144
95.874
89.687
83.593
77.6
71.718
65.952
60.31
54.797
49.418
44.177
39.077
34.12
29.309
24.644
20.126
15.754
11.528
7.447
3.507
-0.294
-3.958
-7.49
-10.894
-14.172
-17.332
-20.376
-23.31
-26.141
-28.872
-31.511
-34.063
-36.535
-38.932
-41.26
-43.525
-45.734
-47.89
-50.001
-52.069
-54.101
-56.101
-58.072
-60.018
-61.943
-63.85
-65.741
-67.62
-69.486
-71.344
-73.192
-75.034
-76.868
-78.696
-80.516
-82.33
-84.137
-85.935
-87.724
-89.502
-91.269
-93.022
-94.759
-96.478
-98.177
-99.853
-101.505
-103.129
-104.724
-106.287
-107.816
-109.31
-110.765
-112.182
-113.558
-114.892
-116.183
-117.43
-118.634
-119.793
-120.908
-121.979
-123.007
-123.991
-124.934
-125.837
-126.699
-127.524
-128.312
-129.065
-129.785
-130.474
-131.134
-131.766
-132.374
-132.959
-133.524
-134.071
-134.602
-135.118
-135.622
-136.115
-136.599
-137.074
-137.541
-138
-138.452
-138.897
-139.332
-139.758
-140.173
-140.575
-140.961
-141.33
-141.677
-142.001
-142.296
-142.56
-142.788
-142.975
-143.118
-143.21
-143.248
-143.225
-143.137
-142.977
-142.742
-142.425
-142.021
-141.525
-140.932
-140.237
-139.437
-138.525
-137.499
-136.356
-135.092
-133.705
-132.193
-130.557
-128.794
-126.904
-124.89
-122.753
-120.495
-118.119
-115.629
-113.028
-110.324
-107.52
-104.625
-101.646
-98.591
-95.471
-92.295
-89.075
-85.822
-82.548
-79.265
-75.986
-72.722
-69.484
-66.283
-63.13
-60.035
-57.011
-54.068
-51.218
-48.471
-45.836
-43.32
-40.934
-38.683
-36.569
-34.593
-32.759
-31.069
-29.532
-28.155
-26.938
-25.88
-24.978
-24.223
-23.604
-23.105
-22.697
-22.35
-22.039
-21.738
-21.43
-21.101
-20.722
-20.267
-19.699
-18.987
-18.115
-17.072
-15.844
-14.435
-12.863
-11.166
-9.416
-7.675
-5.999
-4.445
-3.066
-1.923
-1.098
-0.65
-0.64
-1.144
-2.184
-3.747
-5.784
-8.113
-10.484
-12.664
-14.363
-15.277
-15.223
-14.06
-11.787
-8.743
-5.371
-2.053
0.857
3.055
4.313
4.465
3.646
3.154
5.116
11.264
22.638
38.306
56.062
75.579
98.629
129.136
171.557
226.558
290.998
358.895
423.081
478.377
520.13
544.202
547.549
526.811
482.217
416.765
333.494
238.427
137.583
37.371
-52.179
-123.162
-171.669
-197.464
-206.465
-206.019
-199.986
-190.022
-175.416
-154.491
-128.45
-100.026
-71.832
-46.736
-26.323
-10.972
-0.812
4.635
6.348
5.32
2.401
-1.404
-5.131
-7.926
-8.957
-7.896
-4.961
-0.553
4.892
10.845
16.806
22.249
26.572
29.481
30.994
31.232
30.426
28.791
26.466
23.637
20.553
17.358
14.129
10.93
7.753
4.624
1.621
-1.221
-3.894
-6.389
-8.728
-10.929
-12.995
-14.935
-16.754
-18.447
-20.022
-21.48
-22.818
-24.051
-25.193
-26.272
-27.333
-28.408
-29.509
-30.641
-31.786
-32.923
-34.034
-35.094
-36.074
-36.952
-37.705
-38.316
-38.774
-39.062
-39.159
-39.041
-38.672
-38.026
-37.084
-35.832
-34.261
-32.367
-30.147
-27.604
-24.75
-21.592
-18.139
-14.398
-10.376
-6.081
-1.524
3.279
8.311
13.557
18.997
24.614
30.388
36.298
42.324
48.448
54.65
60.911
67.211
73.528
79.841
86.128
92.368
98.54
104.622
110.595
116.437
122.131
127.659
133.004
138.149
143.079
147.78
152.238
156.44
160.375
164.033
167.403
170.476
173.244
175.702
177.844
179.665
181.161
182.331
183.174
183.688
183.875
183.735
183.271
182.487
181.387
179.975
178.258
176.241
173.934
171.344
168.48
165.351
161.969
158.344
154.487
150.41
146.125
141.647
136.987
132.161
127.181
122.064
116.824
111.476
106.035
100.518
94.939
89.314
83.659
77.988
72.318
66.663
61.038
55.457
49.934
44.483
39.117
33.848
28.688
23.648
18.738
13.969
9.349
4.886
0.588
-3.54
-7.49
-11.258
-14.841
-18.236
-21.439
-24.451
-27.27
-29.896
-32.332
-34.579
-36.639
-38.516
-40.214
-41.737
-43.09
-44.278
-45.308
-46.186
-46.917
-47.508
-47.967
-48.299
-48.512
-48.611
-48.604
-48.496
-48.294
-48.002
-47.627
-47.173
-46.645
-46.046
-45.381
-44.652
-43.861
-43.012
-42.106
-41.144
-40.127
-39.055
-37.928
-36.745
-35.507
-34.21
-32.855
-31.438
-29.959
-28.416
-26.806
-25.127
-23.377
-21.554
-19.656
-17.682
-15.631
-13.502
-11.293
-9.006
-6.641
-4.198
-1.68
0.911
3.573
6.301
9.091
11.939
14.84
17.786
20.771
23.788
26.828
29.884
32.945
36.004
39.049
42.071
45.059
48.001
50.888
53.707
56.448
59.099
61.649
64.086
66.401
68.582
70.62
72.504
74.226
75.778
77.151
78.338
79.334
80.134
80.732
81.127
81.315
81.296
81.07
80.638
80.002
79.165
78.132
76.908
75.5
73.915
72.163
70.252
68.194
66
63.682
61.255
58.731
56.127
53.456
50.736
47.981
45.208
42.434
39.676
36.949
34.272
31.659
29.127
26.691
24.367
22.169
20.11
18.201
16.456
14.884
13.495
12.297
11.297
10.501
9.913
9.535
9.37
9.418
9.675
10.139
10.806
11.668
12.716
13.939
15.328
16.868
18.546
20.347
22.255
24.254
26.328
28.46
30.633
32.828
35.027
37.211
39.36
41.456
43.481
45.417
47.248
48.958
50.537
51.974
53.257
54.374
55.311
56.056
56.6
56.939
57.072
57
56.733
56.284
55.68
54.943
54.098
53.165
52.158
51.097
50.002
48.901
47.825
46.802
45.853
44.994
44.241
43.597
43.043
42.547
42.047
41.489
40.831
40.031
39.046
37.829
36.323
34.472
32.239
29.578
26.43
22.792
18.695
14.256
9.708
5.317
1.34
-1.933
-4.213
-5.329
-5.195
-3.907
-1.852
0.56
2.932
4.86
6.08
6.477
6.02
5.029
4.317
5.306
9.924
19.817
35.9
57.283
82.087
109.308
138.932
173.587
216.295
267.755
326.472
386.7
441.224
482.705
504.135
502.283
475.497
425.507
356.86
272.62
178.027
78.766
-19.075
-105.325
-171.857
-215.117
-235.542
-239.803
-235.852
-227.784
-217.165
-203.063
-183.538
-159.503
-133.39
-107.617
-84.872
-66.501
-52.667
-43.303
-37.845
-35.42
-35.224
-36.55
-38.512
-40.297
-41.228
-40.67
-38.436
-34.765
-29.994
-24.484
-18.671
-12.937
-7.659
-3.268
0.095
2.557
4.298
5.575
6.613
7.546
8.54
9.8
11.434
13.482
15.962
18.815
21.999
25.499
29.259
33.214
37.283
41.359
45.349
49.189
52.825
56.226
59.37
62.234
64.802
67.071
69.031
70.681
72.024
73.052
73.772
74.2
74.363
74.304
74.067
73.685
73.188
72.603
71.949
71.248
70.518
69.77
69.018
68.278
67.567
66.907
66.318
65.816
65.416
65.129
64.966
64.938
65.057
65.33
65.767
66.375
67.163
68.139
69.309
70.676
72.243
74.008
75.968
78.117
80.451
82.959
85.632
88.458
91.424
94.516
97.72
101.019
104.394
107.827
111.297
114.784
118.267
121.722
125.126
128.456
131.689
134.8
137.766
140.563
143.168
145.56
147.716
149.615
151.237
152.563
153.575
154.257
154.593
154.57
154.175
153.4
152.234
150.673
148.711
146.346
143.576
140.403
136.83
132.86
128.501
123.76
118.649
113.18
107.366
101.222
94.767
88.019
80.998
73.726
66.225
58.518
50.631
42.587
34.414
26.136
17.781
9.374
0.942
-7.489
-15.893
-24.246
-32.521
-40.696
-48.749
-56.656
-64.397
-71.953
-79.306
-86.438
-93.335
-99.981
-106.365
-112.476
-118.304
-123.843
-129.086
-134.028
-138.669
-143.006
-147.04
-150.774
-154.211
-157.357
-160.216
-162.798
-165.109
-167.161
-168.962
-170.525
-171.86
-172.98
-173.898
-174.626
-175.177
-175.565
-175.802
-175.902
-175.877
-175.739
-175.501
-175.174
-174.77
-174.299
-173.771
-173.196
-172.583
-171.939
-171.271
-170.587
-169.89
-169.187
-168.48
-167.774
-167.07
-166.37
-165.676
-164.987
-164.304
-163.627
-162.953
-162.282
-161.613
-160.943
-160.271
-159.594
-158.911
-158.22
-157.518
-156.805
-156.079
-155.339
-154.584
-153.812
-153.025
-152.221
-151.401
-150.565
-149.716
-148.855
-147.984
-147.105
-146.221
-145.337
-144.455
-143.579
-142.715
-141.867
-141.04
-140.239
-139.47
-138.738
-138.049
-137.408
-136.821
-136.292
-135.827
-135.43
-135.105
-134.856
-134.686
-134.598
-134.594
-134.677
-134.846
-135.102
-135.446
-135.876
-136.39
-136.986
-137.662
-138.413
-139.234
-140.122
-141.069
-142.069
-143.116
-144.2
-145.313
-146.446
-147.59
-148.734
-149.867
-150.979
-152.058
-153.093
-154.073
-154.985
-155.819
-156.563
-157.207
-157.738
-158.146
-158.422
-158.554
-158.534
-158.354
-158.005
-157.48
-156.774
-155.88
-154.793
-153.511
-152.029
-150.346
-148.461
-146.374
-144.086
-141.599
-138.918
-136.045
-132.987
-129.751
-126.345
-122.777
-119.058
-115.198
-111.208
-107.102
-102.893
-98.594
-94.221
-89.789
-85.315
-80.817
-76.313
-71.82
-67.357
-62.943
-58.593
-54.328
-50.161
-46.109
-42.186
-38.404
-34.78
-31.326
-28.057
-24.983
-22.114
-19.461
-17.03
-14.829
-12.86
-11.123
-9.615
-8.336
-7.287
-6.474
-5.898
-5.553
-5.435
-5.53
-5.826
-6.307
-6.947
-7.712
-8.568
-9.482
-10.429
-11.393
-12.348
-13.267
-14.116
-14.853
-15.45
-15.89
-16.152
-16.225
-16.113
-15.828
-15.405
-14.904
-14.374
-13.866
-13.433
-13.116
-12.972
-13.056
-13.424
-14.167
-15.322
-16.881
-18.789
-20.899
-23.018
-24.97
-26.51
-27.326
-27.222
-26.075
-23.932
-21.146
-18.066
-15.032
-12.438
-10.578
-9.65
-9.736
-10.496
-11.101
-10.622
-7.917
-1.809
8.599
24.35
46.377
74.99
110.147
150.893
194.809
239.455
282.534
322.356
359.506
394.108
423.884
444.707
449.469
431.274
388.138
321.747
237.058
142.196
44.396
-48.728
-128.184
-188.039
-225.397
-241.282
-240.99
-229.108
-208.789
-182.575
-153.147
-125.258
-103.132
-88.46
-79.656
-72.184
-63.09
-51.837
-39.863
-30.205
-24.013
-20.891
-19.848
-19.019
-17.306
-14.318
-9.85
-4.194
2.26
9.316
16.679
23.949
30.744
36.572
41.124
44.388
46.456
47.5
47.736
47.321
46.432
45.323
44.18
43.131
42.314
41.77
41.513
41.583
41.976
42.676
43.686
44.98
46.516
48.263
50.175
52.217
54.376
56.616
58.892
61.149
63.308
65.316
67.149
68.781
70.199
71.396
72.363
73.112
73.674
74.074
74.336
74.479
74.512
74.454
74.334
74.179
74.027
73.905
73.832
73.828
73.91
74.091
74.384
74.795
75.321
75.962
76.723
77.607
78.621
79.766
81.044
82.453
83.994
85.665
87.464
89.389
91.436
93.6
95.878
98.265
100.756
103.345
106.025
108.787
111.62
114.512
117.454
120.432
123.432
126.442
129.447
132.434
135.389
138.298
141.147
143.923
146.61
149.197
151.668
154.011
156.212
158.259
160.139
161.841
163.352
164.662
165.762
166.641
167.291
167.706
167.878
167.802
167.473
166.888
166.045
164.942
163.58
161.958
160.08
157.948
155.567
152.942
150.08
146.987
143.672
140.142
136.408
132.479
128.365
124.079
119.632
115.036
110.305
105.451
100.488
95.43
90.29
85.083
79.822
74.522
69.194
63.853
58.511
53.181
47.873
42.6
37.372
32.199
27.09
22.054
17.097
12.227
7.45
2.77
-1.808
-6.28
-10.645
-14.899
-19.041
-23.071
-26.988
-30.794
-34.489
-38.075
-41.555
-44.931
-48.208
-51.388
-54.476
-57.477
-60.394
-63.232
-65.998
-68.694
-71.326
-73.899
-76.418
-78.888
-81.312
-83.695
-86.04
-88.352
-90.634
-92.888
-95.116
-97.321
-99.505
-101.669
-103.815
-105.942
-108.052
-110.144
-112.219
-114.277
-116.315
-118.334
-120.332
-122.308
-124.259
-126.184
-128.081
-129.947
-131.78
-133.577
-135.337
-137.057
-138.733
-140.365
-141.948
-143.481
-144.961
-146.387
-147.756
-149.067
-150.319
-151.51
-152.639
-153.707
-154.711
-155.653
-156.532
-157.348
-158.103
-158.797
-159.431
-160.007
-160.527
-160.992
-161.406
-161.771
-162.09
-162.366
-162.603
-162.804
-162.975
-163.118
-163.24
-163.344
-163.435
-163.519
-163.602
-163.688
-163.782
-163.89
-164.018
-164.169
-164.35
-164.565
-164.819
-165.116
-165.46
-165.855
-166.305
-166.812
-167.378
-168.007
-168.699
-169.455
-170.277
-171.162
-172.111
-173.122
-174.193
-175.321
-176.502
-177.732
-179.005
-180.316
-181.657
-183.02
-184.399
-185.782
-187.162
-188.527
-189.868
-191.175
-192.435
-193.638
-194.771
-195.824
-196.785
-197.642
-198.383
-198.998
-199.476
-199.806
-199.979
-199.986
-199.818
-199.467
-198.927
-198.192
-197.256
-196.115
-194.768
-193.211
-191.447
-189.474
-187.298
-184.922
-182.352
-179.597
-176.667
-173.571
-170.323
-166.936
-163.423
-159.799
-156.08
-152.282
-148.421
-144.512
-140.575
-136.626
-132.686
-128.772
-124.903
-121.096
-117.369
-113.739
-110.222
-106.829
-103.571
-100.461
-97.512
-94.74
-92.159
-89.774
-87.592
-85.615
-83.84
-82.261
-80.863
-79.624
-78.518
-77.523
-76.62
-75.796
-75.037
-74.319
-73.617
-72.901
-72.142
-71.328
-70.45
-69.493
-68.456
-67.356
-66.228
-65.134
-64.137
-63.272
-62.574
-62.073
-61.802
-61.813
-62.158
-62.871
-63.985
-65.534
-67.519
-69.922
-72.665
-75.546
-78.302
-80.654
-82.309
-82.987
-82.497
-80.718
-77.658
-73.591
-68.931
-64.127
-59.609
-55.768
-52.927
-51.196
-50.389
-49.961
-48.459
-44.33
-36.856
-24.8
-8.057
13.034
40.715
75.378
116.455
163.82
213.055
261.044
307.633
350.639
388.346
416.975
428.094
414.858
375.017
309.848
225.077
129.468
30.387
-64.586
-146.273
-209.064
-251.187
-273.659
-282.295
-281.576
-270.756
-249.574
-218.302
-180.231
-144.802
-119.02
-105.251
-101.726
-101.526
-99.734
-95.257
-89.438
-85.689
-85.439
-87.841
-91.059
-92.829
-92.257
-89.544
-85.062
-79.346
-72.801
-65.717
-58.662
-52.254
-46.778
-42.321
-38.825
-36.096
-33.967
-32.28
-30.779
-29.207
-27.435
-25.416
-23.168
-20.769
-18.264
-15.686
-13.093
-10.538
-8.063
-5.699
-3.467
-1.383
0.522
2.21
3.645
4.8
5.665
6.236
6.518
6.522
6.262
5.756
5.03
4.104
2.999
1.738
0.342
-1.163
-2.749
-4.385
-6.042
-7.691
-9.304
-10.856
-12.323
-13.682
-14.912
-15.992
-16.906
-17.632
-18.154
-18.453
-18.513
-18.319
-17.858
-17.118
-16.089
-14.765
-13.139
-11.208
-8.971
-6.426
-3.577
-0.427
3.019
6.752
10.765
15.045
19.58
24.356
29.357
34.565
39.963
45.53
51.245
57.088
63.035
69.065
75.154
81.278
87.415
93.54
99.629
105.661
111.613
117.461
123.186
128.765
134.18
139.412
144.443
149.256
153.837
158.171
162.246
166.051
169.576
172.813
175.755
178.397
180.734
182.766
184.491
185.911
187.027
187.844
188.367
188.603
188.558
188.244
187.669
186.845
185.784
184.498
183.003
181.312
179.439
177.401
175.213
172.891
170.45
167.908
165.28
162.582
159.83
157.039
154.226
151.403
148.587
145.79
143.026
140.306
137.644
135.049
132.532
130.101
127.766
125.533
123.409
121.4
119.51
117.742
116.099
114.583
113.194
111.933
110.798
109.789
108.903
108.137
107.487
106.95
106.521
106.196
105.969
105.836
105.789
105.823
105.933
106.111
106.353
106.651
106.999
107.391
107.822
108.284
108.772
109.28
109.804
110.337
110.875
111.414
111.949
112.478
112.995
113.5
113.988
114.459
114.91
115.34
115.748
116.134
116.496
116.836
117.152
117.445
117.717
117.966
118.194
118.402
118.59
118.759
118.91
119.044
119.161
119.263
119.351
119.425
119.487
119.536
119.575
119.603
119.621
119.629
119.628
119.617
119.596
119.566
119.525
119.474
119.41
119.332
119.24
119.132
119.006
118.861
118.693
118.503
118.286
118.043
117.77
117.466
117.129
116.758
116.35
115.904
115.419
114.894
114.327
113.717
113.064
112.366
111.623
110.834
109.999
109.118
108.192
107.22
106.203
105.142
104.038
102.892
101.706
100.482
99.222
97.93
96.608
95.259
93.888
92.499
91.094
89.68
88.26
86.84
85.423
84.014
82.62
81.244
79.893
78.57
77.282
76.034
74.831
73.679
72.583
71.548
70.579
69.682
68.86
68.118
67.462
66.896
66.422
66.046
65.77
65.597
65.529
65.568
65.714
65.969
66.332
66.803
67.379
68.059
68.839
69.717
70.688
71.748
72.891
74.109
75.397
76.747
78.15
79.596
81.073
82.571
84.076
85.575
87.054
88.5
89.9
91.242
92.515
93.708
94.81
95.81
96.698
97.464
98.095
98.582
98.917
99.093
99.111
98.973
98.679
98.229
97.619
96.839
95.883
94.751
93.436
91.933
90.243
88.371
86.339
84.178
81.91
79.55
77.1
74.556
71.938
69.278
66.615
64.002
61.457
59.001
56.688
54.538
52.527
50.604
48.605
46.359
43.826
40.976
37.791
34.402
30.89
27.343
24.069
21.299
19.065
17.436
16.313
15.329
14.318
13.157
11.439
8.936
5.544
0.983
-4.771
-11.416
-18.929
-27.309
-36.145
-45.137
-54.026
-62.012
-68.27
-72.232
-72.291
-66.87
-55.721
-37.912
-13.859
15.163
50.253
91.006
137.044
188.257
241.102
292.871
340.643
380.613
409.962
424.374
419.951
393.543
344.417
275.116
188.806
91.878
-8.43
-104.669
-186.93
-249.068
-289.691
-310.659
-318.183
-317.028
-307.812
-290.602
-265.928
-236.984
-209.982
-189.565
-176.639
-168.652
-161.908
-154.362
-146.46
-140.56
-138.221
-139.432
-143.123
-147.28
-150.486
-152.115
-151.913
-150.1
-146.953
-142.717
-137.79
-132.629
-127.696
-123.444
-120.069
-117.54
-115.743
-114.472
-113.511
-112.684
-111.788
-110.611
-109.056
-107.093
-104.733
-102.025
-98.986
-95.627
-91.999
-88.174
-84.241
-80.277
-76.339
-72.479
-68.757
-65.221
-61.91
-58.848
-56.033
-53.467
-51.155
-49.104
-47.329
-45.836
-44.618
-43.662
-42.945
-42.44
-42.127
-41.978
-41.962
-42.054
-42.231
-42.474
-42.776
-43.124
-43.503
-43.895
-44.281
-44.64
-44.956
-45.212
-45.389
-45.471
-45.443
-45.29
-44.998
-44.557
-43.954
-43.175
-42.209
-41.044
-39.67
-38.081
-36.27
-34.234
-31.97
-29.479
-26.763
-23.826
-20.675
-17.317
-13.76
-10.016
-6.096
-2.014
2.214
6.572
11.042
15.606
20.243
24.931
29.65
34.377
39.088
43.759
48.368
52.889
57.3
61.575
65.693
69.63
73.363
76.872
80.136
83.135
85.851
88.268
90.37
92.143
93.575
94.657
95.381
95.739
95.727
95.344
94.587
93.459
91.963
90.104
87.888
85.324
82.423
79.198
75.661
71.829
67.717
63.345
58.731
53.895
48.86
43.647
38.279
32.78
27.174
21.483
15.734
9.948
4.151
-1.634
-7.386
-13.08
-18.698
-24.217
-29.62
-34.888
-40.004
-44.953
-49.721
-54.296
-58.666
-62.823
-66.759
-70.468
-73.944
-77.185
-80.19
-82.958
-85.491
-87.792
-89.866
-91.718
-93.356
-94.787
-96.021
-97.069
-97.941
-98.65
-99.208
-99.628
-99.925
-100.112
-100.203
-100.213
-100.156
-100.046
-99.898
-99.725
-99.539
-99.355
-99.183
-99.035
-98.922
-98.853
-98.837
-98.881
-98.994
-99.181
-99.446
-99.793
-100.227
-100.747
-101.355
-102.051
-102.834
-103.7
-104.648
-105.673
-106.769
-107.932
-109.155
-110.432
-111.754
-113.113
-114.501
-115.908
-117.326
-118.746
-120.156
-121.549
-122.913
-124.241
-125.522
-126.748
-127.91
-129
-130.011
-130.936
-131.767
-132.501
-133.131
-133.653
-134.064
-134.362
-134.544
-134.611
-134.561
-134.396
-134.117
-133.728
-133.231
-132.631
-131.932
-131.141
-130.263
-129.305
-128.276
-127.183
-126.035
-124.84
-123.609
-122.351
-121.075
-119.793
-118.512
-117.244
-115.998
-114.783
-113.608
-112.482
-111.413
-110.409
-109.477
-108.622
-107.851
-107.169
-106.578
-106.083
-105.684
-105.383
-105.181
-105.076
-105.067
-105.15
-105.324
-105.583
-105.921
-106.333
-106.812
-107.349
-107.937
-108.564
-109.222
-109.9
-110.586
-111.27
-111.941
-112.585
-113.193
-113.751
-114.248
-114.674
-115.015
-115.262
-115.404
-115.432
-115.335
-115.108
-114.741
-114.228
-113.565
-112.746
-111.769
-110.631
-109.33
-107.866
-106.241
-104.455
-102.513
-100.419
-98.178
-95.798
-93.289
-90.66
-87.923
-85.089
-82.171
-79.183
-76.139
-73.051
-69.934
-66.8
-63.663
-60.537
-57.437
-54.377
-51.372
-48.433
-45.573
-42.804
-40.136
-37.58
-35.138
-32.816
-30.619
-28.556
-26.638
-24.874
-23.268
-21.823
-20.538
-19.407
-18.426
-17.58
-16.844
-16.194
-15.604
-15.052
-14.525
-14.004
-13.463
-12.875
-12.203
-11.416
-10.498
-9.434
-8.215
-6.844
-5.333
-3.716
-2.052
-0.406
1.159
2.577
3.79
4.735
5.345
5.546
5.248
4.406
3.026
1.158
-1.066
-3.488
-5.942
-8.19
-9.939
-10.972
-11.145
-10.456
-9.148
-7.482
-5.743
-4.277
-3.335
-3.12
-3.829
-5.354
-7.157
-8.09
-6.345
-0.205
11.288
27.431
46.68
68.098
92.307
123.006
163.849
216.305
279.055
345.396
408.027
460.604
496.666
513.711
508.907
479.061
424.458
345.406
246.573
137.607
28.807
-67.589
-142.6
-193.024
-219.614
-227.086
-220.812
-205.378
-184.606
-162.386
-142.223
-125.537
-112.24
-99.931
-86.189
-71.195
-56.513
-44.583
-36.975
-33.369
-32.501
-32.866
-33.434
-33.412
-32.13
-29.353
-25.045
-19.419
-12.946
-6.016
1.026
7.648
13.313
17.712
20.729
22.472
23.215
23.22
22.741
22.061
21.446
21.065
21.004
21.294
21.923
22.902
24.236
25.91
27.891
30.153
32.674
35.418
38.335
41.338
44.323
47.212
49.958
52.53
54.915
57.094
59.048
60.768
62.263
63.538
64.6
65.455
66.106
66.57
66.88
67.076
67.209
67.314
67.422
67.555
67.733
67.976
68.299
68.714
69.225
69.842
70.574
71.434
72.436
73.589
74.899
76.369
78
79.794
81.753
83.877
86.165
88.616
91.229
94.003
96.938
100.029
103.272
106.657
110.175
113.817
117.57
121.422
125.357
129.361
133.417
137.511
141.624
145.739
149.84
153.906
157.919
161.86
165.711
169.451
173.062
176.525
179.82
182.93
185.837
188.523
190.972
193.17
195.1
196.75
198.107
199.159
199.896
200.308
200.388
200.13
199.528
198.581
197.285
195.641
193.652
191.32
188.65
185.65
182.327
178.69
174.752
170.524
166.021
161.258
156.252
151.021
145.583
139.958
134.169
128.235
122.179
116.024
109.793
103.51
97.198
90.88
84.581
78.324
72.131
66.025
60.029
54.162
48.446
42.9
37.542
32.388
27.455
22.757
18.306
14.113
10.189
6.541
3.175
0.097
-2.692
-5.19
-7.396
-9.314
-10.946
-12.297
-13.374
-14.183
-14.735
-15.04
-15.107
-14.951
-14.583
-14.017
-13.269
-12.353
-11.284
-10.08
-8.755
-7.327
-5.812
-4.226
-2.585
-0.905
0.799
2.511
4.218
5.907
7.565
9.18
10.742
12.24
13.667
15.015
16.276
17.446
18.519
19.493
20.365
21.134
21.799
22.362
22.823
23.184
23.45
23.624
23.71
23.714
23.642
23.499
23.293
23.032
22.721
22.37
21.986
21.577
21.151
20.716
20.28
19.851
19.435
19.039
18.67
18.334
18.037
17.784
17.578
17.425
17.327
17.287
17.307
17.388
17.531
17.736
18.002
18.328
18.714
19.156
19.651
20.198
20.792
21.429
22.105
22.814
23.553
24.315
25.095
25.887
26.687
27.487
28.282
29.067
29.835
30.582
31.302
31.99
32.64
33.25
33.813
34.328
34.79
35.197
35.547
35.838
36.07
36.241
36.352
36.403
36.394
36.328
36.205
36.029
35.802
35.528
35.209
34.851
34.457
34.034
33.585
33.116
32.632
32.137
31.639
31.142
30.652
30.173
29.712
29.275
28.865
28.488
28.149
27.851
27.597
27.39
27.234
27.13
27.078
27.079
27.133
27.241
27.4
27.608
27.864
28.163
28.502
28.875
29.277
29.699
30.135
30.574
31.009
31.431
31.831
32.197
32.523
32.8
33.021
33.178
33.263
33.264
33.175
32.986
32.691
32.285
31.759
31.108
30.331
29.428
28.4
27.246
25.964
24.544
22.981
21.275
19.43
17.45
15.343
13.119
10.796
8.405
5.973
3.527
1.091
-1.325
-3.699
-6.006
-8.217
-10.293
-12.208
-13.949
-15.501
-16.857
-18.026
-19.026
-19.896
-20.7
-21.495
-22.345
-23.319
-24.473
-25.881
-27.605
-29.715
-32.319
-35.463
-39.134
-43.264
-47.671
-52.133
-56.47
-60.428
-63.672
-66.001
-67.3
-67.633
-67.415
-67.079
-66.961
-67.47
-68.947
-71.533
-75.244
-79.688
-83.853
-86.538
-86.493
-82.374
-72.926
-57.037
-33.784
-2.665
35.616
79.197
125.862
172.859
218.273
261.678
302.282
338.635
367.407
382.881
378.453
348.475
290.733
206.286
101.839
-10.851
-119.622
-211.269
-277.884
-320.564
-343.425
-353.872
-357.48
-353.016
-339.041
-315.871
-286.41
-257.432
-234.191
-217.224
-203.686
-190.043
-174.527
-158.191
-144.065
-134.026
-128.055
-125.351
-124.366
-123.782
-123.107
-121.89
-119.692
-116.509
-112.501
-107.774
-102.589
-97.287
-92.107
-87.436
-83.705
-80.999
-79.213
-78.178
-77.625
-77.359
-77.256
-77.115
-76.706
-75.88
-74.567
-72.772
-70.561
-67.977
-65.044
-61.8
-58.306
-54.644
-50.903
-47.171
-43.524
-40.007
-36.662
-33.523
-30.625
-27.998
-25.662
-23.61
-21.833
-20.321
-19.065
-18.056
-17.279
-16.7
-16.28
-15.978
-15.75
-15.562
-15.388
-15.2
-14.972
-14.684
-14.318
-13.863
-13.312
-12.654
-11.876
-10.966
-9.911
-8.704
-7.34
-5.813
-4.121
-2.26
-0.228
1.977
4.353
6.903
9.626
12.522
15.589
18.823
22.219
25.768
29.462
33.289
37.237
41.294
45.444
49.672
53.964
58.303
62.672
67.056
71.437
75.798
80.121
84.388
88.582
92.685
96.681
100.552
104.282
107.854
111.254
114.467
117.478
120.275
122.846
125.178
127.261
129.086
130.644
131.928
132.932
133.652
134.084
134.226
134.078
133.64
132.914
131.903
130.611
129.044
127.206
125.106
122.752
120.152
117.317
114.257
110.985
107.513
103.854
100.021
96.03
91.896
87.633
83.257
78.785
74.234
69.618
64.957
60.265
55.56
50.857
46.174
41.525
36.926
32.392
27.937
23.574
19.316
15.176
11.165
7.294
3.572
0.008
-3.389
-6.613
-9.657
-12.516
-15.186
-17.662
-19.944
-22.028
-23.915
-25.605
-27.099
-28.4
-29.51
-30.433
-31.175
-31.739
-32.133
-32.362
-32.434
-32.357
-32.138
-31.786
-31.31
-30.718
-30.019
-29.223
-28.34
-27.377
-26.345
-25.253
-24.108
-22.921
-21.699
-20.45
-19.183
-17.903
-16.619
-15.337
-14.061
-12.799
-11.554
-10.331
-9.133
-7.962
-6.823
-5.715
-4.641
-3.601
-2.596
-1.624
-0.686
0.219
1.094
1.941
2.76
3.556
4.331
5.087
5.829
6.559
7.28
7.997
8.712
9.429
10.151
10.881
11.622
12.377
13.149
13.938
14.748
15.579
16.433
17.31
18.21
19.132
20.075
21.039
22.021
23.019
24.031
25.053
26.082
27.115
28.147
29.175
30.193
31.196
32.18
33.138
34.067
34.96
35.812
36.617
37.371
38.067
38.702
39.268
39.763
40.18
40.517
40.768
40.932
41.004
40.984
40.869
40.659
40.352
39.951
39.455
38.867
38.187
37.42
36.568
35.635
34.627
33.548
32.404
31.201
29.947
28.649
27.314
25.95
24.564
23.165
21.761
20.361
18.973
17.606
16.267
14.967
13.713
12.512
11.373
10.303
9.307
8.392
7.561
6.82
6.172
5.618
5.161
4.802
4.542
4.379
4.311
4.335
4.448
4.644
4.916
5.255
5.653
6.1
6.587
7.104
7.639
8.18
8.715
9.234
9.727
10.181
10.585
10.923
11.185
11.361
11.442
11.42
11.286
11.028
10.641
10.124
9.475
8.694
7.778
6.716
5.502
4.14
2.633
0.987
-0.794
-2.706
-4.736
-6.86
-9.054
-11.29
-13.546
-15.812
-18.074
-20.321
-22.544
-24.711
-26.794
-28.77
-30.622
-32.339
-33.938
-35.416
-36.76
-38.018
-39.284
-40.709
-42.464
-44.624
-47.152
-50.011
-53.256
-56.897
-60.815
-64.691
-68.074
-70.694
-72.575
-73.836
-74.445
-74.371
-73.742
-72.989
-72.875
-73.986
-76.463
-80.256
-85.347
-91.591
-98.75
-106.305
-113.175
-118.281
-120.353
-117.745
-109.186
-94.156
-73.799
-50.38
-25.491
0.874
31.647
70.049
116.964
170.721
225.148
273.461
310.165
329.989
331.438
313.149
273.54
213.911
134.258
37.803
-67.091
-171.389
-262.318
-329.235
-369.767
-386.118
-386.362
-380.311
-372.137
-362.827
-351.017
-333.981
-312.244
-288.24
-264.48
-243.777
-227.538
-215.873
-208.434
-204.412
-202.894
-203.093
-204.279
-205.634
-206.326
-205.653
-203.287
-199.322
-194.097
-188.05
-181.601
-175.185
-169.299
-164.449
-160.91
-158.697
-157.678
-157.598
-158.19
-159.228
-160.441
-161.543
-162.355
-162.772
-162.737
-162.259
-161.35
-160.006
-158.256
-156.139
-153.689
-150.952
-147.978
-144.82
-141.552
-138.252
-134.996
-131.848
-128.851
-126.045
-123.462
-121.122
-119.036
-117.207
-115.63
-114.296
-113.2
-112.326
-111.653
-111.156
-110.802
-110.558
-110.385
-110.251
-110.132
-110.003
-109.848
-109.651
-109.398
-109.079
-108.688
-108.218
-107.657
-106.996
-106.225
-105.337
-104.325
-103.185
-101.914
-100.507
-98.963
-97.277
-95.447
-93.471
-91.347
-89.074
-86.651
-84.078
-81.357
-78.494
-75.495
-72.366
-69.116
-65.753
-62.289
-58.734
-55.1
-51.399
-47.643
-43.845
-40.019
-36.178
-32.339
-28.515
-24.722
-20.976
-17.292
-13.686
-10.174
-6.771
-3.493
-0.353
2.633
5.452
8.09
10.535
12.773
14.795
16.59
18.148
19.462
20.523
21.327
21.868
22.144
22.151
21.888
21.356
20.555
19.488
18.157
16.567
14.724
12.633
10.303
7.741
4.959
1.965
-1.228
-4.607
-8.161
-11.875
-15.735
-19.727
-23.834
-28.042
-32.334
-36.694
-41.106
-45.554
-50.022
-54.494
-58.955
-63.389
-67.783
-72.123
-76.395
-80.587
-84.686
-88.682
-92.564
-96.323
-99.949
-103.435
-106.773
-109.959
-112.986
-115.851
-118.551
-121.082
-123.444
-125.636
-127.658
-129.512
-131.2
-132.725
-134.09
-135.3
-136.361
-137.277
-138.056
-138.703
-139.226
-139.633
-139.931
-140.128
-140.232
-140.251
-140.193
-140.066
-139.879
-139.638
-139.353
-139.03
-138.678
-138.302
-137.91
-137.509
-137.103
-136.7
-136.303
-135.918
-135.55
-135.201
-134.876
-134.576
-134.304
-134.062
-133.849
-133.667
-133.515
-133.392
-133.296
-133.225
-133.178
-133.15
-133.139
-133.142
-133.153
-133.169
-133.185
-133.196
-133.197
-133.183
-133.148
-133.087
-132.995
-132.866
-132.694
-132.475
-132.203
-131.873
-131.48
-131.019
-130.487
-129.88
-129.193
-128.424
-127.571
-126.631
-125.604
-124.49
-123.288
-121.999
-120.624
-119.167
-117.629
-116.014
-114.327
-112.572
-110.754
-108.879
-106.953
-104.983
-102.977
-100.941
-98.884
-96.814
-94.738
-92.666
-90.605
-88.565
-86.553
-84.578
-82.648
-80.77
-78.953
-77.203
-75.526
-73.929
-72.416
-70.993
-69.661
-68.425
-67.284
-66.241
-65.294
-64.441
-63.681
-63.009
-62.422
-61.912
-61.474
-61.101
-60.784
-60.514
-60.282
-60.077
-59.888
-59.704
-59.513
-59.304
-59.063
-58.778
-58.437
-58.028
-57.537
-56.954
-56.266
-55.463
-54.534
-53.47
-52.261
-50.901
-49.382
-47.7
-45.851
-43.832
-41.643
-39.284
-36.759
-34.073
-31.231
-28.242
-25.113
-21.855
-18.479
-14.996
-11.419
-7.759
-4.03
-0.246
3.576
7.42
11.269
15.107
18.917
22.683
26.387
30.015
33.556
36.999
40.33
43.536
46.598
49.499
52.227
54.778
57.144
59.328
61.333
63.169
64.859
66.426
67.888
69.265
70.563
71.795
72.981
74.148
75.33
76.56
77.851
79.213
80.661
82.188
83.777
85.392
86.966
88.443
89.781
90.936
91.871
92.545
92.893
92.867
92.407
91.423
89.892
87.842
85.342
82.598
79.847
77.306
75.288
74.129
74.016
75.059
77.159
79.892
82.877
85.772
88.167
89.769
90.402
90.023
89.071
88.497
89.323
92.724
99.91
111.851
129.647
154.251
185.957
224.6
269.087
316.976
365.692
412.525
455.353
494.45
529.766
559.796
581.567
587.725
570.645
526.573
454.509
360.282
255.276
150.406
57.82
-13.452
-62.382
-91.268
-106.281
-114.755
-117.659
-112.937
-98.526
-73.648
-43.546
-15.971
4.211
15.949
22.826
29.505
38.059
47.769
55.897
60.544
61.553
59.844
57.245
54.913
53.282
52.762
53.32
54.763
57.001
59.793
62.788
65.742
68.369
70.309
71.479
71.963
71.876
71.435
70.821
70.138
69.537
69.207
69.244
69.693
70.574
71.838
73.454
75.402
77.622
80.035
82.549
85.075
87.543
89.903
92.119
94.166
96.027
97.69
99.152
100.41
101.456
102.289
102.906
103.311
103.519
103.552
103.444
103.231
102.948
102.624
102.284
101.947
101.632
101.352
101.115
100.932
100.817
100.783
100.845
101.018
101.316
101.747
102.323
103.048
103.93
104.974
106.185
107.568
109.128
110.869
112.795
114.911
117.218
119.715
122.401
125.271
128.319
131.54
134.924
138.462
142.143
145.957
149.89
153.931
158.065
162.277
166.553
170.876
175.23
179.599
183.964
188.309
192.616
196.868
201.047
205.135
209.117
212.975
216.693
220.256
223.648
226.856
229.864
232.661
235.234
237.571
239.663
241.501
243.076
244.383
245.416
246.171
246.645
246.837
246.746
246.373
245.72
244.791
243.589
242.12
240.39
238.407
236.18
233.718
231.032
228.133
225.032
221.743
218.279
214.654
210.883
206.979
202.96
198.839
194.633
190.358
186.029
181.661
177.271
172.872
168.481
164.11
159.773
155.484
151.254
147.095
143.017
139.031
135.145
131.368
127.706
124.165
120.751
117.468
114.319
111.306
108.431
105.693
103.094
100.63
98.299
96.1
94.026
92.074
90.239
88.514
86.893
85.369
83.935
82.583
81.305
80.094
78.94
77.837
76.775
75.748
74.747
73.765
72.794
71.829
70.862
69.888
68.901
67.897
66.87
65.818
64.736
63.623
62.476
61.294
60.076
58.822
57.533
56.209
54.853
53.467
52.054
50.616
49.157
47.681
46.192
44.695
43.193
41.691
40.194
38.707
37.233
35.777
34.344
32.936
31.558
30.214
28.905
27.634
26.405
25.218
24.075
22.977
21.925
20.917
19.954
19.034
18.156
17.317
16.514
15.745
15.004
14.288
13.593
12.912
12.242
11.576
10.91
10.237
9.551
8.848
8.121
7.365
6.574
5.745
4.87
3.948
2.972
1.94
0.849
-0.305
-1.524
-2.809
-4.161
-5.583
-7.072
-8.63
-10.255
-11.945
-13.697
-15.509
-17.375
-19.293
-21.256
-23.258
-25.295
-27.357
-29.44
-31.535
-33.635
-35.731
-37.816
-39.88
-41.916
-43.915
-45.869
-47.768
-49.606
-51.373
-53.064
-54.669
-56.183
-57.599
-58.91
-60.112
-61.198
-62.164
-63.006
-63.72
-64.304
-64.757
-65.077
-65.263
-65.318
-65.242
-65.038
-64.709
-64.26
-63.695
-63.019
-62.24
-61.365
-60.402
-59.358
-58.245
-57.071
-55.85
-54.592
-53.311
-52.019
-50.729
-49.454
-48.206
-46.999
-45.842
-44.747
-43.725
-42.786
-41.944
-41.21
-40.593
-40.102
-39.747
-39.534
-39.469
-39.558
-39.797
-40.186
-40.728
-41.423
-42.282
-43.309
-44.503
-45.862
-47.38
-49.047
-50.854
-52.781
-54.8
-56.882
-59.002
-61.137
-63.279
-65.408
-67.5
-69.525
-71.442
-73.219
-74.836
-76.275
-77.525
-78.588
-79.476
-80.22
-80.877
-81.505
-82.159
-82.897
-83.765
-84.825
-86.134
-87.765
-89.821
-92.349
-95.344
-98.736
-102.351
-105.984
-109.441
-112.458
-114.726
-116.06
-116.356
-115.732
-114.651
-113.554
-112.884
-113.098
-114.41
-116.955
-120.826
-125.586
-130.229
-133.203
-132.248
-125.484
-112.125
-93.009
-70.011
-44.314
-15.539
19.849
65.417
121.83
186.736
251.957
308.323
349.925
372.637
377.08
365.741
337.692
291.539
225.325
136.76
30.521
-82.961
-191.168
-279.365
-339.03
-370.486
-377.984
-369.315
-351.013
-325.368
-294.905
-263.201
-233.765
-210.27
-193.614
-180.942
-169.606
-158.284
-147.249
-138.945
-134.806
-134.458
-136.761
-139.664
-141.571
-141.797
-140.116
-136.775
-132.186
-126.749
-120.909
-115.159
-110.024
-106.018
-103.419
-102.239
-102.328
-103.4
-105.143
-107.277
-109.523
-111.6
-113.324
-114.592
-115.324
-115.516
-115.181
-114.317
-112.954
-111.137
-108.893
-106.267
-103.327
-100.142
-96.806
-93.418
-90.04
-86.723
-83.509
-80.431
-77.527
-74.824
-72.326
-70.029
-67.933
-66.035
-64.332
-62.814
-61.454
-60.216
-59.064
-57.956
-56.865
-55.766
-54.638
-53.465
-52.231
-50.925
-49.543
-48.084
-46.539
-44.903
-43.165
-41.316
-39.353
-37.273
-35.072
-32.749
-30.302
-27.728
-25.025
-22.192
-19.225
-16.122
-12.881
-9.498
-5.974
-2.31
1.491
5.423
9.482
13.66
17.95
22.342
26.826
31.393
36.032
40.731
45.478
50.261
55.066
59.88
64.687
69.474
74.225
78.925
83.558
88.108
92.561
96.9
101.11
105.176
109.084
112.818
116.364
119.709
122.839
125.743
128.409
130.826
132.987
134.881
136.503
137.846
138.907
139.681
140.166
140.363
140.271
139.892
139.23
138.288
137.073
135.591
133.851
131.861
129.634
127.18
124.511
121.642
118.586
115.36
111.978
108.458
104.816
101.069
97.237
93.336
89.384
85.4
81.402
77.406
73.431
69.492
65.607
61.791
58.058
54.423
50.898
47.497
44.229
41.105
38.134
35.324
32.68
30.207
27.911
25.793
23.856
22.1
20.524
19.127
17.907
16.858
15.978
15.261
14.7
14.289
14.021
13.887
13.879
13.989
14.208
14.526
14.933
15.421
15.98
16.6
17.271
17.984
18.731
19.502
20.289
21.085
21.881
22.672
23.451
24.212
24.95
25.661
26.341
26.987
27.595
28.164
28.692
29.179
29.624
30.027
30.388
30.708
30.99
31.233
31.44
31.613
31.754
31.865
31.95
32.011
32.051
32.074
32.082
32.079
32.068
32.053
32.036
32.021
32.01
32.005
32.011
32.028
32.059
32.106
32.169
32.252
32.353
32.475
32.616
32.778
32.959
33.159
33.377
33.612
33.863
34.128
34.405
34.692
34.989
35.291
35.597
35.903
36.208
36.507
36.798
37.077
37.341
37.586
37.81
38.008
38.178
38.316
38.419
38.483
38.507
38.486
38.419
38.305
38.14
37.925
37.658
37.339
36.968
36.546
36.073
35.551
34.981
34.366
33.708
33.011
32.278
31.513
30.721
29.906
29.075
28.234
27.389
26.546
25.713
24.895
24.101
23.339
22.614
21.935
21.31
20.745
20.248
19.825
19.484
19.23
19.068
19.003
19.039
19.18
19.429
19.787
20.254
20.833
21.522
22.32
23.223
24.229
25.333
26.53
27.811
29.167
30.59
32.067
33.588
35.141
36.712
38.289
39.859
41.409
42.927
44.4
45.814
47.155
48.407
49.559
50.596
51.507
52.281
52.905
53.371
53.675
53.811
53.775
53.557
53.143
52.526
51.702
50.673
49.44
48.012
46.397
44.611
42.685
40.645
38.518
36.325
34.077
31.794
29.505
27.238
25.038
22.931
20.931
19.055
17.311
15.691
14.183
12.75
11.329
9.872
8.324
6.633
4.761
2.648
0.243
-2.511
-5.714
-9.405
-13.558
-18.117
-22.918
-27.761
-32.501
-36.899
-40.629
-43.519
-45.463
-46.491
-46.964
-47.205
-47.438
-47.988
-49.13
-50.946
-53.393
-56.199
-58.654
-59.859
-58.966
-54.714
-45.319
-29.879
-8.294
18.907
48.846
79.698
112.179
146.952
187.114
234.832
286.885
337.811
378.629
398.569
392.066
358.578
302.266
231.707
153.257
69.826
-16.196
-102.547
-183.064
-248.546
-293.12
-315.423
-319.905
-314.906
-305.894
-294.973
-281.77
-264.231
-242.627
-219.057
-195.877
-175.741
-160.012
-148.897
-142.084
-138.726
-137.868
-138.622
-140.14
-141.521
-141.897
-140.579
-137.275
-132.126
-125.539
-118.045
-110.155
-102.385
-95.27
-89.303
-84.763
-81.68
-79.928
-79.276
-79.471
-80.306
-81.566
-83.021
-84.513
-85.932
-87.175
-88.192
-88.954
-89.427
-89.606
-89.5
-89.104
-88.427
-87.5
-86.359
-85.054
-83.627
-82.098
-80.492
-78.846
-77.208
-75.646
-74.215
-72.942
-71.85
-70.951
-70.255
-69.768
-69.482
-69.371
-69.403
-69.552
-69.793
-70.114
-70.494
-70.906
-71.319
-71.697
-72.009
-72.235
-72.354
-72.348
-72.201
-71.899
-71.434
-70.807
-70.017
-69.059
-67.932
-66.628
-65.145
-63.483
-61.644
-59.63
-57.443
-55.085
-52.559
-49.872
-47.028
-44.033
-40.894
-37.615
-34.204
-30.671
-27.025
-23.279
-19.444
-15.534
-11.562
-7.543
-3.493
0.575
4.645
8.703
12.733
16.72
20.649
24.505
28.273
31.939
35.488
38.906
42.179
45.295
48.242
51.006
53.577
55.944
58.099
60.031
61.732
63.197
64.42
65.394
66.117
66.585
66.798
66.755
66.457
65.905
65.103
64.054
62.765
61.24
59.488
57.516
55.332
52.948
50.372
47.617
44.693
41.614
38.393
35.042
31.577
28.012
24.361
20.639
16.86
13.041
9.194
5.336
1.479
-2.361
-6.172
-9.94
-13.653
-17.3
-20.869
-24.35
-27.733
-31.011
-34.175
-37.219
-40.136
-42.922
-45.573
-48.085
-50.456
-52.686
-54.773
-56.718
-58.522
-60.188
-61.719
-63.117
-64.389
-65.538
-66.571
-67.494
-68.314
-69.037
-69.672
-70.226
-70.708
-71.124
-71.485
-71.798
-72.07
-72.311
-72.528
-72.73
-72.922
-73.113
-73.309
-73.516
-73.741
-73.988
-74.263
-74.57
-74.913
-75.295
-75.719
-76.188
-76.703
-77.265
-77.875
-78.532
-79.236
-79.987
-80.781
-81.617
-82.492
-83.403
-84.346
-85.317
-86.312
-87.325
-88.353
-89.388
-90.427
-91.463
-92.49
-93.504
-94.497
-95.465
-96.402
-97.302
-98.161
-98.972
-99.731
-100.434
-101.076
-101.653
-102.162
-102.6
-102.963
-103.25
-103.459
-103.589
-103.638
-103.607
-103.496
-103.306
-103.038
-102.694
-102.278
-101.791
-101.238
-100.624
-99.952
-99.228
-98.458
-97.647
-96.803
-95.931
-95.038
-94.132
-93.22
-92.308
-91.404
-90.515
-89.649
-88.811
-88.009
-87.25
-86.538
-85.881
-85.281
-84.745
-84.276
-83.878
-83.554
-83.304
-83.132
-83.038
-83.022
-83.083
-83.219
-83.428
-83.707
-84.051
-84.456
-84.915
-85.423
-85.971
-86.551
-87.156
-87.777
-88.404
-89.027
-89.636
-90.22
-90.77
-91.273
-91.72
-92.098
-92.399
-92.612
-92.728
-92.737
-92.632
-92.404
-92.047
-91.554
-90.92
-90.14
-89.211
-88.128
-86.892
-85.502
-83.958
-82.265
-80.425
-78.445
-76.333
-74.096
-71.744
-69.286
-66.734
-64.102
-61.403
-58.652
-55.863
-53.05
-50.23
-47.418
-44.631
-41.886
-39.196
-36.574
-34.034
-31.588
-29.253
-27.04
-24.955
-23.002
-21.187
-19.513
-17.993
-16.634
-15.436
-14.4
-13.524
-12.805
-12.241
-11.826
-11.539
-11.359
-11.259
-11.221
-11.24
-11.313
-11.438
-11.611
-11.801
-11.983
-12.135
-12.229
-12.263
-12.233
-12.109
-11.916
-11.732
-11.655
-11.869
-12.532
-13.659
-15.26
-17.321
-19.701
-22.305
-24.954
-27.214
-28.716
-29.278
-28.77
-27.27
-25.051
-22.196
-18.906
-15.719
-13.151
-11.694
-11.762
-13.389
-16.369
-20.664
-26.128
-32.29
-38.499
-43.79
-47.016
-47.206
-43.513
-34.865
-20.102
1.675
31.134
68.01
110.836
157.756
206.598
255.868
305.123
353.531
399.471
438.254
462.871
467.11
445.653
398.312
328.926
241.472
143.027
40.73
-57.817
-141.951
-204.434
-242.411
-257.007
-254.306
-240.228
-218.565
-193.048
-167.335
-144.738
-128.117
-117.202
-108.368
-98.615
-86.607
-73.215
-61.534
-53.353
-48.511
-46.144
-44.536
-42.381
-39.2
-34.532
-28.244
-20.546
-11.68
-1.95
8.23
18.433
28.177
36.887
44.21
50.068
54.519
57.732
59.9
61.188
61.787
61.926
61.763
61.391
60.871
60.233
59.524
58.811
58.166
57.663
57.361
57.301
57.504
57.967
58.677
59.618
60.772
62.128
63.671
65.382
67.242
69.231
71.323
73.486
75.672
77.817
79.878
81.83
83.661
85.379
86.992
88.507
89.94
91.31
92.635
93.931
95.212
96.483
97.758
99.056
100.404
101.832
103.367
105.023
106.812
108.741
110.813
113.031
115.392
117.886
120.506
123.247
126.106
129.08
132.165
135.354
138.637
142.005
145.446
148.952
152.513
156.116
159.751
163.409
167.078
170.751
174.417
178.065
181.683
185.259
188.78
192.235
195.609
198.891
202.065
205.122
208.048
210.832
213.463
215.931
218.224
220.334
222.251
223.967
225.475
226.768
227.837
228.679
229.288
229.66
229.792
229.682
229.327
228.728
227.884
226.796
225.466
223.897
222.09
220.052
217.785
215.296
212.591
209.677
206.56
203.25
199.756
196.087
192.253
188.263
184.13
179.862
175.473
170.972
166.372
161.682
156.916
152.084
147.196
142.265
137.3
132.313
127.313
122.311
117.316
112.338
107.387
102.467
97.588
92.754
87.974
83.256
78.605
74.022
69.515
65.097
60.778
56.572
52.48
48.49
44.604
40.837
37.179
33.599
30.072
26.573
23.096
19.681
16.339
13.024
9.781
6.761
3.996
1.436
-0.9
-3.183
-5.103
-5.698
-5.186
-4.453
-4.969
-9.485
-17.819
-27.22
-34.943
-37.086
-33.432
-27.673
-22.661
-21.483
-24.662
-29.444
-34.146
-37.613
-39.506
-40.955
-42.468
-44.012
-45.629
-47.151
-48.539
-49.948
-51.426
-52.947
-54.519
-56.149
-57.834
-59.566
-61.334
-63.111
-64.891
-66.684
-68.496
-70.324
-72.167
-74.025
-75.895
-77.781
-79.683
-81.595
-83.518
-85.447
-87.382
-89.32
-91.262
-93.204
-95.146
-97.087
-99.025
-100.96
-102.891
-104.818
-106.741
-108.661
-110.579
-112.494
-114.408
-116.323
-118.241
-120.163
-122.091
-124.028
-125.975
-127.936
-129.913
-131.908
-133.924
-135.963
-138.028
-140.122
-142.248
-144.408
-146.603
-148.837
-151.111
-153.427
-155.784
-158.185
-160.628
-163.114
-165.642
-168.209
-170.814
-173.454
-176.126
-178.826
-181.551
-184.295
-187.052
-189.817
-192.583
-195.344
-198.093
-200.821
-203.521
-206.186
-208.807
-211.377
-213.888
-216.332
-218.702
-220.988
-223.185
-225.285
-227.28
-229.166
-230.937
-232.586
-234.111
-235.508
-236.774
-237.908
-238.908
-239.775
-240.51
-241.115
-241.593
-241.947
-242.182
-242.306
-242.324
-242.244
-242.077
-241.831
-241.52
-241.155
-240.749
-240.317
-239.872
-239.429
-239.003
-238.608
-238.255
-237.959
-237.731
-237.586
-237.537
-237.597
-237.778
-238.091
-238.544
-239.147
-239.908
-240.832
-241.92
-243.171
-244.589
-246.176
-247.942
-249.892
-252.027
-254.344
-256.838
-259.498
-262.314
-265.269
-268.331
-271.471
-274.66
-277.871
-281.089
-284.289
-287.442
-290.513
-293.456
-296.231
-298.813
-301.18
-303.316
-305.219
-306.897
-308.375
-309.702
-310.932
-312.125
-313.34
-314.634
-316.069
-317.705
-319.623
-321.942
-324.722
-327.963
-331.591
-335.41
-339.208
-342.803
-345.936
-348.274
-349.594
-349.776
-348.936
-347.553
-346.07
-344.859
-344.32
-344.743
-346.282
-348.938
-352.187
-354.891
-355.824
-353.608
-346.842
-334.435
-315.184
-288.039
-252.716
-209.444
-159.462
-105.542
-50.465
2.893
52.274
98.044
140.051
176.453
203.777
214.014
199.192
155.414
82.006
-14.622
-123.166
-232.175
-328.962
-404.143
-454.016
-478.678
-482.831
-472.386
-451.592
-423.314
-389.757
-354.152
-320.227
-291.062
-267.42
-247.125
-227.96
-208.933
-190.629
-175.253
-163.936
-156.228
-151.093
-146.698
-141.703
-135.541
-127.709
-118.181
-107.288
-95.371
-82.836
-70.168
-57.763
-46.027
-35.461
-26.295
-18.508
-11.985
-6.495
-1.817
2.186
5.683
8.912
12.035
15.179
18.463
21.913
25.542
29.386
33.434
37.672
42.091
46.656
51.323
56.055
60.82
65.596
70.379
75.145
79.859
84.471
88.912
93.14
97.132
100.864
104.328
107.521
110.44
113.106
115.554
117.815
119.914
121.87
123.695
125.41
127.041
128.618
130.178
131.75
133.355
135.017
136.754
138.583
140.52
142.57
144.735
147.017
149.422
151.954
154.623
157.432
160.385
163.482
166.726
170.116
173.652
177.335
181.161
185.129
189.234
193.475
197.848
202.35
206.974
211.714
216.56
221.503
226.535
231.644
236.819
242.047
247.317
252.616
257.932
263.251
268.56
273.845
279.093
284.289
289.419
294.47
299.426
304.276
309.005
313.599
318.046
322.332
326.446
330.377
334.112
337.643
340.959
344.051
346.913
349.537
351.919
354.052
355.933
357.561
358.932
360.048
360.909
361.516
361.874
361.984
361.854
361.488
360.895
360.082
359.058
357.833
356.419
354.827
353.07
351.16
349.111
346.939
344.655
342.277
339.818
337.293
334.718
332.108
329.476
326.837
324.206
321.594
319.015
316.481
314.002
311.589
309.25
306.994
304.829
302.76
300.793
298.931
297.178
295.536
294.004
292.583
291.271
290.064
288.961
287.955
287.04
286.212
285.462
284.781
284.163
283.597
283.073
282.581
282.111
281.651
281.191
280.72
280.227
279.701
279.133
278.51
277.826
277.069
276.232
275.307
274.287
273.165
271.935
270.594
269.136
267.559
265.861
264.041
262.098
260.034
257.851
255.55
253.135
250.611
247.982
245.254
242.434
239.529
236.546
233.494
230.382
227.22
224.016
220.78
217.522
214.253
210.983
207.72
204.476
201.259
198.08
194.946
191.866
188.849
185.902
183.032
180.246
177.548
174.944
172.439
170.035
167.734
165.54
163.453
161.473
159.601
157.834
156.172
154.612
153.15
151.782
150.505
149.313
148.201
147.162
146.191
145.281
144.425
143.615
142.845
142.107
141.395
140.7
140.017
139.337
138.654
137.962
137.255
136.528
135.774
134.99
134.172
133.315
132.419
131.479
130.496
129.468
128.395
127.278
126.118
124.918
123.68
122.407
121.105
119.777
118.43
117.069
115.701
114.333
112.973
111.628
110.307
109.019
107.77
106.571
105.429
104.354
103.354
102.438
101.613
100.888
100.27
99.766
99.384
99.129
99.006
99.02
99.176
99.475
99.922
100.517
101.26
102.151
103.189
104.371
105.693
107.15
108.737
110.447
112.27
114.197
116.218
118.32
120.491
122.717
124.985
127.279
129.586
131.89
134.176
136.43
138.637
140.782
142.848
144.821
146.684
148.423
150.023
151.473
152.759
153.87
154.8
155.542
156.089
156.435
156.568
156.482
156.174
155.646
154.9
153.943
152.786
151.447
149.953
148.328
146.597
144.781
142.894
140.95
138.975
136.994
135.04
133.142
131.315
129.571
127.929
126.39
124.941
123.55
122.158
120.708
119.17
117.513
115.705
113.713
111.479
108.944
106.074
102.83
99.166
95.079
90.585
85.772
80.869
76.151
71.876
68.323
65.746
64.296
64.067
64.969
66.608
68.502
70.243
71.469
71.841
71.127
69.247
66.452
64.014
63.868
67.546
76.011
88.643
103.709
120.983
141.793
169.208
206.946
255.244
310.869
368.228
420.116
461.728
490.594
503.98
500.533
478.72
436.161
374.186
294.989
200.852
98.142
-6.553
-105.353
-187.508
-246.872
-282.407
-296.258
-295.297
-284.877
-265.91
-239.746
-207.796
-173.487
-143.343
-121.334
-107.873
-100.508
-95.217
-89.748
-84.364
-80.808
-80.319
-82.638
-86.293
-89.249
-90.222
-89.023
-85.994
-81.714
-76.723
-71.434
-66.364
-62.145
-59.351
-58.289
-58.967
-61.235
-64.853
-69.58
-75.22
-81.527
-88.22
-95.088
-101.98
-108.8
-115.509
-122.054
-128.347
-134.3
-139.858
-144.984
-149.673
-153.938
-157.783
-161.218
-164.255
-166.905
-169.194
-171.153
-172.812
-174.198
-175.338
-176.263
-177.021
-177.675
-178.266
-178.815
-179.32
-179.768
-180.147
-180.446
-180.649
-180.733
-180.675
-180.456
-180.062
-179.487
-178.718
-177.739
-176.527
-175.053
-173.3
-171.26
-168.927
-166.305
-163.397
-160.207
-156.747
-153.036
-149.087
-144.915
-140.531
-135.943
-131.165
-126.211
-121.098
-115.844
-110.467
-104.981
-99.406
-93.758
-88.055
-82.314
-76.55
-70.777
-65.01
-59.267
-53.562
-47.913
-42.336
-36.846
-31.459
-26.192
-21.059
-16.074
-11.25
-6.6
-2.136
2.13
6.189
10.029
13.642
17.019
20.151
23.031
25.652
28.008
30.095
31.909
33.447
34.706
35.686
36.386
36.808
36.953
36.823
36.423
35.755
34.827
33.643
32.21
30.537
28.632
26.505
24.165
21.623
18.891
15.981
12.904
9.674
6.304
2.807
-0.801
-4.509
-8.299
-12.159
-16.074
-20.028
-24.008
-27.999
-31.989
-35.963
-39.91
-43.817
-47.672
-51.465
-55.185
-58.825
-62.374
-65.826
-69.175
-72.414
-75.541
-78.551
-81.442
-84.212
-86.862
-89.393
-91.804
-94.101
-96.285
-98.362
-100.337
-102.217
-104.007
-105.716
-107.353
-108.925
-110.441
-111.912
-113.346
-114.752
-116.142
-117.523
-118.905
-120.298
-121.711
-123.151
-124.627
-126.146
-127.715
-129.34
-131.026
-132.779
-134.601
-136.496
-138.466
-140.513
-142.636
-144.836
-147.111
-149.458
-151.875
-154.357
-156.9
-159.496
-162.14
-164.824
-167.541
-170.282
-173.038
-175.801
-178.561
-181.309
-184.035
-186.731
-189.385
-191.99
-194.535
-197.012
-199.413
-201.728
-203.952
-206.076
-208.094
-210.001
-211.791
-213.46
-215.004
-216.42
-217.705
-218.858
-219.878
-220.767
-221.524
-222.154
-222.659
-223.044
-223.314
-223.476
-223.536
-223.501
-223.38
-223.181
-222.911
-222.579
-222.195
-221.768
-221.308
-220.823
-220.323
-219.819
-219.319
-218.832
-218.367
-217.931
-217.531
-217.176
-216.872
-216.625
-216.442
-216.326
-216.284
-216.319
-216.434
-216.63
-216.908
-217.267
-217.705
-218.219
-218.803
-219.451
-220.157
-220.913
-221.712
-222.547
-223.408
-224.288
-225.178
-226.069
-226.95
-227.811
-228.639
-229.419
-230.139
-230.784
-231.34
-231.795
-232.135
-232.35
-232.428
-232.362
-232.141
-231.754
-231.19
-230.433
-229.473
-228.301
-226.915
-225.316
-223.513
-221.515
-219.34
-217.004
-214.521
-211.901
-209.144
-206.244
-203.196
-199.993
-196.636
-193.137
-189.506
-185.753
-181.884
-177.903
-173.804
-169.571
-165.186
-160.621
-155.866
-150.922
-145.811
-140.574
-135.265
-129.948
-124.677
-119.492
-114.43
-109.523
-104.805
-100.308
-96.077
-92.161
-88.613
-85.502
-82.878
-80.776
-79.207
-78.153
-77.566
-77.383
-77.542
-77.993
-78.689
-79.586
-80.631
-81.775
-82.964
-84.148
-85.272
-86.26
-87.037
-87.538
-87.708
-87.529
-87.009
-86.174
-85.047
-83.663
-82.056
-80.272
-78.374
-76.414
-74.444
-72.512
-70.671
-69.001
-67.576
-66.481
-65.824
-65.639
-65.904
-66.547
-67.4
-68.265
-68.976
-69.28
-68.855
-67.521
-65.186
-61.924
-58.091
-54.018
-49.972
-46.313
-43.405
-41.427
-40.404
-40.107
-39.777
-38.471
-35.329
-28.864
-17.528
-0.639
22.7
52.138
86.164
124.839
167.374
213.142
262.778
314.233
365.171
412.898
451.099
474.041
476.814
454.482
407.604
339.683
254.252
158.444
59.178
-36.789
-119.211
-180.822
-219.386
-235.491
-235.432
-226.425
-210.693
-190.474
-167.412
-141.806
-117.932
-98.062
-80.828
-66.057
-51.797
-37.398
-25.355
-16.663
-11.62
-9.997
-10.156
-10.872
-11.635
-11.924
-11.397
-10.03
-7.904
-5.186
-2.147
0.894
3.682
5.87
7.017
6.975
5.81
3.658
0.743
-2.746
-6.658
-10.747
-14.669
-18.179
-21.142
-23.499
-25.273
-26.467
-27.057
-27.049
-26.492
-25.448
-23.984
-22.156
-19.982
-17.486
-14.716
-11.736
-8.635
-5.49
-2.346
0.771
3.841
6.847
9.771
12.605
15.365
18.074
20.753
23.417
26.071
28.724
31.394
34.105
36.887
39.762
42.739
45.826
49.026
52.345
55.786
59.345
63.012
66.777
70.634
74.58
78.612
82.726
86.916
91.174
95.492
99.867
104.293
108.764
113.276
117.822
122.398
127
131.624
136.265
140.916
145.571
150.221
154.859
159.477
164.066
168.616
173.118
177.564
181.944
186.248
190.468
194.593
198.615
202.522
206.305
209.955
213.461
216.813
220.002
223.019
225.853
228.497
230.94
233.175
235.192
236.985
238.547
239.87
240.949
241.779
242.356
242.675
242.735
242.533
242.069
241.342
240.353
239.104
237.598
235.837
233.827
231.572
229.08
226.356
223.409
220.247
216.879
213.317
209.57
205.65
201.569
197.34
192.975
188.487
183.89
179.197
174.422
169.579
164.681
159.741
154.772
149.787
144.799
139.819
134.859
129.93
125.042
120.205
115.428
110.721
106.089
101.542
97.084
92.722
88.461
84.304
80.255
76.317
72.492
68.781
65.184
61.703
58.337
55.084
51.944
48.915
45.995
43.183
40.475
37.87
35.365
32.958
30.645
28.425
26.294
24.251
22.292
20.416
18.62
16.902
15.26
13.69
12.193
10.764
9.403
8.108
6.876
5.706
4.597
3.546
2.553
1.616
0.734
-0.096
-0.874
-1.602
-2.282
-2.916
-3.505
-4.053
-4.56
-5.031
-5.467
-5.872
-6.249
-6.603
-6.935
-7.251
-7.555
-7.85
-8.141
-8.432
-8.727
-9.031
-9.348
-9.681
-10.034
-10.41
-10.814
-11.249
-11.717
-12.221
-12.765
-13.35
-13.979
-14.653
-15.376
-16.147
-16.969
-17.841
-18.765
-19.74
-20.767
-21.845
-22.973
-24.15
-25.373
-26.642
-27.954
-29.305
-30.694
-32.117
-33.571
-35.052
-36.558
-38.083
-39.626
-41.182
-42.749
-44.323
-45.9
-47.479
-49.054
-50.625
-52.187
-53.738
-55.276
-56.797
-58.299
-59.779
-61.234
-62.663
-64.063
-65.431
-66.764
-68.061
-69.319
-70.536
-71.709
-72.837
-73.918
-74.949
-75.928
-76.855
-77.726
-78.539
-79.294
-79.986
-80.615
-81.176
-81.669
-82.089
-82.435
-82.702
-82.889
-82.992
-83.009
-82.934
-82.767
-82.504
-82.142
-81.679
-81.112
-80.439
-79.659
-78.769
-77.77
-76.661
-75.44
-74.109
-72.668
-71.117
-69.458
-67.693
-65.823
-63.853
-61.784
-59.621
-57.369
-55.032
-52.616
-50.127
-47.571
-44.956
-42.289
-39.579
-36.833
-34.061
-31.272
-28.476
-25.682
-22.9
-20.141
-17.413
-14.728
-12.095
-9.523
-7.021
-4.598
-2.262
-0.022
2.115
4.141
6.052
7.84
9.502
