Name,Criss Capps
Date of Birth,"Feb 5, 1952"
Recorded Date,2020-09-06 13:36:31 -0400
Classification,Poor Recording
Symptoms,
Software Version,1.90
Device,"Watch5,4"
Sample Rate,512.844 hertz


Lead,Lead I
Unit,µV

24.694
28.859
32.673
36.109
39.133
41.75
43.982
45.861
47.452
48.833
50.093
51.349
52.687
54.159
55.801
57.617
59.604
61.765
64.098
66.597
69.271
72.116
75.117
78.261
81.511
84.814
88.112
91.322
94.377
97.232
99.851
102.215
104.313
106.13
107.66
108.901
109.843
110.478
110.799
110.799
110.48
109.854
108.939
107.762
106.349
104.72
102.891
100.878
98.689
96.337
93.831
91.175
88.38
85.459
82.425
79.294
76.082
72.801
69.463
66.081
62.664
59.223
55.771
52.319
48.878
45.461
42.081
38.75
35.48
32.283
29.168
26.144
23.219
20.4
17.692
15.1
12.629
10.282
8.061
5.969
4.008
2.176
0.474
-1.099
-2.546
-3.87
-5.073
-6.162
-7.139
-8.012
-8.786
-9.469
-10.066
-10.587
-11.037
-11.426
-11.762
-12.051
-12.303
-12.526
-12.729
-12.918
-13.104
-13.293
-13.493
-13.711
-13.954
-14.229
-14.541
-14.895
-15.297
-15.749
-16.257
-16.823
-17.449
-18.138
-18.89
-19.707
-20.588
-21.533
-22.54
-23.609
-24.736
-25.92
-27.156
-28.441
-29.772
-31.143
-32.551
-33.991
-35.458
-36.946
-38.452
-39.968
-41.491
-43.014
-44.533
-46.041
-47.534
-49.006
-50.453
-51.87
-53.253
-54.598
-55.902
-57.162
-58.375
-59.538
-60.65
-61.709
-62.713
-63.662
-64.555
-65.392
-66.172
-66.896
-67.565
-68.18
-68.742
-69.254
-69.716
-70.129
-70.497
-70.821
-71.101
-71.341
-71.541
-71.704
-71.831
-71.925
-71.989
-72.022
-72.029
-72.01
-71.968
-71.904
-71.819
-71.713
-71.587
-71.441
-71.276
-71.094
-70.894
-70.679
-70.448
-70.204
-69.948
-69.684
-69.409
-69.123
-68.826
-68.515
-68.193
-67.862
-67.522
-67.177
-66.83
-66.484
-66.147
-65.826
-65.522
-65.237
-64.971
-64.723
-64.499
-64.302
-64.138
-64.012
-63.926
-63.881
-63.883
-63.935
-64.033
-64.175
-64.35
-64.54
-64.746
-64.964
-65.196
-65.449
-65.723
-66.026
-66.367
-66.754
-67.203
-67.723
-68.317
-68.989
-69.75
-70.612
-71.6
-72.745
-74.063
-75.572
-77.283
-79.187
-81.281
-83.543
-85.939
-88.436
-90.99
-93.56
-96.118
-98.63
-101.059
-103.369
-105.502
-107.392
-108.982
-110.201
-110.993
-111.331
-111.183
-110.545
-109.432
-107.859
-105.863
-103.486
-100.764
-97.744
-94.48
-91.018
-87.425
-83.782
-80.176
-76.717
-73.513
-70.652
-68.225
-66.285
-64.865
-64.02
-63.722
-63.873
-64.335
-64.882
-65.279
-65.374
-65.019
-64.044
-62.489
-60.511
-58.294
-56.246
-54.743
-54.035
-54.355
-55.753
-57.801
-59.835
-61.232
-61.071
-58.388
-52.27
-41.7
-26.041
-5.535
19.081
47.075
77.213
107.748
136.549
160.866
178.025
186.296
184.518
171.507
146.826
111.136
66.066
14.514
-39.997
-94.395
-145.752
-190.828
-226.969
-252.68
-267.514
-272.352
-268.952
-259.088
-244.773
-228.537
-212.682
-198.753
-187.622
-179.381
-173.591
-169.79
-167.337
-165.261
-162.671
-159.092
-154.4
-148.795
-142.666
-136.339
-130.144
-124.517
-119.852
-116.356
-114.078
-112.925
-112.732
-113.365
-114.707
-116.613
-118.92
-121.472
-124.135
-126.809
-129.413
-131.87
-134.096
-136.009
-137.553
-138.702
-139.446
-139.793
-139.756
-139.35
-138.604
-137.558
-136.254
-134.745
-133.084
-131.32
-129.51
-127.697
-125.918
-124.207
-122.585
-121.06
-119.636
-118.308
-117.065
-115.897
-114.793
-113.733
-112.705
-111.69
-110.669
-109.624
-108.534
-107.382
-106.156
-104.85
-103.46
-101.987
-100.431
-98.798
-97.099
-95.341
-93.532
-91.682
-89.799
-87.892
-85.971
-84.048
-82.135
-80.244
-78.385
-76.569
-74.806
-73.106
-71.478
-69.931
-68.473
-67.112
-65.857
-64.715
-63.695
-62.804
-62.048
-61.434
-60.967
-60.651
-60.489
-60.483
-60.634
-60.943
-61.407
-62.026
-62.797
-63.716
-64.778
-65.977
-67.308
-68.764
-70.336
-72.016
-73.796
-75.665
-77.613
-79.631
-81.708
-83.834
-85.996
-88.186
-90.391
-92.601
-94.806
-96.995
-99.159
-101.288
-103.374
-105.407
-107.38
-109.285
-111.117
-112.869
-114.537
-116.116
-117.603
-118.995
-120.29
-121.486
-122.584
-123.584
-124.485
-125.291
-126.002
-126.622
-127.153
-127.6
-127.967
-128.258
-128.477
-128.631
-128.725
-128.763
-128.752
-128.697
-128.604
-128.479
-128.326
-128.152
-127.962
-127.759
-127.551
-127.339
-127.13
-126.926
-126.732
-126.551
-126.384
-126.236
-126.108
-126.001
-125.918
-125.86
-125.826
-125.819
-125.836
-125.879
-125.947
-126.038
-126.152
-126.287
-126.441
-126.613
-126.801
-127.002
-127.215
-127.436
-127.665
-127.898
-128.134
-128.37
-128.604
-128.834
-129.058
-129.276
-129.484
-129.682
-129.867
-130.04
-130.199
-130.342
-130.47
-130.582
-130.677
-130.755
-130.817
-130.863
-130.892
-130.907
-130.907
-130.894
-130.869
-130.832
-130.786
-130.732
-130.672
-130.607
-130.54
-130.471
-130.403
-130.337
-130.275
-130.218
-130.167
-130.125
-130.09
-130.066
-130.051
-130.048
-130.056
-130.076
-130.108
-130.151
-130.204
-130.269
-130.342
-130.423
-130.511
-130.603
-130.699
-130.795
-130.89
-130.981
-131.066
-131.141
-131.203
-131.249
-131.277
-131.281
-131.258
-131.206
-131.12
-130.998
-130.837
-130.633
-130.384
-130.088
-129.742
-129.346
-128.896
-128.393
-127.835
-127.221
-126.552
-125.828
-125.05
-124.221
-123.341
-122.413
-121.441
-120.428
-119.378
-118.296
-117.185
-116.052
-114.902
-113.742
-112.579
-111.419
-110.272
-109.146
-108.049
-106.991
-105.981
-105.029
-104.141
-103.329
-102.597
-101.954
-101.405
-100.956
-100.613
-100.382
-100.268
-100.275
-100.409
-100.673
-101.07
-101.603
-102.27
-103.067
-103.991
-105.038
-106.207
-107.5
-108.917
-110.45
-112.096
-113.848
-115.696
-117.625
-119.611
-121.621
-123.626
-125.601
-127.525
-129.384
-131.158
-132.825
-134.36
-135.737
-136.935
-137.947
-138.755
-139.347
-139.725
-139.909
-139.947
-139.909
-139.852
-139.819
-139.842
-139.948
-140.18
-140.597
-141.252
-142.198
-143.454
-145.03
-146.972
-149.257
-151.782
-154.376
-156.743
-158.566
-159.631
-159.759
-158.779
-156.754
-153.864
-150.316
-146.567
-143.034
-139.995
-137.731
-136.319
-135.315
-134.061
-131.934
-127.978
-121.276
-110.959
-95.934
-75.537
-50.001
-20.03
13.479
49.016
84.713
118.29
146.668
166.993
177.303
176.159
162.617
136.65
99.148
52.07
-1.25
-57.059
-111.902
-162.405
-205.544
-239.032
-261.577
-273.093
-274.761
-268.455
-256.258
-240.518
-223.586
-207.525
-193.726
-182.774
-174.638
-168.885
-164.909
-161.965
-159.19
-155.78
-151.333
-145.861
-139.565
-132.779
-125.836
-119.025
-112.722
-107.314
-102.993
-99.785
-97.609
-96.295
-95.7
-95.722
-96.21
-96.992
-97.904
-98.787
-99.547
-100.148
-100.55
-100.718
-100.606
-100.161
-99.362
-98.215
-96.735
-94.943
-92.863
-90.512
-87.933
-85.19
-82.352
-79.498
-76.679
-73.921
-71.247
-68.673
-66.215
-63.893
-61.709
-59.652
-57.713
-55.88
-54.145
-52.504
-50.937
-49.416
-47.911
-46.389
-44.826
-43.207
-41.519
-39.747
-37.882
-35.917
-33.847
-31.675
-29.4
-27.021
-24.535
-21.94
-19.236
-16.428
-13.52
-10.519
-7.428
-4.255
-1.004
2.317
5.701
9.142
12.633
16.17
19.744
23.347
26.97
30.604
34.237
37.861
41.465
45.039
48.573
52.057
55.482
58.84
62.123
65.323
68.435
71.452
74.369
77.182
79.887
82.483
84.966
87.338
89.597
91.745
93.784
95.718
97.55
99.285
100.928
102.486
103.966
105.375
106.721
108.012
109.258
110.468
111.652
112.819
113.982
115.149
116.333
117.542
118.789
120.083
121.435
122.853
124.347
125.927
127.6
129.374
131.257
133.255
135.374
137.62
139.998
142.511
145.162
147.954
150.889
153.967
157.189
160.554
164.061
167.709
171.495
175.418
179.473
183.656
187.965
192.393
196.936
201.588
206.344
211.196
216.139
221.166
226.271
231.446
236.685
241.981
247.327
252.718
258.145
263.603
269.086
274.588
280.103
285.627
291.154
296.679
302.2
307.713
313.214
318.7
324.169
329.619
335.047
340.453
345.834
351.191
356.521
361.826
367.105
372.358
377.586
382.79
387.972
393.131
398.27
403.389
408.49
413.574
418.643
423.698
428.741
433.773
438.795
443.809
448.815
453.815
458.809
463.797
468.779
473.755
478.725
483.688
488.643
493.59
498.528
503.456
508.372
513.277
518.169
523.045
527.904
532.744
537.563
542.359
547.129
551.873
556.587
561.27
565.921
570.539
575.122
579.67
584.182
588.656
593.093
597.491
601.851
606.174
610.46
614.711
618.928
623.115
627.274
631.407
635.518
639.61
643.687
647.752
651.806
655.853
659.897
663.942
667.991
672.048
676.119
680.209
684.325
688.473
692.659
696.885
701.157
705.476
709.846
714.268
718.742
723.27
727.852
732.492
737.198
741.972
746.811
751.711
756.66
761.648
766.667
771.707
776.749
781.785
786.806
791.811
796.812
801.811
806.805
811.786
816.73
821.624
826.464
831.251
835.992
840.695
845.366
850.027
854.716
859.461
864.279
869.165
874.093
879.044
884.018
889.021
894.074
899.193
904.377
909.624
914.933
920.295
925.695
931.094
936.423
941.617
946.638
951.47
956.129
960.623
964.934
969.042
972.923
976.555
979.926
983.023
985.821
988.304
990.477
992.367
994.03
995.52
996.868
998.091
999.197
1000.212
1001.185
1002.155
1003.151
1004.208
1005.372
1006.714
1008.324
1010.249
1012.549
1015.345
1018.79
1023.098
1028.491
1035.095
1042.928
1052.034
1062.317
1073.423
1084.892
1096.044
1106.038
1114.194
1120.198
1123.792
1124.82
1123.815
1121.52
1118.519
1116.996
1119.219
1125.256
1136.233
1149.615
1158.629
1162.023
1158.024
1149.55
1151.184
1162.813
1168.872
1175.901
1196.635
1165.778
983.067
692.878
447.417
293.702
166.274
35.644
-63.135
-111.32
-124.847
-118.086
-100.605
-89.673
-107.564
-165.078
-259.186
-378.283
-500.3
-606.498
-690.556
-751.675
-795.211
-829.04
-854.272
-870.249
-877.174
-872.842
-858.338
-836.891
-810.431
-782.696
-757.254
-736.068
-720.567
-710.953
-706.423
-705.952
-708.592
-713.249
-718.55
-723.323
-726.864
-728.858
-729.481
-729.257
-728.608
-728.016
-728.146
-729.426
-732.023
-735.958
-741.011
-746.843
-753.17
-759.647
-765.845
-771.479
-776.366
-780.378
-783.491
-785.682
-786.906
-787.183
-786.584
-785.175
-783.038
-780.25
-776.867
-772.974
-768.674
-764.066
-759.251
-754.314
-749.318
-744.331
-739.42
-734.647
-730.069
-725.715
-721.587
-717.674
-713.953
-710.394
-706.962
-703.612
-700.293
-696.955
-693.554
-690.051
-686.413
-682.607
-678.605
-674.38
-669.91
-665.185
-660.209
-654.99
-649.549
-643.907
-638.088
-632.119
-626.026
-619.835
-613.569
-607.25
-600.902
-594.543
-588.186
-581.841
-575.514
-569.209
-562.928
-556.667
-550.416
-544.169
-537.927
-531.698
-525.502
-519.357
-513.287
-507.32
-501.479
-495.804
-490.338
-485.13
-480.234
-475.703
-471.585
-467.938
-464.826
-462.298
-460.395
-459.145
-458.56
-458.651
-459.425
-460.882
-463.018
-465.824
-469.275
-473.338
-477.977
-483.147
-488.802
-494.885
-501.328
-508.068
-515.047
-522.203
-529.485
-536.836
-544.188
-551.475
-558.627
-565.564
-572.221
-578.537
-584.452
-589.922
-594.908
-599.374
-603.304
-606.683
-609.5
-611.757
-613.459
-614.615
-615.256
-615.421
-615.16
-614.544
-613.634
-612.486
-611.161
-609.704
-608.156
-606.558
-604.94
-603.321
-601.723
-600.155
-598.626
-597.144
-595.701
-594.284
-592.871
-591.425
-589.916
-588.325
-586.63
-584.819
-582.884
-580.819
-578.626
-576.314
-573.891
-571.366
-568.751
-566.054
-563.287
-560.468
-557.613
-554.748
-551.889
-549.051
-546.242
-543.471
-540.74
-538.052
-535.404
-532.789
-530.2
-527.634
-525.083
-522.545
-520.015
-517.484
-514.946
-512.395
-509.822
-507.222
-504.59
-501.92
-499.207
-496.447
-493.635
-490.77
-487.847
-484.865
-481.817
-478.701
-475.514
-472.251
-468.911
-465.491
-461.99
-458.407
-454.744
-451
-447.178
-443.28
-439.309
-435.267
-431.159
-426.988
-422.759
-418.476
-414.143
-409.767
-405.353
-400.906
-396.432
-391.936
-387.425
-382.904
-378.379
-373.856
-369.341
-364.839
-360.357
-355.901
-351.477
-347.091
-342.747
-338.45
-334.206
-330.016
-325.883
-321.809
-317.793
-313.836
-309.938
-306.097
-302.312
-298.582
-294.904
-291.277
-287.7
-284.167
-280.673
-277.214
-273.781
-270.368
-266.967
-263.57
-260.167
-256.75
-253.311
-249.843
-246.342
-242.797
-239.198
-235.533
-231.792
-227.969
-224.059
-220.059
-215.964
-211.777
-207.504
-203.159
-198.755
-194.3
-189.795
-185.235
-180.617
-175.941
-171.207
-166.415
-161.557
-156.624
-151.612
-146.519
-141.345
-136.083
-130.713
-125.202
-119.526
-113.676
-107.662
-101.504
-95.22
-88.838
-82.388
-75.915
-69.48
-63.139
-56.936
-50.907
-45.086
-39.519
-34.267
-29.402
-24.982
-21.04
-17.595
-14.65
-12.211
-10.27
-8.798
-7.747
-7.051
-6.648
-6.493
-6.544
-6.753
-7.061
-7.395
-7.681
-7.86
-7.889
-7.73
-7.348
-6.711
-5.793
-4.592
-3.127
-1.423
0.498
2.619
4.911
7.318
9.776
12.22
14.595
16.87
19.016
20.983
22.721
24.179
25.303
26.079
26.48
26.428
25.932
25.084
24.067
23.243
22.96
23.44
24.982
27.926
32.31
38.007
44.626
51.293
57.326
62.332
65.729
67.083
66.565
64.643
62.403
61.785
64.376
71.486
84.797
105.615
134.473
171.405
215.313
263.826
314.547
364.749
410.795
449.062
476.249
489.4
486.689
467.585
432.15
381.568
318.561
246.716
170.203
93.499
20.824
-44.101
-98.004
-138.644
-165.197
-177.962
-178.172
-167.69
-148.928
-124.673
-97.874
-71.206
-46.694
-25.771
-9.314
2.176
8.777
11.162
10.428
7.861
4.645
1.85
0.286
0.595
3.118
7.78
14.174
21.685
29.618
37.249
44.071
49.732
54.004
56.87
58.448
58.944
58.676
58.011
57.17
56.274
55.396
54.536
53.73
53.022
52.408
51.862
51.389
51.017
50.803
50.823
51.106
51.642
52.419
53.409
54.607
56.022
57.65
59.48
61.493
63.672
66.009
68.506
71.147
73.906
76.749
79.634
82.541
85.464
88.401
91.353
94.319
97.293
100.278
103.28
106.302
109.346
112.407
115.478
118.557
121.649
124.761
127.901
131.072
134.268
137.484
140.712
143.939
147.157
150.348
153.494
156.581
159.595
162.523
165.357
168.083
170.689
173.162
175.491
177.664
179.671
181.503
183.152
184.613
185.881
186.952
187.827
188.505
188.986
189.272
189.364
189.267
188.984
188.522
187.886
187.083
186.124
185.017
183.773
182.404
180.921
179.337
177.664
175.914
174.102
172.238
170.337
168.41
166.469
164.528
162.597
160.689
158.813
156.982
155.204
153.488
151.843
150.277
148.795
147.405
146.11
144.915
143.824
142.839
141.961
141.19
140.528
139.972
139.521
139.171
138.921
138.764
138.697
138.715
138.813
138.984
139.223
139.524
139.879
140.284
140.731
141.214
141.725
142.259
142.808
143.367
143.93
144.489
145.041
145.579
146.099
146.596
147.065
147.504
147.907
148.274
148.6
148.885
149.126
149.324
149.477
149.586
149.651
149.673
149.653
149.594
149.497
149.363
149.196
148.998
148.771
148.52
148.246
147.954
147.647
147.329
147.002
146.672
146.341
146.012
145.69
145.376
145.075
144.788
144.519
144.269
144.041
143.837
143.656
143.5
143.369
143.262
143.18
143.121
143.084
143.067
143.068
143.087
143.119
143.163
143.217
143.276
143.338
143.4
143.458
143.507
143.545
143.566
143.568
143.545
143.495
143.413
143.295
143.139
142.94
142.697
142.407
142.067
141.677
141.236
140.745
140.206
139.619
138.987
138.313
137.6
136.852
136.072
135.264
134.43
133.575
132.706
131.827
130.946
130.068
129.202
128.357
127.54
126.762
126.032
125.356
124.744
124.206
123.752
123.395
123.144
123.006
122.985
123.085
123.305
123.644
124.093
124.64
125.275
125.988
126.771
127.62
128.526
129.481
130.479
131.513
132.579
133.683
134.831
136.033
137.309
138.678
140.164
141.802
143.611
145.604
147.789
150.16
152.713
155.438
158.311
161.307
164.391
167.513
170.618
173.642
176.501
179.113
181.398
183.263
184.64
185.472
185.711
185.329
184.305
182.625
180.296
177.331
173.753
169.604
164.936
159.814
154.335
148.594
142.687
136.72
130.779
124.94
119.272
113.826
108.651
103.787
99.268
95.12
91.364
88.01
85.059
82.496
80.274
78.33
76.59
74.972
73.414
71.871
70.293
68.627
66.822
64.815
62.552
60.002
57.11
53.784
50
45.822
41.424
37.153
33.361
30.312
28.308
27.693
28.61
30.989
34.474
38.253
41.528
43.765
44.406
42.978
39.471
34.31
28.505
23.95
22.668
26.397
36.975
56.002
84.359
122.227
168.793
221.808
278.294
334.937
387.714
432.469
465.467
483.468
484.216
466.945
432.081
381.209
317.469
244.945
168.154
91.815
20.296
-42.65
-93.968
-131.696
-155.443
-166.068
-165.328
-155.459
-138.769
-117.872
-95.553
-74.274
-55.736
-40.715
-29.262
-21.27
-16.696
-14.994
-15.176
-16.065
-16.541
-16.1
-14.745
-12.422
-8.943
-4.402
0.853
6.195
10.804
14.269
16.537
17.557
17.27
15.684
12.882
9.151
4.956
0.607
-3.736
-7.956
-11.972
-15.659
-18.883
-21.589
-23.795
-25.529
-26.804
-27.614
-27.943
-27.809
-27.261
-26.359
-25.166
-23.731
-22.096
-20.31
-18.426
-16.515
-14.628
-12.798
-11.041
-9.361
-7.762
-6.249
-4.82
-3.458
-2.145
-0.86
0.415
1.69
2.979
4.296
5.659
7.091
8.606
10.211
11.909
13.699
15.58
17.551
19.604
21.727
23.908
26.137
28.405
30.705
33.026
35.357
37.686
40.001
42.29
44.541
46.745
48.888
50.96
52.95
54.849
56.648
58.338
59.91
61.355
62.664
63.829
64.843
65.7
66.392
66.915
67.266
67.44
67.437
67.255
66.895
66.358
65.645
64.76
63.706
62.488
61.111
59.582
57.909
56.097
54.157
52.096
49.925
47.652
45.288
42.844
40.329
37.754
35.131
32.469
29.78
27.073
24.358
21.645
18.944
16.263
13.61
10.993
8.42
5.897
3.43
1.024
-1.316
-3.586
-5.783
-7.903
-9.946
-11.909
-13.791
-15.592
-17.313
-18.954
-20.517
-22.003
-23.414
-24.753
-26.022
-27.225
-28.365
-29.447
-30.473
-31.448
-32.377
-33.263
-34.11
-34.924
-35.707
-36.465
-37.2
-37.917
-38.619
-39.31
-39.993
-40.671
-41.348
-42.027
-42.709
-43.397
-44.092
-44.798
-45.515
-46.244
-46.987
-47.744
-48.516
-49.304
-50.107
-50.926
-51.76
-52.61
-53.473
-54.35
-55.239
-56.139
-57.048
-57.966
-58.891
-59.822
-60.756
-61.694
-62.633
-63.571
-64.507
-65.441
-66.369
-67.29
-68.203
-69.106
-69.998
-70.877
-71.743
-72.593
-73.428
-74.245
-75.043
-75.823
-76.582
-77.32
-78.035
-78.728
-79.397
-80.043
-80.663
-81.26
-81.831
-82.378
-82.899
-83.395
-83.866
-84.311
-84.729
-85.122
-85.487
-85.825
-86.136
-86.42
-86.675
-86.901
-87.099
-87.267
-87.404
-87.511
-87.585
-87.626
-87.632
-87.604
-87.539
-87.436
-87.295
-87.113
-86.891
-86.627
-86.319
-85.967
-85.57
-85.126
-84.634
-84.094
-83.505
-82.867
-82.178
-81.44
-80.652
-79.816
-78.932
-78.001
-77.024
-76.004
-74.943
-73.843
-72.708
-71.54
-70.344
-69.125
-67.887
-66.636
-65.378
-64.119
-62.866
-61.626
-60.409
-59.221
-58.072
-56.97
-55.924
-54.944
-54.037
-53.212
-52.475
-51.835
-51.298
-50.871
-50.562
-50.379
-50.326
-50.409
-50.632
-51
-51.512
-52.169
-52.966
-53.901
-54.971
-56.18
-57.527
-59.01
-60.625
-62.365
-64.221
-66.179
-68.222
-70.327
-72.469
-74.627
-76.779
-78.914
-81.015
-83.068
-85.048
-86.929
-88.68
-90.277
-91.701
-92.934
-93.968
-94.816
-95.497
-96.051
-96.517
-96.916
-97.279
-97.638
-98.03
-98.504
-99.112
-99.893
-100.923
-102.311
-104.097
-106.252
-108.644
-111.01
-113.115
-114.793
-115.831
-115.952
-114.989
-112.982
-110.298
-107.631
-105.552
-104.338
-104.161
-105.271
-107.875
-111.779
-116.138
-119.463
-120.263
-117.504
-110.401
-97.988
-79.13
-53.163
-20.325
18.076
60.211
104.349
148.616
190.448
226.585
253.75
269.285
271.561
259.675
233.118
192.165
138.383
74.704
4.899
-67.138
-137.702
-203.09
-259.789
-304.959
-336.951
-355.616
-361.852
-356.979
-342.865
-322.153
-297.849
-273.015
-250.168
-230.676
-215.268
-204.555
-198.587
-196.668
-197.624
-199.773
-201.505
-202.034
-200.925
-197.689
-192.168
-184.516
-175.137
-164.929
-154.879
-145.464
-136.923
-129.461
-123.094
-117.82
-113.601
-110.138
-107.063
-104.187
-101.414
-98.73
-96.213
-93.885
-91.738
-89.819
-88.184
-86.889
-86
-85.534
-85.472
-85.809
-86.53
-87.621
-89.077
-90.853
-92.874
-95.065
-97.339
-99.616
-101.83
-103.895
-105.715
-107.194
-108.231
-108.752
-108.713
-108.075
-106.811
-104.911
-102.373
-99.227
-95.541
-91.374
-86.787
-81.851
-76.63
-71.214
-65.714
-60.226
-54.844
-49.644
-44.682
-40.011
-35.68
-31.718
-28.144
-24.96
-22.145
-19.688
-17.58
-15.803
-14.334
-13.14
-12.167
-11.379
-10.746
-10.247
-9.867
-9.594
-9.415
-9.33
-9.345
-9.47
-9.718
-10.097
-10.61
-11.265
-12.072
-13.043
-14.193
-15.529
-17.051
-18.757
-20.642
-22.698
-24.913
-27.275
-29.762
-32.355
-35.037
-37.787
-40.588
-43.418
-46.255
-49.079
-51.868
-54.602
-57.263
-59.831
-62.29
-64.625
-66.821
-68.863
-70.734
-72.417
-73.897
-75.169
-76.228
-77.071
-77.693
-78.092
-78.27
-78.231
-77.979
-77.512
-76.82
-75.894
-74.73
-73.335
-71.722
-69.906
-67.892
-65.68
-63.267
-60.658
-57.858
-54.868
-51.683
-48.289
-44.688
-40.903
-36.977
-32.952
-28.857
-24.712
-20.527
-16.318
-12.109
-7.927
-3.798
0.263
4.237
8.096
11.8
15.303
18.58
21.638
24.507
27.215
29.776
32.196
34.479
36.634
38.677
40.619
42.467
44.218
45.882
47.474
49.028
50.579
52.146
53.722
55.288
56.826
58.33
59.798
61.227
62.61
63.94
65.217
66.452
67.655
68.831
69.977
71.081
72.131
73.125
74.067
74.97
75.842
76.689
77.514
78.322
79.122
79.918
80.71
81.492
82.256
83.001
83.725
84.429
85.115
85.78
86.421
87.035
87.62
88.173
88.69
89.167
89.599
89.983
90.317
90.6
90.832
91.014
91.145
91.225
91.258
91.244
91.187
91.088
90.948
90.77
90.556
90.31
90.034
89.73
89.401
89.053
88.69
88.319
87.947
87.578
87.22
86.88
86.566
86.285
86.041
85.84
85.687
85.591
85.563
85.61
85.737
85.945
86.237
86.61
87.063
87.588
88.17
88.795
89.449
90.126
90.83
91.56
92.317
93.099
93.903
94.733
95.605
96.528
97.509
98.555
99.672
100.882
102.218
103.71
105.375
107.219
109.225
111.379
113.668
116.064
118.535
121.033
123.49
125.853
128.082
130.135
131.972
133.539
134.762
135.586
135.97
135.887
135.329
134.29
132.767
130.781
128.372
125.601
122.551
119.295
115.894
112.412
108.91
105.457
102.133
99.001
96.111
93.512
91.249
89.361
87.882
86.819
86.163
85.878
85.898
86.158
86.582
87.099
87.654
88.183
88.615
88.888
88.942
88.707
88.134
87.144
85.642
83.623
81.169
78.449
75.758
73.359
71.435
70.25
70.118
71.118
73.139
75.839
78.588
80.988
82.945
84.262
84.683
84.331
83.632
83.492
85.327
90.158
98.647
111.587
129.697
153.581
183.612
219.104
258.777
300.613
341.239
378.682
411.733
439.992
465.698
486.524
495.916
487.671
454.096
395.855
322.743
244.008
169.838
105.312
48.648
0.036
-39.813
-70.08
-88.447
-94.968
-91.693
-80.555
-63.872
-44.262
-24.042
-5.055
11.358
24.693
35.178
42.901
47.811
50.511
51.907
52.829
54.178
56.333
59.151
62.719
67.27
72.631
78.442
84.197
89.152
92.943
95.555
96.89
96.852
95.458
92.792
89.124
84.907
80.438
75.868
71.339
66.955
62.864
59.218
56.077
53.432
51.266
49.578
48.38
47.693
47.499
47.746
48.373
49.318
50.532
51.969
53.577
55.292
57.037
58.751
60.402
61.968
63.44
64.81
66.068
67.218
68.279
69.275
70.231
71.164
72.081
72.99
73.899
74.82
75.768
76.746
77.752
78.785
79.849
80.951
82.103
83.301
84.532
85.779
87.026
88.267
89.502
90.729
91.955
93.183
94.419
95.684
96.988
98.324
99.672
100.993
102.24
103.381
104.391
105.254
105.954
106.47
106.776
106.854
106.675
106.213
105.432
104.283
102.728
100.759
98.381
95.628
92.551
89.185
85.559
81.702
77.635
73.385
68.978
64.431
59.767
55.014
50.209
45.404
40.645
35.958
31.353
26.826
22.356
17.935
13.56
9.22
4.918
0.655
-3.568
-7.736
-11.835
-15.86
-19.81
-23.693
-27.517
-31.281
-34.976
-38.591
-42.106
-45.51
-48.79
-51.934
-54.931
-57.777
-60.468
-63.009
-65.407
-67.663
-69.781
-71.762
-73.605
-75.312
-76.889
-78.339
-79.669
-80.885
-81.993
-82.999
-83.912
-84.737
-85.479
-86.14
-86.725
-87.236
-87.677
-88.051
-88.363
-88.617
-88.817
-88.967
-89.072
-89.136
-89.163
-89.157
-89.12
-89.056
-88.967
-88.856
-88.725
-88.577
-88.414
-88.237
-88.048
-87.848
-87.638
-87.42
-87.195
-86.963
-86.725
-86.483
-86.237
-85.989
-85.739
-85.489
-85.241
-84.996
-84.755
-84.52
-84.293
-84.075
-83.867
-83.669
-83.483
-83.309
-83.148
-83
-82.866
-82.747
-82.643
-82.555
-82.483
-82.428
-82.391
-82.371
-82.37
-82.389
-82.427
-82.487
-82.567
-82.671
-82.798
-82.95
-83.125
-83.326
-83.55
-83.798
-84.069
-84.36
-84.669
-84.994
-85.334
-85.686
-86.05
-86.423
-86.805
-87.195
-87.593
-87.997
-88.407
-88.819
-89.229
-89.635
-90.033
-90.419
-90.789
-91.138
-91.463
-91.762
-92.034
-92.275
-92.48
-92.641
-92.752
-92.812
-92.821
-92.781
-92.695
-92.566
-92.407
-92.234
-92.062
-91.908
-91.776
-91.664
-91.569
-91.49
-91.425
-91.378
-91.34
-91.295
-91.231
-91.138
-91.004
-90.817
-90.552
-90.165
-89.623
-88.901
-87.993
-86.913
-85.675
-84.294
-82.797
-81.216
-79.598
-78.009
-76.501
-75.11
-73.882
-72.855
-72.091
-71.671
-71.653
-72.081
-72.98
-74.353
-76.2
-78.517
-81.276
-84.429
-87.913
-91.646
-95.564
-99.613
-103.729
-107.845
-111.884
-115.756
-119.392
-122.743
-125.763
-128.415
-130.67
-132.502
-133.914
-134.935
-135.593
-135.93
-135.989
-135.812
-135.472
-135.054
-134.633
-134.285
-134.066
-134.002
-134.144
-134.549
-135.255
-136.313
-137.736
-139.493
-141.602
-144.091
-146.886
-149.854
-152.728
-155.088
-156.627
-157.117
-156.269
-153.894
-149.967
-144.581
-138.225
-131.673
-125.495
-120.188
-116.207
-113.62
-112.232
-111.587
-110.51
-107.448
-101.092
-90.093
-73.021
-49.176
-18.488
18.826
60.357
103.026
145.282
184.195
218.52
247.514
265.447
268.383
252.095
213.5
158.445
91.573
18.411
-55.579
-131.206
-203.597
-267.307
-317.65
-347.719
-359.611
-357.271
-343.966
-325.276
-301.685
-273.655
-243.603
-212.504
-182.894
-157.233
-136.547
-121.507
-111.739
-106.208
-103.88
-103.822
-105.294
-107.362
-108.793
-108.833
-107.233
-104.081
-99.847
-94.935
-89.593
-84.325
-79.873
-76.688
-74.952
-74.637
-75.439
-77.087
-79.407
-82.101
-84.775
-87.139
-89
-90.266
-90.978
-91.164
-90.82
-89.975
-88.674
-86.968
-84.918
-82.575
-79.969
-77.145
-74.159
-71.071
-67.958
-64.882
-61.883
-58.989
-56.213
-53.558
-51.028
-48.619
-46.319
-44.107
-41.961
-39.86
-37.787
-35.721
-33.639
-31.517
-29.322
-27.035
-24.642
-22.137
-19.517
-16.784
-13.937
-10.984
-7.936
-4.804
-1.599
1.667
4.986
8.347
11.734
15.133
18.528
21.903
25.244
28.537
31.767
34.919
37.978
40.931
43.766
46.468
49.024
51.419
53.64
55.674
57.509
59.133
60.536
61.707
62.64
63.329
63.768
63.954
63.885
63.56
62.981
62.15
61.07
59.747
58.188
56.4
54.394
52.179
49.768
47.174
44.409
41.488
38.427
35.242
31.949
28.564
25.104
21.587
18.03
14.45
10.864
7.289
3.741
0.237
-3.209
-6.583
-9.869
-13.057
-16.134
-19.089
-21.913
-24.596
-27.133
-29.515
-31.737
-33.795
-35.686
-37.407
-38.957
-40.335
-41.542
-42.58
-43.45
-44.155
-44.698
-45.085
-45.32
-45.407
-45.351
-45.16
-44.838
-44.391
-43.826
-43.149
-42.365
-41.481
-40.502
-39.435
-38.283
-37.053
-35.749
-34.375
-32.937
-31.437
-29.879
-28.267
-26.604
-24.893
-23.135
-21.335
-19.493
-17.611
-15.692
-13.737
-11.746
-9.723
-7.667
-5.58
-3.463
-1.318
0.855
3.054
5.277
7.521
9.785
12.067
14.362
16.667
18.98
21.295
23.61
25.92
28.22
30.507
32.775
35.019
37.235
39.418
41.562
43.663
45.716
47.716
49.659
51.539
53.353
55.096
56.765
58.354
59.862
61.283
62.616
63.856
65.001
66.049
67
67.851
68.604
69.258
69.816
70.279
70.65
70.933
71.129
71.242
71.276
71.234
71.119
70.933
70.68
70.365
69.991
69.565
69.093
68.58
68.034
67.459
66.864
66.253
65.63
64.998
64.361
63.723
63.09
62.47
61.869
61.287
60.725
60.183
59.655
59.136
58.612
58.062
57.473
56.835
56.145
55.406
54.622
53.791
52.916
51.997
51.038
50.046
49.023
47.966
46.881
45.781
44.69
43.65
42.682
41.791
40.975
40.219
39.5
38.8
38.082
37.301
36.418
35.396
34.208
32.838
31.26
29.436
27.32
24.853
21.996
18.734
15.057
10.966
6.478
1.619
-3.564
-8.998
-14.624
-20.386
-26.234
-32.126
-38.009
-43.819
-49.497
-54.979
-60.206
-65.136
-69.724
-73.924
-77.712
-81.082
-84.043
-86.622
-88.853
-90.771
-92.421
-93.862
-95.14
-96.293
-97.364
-98.397
-99.447
-100.575
-101.846
-103.306
-105.014
-107.042
-109.387
-111.969
-114.623
-117.069
-119.05
-120.382
-120.826
-120.101
-118.157
-115.145
-111.437
-107.696
-104.39
-101.701
-99.947
-99.493
-100.25
-101.747
-103.022
-102.591
-99.309
-92.408
-80.839
-63.5
-39.816
-9.762
25.804
65.229
106.901
149.009
188.962
223.891
251.011
267.631
272.052
263.343
240.621
205.249
159.94
106.33
47.7
-14.292
-78.818
-139.254
-190.15
-226.387
-243.06
-244.065
-233.913
-216.583
-197.376
-176.529
-154.619
-133.347
-112.868
-95.017
-80.974
-70.54
-64.024
-60.603
-58.832
-57.898
-56.9
-55.27
-53.06
-50.106
-46.07
-41.099
-35.575
-29.953
-24.919
-20.8
-17.556
-15.247
-13.939
-13.573
-14.032
-15.023
-16.099
-17.008
-17.656
-17.971
-17.929
-17.467
-16.506
-15.053
-13.171
-10.914
-8.321
-5.403
-2.165
1.349
5.065
8.898
12.771
16.644
20.492
24.295
28.035
31.684
35.229
38.675
42.033
45.31
48.514
51.646
54.714
57.742
60.758
63.794
66.878
70.024
73.243
76.544
79.935
83.42
87
90.669
94.42
98.252
102.161
106.147
110.206
114.329
118.506
122.728
126.983
131.262
135.554
139.848
144.133
148.398
152.634
156.832
160.98
165.067
169.082
173.011
176.842
180.563
184.161
187.624
190.94
194.098
197.088
199.9
202.525
204.955
207.183
209.202
211.008
212.596
213.963
215.107
216.027
216.723
217.196
217.451
217.489
217.317
216.941
216.366
215.602
214.656
213.538
212.257
210.824
209.25
207.545
205.723
203.794
201.772
199.668
197.497
195.27
193
190.699
188.379
186.053
183.73
181.422
179.139
176.889
174.683
172.527
170.429
168.396
166.432
164.543
162.733
161.003
159.357
157.795
156.317
154.923
153.613
152.384
151.235
150.163
149.164
148.235
147.371
146.569
145.824
145.129
144.48
143.87
143.294
142.746
142.221
141.711
141.211
140.716
140.221
139.719
139.207
138.679
138.132
137.561
136.963
136.336
135.675
134.981
134.25
133.482
132.676
131.833
130.951
130.031
129.075
128.082
127.055
125.995
124.904
123.784
122.637
121.466
120.274
119.064
117.838
116.6
115.352
114.098
112.84
111.581
110.323
109.069
107.819
106.576
105.341
104.115
102.899
101.694
100.501
99.319
98.149
96.99
95.843
94.707
93.582
92.465
91.358
90.258
89.164
88.075
86.991
85.908
84.826
83.743
82.658
81.569
80.474
79.371
78.26
77.139
76.009
74.868
73.719
72.562
71.399
70.234
69.069
67.907
66.752
65.607
64.476
63.362
62.268
61.197
60.152
59.138
58.16
57.223
56.333
55.495
54.715
54.001
53.358
52.794
52.313
51.919
51.618
51.418
51.326
51.348
51.488
51.746
52.12
52.607
53.202
53.895
54.67
55.511
56.402
57.331
58.293
59.282
60.293
61.319
62.352
63.39
64.439
65.513
66.617
67.762
68.958
70.217
71.571
73.042
74.644
76.387
78.258
80.239
82.313
84.458
86.644
88.833
90.967
92.977
94.81
96.414
97.738
98.727
99.307
99.414
99.004
98.043
96.525
94.453
91.828
88.658
84.97
80.804
76.223
71.305
66.109
60.694
55.125
49.469
43.816
38.252
32.838
27.623
22.643
17.928
13.512
9.432
5.699
2.317
-0.729
-3.466
-5.915
-8.109
-10.091
-11.92
-13.664
-15.383
-17.132
-18.97
-20.951
-23.139
-25.6
-28.381
-31.546
-35.174
-39.265
-43.74
-48.45
-53.132
-57.56
-61.587
-64.979
-67.452
-68.942
-69.558
-69.626
-69.739
-70.273
-71.326
-73.128
-75.968
-79.747
-84.05
-88.02
-90.347
-90.051
-86.492
-78.804
-66.029
-47.593
-23.408
5.855
38.841
74.155
110.163
144.637
174.966
198.186
211.443
212.784
200.636
174.813
137.265
89.046
31.133
-35.682
-112.669
-195.495
-274.792
-341.521
-385.175
-403.618
-403.805
-392.145
-376.491
-360.431
-341.469
-319.47
-295.198
-270.318
-248.906
-233.213
-223.439
-219.345
-219.804
-223.443
-229.2
-235.92
-242.213
-247.047
-250.038
-251.096
-250.431
-248.551
-245.932
-243.11
-240.842
-239.663
-239.764
-241.197
-243.817
-247.35
-251.569
-256.196
-260.866
-265.326
-269.425
-273.047
-276.163
-278.777
-280.885
-282.534
-283.795
-284.713
-285.326
-285.667
-285.755
-285.616
-285.287
-284.783
-284.104
-283.239
-282.173
-280.892
-279.389
-277.642
-275.602
-273.21
-270.405
-267.138
-263.368
-259.061
-254.185
-248.725
-242.678
-236.056
-228.896
-221.244
-213.157
-204.701
-195.933
-186.909
-177.699
-168.374
-159.004
-149.651
-140.365
-131.187
-122.156
-113.302
-104.645
-96.195
-87.95
-79.897
-72.019
-64.289
-56.693
-49.22
-41.86
-34.603
-27.446
-20.387
-13.433
-6.597
0.107
6.668
13.068
19.292
25.315
31.113
36.659
41.927
46.894
51.545
55.866
59.848
63.484
66.772
69.713
72.312
74.576
76.509
78.117
79.408
80.39
81.075
81.474
81.6
81.465
81.08
80.46
79.615
78.558
77.3
75.855
74.233
72.446
70.507
68.429
66.225
63.909
61.492
58.987
56.406
53.761
51.062
48.32
45.543
42.739
39.918
37.087
34.252
31.419
28.594
25.783
22.989
20.216
17.469
14.749
12.061
9.404
6.783
4.197
1.649
-0.862
-3.334
-5.767
-8.161
-10.517
-12.834
-15.114
-17.356
-19.563
-21.734
-23.871
-25.975
-28.046
-30.087
-32.096
-34.076
-36.028
-37.951
-39.846
-41.715
-43.557
-45.374
-47.164
-48.929
-50.668
-52.382
-54.07
-55.733
-57.369
-58.98
-60.564
-62.121
-63.651
-65.155
-66.631
-68.08
-69.503
-70.898
-72.266
-73.607
-74.922
-76.21
-77.472
-78.708
-79.918
-81.103
-82.262
-83.396
-84.505
-85.588
-86.646
-87.678
-88.684
-89.665
-90.619
-91.546
-92.447
-93.32
-94.166
-94.984
-95.774
-96.535
-97.267
-97.969
-98.64
-99.279
-99.886
-100.458
-100.995
-101.494
-101.955
-102.375
-102.752
-103.084
-103.37
-103.606
-103.791
-103.921
-103.996
-104.012
-103.968
-103.861
-103.691
-103.454
-103.149
-102.776
-102.331
-101.815
-101.226
-100.563
-99.824
-99.01
-98.12
-97.154
-96.111
-94.992
-93.798
-92.53
-91.189
-89.777
-88.296
-86.748
-85.136
-83.463
-81.734
-79.952
-78.123
-76.252
-74.344
-72.406
-70.444
-68.466
-66.477
-64.485
-62.499
-60.525
-58.573
-56.65
-54.767
-52.931
-51.153
-49.442
-47.808
-46.26
-44.808
-43.462
-42.231
-41.124
-40.151
-39.321
-38.645
-38.132
-37.791
-37.632
-37.664
-37.894
-38.329
-38.974
-39.832
-40.907
-42.197
-43.707
-45.434
-47.38
-49.543
-51.918
-54.502
-57.289
-60.272
-63.44
-66.782
-70.283
-73.93
-77.714
-81.625
-85.657
-89.801
-94.046
-98.375
-102.774
-107.225
-111.708
-116.196
-120.656
-125.058
-129.378
-133.588
-137.67
-141.598
-145.336
-148.852
-152.113
-155.085
-157.749
-160.099
-162.125
-163.832
-165.234
-166.342
-167.199
-167.86
-168.377
-168.81
-169.216
-169.639
-170.166
-170.919
-171.95
-173.249
-174.704
-176.076
-177.179
-177.898
-178.06
-177.43
-175.854
-173.365
-170.321
-167.392
-165.119
-163.758
-163.45
-164.388
-166.718
-170.194
-173.954
-176.541
-176.517
-172.895
-164.944
-151.779
-132.386
-106.194
-73.442
-35.344
6.462
50.458
94.959
137.596
175.292
204.87
223.643
229.83
222.258
200.14
163.54
113.878
54.012
-12.269
-80.925
-147.977
-209.397
-261.397
-300.991
-326.499
-337.727
-335.46
-320.966
-296.219
-263.997
-227.38
-189.333
-152.201
-117.465
-86.358
-60.127
-39.274
-23.453
-11.863
-3.385
2.923
7.619
11.5
15.731
20.981
27.4
34.831
42.764
50.793
58.747
66.218
72.544
77.348
80.507
82.084
82.411
81.763
80.304
78.326
76.208
74.231
72.605
71.462
70.797
70.607
70.899
71.619
72.688
74.038
75.604
77.334
79.203
81.182
83.241
85.359
87.517
89.694
91.865
93.997
96.068
98.082
100.063
102.06
104.142
106.362
108.761
111.379
114.242
117.362
120.738
124.345
128.142
132.1
136.2
140.433
144.795
149.266
153.812
158.393
162.956
167.456
171.859
176.127
180.231
184.154
187.885
191.437
194.838
198.103
201.238
204.243
207.107
209.823
212.389
214.796
217.041
219.122
221.031
222.77
224.343
225.749
226.991
228.064
228.949
229.632
230.1
230.335
230.327
230.069
229.547
228.763
227.721
226.419
224.864
223.056
220.987
218.645
216.011
213.059
209.783
206.189
202.288
198.113
193.697
189.084
184.328
179.474
174.559
169.623
164.694
159.802
154.989
150.304
145.804
141.561
137.623
134.024
130.79
127.92
125.404
123.217
121.311
119.646
118.192
116.921
115.819
114.874
114.06
113.348
112.707
112.089
111.461
110.798
110.076
109.29
108.446
107.559
106.663
105.791
104.958
104.179
103.456
102.789
102.182
101.638
101.156
100.745
100.413
100.161
99.996
99.917
99.916
99.981
100.091
100.228
100.378
100.534
100.69
100.847
101.002
101.156
101.316
101.484
101.661
101.848
102.045
102.253
102.474
102.712
102.973
103.263
103.586
103.945
104.345
104.786
105.271
105.8
106.37
106.981
107.631
108.32
109.046
109.809
110.607
111.438
112.3
113.193
114.112
115.054
116.015
116.991
117.977
118.968
119.96
120.946
121.921
122.882
123.821
124.734
125.616
126.46
127.263
128.018
128.719
129.362
129.942
130.454
130.895
131.26
131.547
131.755
131.881
131.925
131.886
131.765
131.562
131.278
130.914
130.47
129.948
129.351
128.68
127.939
127.129
126.256
125.325
124.342
123.314
122.245
121.141
120.008
118.85
117.674
116.484
115.284
114.08
112.875
111.678
110.5
109.349
108.224
107.125
106.048
104.986
103.939
102.901
101.859
100.81
99.751
98.686
97.629
96.587
95.561
94.545
93.524
92.493
91.455
90.413
89.375
88.348
87.331
86.339
85.394
84.503
83.66
82.84
81.996
81.096
80.122
79.062
77.913
76.662
75.288
73.772
72.102
70.26
68.232
65.988
63.484
60.7
57.642
54.338
50.844
47.196
43.412
39.514
35.52
31.451
27.339
23.21
19.083
14.986
10.961
7.06
3.35
-0.127
-3.349
-6.315
-9.032
-11.498
-13.693
-15.601
-17.216
-18.534
-19.558
-20.302
-20.775
-21.007
-21.044
-20.927
-20.711
-20.455
-20.202
-19.996
-19.884
-19.897
-20.096
-20.591
-21.392
-22.437
-23.591
-24.578
-25.162
-25.222
-24.534
-22.819
-20.081
-16.456
-12.33
-8.509
-5.537
-3.658
-3.271
-4.624
-7.48
-11.378
-15.297
-17.522
-16.751
-11.892
-1.61
15.008
38.338
68.281
103.775
142.947
183.947
224.378
261.186
291.46
312.414
321.844
318.509
301.592
270.831
227.434
173.816
113.06
48.873
-15.321
-76.364
-130.603
-174.831
-207.368
-227.656
-236.146
-234.206
-223.157
-204.723
-181.766
-157.249
-133.335
-111.756
-93.662
-79.603
-70.232
-65.725
-65.25
-67.652
-71.961
-77.155
-82.332
-86.888
-90.119
-91.633
-91.612
-90.464
-88.636
-86.674
-85.123
-84.33
-84.613
-86.129
-88.762
-92.294
-96.44
-100.876
-105.287
-109.471
-113.288
-116.627
-119.467
-121.805
-123.653
-125.062
-126.085
-126.753
-127.086
-127.123
-126.898
-126.474
-125.937
-125.339
-124.721
-124.116
-123.543
-123.026
-122.587
-122.231
-121.948
-121.733
-121.579
-121.483
-121.446
-121.452
-121.478
-121.498
-121.483
-121.412
-121.27
-121.046
-120.729
-120.316
-119.803
-119.193
-118.494
-117.709
-116.841
-115.892
-114.861
-113.755
-112.579
-111.34
-110.045
-108.701
-107.316
-105.896
-104.45
-102.982
-101.499
-100.006
-98.505
-97.004
-95.506
-94.019
-92.548
-91.098
-89.676
-88.287
-86.935
-85.627
-84.366
-83.154
-81.996
-80.893
-79.847
-78.861
-77.935
-77.07
-76.267
-75.526
-74.846
-74.227
-73.667
-73.165
-72.72
-72.328
-71.987
-71.695
-71.447
-71.242
-71.074
-70.941
-70.84
-70.767
-70.718
-70.69
-70.681
-70.687
-70.705
-70.734
-70.77
-70.811
-70.856
-70.903
-70.952
-71.001
-71.05
-71.098
-71.145
-71.19
-71.234
-71.277
-71.319
-71.361
-71.402
-71.444
-71.486
-71.531
-71.579
-71.631
-71.687
-71.751
-71.821
-71.899
-71.987
-72.085
-72.193
-72.312
-72.443
-72.585
-72.739
-72.903
-73.078
-73.263
-73.457
-73.659
-73.868
-74.082
-74.3
-74.52
-74.742
-74.964
-75.184
-75.401
-75.613
-75.82
-76.019
-76.21
-76.39
-76.56
-76.717
-76.86
-76.989
-77.101
-77.197
-77.275
-77.334
-77.375
-77.397
-77.399
-77.383
-77.347
-77.294
-77.224
-77.138
-77.038
-76.924
-76.799
-76.665
-76.524
-76.378
-76.23
-76.081
-75.933
-75.791
-75.655
-75.528
-75.412
-75.31
-75.224
-75.155
-75.105
-75.077
-75.073
-75.092
-75.137
-75.209
-75.309
-75.436
-75.591
-75.773
-75.982
-76.217
-76.475
-76.756
-77.056
-77.373
-77.703
-78.043
-78.388
-78.734
-79.075
-79.405
-79.72
-80.012
-80.276
-80.504
-80.691
-80.829
-80.91
-80.928
-80.875
-80.744
-80.528
-80.219
-79.81
-79.293
-78.664
-77.915
-77.04
-76.034
-74.893
-73.612
-72.188
-70.617
-68.897
-67.027
-65.006
-62.833
-60.51
-58.038
-55.421
-52.661
-49.764
-46.734
-43.578
-40.304
-36.918
-33.429
-29.847
-26.182
-22.445
-18.649
-14.805
-10.926
-7.026
-3.121
0.776
4.649
8.482
12.261
15.97
19.595
23.121
26.534
29.823
32.975
35.98
38.826
41.502
44
46.31
48.424
50.336
52.04
53.533
54.816
55.89
56.755
57.416
57.87
58.118
58.165
58.016
57.679
57.166
56.49
55.672
54.744
53.733
52.669
51.577
50.476
49.388
48.336
47.343
46.439
45.65
44.993
44.486
44.146
43.977
43.97
44.092
44.289
44.505
44.7
44.836
44.883
44.796
44.524
44.021
43.233
42.131
40.677
38.786
36.455
33.765
30.874
28.084
25.7
23.913
22.992
23.267
24.798
27.506
31.094
34.845
38.249
41.051
42.796
43.12
42.143
40.192
38.121
37.526
39.629
45.442
56.358
73.422
97.139
127.668
164.179
204.842
247.816
290.757
330.453
363.822
387.86
399.762
397.752
380.763
348.309
301.438
242.63
175.01
102.478
29.201
-40.936
-103.705
-155.345
-193.814
-218.36
-229.322
-228.131
-216.532
-196.721
-172.084
-146.053
-121.094
-99.126
-81.13
-67.395
-58.332
-53.812
-52.63
-53.365
-54.772
-55.651
-55.503
-54.154
-51.14
-46.363
-40.241
-33.32
-26.347
-20.133
-15.01
-11.106
-8.654
-7.667
-8.037
-9.612
-12.023
-14.845
-17.848
-20.886
-23.834
-26.637
-29.208
-31.448
-33.331
-34.847
-35.978
-36.712
-37.027
-36.91
-36.377
-35.461
-34.207
-32.668
-30.879
-28.869
-26.667
-24.302
-21.806
-19.216
-16.563
-13.886
-11.212
-8.556
-5.932
-3.339
-0.768
1.79
4.351
6.935
9.558
12.232
14.963
17.754
20.611
23.542
26.555
29.661
32.868
36.176
39.583
43.085
46.672
50.334
54.058
57.825
61.619
65.422
69.22
73.001
76.75
80.45
84.086
87.641
91.099
94.444
97.662
100.739
103.659
106.412
108.984
111.368
113.553
115.531
117.294
118.833
120.142
121.217
122.054
122.648
123
123.107
122.973
122.599
121.989
121.149
120.086
118.806
117.318
115.634
113.763
111.718
109.51
107.154
104.662
102.05
99.331
96.521
93.634
90.685
87.691
84.665
81.624
78.58
75.549
72.545
69.58
66.668
63.82
61.047
58.36
55.768
53.281
50.906
48.65
46.518
44.516
42.646
40.913
39.316
37.857
36.535
35.349
34.296
33.373
32.577
31.902
31.343
30.895
30.551
30.304
30.147
30.072
30.07
30.135
30.257
30.427
30.638
30.881
31.147
31.428
31.715
32.003
32.282
32.545
32.787
33.001
33.181
33.322
33.42
33.471
33.472
33.42
33.314
33.152
32.934
32.661
32.333
31.951
31.518
31.034
30.504
29.93
29.315
28.663
27.98
27.268
26.532
25.778
25.011
24.234
23.452
22.672
21.897
21.132
20.381
19.649
18.94
18.258
17.606
16.987
16.404
15.859
15.354
14.89
14.468
14.088
13.75
13.454
13.199
12.983
12.805
12.664
12.556
12.481
12.434
12.414
12.416
12.44
12.48
12.534
12.6
12.674
12.754
12.837
12.92
13.001
13.079
13.15
13.213
13.268
13.312
13.345
13.367
13.377
13.376
13.366
13.346
13.318
13.283
13.244
13.202
13.16
13.119
13.082
13.051
13.029
13.019
13.022
13.041
13.078
13.134
13.211
13.31
13.432
13.577
13.744
13.932
14.142
14.37
14.616
14.877
15.148
15.428
15.712
15.995
16.272
16.534
16.777
16.992
17.173
17.312
17.402
17.435
17.405
17.307
17.136
16.884
16.545
16.114
15.584
14.95
14.208
13.353
12.382
11.296
10.097
8.786
7.369
5.843
4.208
2.463
0.61
-1.349
-3.408
-5.559
-7.789
-10.077
-12.399
-14.73
-17.046
-19.33
-21.57
-23.746
-25.844
-27.843
-29.716
-31.443
-33.009
-34.394
-35.589
-36.597
-37.439
-38.154
-38.799
-39.419
-40.048
-40.72
-41.474
-42.358
-43.42
-44.713
-46.266
-48.125
-50.374
-53.021
-56.003
-59.172
-62.231
-64.895
-66.971
-68.206
-68.315
-67.283
-65.228
-62.491
-59.812
-57.737
-56.565
-56.733
-58.522
-61.697
-65.792
-69.856
-72.264
-71.733
-67.185
-57.272
-41.026
-18.128
11.277
46.174
84.598
124.547
163.594
198.596
226.491
244.509
250.381
242.741
221.081
185.538
137.513
79.68
15.432
-51.371
-117.006
-177.978
-230.896
-272.984
-302.766
-319.963
-325.405
-320.72
-307.601
-288.17
-265.203
-241.375
-218.766
-198.958
-182.669
-170.098
-161.572
-156.934
-155.313
-155.699
-157.076
-158.419
-159.268
-159.429
-158.483
-156.328
-153.237
-149.568
-145.895
-142.881
-140.792
-139.72
-139.829
-141.085
-143.346
-146.434
-149.973
-153.548
-156.935
-159.99
-162.593
-164.701
-166.256
-167.205
-167.582
-167.447
-166.841
-165.808
-164.373
-162.566
-160.455
-158.141
-155.731
-153.318
-150.974
-148.757
-146.73
-144.96
-143.502
-142.389
-141.629
-141.219
-141.153
-141.413
-141.978
-142.81
-143.848
-145.016
-146.226
-147.387
-148.419
-149.25
-149.801
-149.991
-149.75
-149.024
-147.779
-145.996
-143.665
-140.787
-137.373
-133.447
-129.055
-124.258
-119.131
-113.758
-108.219
-102.585
-96.934
-91.348
-85.899
-80.651
-75.654
-70.944
-66.552
-62.505
-58.821
-55.51
-52.568
-49.981
-47.729
-45.782
-44.116
-42.715
-41.562
-40.639
-39.934
-39.436
-39.144
-39.063
-39.196
-39.546
-40.116
-40.91
-41.936
-43.205
-44.728
-46.516
-48.576
-50.907
-53.51
-56.378
-59.504
-62.876
-66.478
-70.29
-74.29
-78.459
-82.773
-87.211
-91.747
-96.358
-101.017
-105.701
-110.384
-115.044
-119.661
-124.212
-128.678
-133.035
-137.261
-141.333
-145.236
-148.956
-152.483
-155.811
-158.932
-161.842
-164.541
-167.025
-169.285
-171.313
-173.087
-174.589
-175.808
-176.739
-177.384
-177.749
-177.826
-177.609
-177.091
-176.257
-175.093
-173.586
-171.71
-169.449
-166.806
-163.798
-160.461
-156.843
-152.978
-148.892
-144.606
-140.134
-135.504
-130.743
-125.876
-120.935
-115.954
-110.974
-106.053
-101.238
-96.55
-91.991
-87.541
-83.16
-78.824
-74.519
-70.228
-65.946
-61.663
-57.367
-53.058
-48.733
-44.379
-39.981
-35.503
-30.917
-26.218
-21.413
-16.525
-11.596
-6.651
-1.714
3.188
8.039
12.823
17.523
22.138
26.665
31.096
35.418
39.61
43.649
47.527
51.24
54.791
58.19
61.444
64.556
67.537
70.391
73.122
75.731
78.217
80.573
82.802
84.905
86.89
88.762
90.528
92.19
93.755
95.226
96.606
97.9
99.11
100.242
101.304
102.305
103.258
104.173
105.064
105.942
106.821
107.711
108.623
109.565
110.545
111.572
112.657
113.815
115.054
116.381
117.8
119.315
120.928
122.634
124.424
126.281
128.192
130.151
132.157
134.214
136.324
138.486
140.703
142.975
145.305
147.698
150.154
152.664
155.231
157.863
160.579
163.413
166.382
169.484
172.711
176.044
179.456
182.924
186.406
189.849
193.207
196.437
199.506
202.395
205.07
207.489
209.601
211.345
212.676
213.575
214.024
214.016
213.558
212.669
211.391
209.791
207.928
205.851
203.608
201.239
198.795
196.336
193.923
191.618
189.475
187.543
185.869
184.503
183.475
182.795
182.458
182.433
182.679
183.163
183.836
184.645
185.55
186.498
187.43
188.293
189.022
189.544
189.806
189.72
189.184
188.184
186.774
185.087
183.379
181.874
180.713
180.144
180.46
181.729
183.864
186.541
189.145
191.279
192.848
193.628
193.323
192.04
190.188
188.674
188.975
192.146
198.769
209.714
225.96
248.048
276.14
309.472
346.33
385.361
425.324
464.149
499.279
528.042
547.782
556.934
554.87
540.687
513.865
475.155
426.391
370.451
310.889
250.628
192.247
138.883
93.526
58.323
34.304
21.216
17.858
23.119
35.848
54.103
75.448
97.485
118.323
136.725
152.163
164.206
172.305
176.535
177.627
176.563
174.376
172.018
169.945
168.469
168.123
169.063
171.059
173.744
176.522
178.752
180.171
180.668
180.058
178.359
175.715
172.31
168.508
164.684
161.028
157.643
154.619
151.983
149.773
148.017
146.668
145.657
144.94
144.484
144.259
144.231
144.331
144.471
144.579
144.607
144.524
144.313
143.956
143.428
142.721
141.838
140.789
139.587
138.24
136.754
135.144
133.439
131.673
129.883
128.103
126.353
124.653
123.018
121.462
119.993
118.619
117.34
116.155
115.068
114.084
113.205
112.435
111.769
111.205
110.739
110.365
110.081
109.881
109.76
109.712
109.734
109.819
109.965
110.165
110.411
110.695
111.008
111.342
111.685
112.03
112.365
112.68
112.967
113.217
113.421
113.572
113.663
113.687
113.638
113.513
113.307
113.018
112.643
112.183
111.635
111.001
110.283
109.482
108.6
107.641
106.609
105.509
104.344
103.121
101.846
100.524
99.162
97.768
96.348
94.911
93.465
92.017
90.575
89.148
87.744
86.37
85.034
83.741
82.5
81.314
80.19
79.131
78.141
77.222
76.378
75.609
74.916
74.299
73.759
73.295
72.906
72.591
72.348
72.176
72.072
72.036
72.066
72.159
72.313
72.525
72.792
73.111
73.476
73.883
74.326
74.801
75.302
75.826
76.369
76.926
77.496
78.075
78.659
79.249
79.841
80.432
81.02
81.603
82.181
82.76
83.34
83.919
84.49
85.048
85.58
86.076
86.517
86.878
87.134
87.262
87.243
87.064
86.712
86.17
85.418
84.433
83.2
81.717
79.989
78.026
75.844
73.468
70.934
68.302
65.631
62.964
60.337
57.77
55.276
52.883
50.615
48.491
46.514
44.661
42.886
41.142
39.362
37.461
35.334
32.838
29.828
26.184
21.803
16.599
10.495
3.401
-4.777
-14.108
-24.635
-36.365
-49.263
-63.283
-78.349
-94.347
-111.134
-128.521
-146.304
-164.297
-182.326
-200.222
-217.819
-234.926
-251.338
-266.876
-281.378
-294.719
-306.816
-317.602
-327.044
-335.144
-341.939
-347.501
-351.924
-355.295
-357.701
-359.233
-359.988
-360.09
-359.684
-358.908
-357.898
-356.765
-355.594
-354.456
-353.408
-352.48
-351.685
-351.019
-350.464
-350.007
-349.638
-349.346
-349.119
-348.928
-348.732
-348.493
-348.167
-347.726
-347.156
-346.452
-345.616
-344.661
-343.608
-342.489
-341.34
-340.19
-339.07
-338.005
-337.02
-336.144
-335.409
-334.844
-334.476
-334.33
-334.423
-334.77
-335.381
-336.255
-337.387
-338.769
-340.385
-342.22
-344.253
-346.455
-348.794
-351.241
-353.767
-356.349
-358.965
-361.585
-364.179
-366.72
-369.182
-371.553
-373.825
-375.982
-378.019
-379.941
-381.768
-383.549
-385.343
-387.193
-389.141
-391.217
-393.439
-395.839
-398.458
-401.323
-404.463
-407.884
-411.56
-415.512
-419.766
-424.257
-428.854
-433.302
-437.233
-440.376
-442.515
-443.378
-442.758
-440.59
-436.955
-432.308
-427.309
-422.443
-418.17
-414.921
-412.82
-411.786
-411.399
-410.493
-407.733
-402.076
-392.103
-376.392
-354.332
-325.503
-291.087
-254.695
-218.192
-182.439
-147.799
-112.05
-78.404
-54.951
-48.974
-68.925
-114.774
-177.072
-246.794
-313.747
-372.724
-425.495
-471.921
-511.416
-542.658
-562.499
-570.381
-567.819
-556.709
-539.689
-519.345
-497.782
-476.932
-458.053
-441.497
-427.091
-414.37
-402.722
-391.4
-379.591
-366.544
-351.903
-335.766
-318.453
-300.378
-281.939
-263.502
-245.478
-228.289
-212.183
-197.219
-183.356
-170.482
-158.502
-147.371
-137.014
-127.333
-118.248
-109.694
-101.627
-94.043
-86.926
-80.243
-73.95
-67.997
-62.339
-56.959
-51.845
-46.982
-42.353
-37.949
-33.767
-29.814
-26.107
-22.646
-19.425
-16.443
-13.692
-11.169
-8.88
-6.822
-4.99
-3.375
-1.958
-0.728
0.329
1.247
2.066
2.835
3.619
4.461
5.395
6.475
7.738
9.218
10.945
12.927
15.17
17.684
20.47
23.53
26.866
30.458
34.276
38.281
42.419
46.657
50.972
55.32
59.68
64.034
68.373
72.717
77.08
81.467
85.879
90.31
94.748
99.19
103.635
108.074
112.508
116.913
121.251
125.495
129.601
133.52
137.196
140.549
143.511
146.035
148.081
149.623
150.643
151.125
151.068
150.484
149.389
147.82
145.822
143.445
140.758
137.83
134.732
131.545
128.336
125.157
122.05
119.054
116.2
113.515
111.012
108.693
106.561
104.611
102.832
101.206
99.689
98.243
96.838
95.442
94.038
92.615
91.161
89.671
88.14
86.568
84.964
83.332
81.671
79.983
78.266
76.532
74.81
73.123
71.488
69.917
68.412
66.979
65.624
64.349
63.15
62.023
60.962
59.965
59.038
58.188
57.419
56.73
56.111
55.556
55.061
54.623
54.242
53.918
53.645
53.425
53.261
53.158
53.119
53.147
53.237
53.389
53.601
53.874
54.208
54.605
55.063
55.583
56.165
56.809
57.515
58.283
59.107
59.986
60.914
61.888
62.904
63.959
65.046
66.161
67.297
68.451
69.615
70.783
71.949
73.104
74.242
75.355
76.437
77.481
78.479
79.426
80.314
81.138
81.893
82.573
83.174
83.691
84.121
84.461
84.709
84.862
84.921
84.885
84.755
84.532
84.22
83.822
83.34
82.78
82.147
81.447
80.687
79.873
79.015
78.12
77.197
76.256
75.307
74.359
73.424
72.512
71.633
70.797
70.016
69.298
68.654
68.094
67.625
67.258
66.998
66.855
66.832
66.936
67.171
67.539
68.044
68.686
69.466
70.381
71.431
72.612
73.92
75.351
76.897
78.552
80.306
82.152
84.079
86.076
88.13
90.227
92.355
94.498
96.642
98.771
100.871
102.926
104.922
106.846
108.686
110.428
112.059
113.565
114.935
116.158
117.224
118.124
118.848
119.392
119.756
119.937
119.934
119.746
119.366
118.791
118.022
117.058
115.904
114.566
113.057
111.394
109.606
107.718
105.755
103.737
101.682
99.61
97.544
95.509
93.536
91.648
89.864
88.206
86.693
85.324
84.081
82.928
81.808
80.678
79.509
78.261
76.891
75.346
73.568
71.499
69.106
66.343
63.123
59.44
55.353
51.017
46.738
42.808
39.438
36.898
35.488
35.248
36.081
37.656
39.24
40.286
40.488
39.381
36.655
32.549
27.562
22.707
19.704
19.948
24.618
35.194
52.752
77.614
109.576
147.484
189.161
232.372
274.475
312.092
341.985
361.356
367.965
360.568
338.906
303.303
255.303
197.808
134.289
68.545
4.284
-55.217
-106.955
-148.266
-177.783
-195.503
-202.165
-199.28
-188.621
-171.895
-151.304
-129.411
-108.059
-88.462
-71.599
-57.763
-47.09
-39.937
-35.996
-34.366
-34.418
-35.465
-36.673
-37.751
-38.439
-38.195
-36.961
-35.011
-32.508
-29.879
-27.681
-26.068
-25.151
-25.121
-25.886
-27.28
-29.172
-31.252
-33.185
-34.813
-35.998
-36.639
-36.746
-36.318
-35.368
-33.974
-32.213
-30.153
-27.869
-25.431
-22.905
-20.362
-17.867
-15.467
-13.203
-11.107
-9.207
-7.523
-6.061
-4.823
-3.802
-2.99
-2.384
-1.969
-1.723
-1.618
-1.623
-1.709
-1.857
-2.048
-2.266
-2.496
-2.725
-2.947
-3.16
-3.358
-3.537
-3.688
-3.803
-3.875
-3.9
-3.876
-3.8
-3.666
-3.471
-3.211
-2.884
-2.485
-2.01
-1.456
-0.816
-0.087
0.73
1.639
2.638
3.728
4.908
6.176
7.529
8.966
10.485
12.083
13.759
15.509
17.33
19.22
21.174
23.189
25.263
27.391
29.571
31.797
34.069
36.381
38.732
41.118
43.535
45.98
48.452
50.948
53.465
56.001
58.553
61.121
63.702
66.297
68.903
71.52
74.147
76.783
79.427
82.079
84.737
87.4
90.069
92.741
95.417
98.096
100.78
103.468
106.162
108.861
111.566
114.275
116.988
119.705
122.424
125.145
127.867
130.589
133.309
136.029
138.747
141.463
144.173
146.872
149.555
152.225
154.881
157.528
160.171
162.815
165.469
168.151
170.875
173.652
176.49
179.391
182.359
185.403
188.532
191.761
195.094
198.519
202.026
205.601
209.224
212.871
216.501
220.053
223.477
226.732
229.783
232.611
235.185
237.463
239.404
240.969
242.137
242.913
243.299
243.3
242.937
242.243
241.279
240.144
238.918
237.66
236.424
235.252
234.206
233.373
232.835
232.661
232.902
233.579
234.718
236.341
238.439
240.982
243.892
247.046
250.339
253.68
256.967
260.096
262.922
265.257
266.918
267.724
267.501
266.087
263.307
258.982
252.971
245.158
235.477
223.902
210.395
194.928
177.502
158.146
136.947
114.039
89.569
63.704
36.637
8.581
-20.211
-49.47
-78.94
-108.359
-137.483
-166.076
-193.87
-220.617
-246.093
-270.091
-292.441
-312.994
-331.596
-348.122
-362.476
-374.584
-384.412
-391.935
-397.126
-399.997
-400.579
-398.919
-395.106
-389.219
-381.317
-371.482
-359.795
-346.349
-331.27
-314.676
-296.675
-277.393
-256.956
-235.505
-213.21
-190.211
-166.632
-142.602
-118.233
-93.657
-69.031
-44.487
-20.151
3.848
27.396
50.371
72.644
94.112
114.689
134.303
152.914
170.483
186.967
202.359
216.657
229.875
242.046
253.187
263.316
272.49
280.782
288.284
295.109
301.369
307.177
312.669
317.972
323.193
328.424
333.722
339.131
344.704
350.495
356.573
362.997
369.787
376.935
384.416
392.174
400.134
408.189
416.193
423.991
431.452
438.458
444.924
450.769
455.896
460.216
463.61
465.945
467.184
467.375
466.637
465.21
463.335
461.193
459.104
457.485
456.499
456.109
456.028
455.652
454.587
452.725
449.785
445.379
439.529
432.617
425.578
419.943
416.887
417.19
421.915
432.265
449.037
472.526
502.072
536.059
572.897
610.854
647.377
679.38
703.627
717.048
717.539
703.883
675.28
632.037
575.927
509.785
437.512
363.561
292.021
226.995
172.268
130.057
101.155
85.319
80.932
85.675
97.112
111.872
126.566
139.154
148.407
153.712
155.367
153.806
149.54
144.128
139.168
135.364
133.082
132.274
132.482
133.518
135.219
136.783
137.444
136.831
134.699
131.125
126.351
120.395
113.267
105.218
96.51
87.365
78.014
68.546
59.012
49.544
40.29
31.362
22.851
14.799
7.206
0.082
-6.564
-12.74
-18.47
-23.8
-28.792
-33.504
-37.992
-42.312
-46.521
-50.682
-54.869
-59.148
-63.562
-68.14
-72.894
-77.826
-82.941
-88.235
-93.695
-99.299
-105.022
-110.844
-116.747
-122.712
-128.717
-134.733
-140.731
-146.685
-152.578
-158.396
-164.128
-169.766
-175.302
-180.73
-186.052
-191.267
-196.373
-201.368
-206.247
-211.006
-215.647
-220.167
-224.569
-228.851
-233.014
-237.058
-240.983
-244.79
-248.481
-252.056
-255.517
-258.863
-262.1
-265.231
-268.259
-271.19
-274.027
-276.776
-279.442
-282.03
-284.545
-286.99
-289.37
-291.69
-293.952
-296.161
-298.321
-300.433
-302.502
-304.528
-306.516
-308.465
-310.377
-312.254
-314.095
-315.902
-317.672
-319.407
-321.105
-322.764
-324.383
-325.958
-327.489
-328.972
-330.404
-331.782
-333.102
-334.363
-335.56
-336.69
-337.751
-338.74
-339.655
-340.492
-341.251
-341.93
-342.526
-343.041
-343.473
-343.823
-344.09
-344.276
-344.383
-344.412
-344.364
-344.243
-344.05
-343.79
-343.465
-343.078
-342.635
-342.139
-341.596
-341.011
-340.389
-339.737
-339.061
-338.367
-337.661
-336.95
-336.239
-335.536
-334.847
-334.179
-333.536
-332.926
-332.355
-331.828
-331.35
-330.928
-330.564
-330.265
-330.032
-329.871
-329.784
-329.775
-329.846
-330.002
-330.244
-330.575
-331
-331.519
-332.135
-332.85
-333.664
-334.577
-335.589
-336.698
-337.904
-339.203
-340.595
-342.077
-343.648
-345.308
-347.055
-348.888
-350.804
-352.801
-354.875
-357.023
-359.239
-361.518
-363.855
-366.246
-368.686
-371.177
-373.716
-376.296
-378.906
-381.536
-384.165
-386.779
-389.361
-391.89
-394.35
-396.729
-399.02
-401.226
-403.351
-405.392
-407.343
-409.188
-410.911
-412.509
-413.977
-415.315
-416.531
-417.629
-418.618
-419.518
-420.342
-421.084
-421.727
-422.232
-422.546
-422.636
-422.48
-422.064
-421.381
-420.417
-419.157
-417.599
-415.735
-413.557
-411.051
-408.181
-404.918
-401.263
-397.236
-392.886
-388.282
-383.47
-378.476
-373.321
-368.018
-362.576
-356.998
-351.265
-345.342
-339.21
-332.867
-326.339
-319.659
-312.833
-305.852
-298.687
-291.307
-283.708
-275.915
-267.959
-259.88
-251.745
-243.636
-235.67
-227.996
-220.742
-214.008
-207.873
-202.402
-197.669
-193.758
-190.75
-188.705
-187.654
-187.598
-188.52
-190.389
-193.139
-196.666
-200.833
-205.469
-210.414
-215.526
-220.672
-225.716
-230.524
-234.962
-238.894
-242.217
-244.845
-246.708
-247.757
-247.964
-247.326
-245.879
-243.684
-240.813
-237.344
-233.356
-228.934
-224.188
-219.225
-214.146
-209.055
-204.041
-199.187
-194.591
-190.335
-186.481
-183.094
-180.196
-177.815
-176.033
-174.847
-174.169
-173.846
-173.566
-173.017
-172.008
-170.255
-167.417
-163.452
-158.486
-152.898
-147.56
-143.212
-140.373
-139.769
-141.942
-146.758
-153.712
-161.652
-168.498
-172.377
-171.583
-163.945
-147.796
-122.516
-88.192
-46.199
0.69
49.653
97.239
138.785
170.141
187.84
189.883
177.029
149.659
107.728
51.487
-19.758
-101.047
-182.41
-254.056
-304.916
-331.881
-341.06
-338.587
-332.335
-326.065
-317.1
-304.926
-289.828
-273.076
-258.006
-245.586
-235.098
-225.962
-217.16
-208.064
-198.74
-189.005
-179.001
-169.686
-161.939
-156.292
-153.089
-152.158
-152.936
-155.14
-158.356
-161.74
-164.686
-166.827
-167.928
-168.225
-168.184
-167.969
-167.716
-167.682
-167.94
-168.536
-169.48
-170.528
-171.371
-171.871
-171.956
-171.615
-170.924
-169.92
-168.638
-167.179
-165.656
-164.168
-162.782
-161.509
-160.328
-159.223
-158.192
-157.241
-156.377
-155.585
-154.838
-154.104
-153.35
-152.548
-151.676
-150.704
-149.601
-148.337
-146.9
-145.297
-143.56
-141.729
-139.837
-137.902
-135.941
-133.972
-132.024
-130.123
-128.291
-126.532
-124.829
-123.158
-121.495
-119.803
-118.03
-116.098
-113.896
-111.305
-108.229
-104.58
-100.274
-95.227
-89.338
-82.516
-74.696
-65.839
-55.93
-44.977
-32.999
-20.04
-6.182
8.464
23.749
39.513
55.614
71.894
88.181
104.293
120.019
135.156
149.533
162.981
175.343
186.49
196.31
204.723
211.69
217.189
221.218
223.795
224.95
224.744
223.279
220.675
217.08
212.653
207.548
201.938
196.016
189.95
183.892
177.986
172.352
167.118
162.429
158.396
155.105
152.61
150.93
150.071
150.026
150.765
152.244
154.396
157.13
160.372
164.06
168.121
172.485
177.06
181.734
186.42
191.06
195.606
200.036
204.327
208.455
212.412
216.206
219.852
223.374
226.791
230.116
233.37
236.587
239.812
243.108
246.525
250.102
253.873
257.866
262.113
266.647
271.501
276.704
282.278
288.238
294.6
301.375
308.57
316.178
324.166
332.483
341.067
349.845
358.738
367.66
376.508
385.176
393.556
401.536
409.024
415.935
422.187
427.7
432.395
436.213
439.133
441.165
442.342
442.722
442.38
441.411
439.944
438.114
436.048
433.869
431.674
429.549
427.59
425.889
424.544
423.635
423.204
423.267
423.822
424.848
426.302
428.115
430.184
432.397
434.664
436.91
439.083
441.142
443.037
444.716
446.129
447.238
448.025
448.483
448.611
448.417
447.926
447.181
446.253
445.217
444.131
443.037
441.962
440.932
439.973
439.113
438.374
437.769
437.311
437.008
436.874
436.919
437.145
437.543
438.094
438.779
439.587
440.512
441.552
442.702
443.958
445.313
446.767
448.327
449.993
451.765
453.646
455.636
457.746
459.99
462.369
464.882
467.523
470.276
473.133
476.084
479.11
482.2
485.335
488.49
491.647
494.776
497.829
500.751
503.475
505.924
508.048
509.808
511.165
512.1
512.589
512.615
512.192
511.324
510.018
508.301
506.198
503.751
501.046
498.171
495.24
492.396
489.751
487.419
485.515
484.101
483.268
483.127
483.69
484.926
486.721
488.803
490.927
492.894
494.396
495.079
494.656
492.878
489.856
486.089
482.009
477.975
474.251
471.007
468.495
466.829
465.388
462.875
457.742
448.403
433.844
413.039
384.432
347.014
300.539
246.66
189.226
130.58
71.668
12.371
-48.847
-107.75
-156.211
-186.672
-190.9
-169.415
-129.819
-78.756
-24.74
28.778
84.249
141.879
202.069
263.99
323.457
377.773
425.745
465.948
497.467
519.298
529.538
527.422
514.216
491.042
458.461
415.055
358.215
288.919
213.563
144.112
93.239
67.448
64.774
75.902
90.901
104.274
115.52
127.997
143.701
161.832
180.506
196.955
209.929
220.041
228.097
235.019
241.72
248.617
255.79
263.558
271.972
280.676
289.421
297.934
305.804
312.901
319.309
324.822
329.375
333.12
336.109
338.516
340.608
342.493
344.247
346.102
348.212
350.665
353.597
357.049
361.038
365.624
370.812
376.545
382.777
389.454
396.512
403.908
411.578
419.43
427.39
435.393
443.401
451.393
459.344
467.226
475.026
482.746
490.42
498.099
505.817
513.594
521.444
529.377
537.413
545.578
553.884
562.34
570.94
579.675
588.548
597.565
606.719
616
625.373
634.801
644.283
653.828
663.452
673.17
682.973
692.856
702.834
712.925
723.142
733.489
743.918
754.388
764.91
775.399
785.687
795.489
804.306
811.631
817.062
820.143
820.38
817.513
811.492
802.584
791.578
779.22
765.959
752.229
738.271
723.788
707.995
689.449
665.833
634.855
594.636
543.423
480.034
404.238
316.79
219.686
116.216
10.08
-94.99
-195.077
-286.657
-366.983
-434.41
-488.659
-530.66
-562.003
-584.704
-601.219
-614.09
-625.648
-637.481
-650.285
-664.151
-678.774
-693.632
-708.045
-721.175
-732.183
-740.663
-746.666
-750.48
-752.574
-753.414
-753.398
-752.98
-752.621
-752.604
-753.041
-753.934
-755.177
-756.666
-758.334
-760.088
-761.833
-763.497
-765.012
-766.338
-767.46
-768.372
-769.088
-769.626
-769.987
-770.161
-770.142
-769.933
-769.551
-769.022
-768.365
-767.588
-766.701
-765.718
-764.663
-763.55
-762.378
-761.132
-759.774
-758.281
-756.65
-754.887
-753.006
-751.015
-748.918
-746.721
-744.44
-742.095
-739.707
-737.289
-734.849
-732.405
-729.984
-727.623
-725.366
-723.241
-721.261
-719.427
-717.733
-716.18
-714.767
-713.49
-712.344
-711.321
-710.417
-709.635
-708.979
-708.443
-708.011
-707.655
-707.342
-707.054
-706.785
-706.539
-706.326
-706.146
-705.991
-705.857
-705.731
-705.599
-705.44
-705.214
-704.884
-704.431
-703.853
-703.173
-702.428
-701.636
-700.804
-699.928
-699.003
-698.041
-697.065
-696.096
-695.167
-694.32
-693.611
-693.129
-692.963
-693.168
-693.772
-694.762
-696.103
-697.776
-699.77
-702.075
-704.674
-707.524
-710.564
-713.736
-716.963
-720.144
-723.152
-725.817
-727.963
-729.45
-730.168
-730.041
-729.022
-727.054
-724.079
-720.051
-714.941
-708.752
-701.504
-693.228
-683.976
-673.84
-662.947
-651.466
-639.58
-627.451
-615.226
-603.035
-590.99
-579.2
-567.774
-556.806
-546.376
-536.54
-527.34
-518.805
-510.94
-503.722
-497.093
-490.966
-485.241
-479.824
-474.621
-469.545
-464.522
-459.482
-454.361
-449.104
-443.658
-437.98
-432.031
-425.779
-419.2
-412.289
-405.054
-397.527
-389.743
-381.736
-373.542
-365.191
-356.706
-348.11
-339.418
-330.646
-321.827
-312.993
-304.192
-295.479
-286.896
-278.489
-270.308
-262.397
-254.805
-247.584
-240.767
-234.413
-228.614
-223.405
-218.752
-214.538
-210.523
-206.455
-202.15
-197.369
-191.813
-185.336
-178.012
-170.164
-162.428
-155.424
-149.496
-144.95
-142.153
-141.163
-141.552
-142.395
-142.161
-139.21
-132.318
-120.292
-101.808
-75.939
-42.448
-1.904
44.126
93.52
144.122
193.288
237.773
274.33
300.071
312.844
311.414
295.381
265.072
221.965
168.791
109.061
46.615
-14.737
-71.236
-119.514
-156.914
-181.869
-194.226
-194.866
-185.191
-167.18
-143.554
-117.279
-91.252
-67.894
-48.517
-33.779
-24.189
-19.659
-19.374
-22.129
-26.316
-30.376
-33.525
-35.284
-35.1
-32.785
-28.459
-22.444
-15.498
-8.44
-1.629
4.756
10.55
15.775
20.491
24.807
29.06
33.643
38.765
44.514
50.894
57.811
65.18
72.919
80.88
88.877
96.746
104.356
111.606
118.425
124.729
130.412
135.386
139.585
142.966
145.529
147.309
148.363
148.78
148.682
148.199
147.483
146.684
145.934
145.354
145.054
145.137
145.71
146.862
148.657
151.14
154.33
158.217
162.772
167.936
173.622
179.736
186.174
192.824
199.582
206.353
213.055
219.611
225.948
232.003
237.725
243.075
248.029
252.575
256.716
260.463
263.847
266.904
269.674
272.206
274.549
276.744
278.822
280.808
282.724
284.587
286.414
288.214
289.988
291.736
293.457
295.147
296.8
298.405
299.947
301.411
302.779
304.038
305.181
306.204
307.106
307.887
308.548
309.092
309.529
309.862
310.097
310.237
310.286
310.246
310.126
309.929
309.663
309.331
308.937
308.484
307.973
307.406
306.782
306.102
305.361
304.56
303.696
302.768
301.776
300.718
299.593
298.398
297.132
295.795
294.384
292.897
291.333
289.69
287.966
286.161
284.274
282.304
280.252
278.118
275.904
273.611
271.24
268.795
266.276
263.689
261.034
258.317
255.542
252.713
249.835
246.913
243.952
240.96
237.941
234.903
231.851
228.791
225.731
222.675
219.632
216.606
213.605
210.633
207.698
204.804
201.957
199.162
196.424
193.747
191.134
188.589
186.114
183.711
181.381
179.126
176.946
174.842
172.812
170.855
168.971
167.158
165.412
163.732
162.114
160.554
159.049
157.595
156.187
154.82
153.491
152.194
150.924
149.678
148.45
147.235
146.029
144.827
143.624
142.417
141.202
139.974
138.73
137.467
136.184
134.877
133.545
132.187
130.801
129.388
127.946
126.477
124.982
123.46
121.914
120.345
118.756
117.15
115.529
113.897
112.257
110.613
108.968
107.326
105.691
104.067
102.458
100.867
99.298
97.755
96.242
94.761
93.317
91.912
90.549
89.23
87.958
86.733
85.557
84.431
83.356
82.332
81.358
80.434
79.557
78.728
77.942
77.198
76.491
75.819
75.176
74.558
73.96
73.375
72.797
72.22
71.637
71.041
70.426
69.786
69.117
68.411
67.663
66.868
66.02
65.115
64.148
63.114
62.008
60.827
59.569
58.235
56.827
55.348
53.798
52.179
50.49
48.734
46.916
45.041
43.115
41.145
39.141
37.122
35.114
33.134
31.202
29.329
27.523
25.798
24.169
22.655
21.278
20.048
18.97
18.049
17.289
16.704
16.296
16.029
15.858
15.735
15.61
15.503
15.435
15.31
15.045
14.544
13.684
12.53
11.16
9.434
7.289
4.914
2.529
0.63
-0.236
-0.073
1.107
3.593
7.418
12.318
17.846
22.889
26.306
27.827
27.2
24.028
18.43
10.915
2.504
-4.726
-8.552
-7.462
0.091
15.599
39.866
73.017
114.226
161.295
211.331
261.286
307.585
346.378
374.132
388.008
386.117
367.833
333.713
285.433
225.913
159.087
89.375
21.072
-41.819
-95.829
-138.387
-168.204
-185.364
-191.13
-187.604
-177.183
-162.469
-146.213
-130.879
-118.076
-108.514
-102.203
-98.616
-97.068
-96.749
-96.6
-95.603
-93.217
-89.356
-84.251
-78.359
-72.112
-65.915
-60.281
-55.713
-52.507
-50.78
-50.491
-51.485
-53.625
-56.783
-60.81
-65.536
-70.801
-76.466
-82.412
-88.543
-94.764
-100.975
-107.056
-112.904
-118.428
-123.544
-128.206
-132.388
-136.077
-139.294
-142.072
-144.448
-146.477
-148.217
-149.729
-151.085
-152.343
-153.545
-154.743
-155.971
-157.263
-158.656
-160.164
-161.785
-163.506
-165.288
-167.087
-168.862
-170.56
-172.117
-173.467
-174.525
-175.223
-175.512
-175.346
-174.697
-173.542
-171.857
-169.637
-166.897
-163.652
-159.933
-155.77
-151.193
-146.249
-140.997
-135.507
-129.867
-124.161
-118.463
-112.854
-107.398
-102.152
-97.167
-92.475
-88.104
-84.079
-80.431
-77.191
-74.39
-72.036
-70.133
-68.672
-67.626
-66.967
-66.655
-66.633
-66.856
-67.29
-67.905
-68.688
-69.623
-70.685
-71.849
-73.083
-74.355
-75.65
-76.947
-78.232
-79.5
-80.751
-81.999
-83.274
-84.595
-85.97
-87.402
-88.881
-90.402
-91.962
-93.556
-95.179
-96.826
-98.487
-100.155
-101.826
-103.489
-105.129
-106.726
-108.251
-109.681
-111.001
-112.199
-113.267
-114.199
-114.986
-115.628
-116.124
-116.476
-116.685
-116.751
-116.675
-116.459
-116.11
-115.634
-115.043
-114.345
-113.548
-112.661
-111.694
-110.655
-109.555
-108.401
-107.201
-105.965
-104.703
-103.425
-102.143
-100.866
-99.604
-98.366
-97.161
-95.996
-94.879
-93.816
-92.815
-91.882
-91.025
-90.252
-89.569
-88.981
-88.496
-88.117
-87.849
-87.693
-87.647
-87.712
-87.889
-88.179
-88.583
-89.098
-89.716
-90.431
-91.233
-92.111
-93.05
-94.027
-95.017
-95.999
-96.951
-97.862
-98.723
-99.522
-100.247
-100.885
-101.432
-101.895
-102.284
-102.601
-102.851
-103.04
-103.186
-103.326
-103.49
-103.707
-103.995
-104.358
-104.802
-105.329
-105.935
-106.603
-107.294
-107.951
-108.508
-108.916
-109.126
-109.087
-108.728
-107.955
-106.686
-104.856
-102.412
-99.316
-95.523
-90.997
-85.727
-79.728
-73.055
-65.789
-58.025
-49.843
-41.331
-32.587
-23.732
-14.912
-6.25
2.147
10.183
17.771
24.804
31.186
36.85
41.762
45.92
49.35
52.084
54.152
55.598
56.481
56.876
56.881
56.565
55.983
55.186
54.222
53.159
52.061
50.969
49.902
48.865
47.851
46.851
45.856
44.842
43.777
42.62
41.321
39.856
38.209
36.374
34.342
32.102
29.641
26.962
24.078
21.008
17.769
14.381
10.865
7.254
3.587
-0.091
-3.738
-7.317
-10.801
-14.171
-17.405
-20.481
-23.378
-26.073
-28.55
-30.789
-32.765
-34.446
-35.805
-36.817
-37.462
-37.732
-37.612
-37.086
-36.14
-34.745
-32.88
-30.538
-27.716
-24.422
-20.678
-16.502
-11.924
-6.994
-1.76
3.71
9.35
15.108
20.916
26.729
32.48
38.047
43.39
48.551
53.628
58.85
64.426
70.446
77.101
84.657
93.121
102.386
112.127
121.618
130.336
137.995
144.151
148.509
151.262
152.813
154.065
156.611
161.738
170.569
184.476
204.421
230.714
263.207
300.881
341.765
383.818
424.612
461.065
490.257
509.669
517.292
511.994
493.534
462.247
419.581
368.165
311.144
251.902
193.725
139.657
92.56
54.898
27.965
11.958
6.37
10.121
21.921
40.125
62.505
86.62
110.623
133.101
152.887
169.239
181.513
189.46
193.568
194.769
193.866
191.708
189.256
187.185
186.167
186.659
188.59
191.619
195.374
199.343
202.922
205.747
207.514
208.033
207.403
205.818
203.517
200.842
198.148
195.651
193.51
191.84
190.658
189.98
189.81
190.1
190.795
191.859
193.261
194.974
196.969
199.188
201.558
204.01
206.488
208.957
211.386
213.749
216.022
218.191
220.256
222.224
224.098
225.882
227.579
229.196
230.75
232.261
233.752
235.246
236.762
238.31
239.897
241.528
243.201
244.914
246.658
248.424
250.201
251.983
253.761
255.527
257.27
258.978
260.638
262.238
263.763
265.2
266.537
267.762
268.863
269.83
270.653
271.321
271.826
272.158
272.305
272.259
272.009
271.546
270.861
269.947
268.796
267.402
265.761
263.867
261.719
259.314
256.651
253.732
250.557
247.128
243.45
239.527
235.365
230.97
226.352
221.519
216.482
211.25
205.837
200.253
194.513
188.629
182.615
176.485
170.253
163.933
157.541
151.091
144.598
138.076
131.54
125.004
118.482
111.988
105.535
99.134
92.798
86.537
80.362
74.282
68.306
62.44
56.693
51.07
45.575
40.212
34.984
29.893
24.939
20.122
15.442
10.895
6.48
2.193
-1.97
-6.013
-9.942
-13.763
-17.48
-21.102
-24.635
-28.085
-31.462
-34.772
-38.023
-41.222
-44.379
-47.499
-50.592
-53.664
-56.723
-59.776
-62.828
-65.887
-68.958
-72.047
-75.158
-78.296
-81.464
-84.665
-87.902
-91.177
-94.491
-97.845
-101.24
-104.675
-108.15
-111.664
-115.216
-118.803
-122.425
-126.078
-129.76
-133.468
-137.198
-140.949
-144.716
-148.496
-152.286
-156.082
-159.88
-163.678
-167.472
-171.258
-175.034
-178.795
-182.541
-186.266
-189.969
-193.648
-197.299
-200.92
-204.509
-208.065
-211.584
-215.066
-218.508
-221.909
-225.267
-228.58
-231.847
-235.066
-238.234
-241.352
-244.416
-247.425
-250.377
-253.27
-256.101
-258.869
-261.569
-264.2
-266.757
-269.239
-271.642
-273.961
-276.195
-278.339
-280.389
-282.343
-284.197
-285.947
-287.591
-289.125
-290.548
-291.856
-293.047
-294.121
-295.076
-295.912
-296.628
-297.226
-297.705
-298.067
-298.315
-298.451
-298.478
-298.402
-298.227
-297.958
-297.603
-297.17
-296.666
-296.101
-295.486
-294.831
-294.148
-293.449
-292.746
-292.052
-291.381
-290.743
-290.154
-289.625
-289.17
-288.802
-288.535
-288.38
-288.35
-288.454
-288.706
-289.115
-289.691
-290.442
-291.373
-292.49
-293.799
-295.307
-297.017
-298.931
-301.045
-303.356
-305.857
-308.543
-311.399
-314.408
-317.546
-320.79
-324.117
-327.512
-330.954
-334.425
-337.901
-341.356
-344.77
-348.131
-351.428
-354.655
-357.808
-360.885
-363.905
-366.901
-369.915
-373.001
-376.2
-379.547
-383.074
-386.795
-390.74
-394.945
-399.432
-404.226
-409.339
-414.75
-420.464
-426.498
-432.771
-439.132
-445.336
-450.989
-455.788
-459.516
-461.899
-462.752
-462.064
-459.928
-456.789
-453.41
-450.354
-448.087
-447.069
-447.369
-448.781
-450.894
-452.592
-452.308
-448.714
-440.574
-426.592
-406.002
-378.771
-345.196
-307.493
-269.783
-234.543
-203.571
-177.797
-155.34
-138.936
-135.449
-150.483
-190.537
-254.287
-331.714
-413.476
-489.433
-554.144
-608.586
-652.472
-685.836
-708.632
-719.235
-718.21
-707.851
-690.583
-669.695
-648.189
-627.727
-609.213
-592.871
-578.317
-565.008
-552.181
-538.605
-523
-504.592
-483.414
-460.273
-436.062
-411.463
-387.279
-364.46
-344.003
-326.849
-313.119
-302.048
-292.961
-285.39
-278.862
-273.022
-267.514
-261.858
-256.135
-251.012
-246.883
-243.881
-241.936
-240.66
-239.423
-237.386
-233.345
-225.844
-213.9
-196.953
-174.746
-147.298
-115.006
-78.916
-40.57
-1.777
36.085
72.109
105.559
135.73
162.039
184.506
203.718
220.621
235.904
249.855
262.661
274.576
285.986
297.036
307.512
316.951
325.021
331.681
337.021
341.161
344.142
346.061
347.163
347.828
348.41
349.144
350.209
351.749
353.902
356.792
360.472
364.917
370.096
375.981
382.533
389.719
397.47
405.693
414.325
423.303
432.533
441.909
451.286
460.491
469.39
477.872
485.828
493.184
499.872
505.836
511.064
515.552
519.298
522.298
524.526
525.968
526.646
526.604
525.906
524.65
522.914
520.779
518.344
515.685
512.862
509.929
506.905
503.805
500.662
497.509
494.392
491.354
488.409
485.567
482.83
480.18
477.601
475.067
472.53
469.959
467.338
464.657
461.924
459.147
456.324
453.454
450.534
447.561
444.538
441.467
438.348
435.188
432
428.801
425.619
422.472
419.373
416.329
413.341
410.409
407.535
404.717
401.949
399.228
396.55
393.913
391.317
388.759
386.234
383.734
381.249
378.773
376.296
373.813
371.317
368.801
366.26
363.69
361.089
358.452
355.776
353.056
350.287
347.464
344.583
341.639
338.629
335.549
332.396
329.167
325.861
322.477
319.013
315.469
311.844
308.139
304.353
300.488
296.544
292.523
288.425
284.255
280.014
275.705
271.333
266.9
262.41
257.869
253.28
248.648
243.978
239.275
234.544
229.792
225.024
220.247
215.468
210.693
205.93
201.185
196.466
191.779
187.131
182.529
177.981
173.493
169.072
164.726
160.462
156.286
152.206
148.228
144.359
140.604
136.971
133.465
130.09
126.853
123.759
120.811
118.015
115.374
112.892
110.571
108.415
106.424
104.6
102.944
101.455
100.134
98.978
97.987
97.158
96.49
95.978
95.619
95.408
95.341
95.411
95.613
95.938
96.381
96.932
97.583
98.325
99.151
100.049
101.01
102.024
103.081
104.17
105.279
106.399
107.516
108.619
109.697
110.739
111.734
112.672
113.544
114.342
115.06
115.689
116.223
116.657
116.983
117.197
117.293
117.268
117.117
116.839
116.436
115.912
115.269
114.509
113.634
112.643
111.538
110.323
109.004
107.586
106.079
104.499
102.87
101.224
99.586
97.98
96.426
94.939
93.541
92.256
91.109
90.124
89.315
88.698
88.289
88.096
88.112
88.314
88.647
89.048
89.462
89.842
90.161
90.384
90.454
90.314
89.904
89.175
88.131
86.761
85.019
82.938
80.606
78.196
76.036
74.426
73.491
73.361
74.146
75.792
78.288
81.473
84.844
87.992
90.749
93.005
94.923
96.945
99.297
102.472
107.439
114.926
125.849
141.273
161.297
185.766
213.818
242.663
270.861
298.075
324.532
352.792
380.259
399.333
402.224
379.77
332.108
268.827
199.22
134.17
78.617
30.304
-10.366
-43.112
-67.419
-80.519
-82.569
-76.086
-63.264
-47.17
-31.1
-16.875
-5.667
1.722
5.581
6.711
5.791
3.876
2.256
1.563
2.072
3.858
6.548
9.731
13.102
16.196
18.514
19.809
19.966
18.995
17.071
14.34
10.927
7.01
2.771
-1.64
-6.092
-10.493
-14.804
-18.988
-23.013
-26.856
-30.491
-33.904
-37.083
-40.03
-42.756
-45.282
-47.644
-49.889
-52.077
-54.269
-56.519
-58.873
-61.361
-63.998
-66.794
-69.751
-72.868
-76.143
-79.575
-83.16
-86.89
-90.755
-94.738
-98.816
-102.96
-107.139
-111.326
-115.495
-119.625
-123.702
-127.712
-131.644
-135.492
-139.247
-142.901
-146.443
-149.863
-153.15
-156.297
-159.298
-162.146
-164.839
-167.372
-169.745
-171.953
-173.996
-175.871
-177.577
-179.11
-180.471
-181.658
-182.674
-183.52
-184.2
-184.718
-185.079
-185.29
-185.356
-185.286
-185.085
-184.761
-184.322
-183.777
-183.132
-182.397
-181.58
-180.691
-179.737
-178.728
-177.673
-176.58
-175.458
-174.315
-173.159
-171.999
-170.84
-169.691
-168.558
-167.447
-166.365
-165.317
-164.309
-163.346
-162.432
-161.572
-160.77
-160.028
-159.35
-158.738
-158.193
-157.719
-157.316
-156.986
-156.729
-156.548
-156.442
-156.412
-156.459
-156.584
-156.785
-157.065
-157.421
-157.855
-158.367
-158.956
-159.622
-160.365
-161.186
-162.084
-163.058
-164.109
-165.235
-166.437
-167.712
-169.061
-170.482
-171.974
-173.536
-175.166
-176.865
-178.629
-180.458
-182.349
-184.301
-186.311
-188.377
-190.496
-192.665
-194.88
-197.138
-199.436
-201.768
-204.131
-206.519
-208.928
-211.352
-213.786
-216.223
-218.657
-221.082
-223.491
-225.879
-228.238
-230.564
-232.849
-235.088
-237.276
-239.407
-241.475
-243.476
-245.404
-247.253
-249.021
-250.7
-252.289
-253.783
-255.18
-256.476
-257.669
-258.757
-259.74
-260.617
-261.386
-262.047
-262.602
-263.051
-263.396
-263.64
-263.784
-263.833
-263.79
-263.659
-263.445
-263.151
-262.782
-262.342
-261.834
-261.261
-260.628
-259.938
-259.192
-258.396
-257.553
-256.667
-255.741
-254.781
-253.788
-252.768
-251.722
-250.654
-249.564
-248.452
-247.318
-246.162
-244.983
-243.782
-242.56
-241.316
-240.05
-238.762
-237.454
-236.124
-234.768
-233.379
-231.952
-230.489
-228.99
-227.462
-225.915
-224.355
-222.79
-221.235
-219.698
-218.183
-216.688
-215.204
-213.719
-212.231
-210.741
-209.257
-207.79
-206.336
-204.894
-203.46
-202.02
-200.566
-199.082
-197.544
-195.937
-194.264
-192.538
-190.794
-189.073
-187.405
-185.811
-184.306
-182.899
-181.611
-180.462
-179.469
-178.657
-178.049
-177.673
-177.573
-177.779
-178.298
-179.119
-180.209
-181.516
-183.001
-184.635
-186.386
-188.232
-190.137
-192.06
-193.966
-195.818
-197.574
-199.194
-200.621
-201.804
-202.71
-203.318
-203.624
-203.648
-203.394
-202.859
-202.05
-200.973
-199.649
-198.126
-196.448
-194.651
-192.766
-190.811
-188.819
-186.842
-184.924
-183.111
-181.438
-179.899
-178.513
-177.333
-176.334
-175.43
-174.449
-173.082
-171.047
-168.158
-164.27
-159.285
-153.288
-146.482
-139.228
-132.11
-125.687
-120.384
-116.397
-113.644
-111.658
-109.696
-106.889
-102.128
-94.168
-81.817
-64.256
-41.129
-12.799
19.778
55.55
93.004
129.935
163.77
191.97
212.19
222.881
223.127
211.92
189.005
155.506
113.476
65.669
15.264
-34.952
-82.231
-123.156
-154.857
-175.951
-186.121
-186.053
-177.063
-160.396
-137.856
-112.397
-86.992
-63.574
-43.294
-26.573
-13.527
-4.422
1.028
4.134
6.535
9.292
12.911
17.476
22.98
29.663
37.515
45.945
54.049
61.183
67.079
71.731
75.223
77.47
78.421
78.275
77.416
76.195
74.821
73.384
71.908
70.502
69.314
68.432
67.882
67.648
67.717
68.103
68.836
69.925
71.344
73.049
74.991
77.129
79.432
81.867
84.391
86.946
89.485
91.972
94.39
96.734
99
101.187
103.294
105.334
107.325
109.287
111.24
113.197
115.17
117.174
119.227
121.352
123.562
125.865
128.264
130.757
133.342
136.015
138.768
141.587
144.459
147.371
150.31
153.266
156.226
159.175
162.097
164.977
167.799
170.548
173.21
175.77
178.213
180.526
182.696
184.711
186.56
188.23
189.71
190.988
192.055
192.902
193.52
193.901
194.04
193.933
193.576
192.969
192.112
191.005
189.652
188.055
186.221
184.155
181.864
179.359
176.647
173.74
170.651
167.392
163.976
160.418
156.733
152.937
149.046
145.075
141.043
136.965
132.858
128.74
124.627
120.535
116.481
112.48
108.548
104.699
100.946
97.303
93.78
90.389
87.14
84.041
81.1
78.325
75.72
73.292
71.042
68.976
67.093
65.396
63.883
62.554
61.407
60.439
59.646
59.024
58.569
58.275
58.137
58.147
58.3
58.589
59.005
59.542
60.192
60.948
61.802
62.747
63.776
64.882
66.059
67.301
68.601
69.955
71.357
72.803
74.288
75.809
77.362
78.945
80.556
82.193
83.854
85.54
87.249
88.981
90.738
92.519
94.325
96.158
98.018
99.908
101.828
103.78
105.766
107.788
109.848
111.945
114.083
116.262
118.482
120.745
123.05
125.398
127.789
130.222
132.697
135.213
137.769
140.363
142.994
145.658
148.355
151.081
153.832
156.607
159.401
162.21
165.032
167.863
170.699
173.536
176.37
179.198
182.016
184.822
187.611
190.38
193.128
195.852
198.55
201.221
203.862
206.474
209.055
211.605
214.123
216.61
219.066
221.492
223.888
226.256
228.597
230.915
233.209
235.484
237.74
239.981
242.21
244.428
246.638
248.844
251.046
253.249
255.453
257.662
259.877
262.098
264.328
266.566
268.814
271.069
273.331
275.598
277.869
280.141
282.411
284.677
286.934
289.178
291.406
293.612
295.791
297.936
300.04
302.094
304.093
306.028
307.891
309.674
311.372
312.976
314.484
315.888
317.183
318.363
319.42
320.35
321.147
321.809
322.329
322.706
322.939
323.031
322.983
322.796
322.469
321.998
321.378
320.609
319.694
318.635
317.441
316.121
314.693
313.18
311.605
309.99
308.352
306.707
305.07
303.461
301.905
300.425
299.041
297.772
296.63
295.618
294.719
293.911
293.151
292.387
291.578
290.676
289.624
288.367
286.849
285.004
282.793
280.159
277.013
273.346
269.207
264.72
260.145
255.729
251.634
248.118
245.469
243.743
242.889
242.638
242.362
241.611
240.156
237.605
233.682
228.57
222.669
216.846
212.612
211.197
213.645
221.276
235.098
255.481
282.347
314.777
350.883
388.684
425.791
459.108
485.615
502.65
508.035
500.475
479.616
445.703
400.149
345.65
285.48
223.245
162.437
106.152
57.263
18.219
-9.751
-26.672
-33.433
-31.659
-23.055
-9.292
7.415
24.68
40.731
54.374
65.062
72.88
77.8
79.665
78.993
76.709
73.667
70.762
68.447
66.716
65.785
66.046
67.509
69.937
72.93
75.836
78.327
80.413
82.02
83.048
83.502
83.443
83.093
82.855
82.979
83.547
84.612
86.162
88.198
90.752
93.798
97.254
101.047
105.116
109.399
113.851
118.4
122.932
127.318
131.423
135.119
138.307
140.909
142.855
144.078
144.521
144.124
142.841
140.65
137.538
133.516
128.624
122.917
116.489
109.46
101.949
94.08
85.967
77.705
69.393
61.131
53.015
45.149
37.645
30.592
24.079
18.171
12.897
8.271
4.277
0.875
-1.972
-4.307
-6.169
-7.583
-8.578
-9.185
-9.435
-9.373
-9.061
-8.555
-7.921
-7.218
-6.479
-5.735
-5.005
-4.303
-3.646
-3.053
-2.551
-2.184
-2.006
-2.076
-2.455
-3.187
-4.307
-5.849
-7.829
-10.267
-13.183
-16.591
-20.502
-24.921
-29.847
-35.275
-41.186
-47.544
-54.296
-61.375
-68.72
-76.276
-83.995
-91.826
-99.728
-107.665
-115.603
-123.519
-131.393
-139.21
-146.96
-154.634
-162.236
-169.777
-177.284
-184.791
-192.325
-199.906
-207.547
-215.257
-223.045
-230.914
-238.864
-246.888
-254.978
-263.122
-271.307
-279.519
-287.735
-295.927
-304.054
-312.064
-319.913
-327.565
-334.997
-342.194
-349.144
-355.837
-362.267
-368.438
-374.356
-380.03
-385.465
-390.657
-395.612
-400.345
-404.89
-409.298
-413.616
-417.876
-422.098
-426.289
-430.45
-434.567
-438.615
-442.546
-446.299
-449.817
-453.056
-455.988
-458.584
-460.802
-462.585
-463.859
-464.553
-464.617
-464.004
-462.679
-460.627
-457.859
-454.414
-450.376
-445.847
-440.928
-435.713
-430.276
-424.682
-419.009
-413.336
-407.751
-402.342
-397.186
-392.362
-387.956
-384.027
-380.61
-377.71
-375.287
-373.281
-371.633
-370.272
-369.149
-368.227
-367.468
-366.843
-366.325
-365.886
-365.497
-365.127
-364.729
-364.269
-363.731
-363.107
-362.421
-361.709
-361.008
-360.369
-359.835
-359.432
-359.182
-359.098
-359.182
-359.438
-359.87
-360.482
-361.287
-362.296
-363.516
-364.953
-366.601
-368.45
-370.483
-372.679
-375.015
-377.477
-380.052
-382.734
-385.521
-388.41
-391.4
-394.492
-397.685
-400.973
-404.353
-407.817
-411.361
-414.982
-418.675
-422.441
-426.28
-430.19
-434.169
-438.215
-442.325
-446.493
-450.715
-454.982
-459.289
-463.629
-467.996
-472.384
-476.788
-481.204
-485.628
-490.055
-494.479
-498.898
-503.303
-507.69
-512.051
-516.379
-520.664
-524.899
-529.076
-533.188
-537.228
-541.19
-545.067
-548.852
-552.539
-556.118
-559.58
-562.912
-566.106
-569.15
-572.039
-574.77
-577.338
-579.74
-581.969
-584.021
-585.886
-587.547
-588.985
-590.174
-591.09
-591.716
-592.035
-592.036
-591.704
-591.024
-589.979
-588.552
-586.732
-584.504
-581.86
-578.797
-575.33
-571.499
-567.356
-562.967
-558.386
-553.652
-548.81
-543.916
-539.032
-534.229
-529.574
-525.1
-520.848
-516.891
-513.228
-509.795
-506.425
-502.822
-498.69
-493.81
-488.007
-481.145
-473.273
-464.575
-455.389
-446.273
-437.758
-430.238
-423.89
-418.624
-413.944
-409.049
-403.026
-394.719
-382.871
-366.287
-344.135
-316.051
-282.426
-244.305
-202.83
-159.581
-116.823
-77.193
-43.35
-17.796
-2.205
2.492
-4.675
-23.984
-54.374
-93.83
-139.516
-188.012
-236.282
-281.524
-320.503
-350.531
-370.24
-379.313
-378.548
-369.617
-354.22
-334.26
-312.278
-290.624
-270.826
-253.735
-239.481
-227.671
-217.897
-209.605
-201.84
-193.675
-184.624
-174.55
-163.627
-152.205
-140.57
-128.991
-117.876
-107.642
-98.521
-90.569
-83.696
-77.717
-72.483
-67.87
-63.714
-59.827
-56.022
-52.148
-48.121
-43.911
-39.489
-34.819
-29.856
-24.551
-18.891
-12.887
-6.564
0.054
6.937
14.05
21.333
28.709
36.086
43.39
50.571
57.598
64.45
71.103
77.533
83.718
89.653
95.342
100.786
105.986
110.94
115.653
120.14
124.428
128.545
132.512
136.345
140.051
143.637
147.111
150.48
153.747
156.907
159.962
162.911
165.759
168.511
171.172
173.742
176.221
178.611
180.914
183.133
185.273
187.337
189.328
191.252
193.113
194.919
196.673
198.38
200.041
201.661
203.245
204.799
206.327
207.837
209.333
210.822
212.314
213.814
215.328
216.859
218.411
219.99
221.604
223.263
224.975
226.744
228.576
230.472
232.437
234.468
236.557
238.689
240.851
243.033
245.236
247.464
249.719
252.007
254.332
256.699
259.121
261.612
264.177
266.821
269.554
272.393
275.369
278.53
281.918
285.564
289.49
293.702
298.204
302.991
308.042
313.326
318.798
324.414
330.138
335.937
341.768
347.574
353.281
358.788
364.002
368.837
373.207
377.052
380.321
382.981
385.026
386.469
387.346
387.7
387.575
387.018
386.095
384.892
383.513
382.089
380.76
379.664
378.948
378.741
379.148
380.26
382.139
384.83
388.351
392.698
397.853
403.775
410.406
417.66
425.431
433.586
441.966
450.408
458.735
466.777
474.389
481.44
487.808
493.388
498.095
501.867
504.671
506.494
507.341
507.243
506.25
504.434
501.897
498.749
495.111
491.105
486.837
482.396
477.875
473.358
468.914
464.599
460.449
456.485
452.72
449.156
445.785
442.583
439.509
436.519
433.563
430.587
427.549
424.418
421.161
417.754
414.18
410.428
406.498
402.396
398.128
393.702
389.134
384.439
379.637
374.748
369.789
364.786
359.761
354.738
349.735
344.767
339.845
334.985
330.199
325.495
320.875
316.334
311.862
307.459
303.127
298.88
294.73
290.683
286.729
282.859
279.068
275.347
271.687
268.061
264.434
260.783
257.11
253.434
249.788
246.194
242.659
239.185
235.776
232.452
229.246
226.194
223.318
220.648
218.221
216.099
214.367
213.079
212.254
211.875
211.909
212.327
213.108
214.227
215.641
217.289
219.099
221
222.941
224.861
226.682
228.308
229.619
230.524
230.973
230.945
230.429
229.425
227.935
225.979
223.61
220.888
217.877
214.651
211.266
207.794
204.327
200.962
197.802
194.937
192.433
190.342
188.722
187.608
187.011
186.923
187.304
188.118
189.321
190.843
192.605
194.512
196.451
198.335
200.08
201.576
202.726
203.428
203.568
203.093
201.967
200.123
197.6
194.49
190.948
187.286
183.806
180.722
178.353
177.038
176.866
177.85
179.794
182.135
184.538
186.843
188.679
189.766
190.245
190.454
191.24
194.039
199.914
209.804
224.949
246.309
274.367
309.094
349.518
393.88
440.399
486.732
529.826
566.64
594.182
610.054
612.846
601.662
576.217
537.673
488.462
431.782
371.543
311.431
254.77
205.158
165.613
137.625
121.414
116.048
119.63
130.213
145.692
163.251
180.24
194.944
206.414
214.514
219.704
222.43
223.248
223.153
223.134
223.724
225.102
227.075
229.209
231.145
232.554
233.009
232.106
229.651
225.629
220.185
213.571
206.018
197.745
189.005
180.061
171.151
162.449
154.075
146.118
138.67
131.823
125.65
120.195
115.47
111.466
108.158
105.511
103.471
101.962
100.891
100.152
99.633
99.244
98.921
98.61
98.268
97.86
97.355
96.74
96.021
95.207
94.313
93.349
92.325
91.262
90.199
89.189
88.3
87.586
87.077
86.793
86.744
86.935
87.361
87.995
88.784
89.664
90.58
91.488
92.355
93.138
93.767
94.161
94.233
93.906
93.129
91.85
90.011
87.567
84.499
80.816
76.574
71.838
66.653
61.068
55.132
48.912
42.513
36.037
29.577
23.222
17.046
11.133
5.589
0.497
-4.097
-8.167
-11.729
-14.797
-17.36
-19.431
-21.048
-22.271
-23.197
-23.913
-24.489
-25.002
-25.535
-26.179
-27.04
-28.196
-29.692
-31.565
-33.843
-36.557
-39.76
-43.472
-47.68
-52.353
-57.44
-62.888
-68.661
-74.702
-80.933
-87.286
-93.691
-100.097
-106.477
-112.796
-119.016
-125.096
-130.986
-136.654
-142.09
-147.286
-152.245
-156.973
-161.473
-165.756
-169.846
-173.755
-177.49
-181.057
-184.452
-187.675
-190.736
-193.642
-196.406
-199.043
-201.561
-203.966
-206.26
-208.441
-210.515
-212.496
-214.405
-216.261
-218.081
-219.873
-221.644
-223.397
-225.126
-226.807
-228.406
-229.871
-231.151
-232.212
-233.021
-233.543
-233.731
-233.523
-232.852
-231.66
-229.905
-227.547
-224.547
-220.875
-216.531
-211.545
-205.984
-199.931
-193.469
-186.668
-179.603
-172.364
-165.045
-157.745
-150.558
-143.565
-136.843
-130.477
-124.559
-119.167
-114.347
-110.109
-106.431
-103.28
-100.619
-98.411
-96.604
-95.13
-93.927
-92.944
-92.143
-91.497
-90.971
-90.516
-90.077
-89.611
-89.095
-88.521
-87.897
-87.234
-86.547
-85.86
-85.212
-84.652
-84.215
-83.921
-83.779
-83.789
-83.956
-84.293
-84.812
-85.514
-86.399
-87.461
-88.692
-90.087
-91.633
-93.31
-95.089
-96.938
-98.831
-100.752
-102.688
-104.628
-106.564
-108.482
-110.377
-112.243
-114.078
-115.875
-117.627
-119.326
-120.967
-122.55
-124.074
-125.543
-126.959
-128.322
-129.634
-130.898
-132.115
-133.288
-134.418
-135.506
-136.554
-137.567
-138.549
-139.506
-140.447
-141.378
-142.306
-143.241
-144.19
-145.162
-146.163
-147.2
-148.278
-149.404
-150.584
-151.823
-153.129
-154.506
-155.961
-157.499
-159.129
-160.854
-162.677
-164.599
-166.618
-168.735
-170.951
-173.268
-175.686
-178.208
-180.831
-183.558
-186.388
-189.316
-192.334
-195.422
-198.559
-201.728
-204.915
-208.105
-211.289
-214.451
-217.574
-220.646
-223.655
-226.592
-229.448
-232.21
-234.871
-237.435
-239.924
-242.377
-244.84
-247.352
-249.942
-252.625
-255.423
-258.378
-261.53
-264.924
-268.594
-272.52
-276.702
-281.173
-285.889
-290.761
-295.623
-300.134
-303.979
-307.036
-309.189
-310.37
-310.708
-310.248
-309.194
-308.18
-307.773
-308.248
-309.737
-311.963
-314.263
-316.245
-317.302
-316.178
-311.651
-302.635
-288.343
-268.957
-245.318
-218.033
-188.144
-157.603
-128.683
-104.088
-86.451
-77.267
-77.37
-87.739
-108.69
-139.361
-178.05
-221.966
-267.817
-312.899
-354.691
-390.29
-417.261
-434.236
-440.809
-437.736
-426.512
-408.611
-385.728
-360.138
-334.074
-309.117
-286.212
-265.617
-247.131
-230.527
-215.465
-201.255
-187.136
-172.704
-157.89
-142.929
-128.257
-114.243
-101.195
-89.491
-79.504
-71.419
-65.266
-60.939
-58.219
-56.896
-56.77
-57.61
-59.167
-61.224
-63.574
-66.014
-68.364
-70.461
-72.175
-73.422
-74.157
-74.351
-74
-73.127
-71.776
-70.01
-67.914
-65.559
-63.019
-60.377
-57.725
-55.181
-52.876
-50.901
-49.308
-48.126
-47.353
-46.98
-46.99
-47.332
-47.933
-48.722
-49.631
-50.61
-51.627
-52.63
-53.558
-54.336
-54.881
-55.142
-55.102
-54.751
-54.091
-53.13
-51.889
-50.417
-48.787
-47.063
-45.288
-43.481
-41.652
-39.827
-38.04
-36.332
-34.738
-33.266
-31.917
-30.695
-29.614
-28.694
-27.944
-27.354
-26.904
-26.585
-26.419
-26.45
-26.714
-27.232
-28.013
-29.061
-30.398
-32.068
-34.106
-36.53
-39.345
-42.537
-46.098
-50.029
-54.319
-58.943
-63.851
-68.968
-74.243
-79.65
-85.169
-90.795
-96.503
-102.247
-107.993
-113.717
-119.397
-125.011
-130.53
-135.917
-141.151
-146.222
-151.132
-155.901
-160.518
-164.953
-169.155
-173.055
-176.581
-179.673
-182.257
-184.257
-185.616
-186.293
-186.26
-185.499
-183.986
-181.691
-178.58
-174.613
-169.763
-164.013
-157.371
-149.881
-141.609
-132.641
-123.08
-113.038
-102.612
-91.884
-80.937
-69.85
-58.71
-47.605
-36.639
-25.921
-15.578
-5.755
3.434
11.903
19.599
26.504
32.611
37.929
42.467
46.236
49.254
51.546
53.139
54.064
54.37
54.119
53.404
52.349
51.054
49.598
48.038
46.409
44.733
43.033
41.316
39.578
37.815
36.02
34.187
32.319
30.4
28.409
26.305
24.029
21.537
18.801
15.802
12.536
9.002
5.199
1.143
-3.141
-7.63
-12.301
-17.133
-22.114
-27.221
-32.428
-37.702
-43.009
-48.316
-53.6
-58.84
-64.015
-69.11
-74.109
-79.001
-83.781
-88.443
-92.976
-97.371
-101.614
-105.696
-109.607
-113.34
-116.884
-120.23
-123.369
-126.29
-128.985
-131.442
-133.65
-135.599
-137.277
-138.674
-139.782
-140.592
-141.1
-141.298
-141.183
-140.751
-139.998
-138.922
-137.518
-135.786
-133.723
-131.328
-128.601
-125.543
-122.153
-118.434
-114.392
-110.028
-105.348
-100.354
-95.05
-89.44
-83.537
-77.352
-70.9
-64.198
-57.268
-50.133
-42.826
-35.372
-27.799
-20.13
-12.385
-4.586
3.241
11.076
18.895
26.68
34.424
42.119
49.761
57.356
64.912
72.443
79.975
87.517
95.074
102.644
110.216
117.779
125.321
132.814
140.23
147.534
154.675
161.601
168.253
174.552
180.421
185.786
190.56
194.685
198.114
200.802
202.725
203.863
204.213
203.789
202.62
200.737
198.192
195.051
191.396
187.338
182.983
178.429
173.772
169.094
164.469
159.977
155.683
151.64
147.881
144.424
141.279
138.454
135.939
133.698
131.664
129.744
127.853
125.926
123.902
121.739
119.399
116.825
113.962
110.764
107.197
103.267
99.007
94.438
89.57
84.489
79.354
74.445
70.151
66.726
64.271
62.864
62.573
63.473
65.616
68.731
72.15
75.391
78.285
80.925
83.659
86.669
90.047
94.456
101.183
111.491
126.31
145.833
169.507
196.918
227.504
259.749
291.288
319.206
340.487
353.045
355.648
346.99
326.303
294.092
251.943
202.653
149.779
96.393
45.248
-0.578
-38.49
-66.999
-85.606
-95.06
-96.991
-93.001
-84.817
-74.666
-64.637
-56.133
-49.926
-46.057
-44.082
-43.566
-44.003
-44.579
-44.468
-43.227
-40.739
-37.187
-32.934
-28.274
-23.453
-18.808
-14.706
-11.36
-8.851
-7.153
-6.134
-5.681
-5.695
-6.037
-6.543
-7.047
-7.402
-7.495
-7.265
-6.667
-5.661
-4.224
-2.331
0.03
2.86
6.165
9.945
14.188
18.868
23.946
29.361
35.035
40.896
46.873
52.913
58.98
65.046
71.089
77.091
83.042
88.931
94.741
100.459
106.065
111.546
116.895
122.111
127.201
132.168
137.016
141.742
146.34
150.8
155.113
159.267
163.242
167.022
170.589
173.93
177.039
179.912
182.542
184.924
187.057
188.945
190.599
192.031
193.246
194.245
195.022
195.575
195.906
196.015
195.905
195.569
194.997
194.184
193.132
191.838
190.295
188.484
186.371
183.932
181.162
178.071
174.684
171.025
167.126
163.023
158.769
154.43
150.071
145.743
141.486
137.344
133.367
129.626
126.204
123.169
120.566
118.423
116.753
115.569
114.868
114.632
114.818
115.365
116.221
117.352
118.732
120.335
122.125
124.051
126.052
128.082
130.109
132.105
134.05
135.922
137.709
139.416
141.065
142.69
144.311
145.935
147.557
149.172
150.78
152.384
153.985
155.575
157.144
158.681
160.174
161.614
162.986
164.265
165.418
166.409
167.209
167.797
168.155
168.267
168.12
167.701
167.001
166.019
164.75
163.193
161.344
159.199
156.756
154.017
150.986
147.668
144.065
140.183
136.025
131.593
126.895
121.936
116.724
111.263
105.558
99.615
93.442
87.052
80.461
73.684
66.741
59.651
52.438
45.133
37.765
30.36
22.94
15.515
8.1
0.711
-6.636
-13.924
-21.141
-28.292
-35.371
-42.374
-49.302
-56.151
-62.936
-69.682
-76.406
-83.118
-89.815
-96.478
-103.091
-109.638
-116.097
-122.441
-128.636
-134.629
-140.38
-145.862
-151.033
-155.855
-160.276
-164.219
-167.633
-170.472
-172.695
-174.279
-175.205
-175.453
-175.029
-173.946
-172.219
-169.883
-166.963
-163.473
-159.451
-154.936
-149.971
-144.62
-138.94
-132.985
-126.835
-120.572
-114.261
-107.971
-101.751
-95.637
-89.69
-83.952
-78.458
-73.246
-68.334
-63.735
-59.476
-55.578
-52.046
-48.866
-45.984
-43.326
-40.833
-38.446
-36.104
-33.748
-31.287
-28.642
-25.76
-22.598
-19.126
-15.307
-11.087
-6.402
-1.223
4.456
10.607
17.175
24.12
31.395
38.937
46.671
54.493
62.318
70.084
77.753
85.284
92.631
99.73
106.508
112.921
118.941
124.554
129.759
134.546
138.911
142.872
146.462
149.731
152.712
155.419
157.85
160.005
161.891
163.526
164.929
166.104
167.053
167.78
168.297
168.626
168.785
168.78
168.6
168.231
167.669
166.917
165.99
164.905
163.664
162.268
160.721
159.029
157.194
155.21
153.046
150.653
147.978
144.977
141.623
137.904
133.819
129.361
124.504
119.223
113.5
107.333
100.76
93.814
86.485
78.832
70.998
63.223
55.902
49.402
43.868
39.386
36.036
33.741
32.371
31.608
30.653
28.694
25.383
20.644
14.687
8.091
1.435
-4.424
-7.875
-7.124
-0.956
11.222
29.254
52.213
78.869
107.395
134.919
157.939
173.217
178.21
171.219
151.513
119.114
75.076
21.818
-37.148
-97.981
-157.074
-211.157
-257.479
-293.888
-319.224
-333.574
-337.931
-333.78
-322.794
-306.735
-287.501
-267.032
-246.795
-227.643
-210.229
-195.105
-182.651
-173.213
-166.787
-162.971
-161.427
-161.915
-163.939
-166.825
-169.978
-172.769
-174.829
-176.155
-176.773
-176.775
-176.506
-176.456
-176.996
-178.437
-180.903
-184.285
-188.457
-193.243
-198.336
-203.371
-208.075
-212.259
-215.835
-218.821
-221.225
-223.057
-224.365
-225.219
-225.685
-225.82
-225.663
-225.242
-224.604
-223.813
-222.951
-222.09
-221.283
-220.564
-219.955
-219.467
-219.111
-218.89
-218.794
-218.808
-218.917
-219.107
-219.369
-219.689
-220.048
-220.424
-220.788
-221.119
-221.403
-221.633
-221.806
-221.922
-221.983
-221.991
-221.956
-221.885
-221.786
-221.665
-221.527
-221.376
-221.214
-221.041
-220.857
-220.658
-220.437
-220.18
-219.869
-219.49
-219.03
-218.477
-217.824
-217.059
-216.169
-215.144
-213.975
-212.656
-211.193
-209.591
-207.859
-206.015
-204.085
-202.101
-200.104
-198.124
-196.171
-194.259
-192.389
-190.567
-188.8
-187.085
-185.409
-183.756
-182.101
-180.41
-178.645
-176.745
-174.629
-172.214
-169.408
-166.136
-162.353
-158.007
-153.054
-147.455
-141.17
-134.176
-126.471
-118.052
-108.92
-99.093
-88.605
-77.52
-65.937
-53.954
-41.679
-29.207
-16.618
-4.001
8.549
20.938
33.071
44.865
56.257
67.177
77.548
87.314
96.438
104.906
112.739
119.956
126.581
132.64
138.152
143.153
147.692
151.818
155.59
159.056
162.256
165.236
168.048
170.732
173.319
175.822
178.235
180.555
182.778
184.899
186.909
188.791
190.519
192.065
193.396
194.483
195.309
195.851
196.089
196.008
195.599
194.862
193.807
192.444
190.78
188.826
186.595
184.103
181.373
178.428
175.293
171.991
168.544
164.969
161.285
157.508
153.653
149.73
145.747
141.713
137.638
133.533
129.407
125.27
121.13
116.995
112.872
108.771
104.698
100.665
96.678
92.747
88.881
85.089
81.382
77.766
74.251
70.843
67.546
64.366
61.308
58.375
55.57
52.896
50.353
47.944
45.67
43.531
41.528
39.659
37.925
36.323
34.851
33.509
32.292
31.198
30.224
29.366
28.62
27.982
27.446
27.008
26.663
26.405
26.228
26.128
26.097
26.132
26.226
26.372
26.567
26.803
27.077
27.382
27.714
28.068
28.437
28.819
29.207
29.597
29.985
30.364
30.732
31.083
31.413
31.718
31.992
32.231
32.43
32.586
32.693
32.749
32.748
32.689
32.568
32.385
32.139
31.827
31.447
31
30.482
29.893
29.234
28.504
27.704
26.837
25.908
24.922
23.885
22.798
21.661
20.476
19.245
17.972
16.664
15.329
13.975
12.621
11.286
9.99
8.752
7.582
6.487
5.48
4.573
3.782
3.131
2.636
2.308
2.16
2.203
2.433
2.834
3.371
3.996
4.673
5.382
6.099
6.794
7.429
7.956
8.326
8.505
8.442
8.059
7.338
6.332
5.18
4.138
3.445
3.264
3.798
5.296
7.788
11.129
14.949
18.59
21.562
23.649
24.535
23.875
21.749
18.612
15.406
13.572
14.257
18.312
26.791
40.812
61.023
87.383
118.991
154.27
191.598
229.101
264.331
294.354
316.249
327.836
327.791
315.3
290.101
252.971
205.763
151.471
93.827
36.264
-18.051
-65.824
-104.302
-131.932
-148.285
-154.191
-151.446
-141.914
-127.658
-111.302
-95.285
-81.238
-70.074
-61.92
-56.337
-52.864
-50.893
-49.428
-47.508
-44.609
-40.58
-35.626
-30.148
-24.489
-18.98
-14.051
-10.121
-7.417
-5.993
-5.753
-6.507
-8.084
-10.335
-13.087
-16.139
-19.306
-22.423
-25.353
-28.012
-30.317
-32.176
-33.519
-34.291
-34.461
-34.029
-33.011
-31.423
-29.299
-26.683
-23.621
-20.18
-16.431
-12.445
-8.298
-4.046
0.268
4.601
8.922
13.207
17.444
21.631
25.774
29.877
33.948
37.996
42.032
46.072
50.136
54.242
58.411
62.655
66.984
71.402
75.91
80.506
85.185
89.938
94.752
99.617
104.524
109.462
114.421
119.39
124.356
129.308
134.23
139.111
143.938
148.699
153.382
157.975
162.468
166.85
171.11
175.238
179.221
183.049
186.71
190.19
193.481
196.57
199.447
202.103
204.529
206.717
208.662
210.356
211.796
212.977
213.896
214.553
214.945
215.073
214.939
214.543
213.89
212.983
211.828
210.43
208.796
206.934
204.851
202.557
200.062
197.375
194.507
191.472
188.28
184.945
181.481
177.901
174.219
170.451
166.61
162.711
158.769
154.797
150.811
146.824
142.849
138.9
134.99
131.132
127.336
123.615
119.978
116.438
113.002
109.68
106.48
103.41
100.478
97.688
95.048
92.563
90.236
88.071
86.071
84.238
82.572
81.074
79.742
78.576
77.572
76.727
76.037
75.497
75.102
74.845
74.718
74.715
74.826
75.043
75.356
75.755
76.23
76.77
77.364
78.001
78.669
79.355
80.049
80.738
81.41
82.051
82.651
83.195
83.673
84.072
84.381
84.589
84.684
84.657
84.499
84.199
83.751
83.146
82.378
81.44
80.328
79.038
77.565
75.908
74.066
72.039
69.827
67.431
64.854
62.1
59.172
56.075
52.816
49.4
45.836
42.133
38.298
34.342
30.277
26.112
21.86
17.532
13.141
8.701
4.223
-0.278
-4.789
-9.297
-13.788
-18.249
-22.667
-27.028
-31.32
-35.531
-39.651
-43.667
-47.57
-51.35
-54.998
-58.506
-61.865
-65.069
-68.112
-70.989
-73.694
-76.225
-78.578
-80.752
-82.747
-84.561
-86.197
-87.657
-88.943
-90.059
-91.011
-91.802
-92.441
-92.936
-93.293
-93.522
-93.634
-93.639
-93.548
-93.372
-93.125
-92.818
-92.464
-92.077
-91.67
-91.256
-90.85
-90.465
-90.117
-89.82
-89.589
-89.44
-89.386
-89.442
-89.622
-89.939
-90.403
-91.026
-91.818
-92.786
-93.942
-95.293
-96.848
-98.613
-100.594
-102.794
-105.216
-107.862
-110.728
-113.81
-117.107
-120.615
-124.337
-128.272
-132.417
-136.767
-141.315
-146.05
-150.953
-156.005
-161.174
-166.43
-171.746
-177.094
-182.453
-187.798
-193.102
-198.33
-203.446
-208.415
-213.212
-217.811
-222.193
-226.351
-230.304
-234.081
-237.734
-241.313
-244.844
-248.366
-251.925
-255.562
-259.343
-263.33
-267.561
-272.094
-277.003
-282.273
-287.839
-293.55
-299.105
-304.247
-308.761
-312.354
-314.801
-316.094
-316.347
-315.908
-315.352
-315.042
-315.239
-316.325
-318.402
-321.134
-323.881
-325.549
-324.787
-320.499
-311.622
-296.901
-275.528
-247.454
-213.289
-174.363
-132.499
-89.767
-48.694
-12.382
16.179
34.779
41.958
36.879
19.439
-9.526
-48.157
-93.501
-142.032
-190.563
-236.22
-276.136
-307.982
-330.485
-343.381
-347.503
-344.472
-335.894
-323.445
-309.227
-295.186
-282.572
-272.031
-263.552
-256.672
-250.983
-246.028
-241.047
-235.281
-228.336
-220.143
-210.95
-201.185
-191.195
-181.297
-171.883
-163.367
-156.031
-150.005
-145.279
-141.743
-139.292
-137.84
-137.281
-137.472
-138.271
-139.542
-141.153
-143.014
-145.039
-147.121
-149.17
-151.096
-152.809
-154.261
-155.419
-156.251
-156.741
-156.879
-156.666
-156.131
-155.321
-154.281
-153.065
-151.717
-150.278
-148.807
-147.354
-145.958
-144.65
-143.448
-142.363
-141.422
-140.655
-140.079
-139.695
-139.481
-139.398
-139.412
-139.481
-139.557
-139.583
-139.479
-139.174
-138.617
-137.77
-136.594
-135.051
-133.081
-130.614
-127.604
-124.022
-119.858
-115.116
-109.801
-103.928
-97.532
-90.67
-83.416
-75.836
-67.978
-59.88
-51.582
-43.131
-34.591
-26.031
-17.505
-9.055
-0.716
7.484
15.516
23.36
31.014
38.493
45.822
53.015
60.074
66.995
73.771
80.401
86.892
93.248
99.465
105.539
111.465
117.238
122.857
128.317
133.603
138.695
143.571
148.217
152.626
156.797
160.729
164.422
167.88
171.109
174.119
176.921
179.524
181.936
184.167
186.225
188.124
189.88
191.505
193.013
194.417
195.727
196.955
198.109
199.199
200.232
201.213
202.15
203.049
203.917
204.762
205.591
206.41
207.225
208.04
208.859
209.686
210.521
211.365
212.217
213.076
213.94
214.808
215.68
216.554
217.43
218.306
219.181
220.054
220.922
221.784
222.632
223.462
224.272
225.059
225.824
226.566
227.278
227.955
228.589
229.17
229.689
230.128
230.462
230.67
230.736
230.651
230.415
230.026
229.484
228.784
227.927
226.919
225.771
224.492
223.084
221.553
219.914
218.192
216.43
214.663
212.907
211.163
209.421
207.668
205.887
204.055
202.135
200.077
197.834
195.372
192.669
189.699
186.431
182.812
178.777
174.277
169.285
163.79
157.799
151.318
144.37
136.993
129.247
121.212
112.957
104.533
95.982
87.345
78.673
70.033
61.498
53.129
44.97
37.059
29.426
22.102
15.102
8.426
2.054
-4.045
-9.891
-15.487
-20.831
-25.918
-30.746
-35.323
-39.652
-43.728
-47.546
-51.098
-54.382
-57.395
-60.129
-62.564
-64.674
-66.432
-67.821
-68.837
-69.48
-69.753
-69.664
-69.226
-68.461
-67.393
-66.045
-64.437
-62.585
-60.502
-58.208
-55.722
-53.07
-50.271
-47.337
-44.272
-41.081
-37.762
-34.318
-30.739
-27.01
-23.12
-19.067
-14.855
-10.502
-6.028
-1.458
3.176
7.843
12.498
17.082
21.536
25.787
29.768
33.418
36.668
39.446
41.689
43.344
44.37
44.746
44.46
43.512
41.911
39.681
36.864
33.522
29.73
25.573
21.13
16.468
11.661
6.787
1.922
-2.859
-7.496
-11.942
-16.16
-20.12
-23.801
-27.197
-30.342
-33.289
-36.099
-38.835
-41.53
-44.209
-46.921
-49.716
-52.651
-55.792
-59.162
-62.808
-66.812
-71.174
-75.811
-80.557
-85.09
-89.114
-92.471
-94.929
-96.221
-96.34
-95.437
-93.909
-92.477
-91.613
-91.434
-92.154
-93.994
-96.759
-99.945
-102.549
-103.037
-100.289
-93.627
-82.195
-65.097
-41.843
-12.394
22.474
61.188
102.241
144.044
184.352
220.5
249.758
269.584
278.209
274.571
258
228.781
188.51
139.767
85.92
30.719
-22.331
-69.685
-108.008
-135.202
-150.597
-154.611
-148.656
-134.637
-114.551
-91.135
-67.499
-45.956
-27.83
-13.679
-3.426
3.089
5.97
6.069
4.873
3.659
3.167
3.63
4.947
7.165
10.536
14.945
19.786
24.308
27.985
30.639
32.311
33.008
32.584
30.961
28.284
24.872
21.016
16.856
12.41
7.643
2.584
-2.682
-8.094
-13.629
-19.279
-25.026
-30.812
-36.542
-42.143
-47.576
-52.828
-57.914
-62.841
-67.598
-72.168
-76.538
-80.695
-84.641
-88.38
-91.909
-95.233
-98.364
-101.324
-104.151
-106.873
-109.498
-112.028
-114.448
-116.749
-118.926
-120.973
-122.879
-124.636
-126.237
-127.677
-128.956
-130.072
-131.015
-131.773
-132.33
-132.675
-132.804
-132.72
-132.426
-131.929
-131.237
-130.362
-129.32
-128.125
-126.789
-125.325
-123.741
-122.049
-120.264
-118.398
-116.467
-114.485
-112.465
-110.421
-108.366
-106.311
-104.269
-102.248
-100.259
-98.309
-96.408
-94.564
-92.787
-91.083
-89.46
-87.925
-86.482
-85.138
-83.895
-82.755
-81.722
-80.795
-79.974
-79.259
-78.649
-78.14
-77.731
-77.419
-77.201
-77.072
-77.028
-77.064
-77.176
-77.357
-77.603
-77.908
-78.265
-78.668
-79.111
-79.587
-80.09
-80.613
-81.149
-81.691
-82.233
-82.767
-83.287
-83.787
-84.26
-84.7
-85.101
-85.459
-85.767
-86.022
-86.218
-86.353
-86.422
-86.422
-86.349
-86.202
-85.978
-85.674
-85.289
-84.821
-84.27
-83.633
-82.911
-82.103
-81.209
-80.229
-79.165
-78.017
-76.787
-75.477
-74.089
-72.626
-71.091
-69.488
-67.819
-66.09
-64.305
-62.467
-60.582
-58.655
-56.69
-54.693
-52.668
-50.621
-48.557
-46.482
-44.4
-42.316
-40.236
-38.164
-36.106
-34.066
-32.05
-30.061
-28.106
-26.187
-24.309
-22.477
-20.695
-18.965
-17.291
-15.676
-14.123
-12.633
-11.208
-9.85
-8.559
-7.335
-6.18
-5.092
-4.071
-3.116
-2.227
-1.401
-0.636
0.069
0.717
1.31
1.85
2.341
2.786
3.188
3.55
3.875
4.168
4.433
4.674
4.895
5.102
5.301
5.498
5.697
5.905
6.127
6.369
6.635
6.93
7.257
7.62
8.023
8.469
8.963
9.508
10.109
10.77
11.494
12.284
13.144
14.077
15.084
16.166
17.325
18.566
19.893
21.31
22.816
24.409
26.083
27.827
29.63
31.475
33.337
35.192
37.016
38.79
40.495
42.115
43.63
45.017
46.25
47.309
48.181
48.861
49.351
49.661
49.806
49.817
49.739
49.616
49.489
49.391
49.337
49.344
49.43
49.61
49.906
50.325
50.855
51.468
52.116
52.734
53.245
53.546
53.511
53.013
51.925
50.14
47.571
44.132
39.745
34.327
27.793
20.085
11.17
1.056
-10.216
-22.571
-35.9
-50.065
-64.894
-80.197
-95.78
-111.456
-127.052
-142.393
-157.3
-171.579
-185.028
-197.467
-208.741
-218.748
-227.434
-234.772
-240.776
-245.483
-248.96
-251.319
-252.683
-253.176
-252.933
-252.064
-250.71
-249.075
-247.292
-245.435
-243.504
-241.34
-238.806
-235.843
-232.284
-227.984
-223.024
-217.573
-212.026
-207.035
-202.993
-200.146
-198.839
-199.068
-200.413
-202.194
-203.223
-202.102
-197.865
-189.535
-176.036
-156.877
-132.039
-102.106
-68.495
-32.748
3.719
38.928
70.494
96.247
114.148
122.865
121.876
110.605
88.835
57.508
18.455
-25.9
-72.607
-119.016
-162.735
-200.925
-231.131
-252.087
-263.478
-265.948
-260.928
-249.904
-234.569
-217.254
-200.176
-184.794
-171.939
-161.776
-153.989
-148.236
-144.022
-140.459
-136.646
-132.065
-126.525
-120.128
-113.168
-105.891
-98.523
-91.396
-84.852
-79.076
-74.12
-69.924
-66.323
-63.154
-60.288
-57.575
-54.872
-52.074
-49.099
-45.902
-42.48
-38.821
-34.917
-30.77
-26.375
-21.727
-16.824
-11.651
-6.218
-0.575
5.218
11.099
17.009
22.905
28.752
34.516
40.179
45.726
51.145
56.424
61.544
66.474
71.168
75.561
79.6
83.261
86.552
89.492
92.106
94.414
96.427
98.165
99.649
100.897
101.937
102.794
103.498
104.1
104.679
105.339
106.204
107.377
108.922
110.884
113.298
116.196
119.623
123.604
128.148
133.261
138.936
145.177
151.993
159.367
167.245
175.535
184.109
192.847
201.657
210.454
219.156
227.677
235.908
243.771
251.212
258.179
264.627
270.493
275.692
280.172
283.911
286.92
289.244
290.927
291.992
292.48
292.442
291.937
291.049
289.834
288.321
286.542
284.532
282.339
280.035
277.668
275.267
272.85
270.418
267.978
265.545
263.119
260.688
258.233
255.725
253.153
250.526
247.853
245.143
242.399
239.615
236.797
233.963
231.13
228.319
225.55
222.838
220.204
217.673
215.27
213.028
210.967
209.097
207.429
205.964
204.711
203.684
202.891
202.336
202.018
201.927
202.054
202.391
202.931
203.672
204.605
205.714
206.99
208.425
210.015
211.765
213.657
215.653
217.72
219.824
221.939
224.054
226.152
228.209
230.202
232.101
233.884
235.539
237.041
238.361
239.467
240.318
240.903
241.242
241.348
241.236
240.913
240.373
239.621
238.671
237.533
236.218
234.73
233.072
231.257
229.312
227.265
225.149
222.978
220.743
218.441
216.074
213.647
211.174
208.661
206.108
203.524
200.923
198.322
195.739
193.184
190.657
188.163
185.7
183.278
180.913
178.62
176.408
174.285
172.259
170.336
168.528
166.839
165.266
163.807
162.459
161.219
160.09
159.069
158.155
157.344
156.628
156.004
155.467
155.008
154.623
154.304
154.042
153.832
153.667
153.543
153.453
153.391
153.351
153.326
153.312
153.302
153.292
153.275
153.247
153.204
153.142
153.058
152.948
152.811
152.643
152.442
152.205
151.933
151.622
151.272
150.883
150.454
149.986
149.479
148.934
148.352
147.732
147.075
146.38
145.647
144.875
144.066
143.219
142.335
141.416
140.464
139.483
138.476
137.447
136.398
135.331
134.249
133.158
132.058
130.956
129.856
128.763
127.686
126.633
125.61
124.622
123.671
122.752
121.865
121.01
120.19
119.408
118.67
117.985
117.365
116.832
116.403
116.098
115.932
115.915
116.061
116.386
116.909
117.653
118.639
119.877
121.363
123.091
125.049
127.216
129.57
132.061
134.612
137.153
139.612
141.915
144.014
145.83
147.241
148.207
148.743
148.939
149.021
149.187
149.535
150.269
151.647
153.701
156.372
159.363
161.978
163.712
164.289
163.277
160.38
155.791
149.956
143.883
139.272
137.512
139.843
147.757
162.35
184.08
212.839
247.536
286.213
326.903
367.16
403.888
434.17
455.324
465.288
463.003
447.972
420.199
380.961
332.689
278.368
221.513
165.418
112.983
67.322
31.073
5.491
-9.325
-14.224
-10.901
-1.115
13.243
29.606
45.541
59.506
70.649
78.835
84.464
87.92
89.72
90.833
92.208
94.356
97.449
101.296
105.511
109.787
113.814
117.178
119.477
120.494
120.188
118.665
116.118
112.718
108.623
104.006
99.069
93.999
88.932
83.984
79.232
74.742
70.604
66.884
63.621
60.834
58.519
56.656
55.225
54.192
53.504
53.11
52.944
52.936
53.026
53.149
53.253
53.298
53.244
53.062
52.734
52.252
51.612
50.821
49.88
48.799
47.589
46.262
44.833
43.319
41.736
40.103
38.437
36.745
35.035
33.309
31.567
29.808
28.028
26.22
24.374
22.487
20.55
18.562
16.518
14.412
12.239
9.993
7.669
5.265
2.776
0.196
-2.482
-5.269
-8.168
-11.179
-14.297
-17.52
-20.846
-24.275
-27.799
-31.412
-35.111
-38.9
-42.791
-46.796
-50.923
-55.171
-59.532
-63.998
-68.566
-73.237
-78.019
-82.916
-87.938
-93.098
-98.42
-103.929
-109.64
-115.548
-121.626
-127.842
-134.169
-140.579
-147.06
-153.601
-160.186
-166.806
-173.444
-180.081
-186.696
-193.253
-199.703
-205.996
-212.092
-217.968
-223.642
-229.143
-234.507
-239.781
-244.997
-250.178
-255.349
-260.521
-265.706
-270.921
-276.182
-281.516
-286.968
-292.584
-298.411
-304.49
-310.822
-317.389
-324.164
-331.092
-338.136
-345.265
-352.45
-359.671
-366.919
-374.176
-381.431
-388.678
-395.887
-403.026
-410.055
-416.925
-423.61
-430.099
-436.384
-442.478
-448.392
-454.13
-459.704
-465.125
-470.392
-475.51
-480.477
-485.276
-489.902
-494.358
-498.644
-502.775
-506.768
-510.631
-514.384
-518.04
-521.594
-525.043
-528.376
-531.562
-534.579
-537.4
-539.989
-542.331
-544.422
-546.252
-547.82
-549.118
-550.112
-550.774
-551.065
-550.932
-550.354
-549.308
-547.77
-545.748
-543.261
-540.334
-537.018
-533.342
-529.306
-524.92
-520.186
-515.121
-509.775
-504.193
-498.43
-492.563
-486.658
-480.789
-475.048
-469.493
-464.161
-459.082
-454.262
-449.726
-445.534
-441.731
-438.355
-435.434
-432.965
-430.948
-429.383
-428.242
-427.482
-427.048
-426.86
-426.861
-427.02
-427.305
-427.693
-428.151
-428.621
-429.056
-429.424
-429.694
-429.849
-429.87
-429.728
-429.419
-428.955
-428.358
-427.664
-426.895
-426.053
-425.144
-424.17
-423.133
-422.048
-420.918
-419.737
-418.499
-417.2
-415.837
-414.413
-412.922
-411.348
-409.674
-407.879
-405.95
-403.882
-401.67
-399.31
-396.797
-394.131
-391.313
-388.353
-385.259
-382.037
-378.694
-375.234
-371.666
-368
-364.246
-360.412
-356.503
-352.524
-348.483
-344.388
-340.253
-336.087
-331.897
-327.689
-323.467
-319.233
-314.984
-310.714
-306.409
-302.057
-297.649
-293.178
-288.641
-284.03
-279.336
-274.545
-269.644
-264.621
-259.467
-254.175
-248.746
-243.203
-237.574
-231.906
-226.25
-220.643
-215.136
-209.785
-204.639
-199.763
-195.219
-191.043
-187.298
-184.059
-181.324
-179.047
-177.103
-175.237
-173.234
-170.91
-167.997
-164.29
-159.774
-154.553
-148.957
-143.526
-138.628
-134.564
-131.756
-130.349
-130.062
-130.297
-130.029
-127.993
-123.119
-114.322
-100.316
-80.246
-54.015
-22.189
14.003
52.891
92.553
130.593
164.018
189.913
206.108
211.179
204.263
185.135
154.484
114.025
66.609
15.747
-35.309
-83.592
-126.09
-160.222
-184.459
-198.311
-202.454
-198.485
-188.088
-173.077
-155.756
-138.35
-122.374
-108.704
-97.528
-88.48
-81.167
-75.1
-69.413
-63.207
-55.981
-47.58
-38.142
-28.011
-17.483
-6.831
3.531
13.15
21.752
29.232
35.612
41.017
45.541
49.254
52.27
54.739
56.796
58.562
60.098
61.417
62.551
63.555
64.494
65.438
66.428
67.475
68.602
69.857
71.283
72.92
74.782
76.862
79.16
81.687
84.479
87.573
90.991
94.738
98.819
103.246
108.049
113.27
118.918
124.971
131.404
138.191
145.315
152.756
160.474
168.406
176.482
184.653
192.888
201.165
209.459
217.731
225.934
234.028
241.992
249.823
257.511
265.051
272.439
279.691
286.848
293.961
301.066
308.176
315.283
322.377
329.445
336.477
343.457
350.354
357.135
363.775
370.257
376.561
382.656
388.491
393.996
399.102
403.764
407.952
411.644
414.82
417.465
419.572
421.155
422.242
422.845
422.972
422.626
421.818
420.577
418.949
416.998
414.786
412.365
409.791
407.132
404.46
401.843
399.358
397.054
394.973
393.179
391.726
390.667
390.046
389.887
390.198
390.981
392.227
393.918
396.032
398.521
401.327
404.386
407.617
410.954
414.338
417.693
420.954
424.065
426.973
429.641
432.047
434.163
435.973
437.47
438.644
439.505
440.075
440.379
440.457
440.343
440.068
439.671
439.19
438.649
438.067
437.449
436.785
436.07
435.298
434.455
433.531
432.511
431.372
430.094
428.661
427.048
425.232
423.178
420.844
418.204
415.253
411.998
408.463
404.678
400.674
396.495
392.194
387.822
383.426
379.044
374.704
370.444
366.312
362.365
358.677
355.301
352.263
349.583
347.263
345.293
343.655
342.308
341.19
340.249
339.445
338.747
338.139
337.588
337.054
336.486
335.828
335.032
334.065
332.894
331.495
329.858
327.981
325.886
323.612
321.185
318.615
315.905
313.05
310.052
306.919
303.655
300.27
296.775
293.184
289.521
285.804
282.039
278.221
274.332
270.344
266.24
262.008
257.636
253.119
248.446
243.616
238.639
233.514
228.231
222.767
217.08
211.142
204.945
198.485
191.77
184.817
177.641
170.276
162.772
155.173
147.522
139.852
132.179
124.543
117.002
109.633
102.531
95.774
89.415
83.505
78.095
73.217
68.889
65.097
61.797
58.947
56.517
54.479
52.809
51.454
50.327
49.325
48.326
47.223
45.925
44.344
42.381
39.964
37.04
33.588
29.615
25.124
20.1
14.532
8.422
1.807
-5.244
-12.635
-20.262
-28.019
-35.802
-43.514
-51.055
-58.34
-65.305
-71.902
-78.091
-83.824
-89.034
-93.648
-97.623
-100.936
-103.592
-105.627
-107.085
-108.024
-108.512
-108.605
-108.36
-107.829
-107.053
-106.087
-104.996
-103.848
-102.737
-101.755
-100.984
-100.506
-100.393
-100.698
-101.464
-102.69
-104.369
-106.528
-109.137
-112.112
-115.299
-118.423
-121.206
-123.444
-124.956
-125.59
-125.36
-124.382
-122.93
-121.51
-120.626
-120.674
-121.821
-123.938
-126.54
-128.902
-130.178
-129.287
-125.014
-116.187
-102.064
-82.46
-57.903
-29.468
1.713
34.152
65.753
94.073
116.713
131.609
137.588
134.097
120.517
96.71
63.474
22.498
-23.702
-72.337
-121.164
-168.12
-210.874
-247.258
-275.529
-294.897
-305.723
-308.811
-304.948
-295.108
-280.452
-262.486
-243.164
-223.953
-205.728
-189.34
-175.324
-164.058
-156.114
-151.537
-149.664
-149.946
-151.737
-154.115
-156.629
-158.904
-160.261
-160.462
-159.645
-157.903
-155.66
-153.545
-151.783
-150.526
-150.017
-150.203
-150.976
-152.276
-153.823
-155.287
-156.506
-157.337
-157.686
-157.584
-157.033
-156.037
-154.66
-152.966
-151.011
-148.868
-146.592
-144.231
-141.842
-139.456
-137.105
-134.819
-132.618
-130.525
-128.55
-126.688
-124.935
-123.288
-121.743
-120.295
-118.932
-117.622
-116.335
-115.045
-113.732
-112.385
-110.999
-109.569
-108.101
-106.611
-105.121
-103.656
-102.236
-100.871
-99.57
-98.348
-97.223
-96.22
-95.36
-94.647
-94.076
-93.641
-93.326
-93.11
-92.957
-92.805
-92.591
-92.269
-91.802
-91.172
-90.367
-89.363
-88.139
-86.682
-84.992
-83.099
-81.055
-78.912
-76.744
-74.644
-72.728
-71.15
-70.071
-69.618
-69.903
-71.02
-73.053
-76.098
-80.255
-85.596
-92.17
-99.996
-109.051
-119.3
-130.681
-143.083
-156.365
-170.343
-184.81
-199.59
-214.518
-229.423
-244.142
-258.492
-272.27
-285.301
-297.425
-308.495
-318.406
-327.074
-334.441
-340.505
-345.292
-348.861
-351.296
-352.673
-353.062
-352.553
-351.24
-349.232
-346.669
-343.684
-340.404
-336.971
-333.495
-330.064
-326.755
-323.608
-320.642
-317.868
-315.277
-312.86
-310.613
-308.518
-306.558
-304.709
-302.928
-301.17
-299.388
-297.524
-295.534
-293.393
-291.082
-288.598
-285.951
-283.151
-280.215
-277.166
-274.021
-270.796
-267.508
-264.168
-260.795
-257.409
-254.029
-250.685
-247.395
-244.174
-241.028
-237.96
-234.963
-232.034
-229.17
-226.363
-223.609
-220.909
-218.262
-215.68
-213.178
-210.767
-208.453
-206.236
-204.108
-202.066
-200.11
-198.239
-196.454
-194.748
-193.11
-191.538
-190.029
-188.583
-187.189
-185.824
-184.455
-183.055
-181.616
-180.147
-178.667
-177.188
-175.728
-174.308
-172.957
-171.718
-170.629
-169.704
-168.956
-168.395
-168.047
-167.955
-168.174
-168.743
-169.676
-170.968
-172.604
-174.577
-176.874
-179.469
-182.328
-185.405
-188.677
-192.152
-195.84
-199.748
-203.859
-208.134
-212.523
-216.988
-221.508
-226.065
-230.648
-235.239
-239.815
-244.358
-248.845
-253.246
-257.49
-261.472
-265.08
-268.206
-270.765
-272.692
-273.927
-274.414
-274.091
-272.899
-270.781
-267.674
-263.527
-258.31
-252.015
-244.67
-236.347
-227.153
-217.214
-206.671
-195.65
-184.275
-172.673
-160.962
-149.265
-137.713
-126.445
-115.621
-105.396
-95.891
-87.199
-79.378
-72.442
-66.386
-61.179
-56.763
-53.079
-50.067
-47.654
-45.78
-44.373
-43.339
-42.574
-41.946
-41.315
-40.574
-39.633
-38.42
-36.889
-35.001
-32.729
-30.072
-27.026
-23.583
-19.74
-15.488
-10.819
-5.749
-0.3
5.49
11.571
17.915
24.499
31.296
38.284
45.442
52.741
60.164
67.684
75.247
82.8
90.288
97.648
104.842
111.831
118.583
125.083
131.312
137.272
142.989
148.501
153.849
159.086
164.272
169.502
174.929
180.717
187.037
194.05
201.924
210.869
221.046
232.508
245.182
258.832
273.161
287.933
302.891
317.681
332.104
346.221
360.366
375.273
391.743
410.263
431.176
454.806
481.006
508.888
536.848
562.477
583.093
596.505
600.801
594.101
575.276
544.551
503.431
454.672
401.752
347.883
296.193
250.268
213.297
187.088
172.151
167.883
172.863
185.792
205.406
229.449
255.325
281.244
306.092
329.215
350.382
368.955
383.89
395.107
403.209
408.521
411.308
411.814
410.141
406.995
403.698
400.952
398.924
397.8
397.548
398.121
399.578
401.545
403.253
404.272
404.433
403.647
402.051
399.755
396.789
393.376
389.842
386.368
383.047
379.886
376.781
373.67
370.513
367.215
363.695
359.895
355.786
351.403
346.792
341.975
336.968
331.777
326.418
320.933
315.368
309.774
304.219
298.786
293.582
288.754
284.429
280.721
277.73
275.505
274.092
273.531
273.841
275.026
277.081
279.975
283.678
288.158
293.357
299.2
305.586
312.376
319.431
326.618
333.804
340.891
347.796
354.45
360.81
366.854
372.575
377.978
383.07
387.853
392.331
396.524
400.455
404.163
407.697
411.095
414.391
417.595
420.699
423.677
426.49
429.077
431.355
433.233
434.61
435.388
435.479
434.793
433.24
430.728
427.162
422.459
416.562
409.428
401.032
391.358
380.385
368.1
354.525
339.698
323.676
306.531
288.332
269.165
249.139
228.381
207.036
185.241
163.114
140.76
118.299
95.866
73.627
51.768
30.453
9.838
-9.93
-28.713
-46.37
-62.793
-77.915
-91.709
-104.167
-115.278
-125.015
-133.349
-140.281
-145.848
-150.129
-153.232
-155.27
-156.373
-156.691
-156.389
-155.644
-154.606
-153.383
-152.054
-150.693
-149.39
-148.252
-147.39
-146.891
-146.818
-147.219
-148.13
-149.567
-151.513
-153.916
-156.695
-159.765
-163.069
-166.576
-170.268
-174.121
-178.099
-182.153
-186.241
-190.327
-194.374
-198.332
-202.142
