Name,Criss Capps
Date of Birth,"Feb 5, 1952"
Recorded Date,2023-04-09 14:46:45 -0400
Classification,Sinus Rhythm
Symptoms,
Software Version,1.90
Device,"Watch5,4"
Sample Rate,512.844 hertz


Lead,Lead I
Unit,µV

261.163
330.048
378.112
403.714
414.841
415.484
406.798
390.388
362.091
320.688
268.658
208.125
144.735
83.586
26.643
-24.027
-67.973
-107.017
-140.897
-168.756
-189.121
-197.58
-194.699
-185.815
-179.508
-188.503
-217.627
-264.111
-318.435
-364.121
-391.579
-397.257
-385.296
-368.351
-354.942
-350.523
-355.186
-362.442
-368.33
-370.493
-368.521
-365.006
-361.092
-356.843
-352.307
-346.968
-340.727
-333.945
-326.819
-319.472
-312.031
-304.63
-297.384
-290.297
-283.355
-276.415
-269.096
-261.073
-252.025
-241.511
-229.42
-215.804
-200.506
-184.19
-168.423
-154.687
-144.636
-138.05
-131.976
-124.433
-115.787
-110.706
-115.95
-133.504
-157.013
-168.716
-149.556
-87.175
20.365
154.386
291.3
408.875
486.819
526.15
533.761
517.999
493.754
462.216
425.568
391.608
362.283
346.748
347.53
355.357
364.421
366.063
356.985
343.701
329.481
316.985
307.39
297.541
286.39
274.605
262.5
251.112
241.014
231.832
223.363
215.56
208.189
201.072
194.059
186.883
179.314
171.181
162.3
152.492
141.565
129.385
115.939
101.398
86.235
71.103
56.621
43.435
32.231
23.458
17.358
13.774
11.756
10.029
7.312
2.251
-6.259
-18.784
-35.407
-55.245
-75.932
-94.223
-106.418
-108.585
-97.024
-68.515
-20.531
48.109
135.266
235.846
344.02
454.071
563.749
672.275
774.208
858.833
908.764
908.12
852.708
748.738
612.706
458.41
288.551
104.919
-90.911
-286.131
-454.102
-576.293
-643.812
-662.596
-654.471
-633.927
-607.533
-576.781
-535.53
-483.25
-425.084
-365.655
-311.155
-265.843
-230.595
-205.521
-189.681
-181.108
-177.904
-178.769
-182.104
-185.861
-188.259
-187.716
-183.544
-176.222
-166.502
-154.95
-142.313
-129.539
-117.689
-107.98
-101.021
-96.678
-94.599
-94.314
-95.375
-97.402
-99.858
-102.037
-103.448
-103.876
-103.26
-101.708
-99.298
-96.024
-91.943
-87.16
-81.801
-76.003
-69.876
-63.49
-56.917
-50.25
-43.61
-37.153
-31.01
-25.265
-19.965
-15.127
-10.767
-6.909
-3.555
-0.678
1.768
3.835
5.565
6.99
8.147
9.086
9.864
10.554
11.205
11.852
12.522
13.234
14.01
14.874
15.836
16.899
18.072
19.364
20.786
22.351
24.053
25.89
27.862
29.977
32.247
34.69
37.324
40.178
43.296
46.722
50.494
54.637
59.141
63.999
69.203
74.747
80.637
86.864
93.39
100.173
107.177
114.349
121.633
128.933
136.1
142.98
149.439
155.374
160.733
165.483
169.584
173.018
175.783
177.889
179.403
180.412
180.977
181.187
181.159
181.01
180.912
181.102
181.797
183.17
185.399
188.586
192.792
198.19
204.965
213.148
222.57
232.997
244.095
255.268
266.129
276.23
284.539
291.882
299.684
307.225
315.188
320.19
316.564
307.176
295.467
290.225
303.455
331.531
363.509
381.939
367.26
314.383
230.019
128.967
24.592
-72.992
-158.07
-232.277
-289.278
-326.282
-348.066
-352.617
-349.152
-348.592
-350.014
-361.03
-383.749
-412.128
-449.27
-489.565
-523.146
-546.249
-550.592
-534.272
-505.406
-474.134
-451.061
-442.973
-448.531
-458.751
-466.502
-467.455
-459.814
-448.821
-438.084
-428.592
-422.011
-416.785
-411.619
-406.94
-402.439
-398.169
-394.356
-390.619
-386.607
-382.176
-377.176
-371.507
-365.181
-358.233
-350.692
-342.626
-334.13
-325.272
-316.117
-306.745
-297.215
-287.583
-277.929
-268.337
-258.892
-249.693
-240.806
-232.272
-224.129
-216.393
-209.073
-202.17
-195.674
-189.563
-183.825
-178.448
-173.421
-168.738
-164.385
-160.346
-156.6
-153.129
-149.913
-146.936
-144.182
-141.634
-139.28
-137.106
-135.103
-133.263
-131.575
-130.029
-128.613
-127.314
-126.123
-125.028
-124.02
-123.09
-122.23
-121.435
-120.701
-120.025
-119.404
-118.839
-118.328
-117.872
-117.471
-117.129
-116.848
-116.629
-116.478
-116.397
-116.391
-116.466
-116.626
-116.879
-117.228
-117.681
-118.244
-118.922
-119.72
-120.645
-121.7
-122.89
-124.22
-125.691
-127.306
-129.068
-130.976
-133.033
-135.237
-137.586
-140.079
-142.711
-145.479
-148.377
-151.401
-154.544
-157.798
-161.156
-164.61
-168.15
-171.767
-175.451
-179.191
-182.974
-186.79
-190.626
-194.468
-198.303
-202.116
-205.894
-209.622
-213.285
-216.868
-220.355
-223.732
-226.987
-230.103
-233.069
-235.872
-238.499
-240.94
-243.184
-245.221
-247.038
-248.626
-249.977
-251.082
-251.937
-252.536
-252.874
-252.949
-252.759
-252.307
-251.597
-250.628
-249.403
-247.924
-246.192
-244.225
-242.04
-239.651
-237.075
-234.332
-231.442
-228.432
-225.336
-222.166
-218.941
-215.677
-212.387
-209.106
-205.868
-202.704
-199.648
-196.713
-193.91
-191.267
-188.808
-186.544
-184.493
-182.656
-181.027
-179.654
-178.581
-177.84
-177.472
-177.475
-177.849
-178.606
-179.752
-181.308
-183.294
-185.703
-188.525
-191.777
-195.459
-199.579
-204.136
-209.042
-214.211
-219.571
-225.044
-230.588
-236.16
-241.688
-247.1
-252.328
-257.303
-261.985
-266.336
-270.282
-273.776
-276.796
-279.361
-281.591
-283.613
-285.523
-287.401
-289.319
-291.373
-293.694
-296.427
-299.678
-303.511
-308.013
-313.334
-319.56
-326.645
-334.32
-342.002
-349.023
-354.813
-358.753
-360.169
-358.613
-353.9
-346.427
-337.368
-328.043
-319.632
-313.307
-310.03
-310.295
-314.016
-319.816
-324.967
-326.387
-320.539
-303.662
-272.578
-224.191
-157.398
-74.883
19.656
121.629
227.76
339.358
455.004
567.09
662.25
718.368
717.266
655.414
538.872
386.08
215.042
30.195
-163.231
-360.704
-551.002
-709.104
-819.636
-876.344
-885.246
-865.9
-830.07
-787.312
-741.802
-692.026
-643.114
-595.305
-549.442
-508.743
-471.699
-441.916
-421.953
-410.553
-407.544
-409.576
-413.054
-416.23
-416.994
-413.941
-406.831
-395.835
-381.678
-365.56
-348.598
-331.881
-316.604
-303.878
-294.284
-287.869
-284.374
-283.28
-284.059
-286.25
-289.309
-292.667
-295.914
-298.775
-301.056
-302.66
-303.517
-303.565
-302.801
-301.275
-299.028
-296.112
-292.601
-288.568
-284.112
-279.336
-274.326
-269.155
-263.917
-258.722
-253.69
-248.952
-244.596
-240.67
-237.213
-234.241
-231.757
-229.745
-228.168
-226.97
-226.102
-225.522
-225.196
-225.095
-225.181
-225.408
-225.725
-226.073
-226.41
-226.701
-226.914
-227.022
-227.004
-226.843
-226.53
-226.065
-225.442
-224.65
-223.68
-222.518
-221.154
-219.58
-217.789
-215.776
-213.539
-211.072
-208.367
-205.422
-202.23
-198.788
-195.095
-191.148
-186.943
-182.481
-177.765
-172.801
-167.599
-162.163
-156.496
-150.6
-144.475
-138.133
-131.6
-124.897
-118.041
-111.054
-103.958
-96.78
-89.561
-82.321
-75.065
-67.799
-60.523
-53.258
-46.043
-38.91
-31.896
-25.021
-18.279
-11.682
-5.259
0.982
7.037
12.911
18.631
24.175
29.468
34.449
39.052
43.237
46.998
50.316
53.163
55.509
57.308
58.533
59.185
59.233
58.632
57.334
55.268
52.433
48.904
44.738
39.991
34.704
28.889
22.576
15.82
8.663
1.147
-6.697
-14.853
-23.273
-31.88
-40.6
-49.342
-58.063
-66.778
-75.486
-84.174
-92.826
-101.404
-109.887
-118.272
-126.537
-134.641
-142.547
-150.21
-157.604
-164.729
-171.58
-178.156
-184.44
-190.392
-195.982
-201.19
-205.997
-210.391
-214.356
-217.871
-220.928
-223.538
-225.71
-227.456
-228.786
-229.7
-230.204
-230.31
-230.032
-229.387
-228.395
-227.072
-225.44
-223.521
-221.341
-218.927
-216.303
-213.49
-210.511
-207.388
-204.146
-200.809
-197.401
-193.945
-190.463
-186.98
-183.519
-180.102
-176.752
-173.487
-170.327
-167.288
-164.388
-161.641
-159.062
-156.663
-154.454
-152.447
-150.649
-149.069
-147.712
-146.583
-145.684
-145.018
-144.583
-144.379
-144.401
-144.645
-145.105
-145.773
-146.64
-147.697
-148.933
-150.334
-151.889
-153.581
-155.397
-157.319
-159.329
-161.409
-163.541
-165.705
-167.881
-170.05
-172.191
-174.286
-176.314
-178.255
-180.091
-181.803
-183.372
-184.781
-186.013
-187.052
-187.884
-188.495
-188.873
-189.009
-188.891
-188.514
-187.871
-186.957
-185.77
-184.308
-182.572
-180.564
-178.289
-175.752
-172.962
-169.927
-166.659
-163.17
-159.475
-155.589
-151.529
-147.314
-142.962
-138.493
-133.929
-129.29
-124.598
-119.875
-115.142
-110.422
-105.735
-101.101
-96.54
-92.07
-87.71
-83.476
-79.384
-75.446
-71.677
-68.086
-64.683
-61.475
-58.468
-55.666
-53.069
-50.678
-48.491
-46.504
-44.711
-43.106
-41.678
-40.417
-39.311
-38.346
-37.507
-36.776
-36.137
-35.572
-35.063
-34.591
-34.139
-33.687
-33.219
-32.718
-32.168
-31.554
-30.864
-30.084
-29.203
-28.212
-27.103
-25.871
-24.512
-23.023
-21.406
-19.665
-17.807
-15.841
-13.775
-11.624
-9.4
-7.119
-4.795
-2.443
-0.077
2.289
4.634
6.94
9.184
11.35
13.417
15.369
17.189
18.861
20.375
21.729
22.921
23.946
24.792
25.435
25.859
26.055
26.016
25.743
25.243
24.524
23.614
22.556
21.396
20.178
18.936
17.687
16.462
15.3
14.257
13.412
12.826
12.546
12.616
13.053
13.858
15.011
16.449
18.078
19.804
21.518
23.114
24.487
25.503
26.051
25.954
24.957
22.9
19.739
15.622
10.986
6.367
2.269
-0.666
-1.695
-0.295
3.713
9.795
16.637
22.646
26.298
26.256
21.351
10.902
-4.84
-24.125
-43.695
-59.327
-66.541
-61.2
-39.281
2.504
65.941
150.717
254.048
371.044
495.447
620.1
736.6
836.43
911.668
955.678
964.229
935.081
868.116
765.803
633.314
477.547
307.074
131.516
-39.832
-197.42
-333.944
-445.715
-530.26
-585.22
-606.304
-588.449
-532.379
-448.497
-355.704
-274.318
-216.856
-183.272
-163.39
-146.538
-127.271
-106.763
-91.553
-85.531
-87.948
-95.501
-102.447
-104.814
-101.762
-93.546
-81.277
-66.29
-49.63
-32.397
-16.123
-2.239
8.583
16.123
20.576
22.481
22.34
20.648
18.037
15.126
12.289
9.783
7.779
6.339
5.578
5.587
6.371
7.907
10.164
13.102
16.667
20.797
25.392
30.338
35.549
40.953
46.49
52.079
57.617
62.987
68.071
72.789
77.084
80.914
84.258
87.109
89.485
91.419
92.962
94.153
95.025
95.603
95.907
95.965
95.815
95.499
95.069
94.567
94.024
93.472
92.936
92.437
91.99
91.602
91.276
91.018
90.837
90.747
90.764
90.902
91.172
91.587
92.154
92.883
93.782
94.859
96.121
97.575
99.226
101.082
103.149
105.434
107.938
110.662
113.603
116.758
120.123
123.692
127.456
131.406
135.531
139.819
144.26
148.838
153.539
158.345
163.238
168.2
173.211
178.249
183.293
188.32
193.309
198.234
203.074
207.804
212.402
216.845
221.109
225.172
229.012
232.609
235.943
238.994
241.744
244.176
246.275
248.025
249.416
250.435
251.073
251.323
251.178
250.635
249.691
248.346
246.602
244.462
241.932
239.019
235.733
232.084
228.084
223.747
219.089
214.125
208.872
203.349
197.574
191.568
185.351
178.944
172.367
165.644
158.794
151.841
144.806
137.71
130.574
123.419
116.267
109.135
102.044
95.012
88.056
81.193
74.437
67.804
61.307
54.958
48.768
42.746
36.903
31.247
25.784
20.522
15.467
10.623
5.996
1.589
-2.594
-6.551
-10.28
-13.78
-17.048
-20.086
-22.892
-25.468
-27.815
-29.933
-31.826
-33.495
-34.943
-36.175
-37.192
-38
-38.603
-39.005
-39.211
-39.226
-39.055
-38.704
-38.178
-37.483
-36.626
-35.615
-34.455
-33.157
-31.727
-30.176
-28.512
-26.747
-24.89
-22.953
-20.947
-18.883
-16.774
-14.631
-12.467
-10.294
-8.125
-5.97
-3.843
-1.754
0.285
2.264
4.173
6.001
7.74
9.381
10.915
12.336
13.634
14.806
15.844
16.745
17.505
18.121
18.593
18.919
19.1
19.14
19.04
18.805
18.439
17.95
17.344
16.63
15.815
14.91
13.925
12.871
11.757
10.596
9.398
8.174
6.935
5.691
4.453
3.229
2.03
0.864
-0.261
-1.336
-2.353
-3.307
-4.189
-4.996
-5.723
-6.368
-6.928
-7.403
-7.793
-8.1
-8.325
-8.473
-8.549
-8.557
-8.504
-8.398
-8.246
-8.059
-7.845
-7.613
-7.374
-7.139
-6.917
-6.716
-6.546
-6.415
-6.329
-6.296
-6.322
-6.409
-6.564
-6.789
-7.09
-7.472
-7.936
-8.484
-9.118
-9.84
-10.648
-11.539
-12.507
-13.541
-14.631
-15.77
-16.948
-18.155
-19.381
-20.613
-21.842
-23.063
-24.263
-25.433
-26.553
-27.597
-28.551
-29.409
-30.176
-30.861
-31.473
-32.016
-32.504
-32.96
-33.395
-33.814
-34.202
-34.526
-34.769
-34.932
-35.028
-35.091
-35.135
-35.153
-35.137
-35.069
-34.931
-34.719
-34.398
-33.914
-33.25
-32.423
-31.491
-30.563
-29.719
-29.001
-28.445
-28.052
-27.844
-27.874
-28.181
-28.806
-29.803
-31.21
-33.101
-35.592
-38.726
-42.493
-46.825
-51.567
-56.597
-61.836
-67.204
-72.645
-78.097
-83.467
-88.679
-93.667
-98.344
-102.636
-106.443
-109.623
-112.116
-113.922
-115.11
-115.846
-116.264
-116.469
-116.587
-116.732
-117.038
-117.671
-118.732
-120.313
-122.594
-125.655
-129.531
-134.199
-139.322
-144.465
-149.278
-153.252
-155.781
-156.469
-154.986
-151.353
-146.394
-141.055
-136.018
-131.925
-129.605
-129.888
-133.193
-139.261
-145.21
-146.241
-140.204
-126.16
-104.471
-78.575
-45.162
3.92
73.188
168.685
288.473
418.468
548.363
666.557
759.541
823.952
853.993
842.827
794.312
711.953
601.602
472.566
328.954
173.582
11.709
-145.767
-287.225
-400.708
-476.607
-518.089
-529.903
-517.427
-489.49
-448.351
-396.767
-340.236
-282.4
-228.666
-184.042
-150.807
-129.778
-119.936
-119.141
-124.954
-134.654
-145.823
-155.928
-162.496
-164.324
-161.196
-153.503
-142.354
-129.072
-114.778
-100.901
-88.972
-79.762
-73.574
-70.382
-69.695
-71.009
-73.898
-77.713
-81.771
-85.665
-89.086
-91.878
-94.047
-95.512
-96.206
-96.152
-95.373
-93.9
-91.777
-89.017
-85.658
-81.785
-77.493
-72.898
-68.112
-63.231
-58.374
-53.643
-49.116
-44.872
-40.955
-37.389
-34.204
-31.407
-28.986
-26.932
-25.218
-23.803
-22.662
-21.754
-21.035
-20.461
-19.975
-19.532
-19.098
-18.644
-18.144
-17.582
-16.935
-16.19
-15.343
-14.386
-13.308
-12.102
-10.752
-9.247
-7.579
-5.742
-3.729
-1.533
0.856
3.447
6.248
9.266
12.511
15.99
19.712
23.684
27.909
32.387
37.118
42.099
47.326
52.794
58.496
64.424
70.567
76.918
83.465
90.197
97.101
104.162
111.366
118.695
126.131
133.657
141.25
148.889
156.551
164.213
171.85
179.437
186.948
194.355
201.63
208.745
215.674
222.387
228.856
235.054
240.955
246.531
251.759
256.614
261.073
265.115
268.719
271.868
274.544
276.73
278.413
279.58
280.22
280.325
279.888
278.905
277.375
275.298
272.677
269.519
265.831
261.624
256.912
251.71
246.035
239.908
233.351
226.388
219.046
211.351
203.332
195.021
186.447
177.644
168.642
159.475
150.177
140.78
131.317
121.823
112.329
102.868
93.473
84.175
75.004
65.99
57.16
48.542
40.16
32.038
24.197
16.658
9.439
2.554
-3.981
-10.157
-15.961
-21.389
-26.433
-31.091
-35.361
-39.243
-42.739
-45.853
-48.59
-50.956
-52.959
-54.609
-55.914
-56.888
-57.541
-57.887
-57.942
-57.719
-57.236
-56.508
-55.554
-54.39
-53.035
-51.507
-49.825
-48.005
-46.068
-44.029
-41.907
-39.718
-37.479
-35.204
-32.91
-30.611
-28.319
-26.049
-23.811
-21.617
-19.478
-17.404
-15.404
-13.487
-11.661
-9.933
-8.309
-6.796
-5.398
-4.119
-2.961
-1.928
-1.021
-0.238
0.419
0.953
1.366
1.661
1.842
1.914
1.883
1.753
1.532
1.224
0.838
0.38
-0.143
-0.724
-1.356
-2.03
-2.74
-3.477
-4.234
-5.003
-5.776
-6.546
-7.306
-8.047
-8.764
-9.45
-10.098
-10.703
-11.259
-11.762
-12.208
-12.592
-12.914
-13.171
-13.363
-13.491
-13.556
-13.559
-13.505
-13.396
-13.235
-13.029
-12.78
-12.494
-12.175
-11.83
-11.465
-11.087
-10.701
-10.316
-9.939
-9.577
-9.238
-8.928
-8.654
-8.423
-8.242
-8.115
-8.05
-8.051
-8.123
-8.27
-8.497
-8.806
-9.198
-9.672
-10.228
-10.862
-11.571
-12.348
-13.186
-14.078
-15.015
-15.991
-16.996
-18.023
-19.065
-20.111
-21.154
-22.183
-23.187
-24.15
-25.058
-25.891
-26.636
-27.278
-27.802
-28.196
-28.449
-28.549
-28.492
-28.27
-27.872
-27.288
-26.498
-25.487
-24.258
-22.813
-21.166
-19.343
-17.364
-15.254
-13.049
-10.775
-8.451
-6.084
-3.66
-1.166
1.396
4.012
6.649
9.272
11.873
14.45
17.001
19.547
22.104
24.69
27.358
30.132
32.998
35.915
38.795
41.527
44.039
46.282
48.22
49.833
51.072
51.881
52.221
52.037
51.27
49.855
47.69
44.709
40.924
36.4
31.263
25.678
19.763
13.612
7.324
0.979
-5.323
-11.475
-17.405
-23.043
-28.303
-33.087
-37.276
-40.801
-43.7
-46.088
-48.124
-49.988
-51.797
-53.664
-55.735
-58.154
-61.075
-64.634
-68.884
-73.902
-79.849
-86.797
-94.702
-103.291
-111.909
-119.823
-126.428
-131.043
-132.969
-131.793
-127.337
-120.017
-111.162
-102.176
-94.235
-88.538
-85.926
-86.644
-90.46
-95.867
-99.683
-98.476
-88.832
-67.033
-30.127
24.16
97.72
188.551
290.529
397.807
503.621
605.285
706.195
803.308
888.427
947.166
957.476
908.12
800.705
645.076
459.666
261.427
62.467
-123.298
-279.989
-397.588
-472.178
-509.513
-525.372
-530.213
-527.361
-515.241
-488.213
-446.188
-394.164
-338.244
-284.743
-237.161
-197.436
-167.183
-146.361
-134.146
-129.177
-129.318
-132.931
-138.503
-143.774
-146.702
-146.25
-142.215
-135.188
-126.236
-116.191
-105.852
-96.463
-89.229
-84.806
-83.355
-84.537
-87.698
-92.267
-97.751
-103.505
-108.898
-113.495
-117.003
-119.334
-120.555
-120.705
-119.816
-117.959
-115.217
-111.687
-107.489
-102.732
-97.529
-92.022
-86.346
-80.654
-75.075
-69.701
-64.624
-59.899
-55.555
-51.61
-48.07
-44.922
-42.158
-39.758
-37.682
-35.897
-34.359
-33.014
-31.816
-30.702
-29.621
-28.538
-27.424
-26.26
-25.035
-23.737
-22.36
-20.906
-19.373
-17.756
-16.053
-14.257
-12.361
-10.366
-8.267
-6.067
-3.763
-1.353
1.168
3.805
6.565
9.451
12.472
15.634
18.946
22.409
26.028
29.803
33.735
37.827
42.076
46.484
51.048
55.768
60.642
65.67
70.85
76.178
81.652
87.265
93.013
98.89
104.886
110.994
117.203
123.501
129.876
136.314
142.801
149.322
155.857
162.389
168.897
175.362
181.762
188.074
194.275
200.342
206.251
211.978
217.498
222.787
227.82
232.574
237.023
241.145
244.915
248.311
251.312
253.896
256.043
257.737
258.96
259.697
259.935
259.664
258.875
257.561
255.717
253.342
250.437
247.005
243.051
238.584
233.615
228.157
222.227
215.842
209.023
201.792
194.173
186.193
177.879
169.259
160.366
151.23
141.884
132.362
122.698
112.927
103.084
93.204
83.321
73.472
63.689
54.008
44.46
35.078
25.892
16.934
8.23
-0.193
-8.309
-16.097
-23.535
-30.605
-37.29
-43.576
-49.452
-54.908
-59.938
-64.536
-68.699
-72.428
-75.724
-78.591
-81.034
-83.062
-84.685
-85.913
-86.76
-87.241
-87.371
-87.167
-86.649
-85.836
-84.747
-83.405
-81.83
-80.045
-78.073
-75.937
-73.661
-71.268
-68.78
-66.221
-63.611
-60.974
-58.328
-55.693
-53.086
-50.526
-48.028
-45.606
-43.274
-41.044
-38.927
-36.931
-35.065
-33.334
-31.744
-30.298
-28.997
-27.842
-26.833
-25.968
-25.245
-24.66
-24.208
-23.885
-23.685
-23.6
-23.622
-23.744
-23.956
-24.248
-24.61
-25.031
-25.502
-26.011
-26.549
-27.107
-27.676
-28.248
-28.814
-29.366
-29.897
-30.4
-30.868
-31.297
-31.681
-32.018
-32.304
-32.538
-32.721
-32.853
-32.936
-32.97
-32.959
-32.903
-32.807
-32.671
-32.499
-32.295
-32.062
-31.806
-31.533
-31.249
-30.96
-30.675
-30.402
-30.149
-29.92
-29.723
-29.56
-29.436
-29.356
-29.324
-29.343
-29.417
-29.552
-29.755
-30.034
-30.395
-30.842
-31.375
-31.995
-32.697
-33.479
-34.337
-35.262
-36.252
-37.301
-38.416
-39.609
-40.884
-42.237
-43.654
-45.109
-46.581
-48.049
-49.487
-50.863
-52.153
-53.344
-54.438
-55.46
-56.423
-57.331
-58.171
-58.908
-59.521
-60.009
-60.383
-60.672
-60.905
-61.108
-61.33
-61.66
-62.151
-62.843
-63.736
-64.759
-65.869
-67.045
-68.243
-69.451
-70.649
-71.78
-72.805
-73.706
-74.383
-74.74
-74.78
-74.415
-73.607
-72.376
-70.58
-68.133
-65.184
-61.847
-57.999
-53.611
-48.532
-42.572
-36.194
-29.883
-23.733
-17.922
-12.837
-8.763
-6.302
-6.111
-7.834
-10.99
-15.456
-20.94
-27.214
-34.172
-41.275
-47.915
-54.266
-60.521
-66.686
-72.904
-79.049
-84.898
-90.508
-95.933
-100.971
-105.513
-109.522
-112.966
-116.01
-118.854
-121.616
-124.432
-127.457
-130.817
-134.642
-139.072
-144.19
-150.049
-156.754
-164.434
-173.11
-182.677
-192.81
-202.905
-212.342
-220.566
-226.934
-230.763
-231.592
-229.276
-224.24
-217.508
-210.245
-203.51
-198.329
-195.729
-196.319
-199.987
-205.534
-210.662
-212.428
-207.651
-193.27
-166.235
-123.911
-64.741
11.199
102.011
202.861
306.616
406.164
494.638
568.804
628.097
670.322
690.742
678.18
619.93
508.144
343.645
142.917
-68.821
-264.214
-420.647
-531.23
-601.017
-642.451
-667.919
-681.626
-681.558
-662.673
-623.518
-568.224
-503.946
-439.164
-379.698
-328.889
-289.175
-261.588
-245.912
-240.999
-244.651
-254.23
-267.378
-281.582
-294.218
-303.092
-307.033
-305.973
-300.587
-291.918
-280.962
-268.768
-256.568
-245.569
-236.458
-229.345
-223.978
-219.874
-216.56
-213.659
-210.728
-207.275
-203.024
-197.869
-191.79
-184.903
-177.335
-169.171
-160.563
-151.701
-142.711
-133.707
-124.798
-116.045
-107.531
-99.328
-91.463
-83.958
-76.837
-70.119
-63.844
-58.035
-52.689
-47.793
-43.327
-39.251
-35.538
-32.153
-29.046
-26.18
-23.519
-21.033
-18.704
-16.522
-14.466
-12.518
-10.655
-8.854
-7.097
-5.364
-3.635
-1.893
-0.12
1.701
3.583
5.54
7.588
9.743
12.021
14.44
17.015
19.761
22.691
25.817
29.149
32.694
36.46
40.45
44.669
49.117
53.796
58.707
63.848
69.217
74.809
80.62
86.644
92.873
99.298
105.91
112.698
119.649
126.75
133.987
141.344
148.806
156.354
163.971
171.636
179.331
187.035
194.725
202.378
209.972
217.482
224.883
232.15
239.258
246.18
252.892
259.369
265.584
271.514
277.133
282.418
287.345
291.892
296.036
299.758
303.038
305.859
308.203
310.057
311.408
312.244
312.558
312.341
311.59
310.302
308.477
306.119
303.231
299.823
295.903
291.484
286.583
281.218
275.407
269.176
262.547
255.549
248.21
240.561
232.633
224.461
216.079
207.522
198.827
190.029
181.166
172.275
163.393
154.556
145.799
137.159
128.667
120.358
112.261
104.407
96.822
89.533
82.562
75.931
69.658
63.759
58.248
53.135
48.428
44.131
40.247
36.775
33.71
31.048
28.778
26.889
25.368
24.199
23.365
22.845
22.619
22.665
22.958
23.474
24.187
25.07
26.097
27.241
28.475
29.772
31.106
32.451
33.782
35.075
36.307
37.456
38.501
39.425
40.209
40.838
41.299
41.58
41.673
41.568
41.262
40.75
40.032
39.108
37.98
36.651
35.128
33.418
31.528
29.469
27.251
24.886
22.388
19.771
17.048
14.235
11.347
8.399
5.408
2.388
-0.644
-3.675
-6.688
-9.67
-12.606
-15.484
-18.291
-21.016
-23.649
-26.18
-28.601
-30.907
-33.091
-35.148
-37.076
-38.873
-40.536
-42.067
-43.464
-44.731
-45.87
-46.883
-47.777
-48.556
-49.226
-49.793
-50.266
-50.651
-50.957
-51.191
-51.363
-51.48
-51.552
-51.588
-51.596
-51.585
-51.565
-51.544
-51.531
-51.532
-51.557
-51.61
-51.699
-51.829
-52.005
-52.231
-52.511
-52.848
-53.246
-53.707
-54.232
-54.821
-55.476
-56.195
-56.977
-57.819
-58.719
-59.672
-60.674
-61.72
-62.804
-63.921
-65.065
-66.227
-67.4
-68.575
-69.744
-70.898
-72.025
-73.116
-74.161
-75.15
-76.071
-76.917
-77.675
-78.338
-78.895
-79.336
-79.652
-79.833
-79.871
-79.758
-79.484
-79.043
-78.429
-77.636
-76.661
-75.5
-74.152
-72.616
-70.892
-68.982
-66.889
-64.618
-62.175
-59.566
-56.802
-53.894
-50.854
-47.696
-44.437
-41.093
-37.686
-34.235
-30.76
-27.285
-23.832
-20.425
-17.087
-13.842
-10.712
-7.719
-4.888
-2.243
0.194
2.398
4.348
6.024
7.408
8.484
9.239
9.667
9.763
9.525
8.946
8.018
6.732
5.087
3.088
0.738
-1.947
-4.944
-8.223
-11.735
-15.434
-19.271
-23.205
-27.201
-31.222
-35.226
-39.156
-42.951
-46.546
-49.887
-52.928
-55.62
-57.938
-59.893
-61.525
-62.92
-64.169
-65.331
-66.469
-67.667
-69.007
-70.611
-72.61
-75.077
-78.122
-81.909
-86.51
-91.913
-97.932
-104.069
-109.736
-114.473
-117.785
-119.095
-118.031
-114.439
-108.7
-101.93
-95.465
-90.265
-86.884
-86.162
-88.832
-94.746
-102.877
-109.754
-109.796
-100.186
-79.937
-49.593
-12.922
31.789
89.701
164.985
263.493
383.394
515.821
650.374
772.816
869.652
930.965
948.206
915.285
832.305
702.038
531.35
335.838
133.087
-55.881
-211.476
-326.367
-402.156
-449.036
-478.687
-495.514
-498.436
-482.801
-447.155
-395.57
-335.226
-274.992
-220.91
-176.408
-143.817
-123.362
-114.126
-114.607
-122.134
-133.598
-146.425
-157.889
-165.443
-167.862
-164.879
-156.91
-145.194
-131.243
-116.357
-102.09
-89.994
-80.832
-74.902
-72.151
-72.058
-74.075
-77.706
-82.247
-87.017
-91.611
-95.729
-99.225
-102.089
-104.227
-105.574
-106.148
-105.964
-105.049
-103.438
-101.142
-98.203
-94.717
-90.784
-86.528
-82.064
-77.491
-72.932
-68.492
-64.249
-60.288
-56.653
-53.37
-50.468
-47.956
-45.822
-44.054
-42.622
-41.486
-40.615
-39.968
-39.498
-39.159
-38.896
-38.66
-38.419
-38.142
-37.805
-37.388
-36.87
-36.238
-35.485
-34.602
-33.579
-32.407
-31.07
-29.557
-27.861
-25.974
-23.89
-21.604
-19.105
-16.386
-13.44
-10.258
-6.833
-3.159
0.773
4.97
9.433
14.164
19.161
24.421
29.943
35.72
41.746
48.013
54.514
61.239
68.179
75.322
82.656
90.165
97.834
105.646
113.581
121.62
129.741
137.922
146.14
154.371
162.59
170.772
178.89
186.916
194.823
202.584
210.169
217.551
224.702
231.594
238.2
244.494
250.45
256.043
261.249
266.046
270.41
274.322
277.762
280.712
283.157
285.081
286.473
287.322
287.622
287.367
286.555
285.184
283.258
280.78
277.759
274.204
270.126
265.541
260.466
254.921
248.926
242.507
235.688
228.496
220.961
213.111
204.978
196.593
187.989
179.2
170.259
161.201
152.061
142.874
133.675
124.499
115.38
106.351
97.444
88.692
80.124
71.769
63.655
55.808
48.253
41.013
34.108
27.558
21.379
15.584
10.186
5.192
0.609
-3.558
-7.309
-10.642
-13.559
-16.062
-18.157
-19.85
-21.147
-22.058
-22.595
-22.769
-22.595
-22.089
-21.266
-20.145
-18.744
-17.082
-15.178
-13.051
-10.723
-8.214
-5.547
-2.742
0.176
3.185
6.263
9.388
12.54
15.7
18.85
21.977
25.069
28.113
31.1
34.02
36.862
39.618
42.279
44.836
47.277
49.595
51.783
53.838
55.758
57.546
59.204
60.734
62.144
63.438
64.628
65.719
66.712
67.612
68.426
69.166
69.855
70.513
71.149
71.773
72.391
73.001
73.597
74.165
74.663
75.054
75.302
75.377
75.278
75.011
74.58
73.99
73.241
72.345
71.34
70.27
69.159
68.046
66.97
65.993
65.231
64.799
64.797
65.316
66.393
68.022
70.183
72.841
75.931
79.364
83.01
86.683
90.224
93.491
96.348
98.659
100.251
100.892
100.294
98.311
94.966
90.33
84.56
77.659
69.427
59.904
49.426
38.118
25.873
12.508
-2.395
-18.679
-35.397
-51.921
-67.956
-82.951
-96.364
-107.541
-115.442
-119.918
-121.895
-122.003
-120.714
-118.631
-116.057
-113.497
-111.875
-111.366
-111.44
-111.799
-112.181
-112.429
-112.724
-113.008
-112.951
-112.541
-111.973
-111.344
-110.741
-110.084
-109.143
-107.822
-106.123
-104.018
-101.475
-98.446
-94.877
-90.771
-86.156
-81.045
-75.453
-69.377
-62.828
-55.847
-48.49
-40.837
-32.967
-24.937
-16.802
-8.61
-0.399
7.792
15.928
23.984
31.929
39.725
47.34
54.732
61.867
68.712
75.239
81.422
87.237
92.66
97.67
102.253
106.396
110.091
113.337
116.133
118.476
120.364
121.784
122.714
123.129
123.011
122.343
121.118
119.347
117.04
114.215
110.894
107.079
102.782
98.03
92.853
87.312
81.491
75.469
69.376
63.388
57.563
51.881
46.222
40.323
33.99
27.135
19.665
11.5
2.851
-5.837
-13.92
-20.571
-25.325
-28.112
-29.111
-28.669
-27.484
-26.668
-27.55
-31.512
-39.32
-51.174
-66.834
-85.835
-107.621
-131.21
-155.405
-179.176
-201.987
-223.464
-243.417
-261.544
-276.885
-288.411
-295.006
-294.798
-285.317
-264.378
-229.836
-179.759
-113.448
-30.996
67.117
177.183
292.464
407.05
514.161
610.643
698.628
775.135
833.505
861.77
842.324
767.383
639.517
469.705
276.36
74.052
-125.601
-311.252
-472.185
-597.455
-680.924
-721.412
-722.034
-689.258
-629.135
-551.932
-472.419
-403.249
-353.685
-323.916
-304.171
-286.082
-265.578
-243.776
-227.895
-222.231
-226.294
-237.229
-249.543
-259.142
-264.376
-264.682
-260.581
-252.852
-242.278
-229.87
-216.862
-204.579
-194.228
-186.442
-181.293
-178.505
-177.522
-177.778
-178.74
-179.846
-180.583
-180.637
-179.881
-178.281
-175.879
-172.722
-168.845
-164.315
-159.218
-153.637
-147.658
-141.4
-135.013
-128.64
-122.408
-116.408
-110.69
-105.299
-100.275
-95.647
-91.439
-87.659
-84.303
-81.373
-78.874
-76.791
-75.097
-73.739
-72.638
-71.728
-70.958
-70.286
-69.678
-69.107
-68.542
-67.966
-67.367
-66.733
-66.048
-65.292
-64.439
-63.468
-62.363
-61.114
-59.714
-58.155
-56.427
-54.52
-52.424
-50.128
-47.624
-44.898
-41.933
-38.719
-35.248
-31.518
-27.529
-23.283
-18.78
-14.027
-9.031
-3.799
1.663
7.351
13.262
19.391
25.728
32.263
38.983
45.875
52.926
60.118
67.429
74.839
82.333
89.9
97.538
105.238
112.975
120.725
128.452
136.123
143.709
151.172
158.461
165.54
172.38
178.974
185.337
191.469
197.358
202.983
208.305
213.305
217.983
222.339
226.371
230.087
233.491
236.617
239.536
242.286
244.881
247.299
249.469
251.342
252.892
254.088
254.906
255.301
255.201
254.558
253.351
251.545
249.104
245.95
241.956
237.039
231.151
224.283
216.484
207.79
198.228
187.865
176.794
165.137
153.053
140.657
128.02
115.23
102.378
89.591
77.039
64.861
53.166
42.05
31.582
21.826
12.844
4.635
-2.849
-9.688
-15.999
-21.857
-27.293
-32.349
-37.059
-41.475
-45.663
-49.679
-53.559
-57.354
-61.121
-64.912
-68.769
-72.69
-76.631
-80.527
-84.288
-87.85
-91.172
-94.222
-96.978
-99.426
-101.555
-103.364
-104.865
-106.052
-106.907
-107.416
-107.569
-107.377
-106.873
-106.099
-105.111
-103.958
-102.686
-101.335
-99.935
-98.511
-97.082
-95.659
-94.247
-92.861
-91.519
-90.243
-89.053
-87.968
-86.998
-86.154
-85.441
-84.863
-84.422
-84.119
-83.955
-83.934
-84.057
-84.33
-84.757
-85.341
-86.082
-86.977
-88.022
-89.209
-90.53
-91.976
-93.534
-95.194
-96.945
-98.773
-100.669
-102.622
-104.618
-106.647
-108.696
-110.751
-112.801
-114.832
-116.83
-118.783
-120.678
-122.505
-124.251
-125.907
-127.463
-128.91
-130.242
-131.45
-132.529
-133.472
-134.276
-134.936
-135.451
-135.818
-136.039
-136.114
-136.046
-135.839
-135.498
-135.027
-134.433
-133.72
-132.896
-131.966
-130.938
-129.818
-128.614
-127.333
-125.983
-124.572
-123.109
-121.6
-120.054
-118.478
-116.878
-115.261
-113.634
-112.001
-110.368
-108.741
-107.123
-105.518
-103.931
-102.363
-100.818
-99.295
-97.795
-96.317
-94.86
-93.421
-91.999
-90.589
-89.189
-87.794
-86.401
-85.005
-83.602
-82.187
-80.755
-79.3
-77.817
-76.3
-74.743
-73.142
-71.491
-69.786
-68.023
-66.198
-64.307
-62.347
-60.317
-58.211
-56.029
-53.769
-51.429
-49.008
-46.506
-43.925
-41.267
-38.536
-35.735
-32.869
-29.944
-26.966
-23.942
-20.88
-17.789
-14.678
-11.559
-8.443
-5.343
-2.275
0.748
3.71
6.593
9.383
12.062
14.61
17.009
19.239
21.28
23.115
24.732
26.112
27.242
28.108
28.698
29.003
29.016
28.727
28.127
27.205
25.959
24.393
22.528
20.377
17.953
15.262
12.303
9.084
5.619
1.92
-2.002
-6.135
-10.463
-14.948
-19.524
-24.122
-28.687
-33.189
-37.637
-42.031
-46.338
-50.486
-54.369
-57.907
-61.063
-63.825
-66.143
-67.917
-69.129
-69.92
-70.618
-71.578
-72.962
-74.656
-76.478
-78.457
-80.587
-82.708
-84.434
-85.142
-84.565
-83.033
-81
-78.611
-75.931
-72.961
-69.889
-67.391
-65.75
-64.697
-64.098
-64.036
-64.851
-67.146
-71.121
-76.371
-82.641
-89.516
-95.835
-99.969
-99.361
-90.938
-72.297
-41.1
4.976
67.357
146.669
240.657
343.271
448.592
550.854
647.837
741.815
829.291
902.62
948.349
947.253
891.046
780.279
622.648
436.289
236.698
39.04
-137.362
-279.463
-379.671
-437.766
-465.841
-475.883
-473.919
-461.532
-434.95
-392.644
-338.791
-280.466
-225.242
-178.307
-142.62
-118.997
-106.501
-103.888
-109.008
-118.744
-130.658
-142.296
-150.682
-154.216
-152.353
-145.003
-133.195
-118.466
-102.019
-85.361
-70.328
-57.897
-48.511
-42.333
-38.894
-37.651
-38.21
-39.947
-42.2
-44.628
-47.031
-49.327
-51.607
-53.837
-55.892
-57.707
-59.187
-60.251
-60.866
-60.982
-60.573
-59.669
-58.327
-56.623
-54.625
-52.362
-49.85
-47.103
-44.132
-40.987
-37.738
-34.464
-31.271
-28.237
-25.409
-22.822
-20.484
-18.383
-16.499
-14.798
-13.236
-11.785
-10.426
-9.144
-7.936
-6.779
-5.642
-4.489
-3.267
-1.936
-0.466
1.17
2.989
5.001
7.213
9.622
12.216
14.989
17.937
21.059
24.359
27.837
31.49
35.312
39.296
43.437
47.727
52.16
56.728
61.423
66.239
71.172
76.216
81.368
86.62
91.964
97.391
102.89
108.454
114.07
119.728
125.417
131.124
136.839
142.552
148.253
153.931
159.575
165.175
170.72
176.199
181.602
186.918
192.133
197.236
202.213
207.053
211.742
216.267
220.614
224.771
228.724
232.459
235.965
239.227
242.232
244.968
247.423
249.585
251.443
252.988
254.209
255.099
255.65
255.856
255.712
255.211
254.352
253.13
251.544
249.594
247.279
244.602
241.566
238.176
234.438
230.36
225.95
221.218
216.177
210.838
205.217
199.328
193.188
186.814
180.225
173.44
166.48
159.366
152.118
144.759
137.311
129.795
122.233
114.648
107.06
99.492
91.964
84.498
77.112
69.828
62.665
55.641
48.774
42.081
35.579
29.281
23.203
17.357
11.756
6.409
1.327
-3.484
-8.015
-12.261
-16.219
-19.885
-23.258
-26.338
-29.125
-31.623
-33.835
-35.765
-37.419
-38.803
-39.925
-40.792
-41.414
-41.801
-41.962
-41.91
-41.655
-41.21
-40.588
-39.803
-38.869
-37.8
-36.61
-35.315
-33.93
-32.469
-30.948
-29.381
-27.785
-26.172
-24.559
-22.958
-21.383
-19.848
-18.363
-16.942
-15.594
-14.331
-13.16
-12.092
-11.133
-10.292
-9.573
-8.983
-8.526
-8.205
-8.025
-7.985
-8.088
-8.333
-8.719
-9.243
-9.904
-10.697
-11.619
-12.664
-13.825
-15.097
-16.472
-17.942
-19.499
-21.133
-22.835
-24.596
-26.405
-28.254
-30.131
-32.027
-33.931
-35.836
-37.729
-39.604
-41.449
-43.256
-45.017
-46.725
-48.371
-49.95
-51.456
-52.884
-54.23
-55.491
-56.665
-57.75
-58.744
-59.647
-60.457
-61.176
-61.805
-62.345
-62.799
-63.17
-63.462
-63.679
-63.828
-63.912
-63.937
-63.909
-63.833
-63.716
-63.564
-63.382
-63.178
-62.957
-62.727
-62.494
-62.264
-62.041
-61.829
-61.631
-61.45
-61.286
-61.138
-61.005
-60.883
-60.771
-60.667
-60.567
-60.47
-60.372
-60.272
-60.168
-60.055
-59.927
-59.777
-59.594
-59.369
-59.09
-58.744
-58.319
-57.805
-57.19
-56.467
-55.633
-54.678
-53.593
-52.365
-50.975
-49.414
-47.677
-45.76
-43.667
-41.411
-39.012
-36.505
-33.93
-31.312
-28.668
-26.007
-23.316
-20.591
-17.825
-15.007
-12.147
-9.251
-6.316
-3.356
-0.375
2.646
5.731
8.94
12.349
15.991
19.878
23.997
28.291
32.696
37.135
41.494
45.69
49.653
53.308
56.616
59.545
62.025
63.982
65.307
65.852
65.527
64.281
62.082
58.963
54.987
50.246
44.903
39.119
33.019
26.726
20.323
13.866
7.45
1.18
-4.828
-10.406
-15.42
-19.786
-23.409
-26.255
-28.354
-29.77
-30.654
-31.197
-31.529
-31.775
-32.06
-32.47
-33.134
-34.19
-35.716
-37.873
-40.869
-44.809
-49.742
-55.533
-61.737
-67.838
-73.343
-77.626
-80.069
-80.22
-77.813
-73.188
-67.357
-61.568
-57.021
-54.739
-55.555
-59.996
-68.104
-78.814
-89.791
-97.807
-99.473
-91.896
-72.108
-37.474
13.988
83.417
168.182
262.071
359.465
454.644
546.003
637.244
725.016
800.912
850.531
852.116
795.649
683.394
525.524
340.922
145.654
-49.625
-232.504
-388.794
-508.625
-586.034
-624.073
-636.091
-631.412
-614.856
-587.582
-545.948
-491.153
-428.699
-364.298
-304.469
-253.253
-212.078
-181.861
-161.982
-150.874
-146.832
-147.812
-151.865
-157.092
-161.553
-163.567
-162.371
-158.103
-151.345
-142.908
-133.612
-124.325
-116.085
-109.96
-106.479
-105.584
-106.913
-109.906
-114.02
-118.774
-123.588
-127.803
-130.992
-132.976
-133.713
-133.308
-131.849
-129.369
-125.963
-121.786
-116.979
-111.677
-106.02
-100.116
-94.097
-88.127
-82.338
-76.848
-71.748
-67.083
-62.88
-59.15
-55.891
-53.088
-50.719
-48.749
-47.134
-45.837
-44.805
-43.987
-43.322
-42.741
-42.184
-41.605
-40.966
-40.243
-39.415
-38.466
-37.384
-36.167
-34.806
-33.295
-31.625
-29.783
-27.761
-25.55
-23.148
-20.551
-17.756
-14.76
-11.556
-8.14
-4.507
-0.653
3.426
7.738
12.284
17.066
22.081
27.325
32.793
38.479
44.377
50.477
56.769
63.245
69.894
76.705
83.667
90.768
97.992
105.326
112.755
120.261
127.829
135.44
143.077
150.719
158.35
165.949
173.496
180.971
188.353
195.621
202.752
209.725
216.519
223.112
229.48
235.604
241.463
247.036
252.303
257.245
261.844
266.082
269.941
273.407
276.463
279.097
281.294
283.046
284.341
285.171
285.53
285.413
284.816
283.738
282.178
280.138
277.621
274.632
271.179
267.27
262.916
258.129
252.924
247.316
241.323
234.963
228.257
221.225
213.89
206.276
198.406
190.306
182
173.516
164.88
156.118
147.256
138.322
129.342
120.342
111.347
102.384
93.475
84.647
75.922
67.323
58.872
50.589
42.495
34.608
26.946
19.524
12.357
5.459
-1.159
-7.486
-13.512
-19.23
-24.633
-29.716
-34.474
-38.905
-43.008
-46.783
-50.231
-53.353
-56.152
-58.634
-60.802
-62.663
-64.223
-65.49
-66.472
-67.178
-67.619
-67.805
-67.748
-67.46
-66.954
-66.243
-65.34
-64.258
-63.013
-61.617
-60.085
-58.432
-56.671
-54.818
-52.886
-50.89
-48.844
-46.762
-44.658
-42.544
-40.434
-38.34
-36.275
-34.251
-32.279
-30.37
-28.534
-26.782
-25.123
-23.564
-22.114
-20.778
-19.563
-18.473
-17.512
-16.682
-15.985
-15.422
-14.993
-14.697
-14.533
-14.499
-14.59
-14.804
-15.136
-15.581
-16.132
-16.783
-17.527
-18.358
-19.266
-20.243
-21.282
-22.373
-23.506
-24.673
-25.863
-27.067
-28.275
-29.478
-30.666
-31.832
-32.967
-34.063
-35.114
-36.115
-37.059
-37.944
-38.765
-39.52
-40.207
-40.824
-41.373
-41.853
-42.265
-42.611
-42.894
-43.117
-43.284
-43.4
-43.469
-43.498
-43.491
-43.456
-43.399
-43.328
-43.249
-43.171
-43.102
-43.05
-43.023
-43.028
-43.073
-43.166
-43.31
-43.513
-43.779
-44.111
-44.511
-44.981
-45.522
-46.132
-46.811
-47.557
-48.364
-49.23
-50.149
-51.114
-52.118
-53.154
-54.211
-55.281
-56.353
-57.417
-58.462
-59.476
-60.448
-61.365
-62.214
-62.982
-63.658
-64.227
-64.677
-64.995
-65.171
-65.193
-65.051
-64.738
-64.246
-63.57
-62.704
-61.648
-60.399
-58.959
-57.33
-55.517
-53.526
-51.364
-49.042
-46.572
-43.967
-41.244
-38.424
-35.524
-32.567
-29.576
-26.574
-23.586
-20.635
-17.745
-14.937
-12.236
-9.664
-7.249
-5.016
-2.99
-1.193
0.352
1.627
2.611
3.29
3.66
3.715
3.449
2.855
1.914
0.612
-1.054
-3.083
-5.473
-8.205
-11.262
-14.614
-18.206
-21.987
-25.906
-29.913
-33.979
-38.067
-42.124
-46.096
-49.904
-53.474
-56.762
-59.72
-62.31
-64.534
-66.407
-67.982
-69.368
-70.65
-71.914
-73.268
-74.795
-76.605
-78.835
-81.576
-84.996
-89.313
-94.613
-100.89
-107.965
-115.372
-122.621
-129.252
-134.616
-138.018
-138.997
-137.353
-133.538
-128.651
-123.836
-120.153
-118.601
-120.068
-125.098
-133.548
-143.993
-153.783
-159.688
-158.281
-146.29
-120.561
-78.482
-18.375
59.947
154.647
262.139
376.309
489.025
592.084
678.616
746.229
795.331
824.882
831.018
802.6
728.158
602.433
426.847
218.787
2.091
-198.378
-357.256
-465.92
-527.044
-552.423
-560.738
-559.349
-547.842
-520.443
-472.604
-411.885
-350.568
-302.453
-273.604
-258.29
-249.577
-239.677
-226.022
-213.177
-203.41
-198.301
-197.542
-197.123
-194.726
-189.366
-180.542
-169.312
-156.698
-143.053
-128.994
-115.294
-102.702
-92.18
-84.293
-79.024
-76.172
-75.422
-76.393
-78.725
-82.017
-85.743
-89.511
-93.08
-96.217
-98.796
-100.735
-101.944
-102.401
-102.144
-101.191
-99.568
-97.343
-94.577
-91.352
-87.775
-83.911
-79.827
-75.61
-71.358
-67.198
-63.265
-59.645
-56.392
-53.547
-51.13
-49.153
-47.618
-46.488
-45.715
-45.254
-45.065
-45.117
-45.386
-45.831
-46.406
-47.056
-47.72
-48.35
-48.913
-49.373
-49.702
-49.876
-49.875
-49.69
-49.322
-48.763
-48.003
-47.03
-45.828
-44.386
-42.698
-40.756
-38.552
-36.082
-33.34
-30.321
-27.024
-23.445
-19.581
-15.432
-10.993
-6.264
-1.249
4.048
9.62
15.458
21.553
27.893
34.466
41.255
48.248
55.427
62.777
70.278
77.912
85.657
93.493
101.396
109.342
117.307
125.265
133.19
141.054
148.829
156.488
164.003
171.345
178.487
185.401
192.058
198.434
204.5
210.231
215.602
220.591
225.174
229.329
233.039
236.284
239.048
241.319
243.082
244.328
245.048
245.237
244.89
244.005
242.584
240.63
238.149
235.148
231.64
227.638
223.157
218.215
212.832
207.031
200.834
194.268
187.36
180.138
172.633
164.875
156.897
148.732
140.413
131.974
123.45
114.873
106.277
97.696
89.162
80.706
72.359
64.15
56.108
48.258
40.628
33.238
26.112
19.268
12.723
6.493
0.59
-4.974
-10.192
-15.056
-19.563
-23.708
-27.493
-30.918
-33.986
-36.703
-39.077
-41.115
-42.828
-44.228
-45.327
-46.14
-46.682
-46.968
-47.015
-46.839
-46.459
-45.892
-45.155
-44.267
-43.246
-42.11
-40.875
-39.558
-38.176
-36.743
-35.275
-33.784
-32.285
-30.79
-29.309
-27.853
-26.433
-25.057
-23.733
-22.469
-21.27
-20.141
-19.087
-18.112
-17.217
-16.405
-15.676
-15.032
-14.472
-13.995
-13.601
-13.288
-13.055
-12.897
-12.814
-12.802
-12.859
-12.979
-13.162
-13.403
-13.699
-14.047
-14.445
-14.889
-15.377
-15.904
-16.468
-17.066
-17.694
-18.35
-19.029
-19.729
-20.447
-21.181
-21.926
-22.682
-23.444
-24.211
-24.979
-25.747
-26.512
-27.27
-28.021
-28.761
-29.488
-30.2
-30.895
-31.572
-32.227
-32.859
-33.465
-34.045
-34.595
-35.113
-35.599
-36.05
-36.466
-36.846
-37.189
-37.496
-37.766
-38.001
-38.201
-38.369
-38.504
-38.609
-38.686
-38.737
-38.763
-38.767
-38.752
-38.721
-38.676
-38.62
-38.555
-38.485
-38.412
-38.338
-38.266
-38.196
-38.133
-38.076
-38.028
-37.99
-37.963
-37.948
-37.944
-37.951
-37.967
-37.989
-38.015
-38.041
-38.062
-38.073
-38.066
-38.036
-37.975
-37.877
-37.732
-37.533
-37.272
-36.939
-36.525
-36.023
-35.422
-34.715
-33.893
-32.948
-31.873
-30.661
-29.306
-27.802
-26.145
-24.331
-22.357
-20.22
-17.921
-15.459
-12.836
-10.057
-7.127
-4.054
-0.847
2.483
5.921
9.452
13.056
16.716
20.409
24.113
27.804
31.459
35.052
38.559
41.956
45.218
48.319
51.234
53.937
56.405
58.611
60.533
62.149
63.438
64.383
64.972
65.193
65.039
64.499
63.559
62.21
60.451
58.281
55.705
52.736
49.392
45.708
41.734
37.518
33.113
28.567
23.919
19.22
14.52
9.876
5.357
1.018
-3.092
-6.921
-10.432
-13.598
-16.413
-18.929
-21.232
-23.407
-25.55
-27.726
-30
-32.48
-35.267
-38.483
-42.262
-46.66
-51.756
-57.69
-64.49
-72.101
-80.322
-88.64
-96.455
-103.316
-108.709
-112.069
-113.015
-111.268
-106.989
-101.002
-94.348
-87.848
-81.995
-77.482
-75.005
-74.653
-75.913
-76.092
-70.259
-55.885
-32.395
-0.783
34.843
76.919
132.929
208.653
309.322
428.403
550.262
662.19
754.796
827.312
882.782
917.294
919.779
876.245
777.694
625.934
435.208
226.508
20.624
-162.802
-311.108
-419.949
-490.873
-533.105
-555.839
-563.337
-556.431
-532.143
-489.919
-434.137
-371.437
-309.39
-253.388
-206.32
-169.939
-144.986
-131.205
-127.423
-131.638
-141.569
-155.013
-169.609
-183.026
-193.225
-199.164
-200.933
-199.133
-194.607
-188.252
-181.025
-174.083
-168.654
-165.339
-164.05
-164.447
-165.993
-168.198
-170.729
-173.111
-174.765
-175.349
-174.716
-172.848
-169.905
-165.988
-161.116
-155.398
-148.994
-142.093
-134.964
-127.792
-120.669
-113.682
-106.868
-100.277
-94.024
-88.133
-82.541
-77.277
-72.409
-68.154
-64.931
-62.888
-61.861
-61.634
-61.908
-62.32
-62.567
-61.976
-59.467
-54.562
-47.405
-38.493
-28.742
-18.944
-9.602
-1.686
3.391
4.931
2.939
-1.954
-8.419
-15.461
-22.548
-28.836
-33.239
-35.143
-34.363
-31.297
-26.98
-22.092
-16.906
-11.774
-7.043
-2.935
0.407
3.15
5.768
8.545
11.572
14.903
18.502
22.373
26.573
31.084
35.831
40.777
45.912
51.255
56.864
62.763
68.948
75.407
82.112
89.045
96.192
103.533
111.049
118.716
126.505
134.385
142.326
150.295
158.256
166.17
173.995
181.689
189.217
196.545
203.644
210.481
217.023
223.237
229.088
234.544
239.577
244.155
248.251
251.839
254.895
257.397
259.33
260.678
261.427
261.569
261.095
260.002
258.29
255.962
253.024
249.488
245.364
240.67
235.424
229.649
223.369
216.611
209.405
201.782
193.776
185.422
176.756
167.817
158.643
149.273
139.749
130.109
120.395
110.647
100.904
91.207
81.594
72.101
62.766
53.62
44.698
36.029
27.64
19.557
11.804
4.401
-2.634
-9.286
-15.542
-21.391
-26.826
-31.842
-36.437
-40.611
-44.365
-47.706
-50.639
-53.175
-55.322
-57.094
-58.505
-59.57
-60.305
-60.729
-60.862
-60.722
-60.33
-59.709
-58.879
-57.862
-56.68
-55.355
-53.908
-52.36
-50.73
-49.037
-47.302
-45.541
-43.771
-42.008
-40.267
-38.561
-36.902
-35.302
-33.77
-32.314
-30.943
-29.662
-28.477
-27.391
-26.41
-25.534
-24.765
-24.105
-23.553
-23.108
-22.768
-22.531
-22.393
-22.35
-22.398
-22.53
-22.742
-23.028
-23.382
-23.797
-24.268
-24.789
-25.352
-25.953
-26.584
-27.239
-27.913
-28.601
-29.297
-29.998
-30.699
-31.397
-32.09
-32.773
-33.445
-34.102
-34.741
-35.359
-35.954
-36.522
-37.061
-37.567
-38.04
-38.477
-38.878
-39.243
-39.57
-39.86
-40.114
-40.332
-40.514
-40.661
-40.774
-40.854
-40.903
-40.923
-40.918
-40.888
-40.838
-40.769
-40.682
-40.579
-40.461
-40.328
-40.178
-40.013
-39.833
-39.641
-39.439
-39.231
-39.02
-38.812
-38.611
-38.424
-38.252
-38.101
-37.972
-37.865
-37.781
-37.72
-37.68
-37.662
-37.668
-37.696
-37.746
-37.82
-37.917
-38.038
-38.18
-38.342
-38.52
-38.704
-38.895
-39.091
-39.297
-39.523
-39.769
-40.03
-40.306
-40.595
-40.888
-41.165
-41.389
-41.505
-41.465
-41.235
-40.799
-40.154
-39.287
-38.188
-36.841
-35.239
-33.405
-31.367
-29.128
-26.67
-23.985
-21.114
-18.184
-15.392
-12.903
-10.816
-9.152
-7.926
-7.234
-7.11
-7.466
-8.055
-8.535
-8.708
-8.661
-8.573
-8.422
-8.202
-7.973
-7.938
-8.547
-9.991
-11.947
-13.834
-15.161
-15.326
-13.631
-9.311
-1.357
10.843
27.241
47.357
70.422
95.224
120.244
143.944
164.619
180.898
191.886
196.999
196.154
189.884
179.14
164.781
147.663
128.549
108.118
87.076
65.865
44.464
22.538
0.04
-22.799
-45.658
-68.16
-90.084
-111.231
-131.091
-148.921
-164.26
-176.908
-186.96
-194.833
-200.671
-204.405
-206.122
-205.965
-204.075
-200.688
-195.611
-188.268
-178.74
-167.52
-155.314
-143.116
-131.483
-120.645
-111.304
-104.381
-100.074
-98.14
-97.794
-97.973
-98.605
-99.929
-101.904
-104.497
-107.596
-111.237
-116.28
-122.981
-129.731
-134.864
-134.814
-125.398
-105.524
-72.738
-26.378
31.188
101.149
182.677
275.619
383.634
505.82
639.069
773.518
888.862
963.257
977.695
924.488
811.933
656.719
476.121
284.803
92.2
-91.584
-249.808
-369.79
-444.782
-477.694
-484.487
-477.238
-461.99
-439.947
-405.973
-359.892
-306.6
-251.903
-202.762
-163.323
-134.708
-116.95
-108.667
-108.072
-113.273
-121.951
-132.064
-141.383
-147.76
-150.215
-148.587
-143.283
-135.278
-125.61
-115.188
-105.252
-97.069
-91.223
-87.84
-86.665
-87.124
-88.709
-90.977
-93.391
-95.397
-96.66
-97.015
-96.411
-94.893
-92.497
-89.244
-85.197
-80.471
-75.184
-69.461
-63.465
-57.338
-51.214
-45.235
-39.493
-34.05
-28.961
-24.258
-19.961
-16.106
-12.708
-9.768
-7.298
-5.294
-3.732
-2.58
-1.774
-1.244
-0.937
-0.803
-0.804
-0.909
-1.091
-1.326
-1.606
-1.916
-2.238
-2.554
-2.836
-3.059
-3.203
-3.248
-3.179
-2.98
-2.636
-2.128
-1.44
-0.553
0.548
1.883
3.473
5.336
7.487
9.938
12.701
15.783
19.191
22.929
27
31.405
36.144
41.214
46.614
52.338
58.38
64.731
71.384
78.326
85.545
93.027
100.756
108.716
116.887
125.247
133.776
142.449
151.24
160.122
169.066
178.042
187.022
195.973
204.866
213.667
222.346
230.869
239.205
247.323
255.191
262.778
270.053
276.986
283.549
289.713
295.453
300.744
305.56
309.881
313.686
316.956
319.675
321.829
323.403
324.389
324.779
324.57
323.76
322.353
320.352
317.768
314.613
310.905
306.66
301.898
296.642
290.915
284.743
278.153
271.172
263.826
256.149
248.175
239.943
231.491
222.86
214.089
205.222
196.301
187.369
178.464
169.619
160.868
152.246
143.792
135.549
127.55
119.817
112.369
105.223
98.391
91.878
85.673
79.748
74.072
68.633
63.43
58.473
53.767
49.309
45.094
41.119
37.399
33.958
30.807
27.944
25.377
23.128
21.248
19.817
18.891
18.476
18.552
19.08
20.027
21.356
23.011
24.903
26.913
28.942
30.905
32.731
34.332
35.573
36.299
36.334
35.551
33.895
31.33
27.831
23.374
17.959
11.623
4.463
-3.405
-11.916
-21.003
-30.589
-40.561
-50.727
-60.896
-70.89
-80.576
-89.874
-98.703
-106.972
-114.602
-121.547
-127.787
-133.35
-138.253
-142.443
-145.898
-148.625
-150.679
-152.191
-153.269
-153.985
-154.388
-154.51
-154.39
-154.085
-153.631
-153.032
-152.29
-151.4
-150.38
-149.305
-148.217
-147.123
-146.001
-144.779
-143.413
-141.894
-140.216
-138.37
-136.349
-134.143
-131.761
-129.242
-126.611
-123.886
-121.066
-118.126
-115.063
-111.893
-108.646
-105.366
-102.087
-98.829
-95.614
-92.474
-89.43
-86.5
-83.692
-80.996
-78.41
-75.94
-73.595
-71.388
-69.327
-67.413
-65.645
-64.021
-62.539
-61.195
-59.984
-58.895
-57.923
-57.061
-56.307
-55.662
-55.125
-54.692
-54.36
-54.125
-53.983
-53.929
-53.956
-54.054
-54.217
-54.435
-54.701
-55.006
-55.34
-55.695
-56.062
-56.433
-56.802
-57.161
-57.502
-57.817
-58.099
-58.342
-58.535
-58.669
-58.732
-58.71
-58.592
-58.37
-58.035
-57.578
-56.991
-56.268
-55.405
-54.398
-53.239
-51.921
-50.425
-48.739
-46.867
-44.813
-42.594
-40.233
-37.751
-35.169
-32.523
-29.835
-27.118
-24.374
-21.586
-18.734
-15.819
-12.852
-9.862
-6.88
-3.912
-0.959
1.979
4.928
7.908
10.947
14.102
17.403
20.838
24.37
27.916
31.368
34.655
37.723
40.534
43.07
45.292
47.16
48.64
49.673
50.183
50.089
49.273
47.651
45.204
41.954
37.988
33.449
28.462
23.136
17.578
11.868
6.078
0.295
-5.409
-10.946
-16.19
-21.015
-25.277
-28.851
-31.685
-33.776
-35.185
-36.039
-36.483
-36.663
-36.749
-36.904
-37.276
-38.029
-39.284
-41.203
-44.043
-47.964
-53.006
-59.053
-65.705
-72.507
-79.063
-84.808
-89.016
-91.22
-91.227
-89.349
-86.664
-84.281
-83.099
-84.127
-88.261
-95.858
-106.705
-119.494
-131.517
-139.713
-140.939
-131.781
-109.028
-70.183
-13.734
60.38
150.483
253.638
365.69
479.918
587.618
680.78
753.076
803.06
832.89
842.674
829.28
783.049
692.49
551.854
364.607
148.95
-68.911
-261.621
-408.48
-505.224
-558.838
-583.626
-593.099
-591.083
-575.954
-544.206
-495.027
-433.257
-366.607
-302.635
-246.671
-202.515
-172.45
-156.597
-154.089
-163.02
-180.396
-203.615
-230.117
-256.463
-279.643
-297.978
-310.769
-318.412
-322.006
-322.432
-320.627
-318.105
-316.34
-316.157
-317.846
-321.122
-325.379
-330.158
-335.046
-339.44
-342.684
-344.367
-344.318
-342.588
-339.388
-334.89
-329.23
-322.601
-315.252
-307.384
-299.153
-290.67
-281.988
-273.169
-264.291
-255.421
-246.627
-237.967
-229.48
-221.196
-213.142
-205.333
-197.769
-190.44
-183.311
-176.354
-169.552
-162.891
-156.372
-149.994
-143.755
-137.658
-131.712
-125.922
-120.29
-114.817
-109.499
-104.334
-99.317
-94.448
-89.725
-85.146
-80.704
-76.389
-72.188
-68.087
-64.072
-60.124
-56.22
-52.34
-48.464
-44.574
-40.65
-36.678
-32.637
-28.512
-24.287
-19.946
-15.476
-10.86
-6.086
-1.14
3.988
9.307
14.825
20.547
26.478
32.619
38.971
45.532
52.298
59.263
66.42
73.759
81.268
88.934
96.74
104.668
112.7
120.814
128.987
137.195
145.411
153.611
161.766
169.848
177.827
185.674
193.359
200.851
208.118
215.13
221.856
228.264
234.324
240.008
245.286
250.133
254.523
258.431
261.836
264.716
267.054
268.834
270.04
270.663
270.692
270.122
268.95
267.175
264.799
261.827
258.265
254.124
249.415
244.153
238.355
232.04
225.23
217.948
210.222
202.078
193.547
184.661
175.453
165.957
156.208
146.244
136.1
125.815
115.426
104.971
94.489
84.017
73.593
63.254
53.034
42.968
33.091
23.432
14.023
4.892
-3.933
-12.428
-20.568
-28.332
-35.7
-42.654
-49.178
-55.258
-60.883
-66.045
-70.737
-74.955
-78.696
-81.962
-84.755
-87.08
-88.942
-90.351
-91.317
-91.853
-91.972
-91.69
-91.024
-89.994
-88.617
-86.916
-84.91
-82.623
-80.076
-77.292
-74.295
-71.108
-67.755
-64.261
-60.648
-56.942
-53.167
-49.345
-45.499
-41.652
-37.825
-34.037
-30.309
-26.658
-23.101
-19.653
-16.33
-13.145
-10.109
-7.234
-4.528
-2
0.345
2.502
4.466
6.236
7.81
9.188
10.371
11.361
12.16
12.773
13.203
13.458
13.543
13.467
13.238
12.865
12.358
11.727
10.983
10.136
9.197
8.177
7.086
5.936
4.735
3.495
2.226
0.937
-0.363
-1.666
-2.963
-4.247
-5.512
-6.751
-7.96
-9.133
-10.267
-11.356
-12.399
-13.393
-14.336
-15.226
-16.064
-16.848
-17.581
-18.264
-18.9
-19.49
-20.039
-20.55
-21.027
-21.475
-21.897
-22.299
-22.684
-23.059
-23.426
-23.792
-24.161
-24.536
-24.922
-25.323
-25.742
-26.18
-26.642
-27.128
-27.64
-28.178
-28.743
-29.334
-29.951
-30.592
-31.255
-31.936
-32.632
-33.338
-34.05
-34.761
-35.464
-36.152
-36.817
-37.451
-38.043
-38.585
-39.066
-39.477
-39.807
-40.047
-40.184
-40.21
-40.114
-39.884
-39.513
-38.991
-38.309
-37.458
-36.432
-35.224
-33.828
-32.24
-30.456
-28.472
-26.289
-23.905
-21.323
-18.546
-15.578
-12.425
-9.096
-5.599
-1.948
1.846
5.767
9.8
13.923
18.116
22.356
26.62
30.882
35.118
39.3
43.403
47.402
51.272
54.991
58.533
61.872
64.983
67.841
70.424
72.712
74.686
76.329
77.626
78.573
79.165
79.398
79.268
78.758
77.856
76.561
74.878
72.811
70.378
67.598
64.498
61.128
57.538
53.774
49.88
45.884
41.816
37.726
33.674
29.73
25.97
22.439
19.174
16.22
13.59
11.276
9.237
7.385
5.645
3.96
2.258
0.47
-1.493
-3.764
-6.451
-9.699
-13.725
-18.617
-24.366
-30.836
-37.601
-44.18
-50.139
-54.871
-57.717
-58.3
-56.456
-52.569
-47.775
-43.147
-39.673
-38.423
-40.198
-45.529
-54.497
-65.874
-77.107
-85.431
-87.745
-80.778
-61.761
-27.97
22.827
91.095
175.594
274.266
382.235
492.072
596.552
687.547
761.401
820.526
865.555
895.644
901.112
863.137
767.627
606.655
391.163
150.865
-81.364
-270.834
-400.741
-475.202
-507.017
-518.602
-523.571
-522.779
-513.476
-488.755
-447.359
-394.999
-338.363
-284.086
-236.104
-196.053
-164.791
-142.268
-127.795
-119.966
-116.987
-117.688
-120.806
-124.599
-127.444
-127.805
-125.063
-119.68
-112.333
-103.541
-93.886
-84.136
-75.263
-68.445
-64.29
-62.708
-63.375
-65.829
-69.676
-74.581
-80.047
-85.396
-90.086
-93.835
-96.543
-98.268
-99.072
-98.939
-97.891
-96.012
-93.414
-90.222
-86.551
-82.482
-78.066
-73.389
-68.558
-63.709
-59.015
-54.591
-50.504
-46.793
-43.482
-40.597
-38.161
-36.167
-34.572
-33.327
-32.389
-31.723
-31.31
-31.117
-31.095
-31.185
-31.323
-31.458
-31.562
-31.607
-31.566
-31.414
-31.13
-30.699
-30.123
-29.397
-28.509
-27.443
-26.184
-24.72
-23.045
-21.154
-19.043
-16.704
-14.133
-11.322
-8.267
-4.962
-1.396
2.44
6.556
10.956
15.642
20.612
25.864
31.393
37.189
43.242
49.545
56.091
62.883
69.917
77.177
84.642
92.282
100.058
107.933
115.87
123.819
131.744
139.615
147.415
155.149
162.824
170.432
177.951
185.344
192.574
199.628
206.5
213.185
219.702
226.063
232.288
238.428
244.509
250.518
256.417
262.12
267.518
272.539
277.13
281.25
284.879
287.967
290.465
292.339
293.532
293.988
293.639
292.378
290.124
286.865
282.62
277.476
271.56
264.959
257.75
250.008
241.786
233.153
224.177
214.904
205.389
195.704
185.938
176.216
166.651
157.303
148.204
139.343
130.675
122.18
113.851
105.668
97.633
89.749
82.021
74.48
67.157
60.064
53.202
46.55
40.085
33.81
27.737
21.892
16.315
11.034
6.072
1.456
-2.797
-6.679
-10.188
-13.336
-16.146
-18.629
-20.797
-22.656
-24.211
-25.474
-26.46
-27.184
-27.667
-27.928
-27.987
-27.866
-27.588
-27.172
-26.635
-25.991
-25.251
-24.429
-23.537
-22.588
-21.596
-20.575
-19.535
-18.492
-17.458
-16.445
-15.462
-14.52
-13.624
-12.783
-12.002
-11.285
-10.637
-10.06
-9.558
-9.131
-8.782
-8.511
-8.317
-8.2
-8.16
-8.195
-8.302
-8.481
-8.728
-9.04
-9.415
-9.85
-10.342
-10.887
-11.482
-12.122
-12.805
-13.526
-14.28
-15.064
-15.871
-16.698
-17.54
-18.394
-19.254
-20.119
-20.984
-21.847
-22.705
-23.556
-24.397
-25.228
-26.047
-26.851
-27.639
-28.411
-29.166
-29.901
-30.617
-31.314
-31.99
-32.645
-33.28
-33.894
-34.488
-35.063
-35.621
-36.161
-36.687
-37.2
-37.703
-38.199
-38.69
-39.179
-39.671
-40.167
-40.672
-41.188
-41.717
-42.263
-42.828
-43.414
-44.024
-44.658
-45.318
-46.006
-46.724
-47.472
-48.25
-49.061
-49.903
-50.777
-51.682
-52.619
-53.586
-54.581
-55.603
-56.648
-57.714
-58.797
-59.891
-60.992
-62.094
-63.19
-64.272
-65.332
-66.362
-67.353
-68.296
-69.181
-70
-70.744
-71.403
-71.97
-72.434
-72.788
-73.023
-73.132
-73.106
-72.939
-72.622
-72.15
-71.518
-70.72
-69.751
-68.608
-67.287
-65.789
-64.111
-62.254
-60.221
-58.014
-55.639
-53.104
-50.417
-47.588
-44.631
-41.561
-38.396
-35.153
-31.853
-28.517
-25.166
-21.824
-18.512
-15.253
-12.066
-8.976
-6.002
-3.17
-0.503
1.976
4.243
6.276
8.055
9.558
10.768
11.676
12.271
12.544
12.484
12.073
11.297
10.149
8.623
6.721
4.449
1.823
-1.125
-4.35
-7.802
-11.434
-15.199
-19.064
-22.99
-26.933
-30.845
-34.658
-38.318
-41.776
-44.988
-47.916
-50.542
-52.876
-54.972
-56.939
-58.874
-60.865
-62.997
-65.349
-68.03
-71.167
-74.889
-79.305
-84.53
-90.728
-97.989
-106.314
-115.531
-125.194
-134.725
-143.537
-150.977
-156.334
-159.115
-159.078
-156.386
-151.941
-146.905
-142.371
-139.528
-139.419
-142.549
-148.907
-157.586
-166.258
-171.861
-171.145
-160.591
-136.743
-96.782
-38.654
38.725
133.356
240.216
353.915
467.973
578.021
684.152
783.317
868.809
930.124
950.618
918.961
833.58
699.279
527.995
333.141
126.5
-76.767
-257.718
-400.405
-495.595
-544.838
-561.639
-559.531
-546.136
-523.563
-488.447
-439.757
-381.851
-321.49
-266.229
-221.453
-189.384
-169.981
-161.611
-162.206
-169.302
-180.068
-192.036
-202.544
-209.131
-210.753
-207.299
-199.292
-187.974
-174.68
-160.587
-147.206
-136.044
-127.844
-122.859
-120.95
-121.56
-124.16
-128.246
-133.116
-138.05
-142.564
-146.367
-149.326
-151.426
-152.636
-152.916
-152.29
-150.82
-148.567
-145.58
-141.911
-137.621
-132.799
-127.581
-122.111
-116.527
-110.978
-105.577
-100.413
-95.577
-91.127
-87.097
-83.513
-80.383
-77.696
-75.443
-73.604
-72.143
-71.03
-70.222
-69.666
-69.308
-69.087
-68.949
-68.856
-68.774
-68.675
-68.535
-68.334
-68.055
-67.692
-67.231
-66.658
-65.96
-65.118
-64.118
-62.948
-61.595
-60.051
-58.304
-56.341
-54.15
-51.719
-49.037
-46.092
-42.874
-39.372
-35.576
-31.484
-27.092
-22.401
-17.411
-12.127
-6.552
-0.695
5.438
11.835
18.488
25.383
32.509
39.849
47.388
55.107
62.988
71.011
79.152
87.39
95.699
104.053
112.425
120.788
129.112
137.367
145.523
153.549
161.415
169.089
176.542
183.743
190.663
197.274
203.546
209.455
214.973
220.077
224.744
228.951
232.681
235.914
238.636
240.831
242.489
243.599
244.156
244.154
243.59
242.466
240.784
238.549
235.771
232.461
228.633
224.303
219.49
214.216
208.505
202.381
195.872
189.006
181.812
174.323
166.57
158.586
150.404
142.06
133.586
125.018
116.39
107.737
99.092
90.487
81.955
73.526
65.231
57.097
49.151
41.419
33.924
26.688
19.73
13.069
6.719
0.694
-4.996
-10.342
-15.339
-19.982
-24.268
-28.197
-31.771
-34.993
-37.867
-40.399
-42.596
-44.468
-46.024
-47.275
-48.235
-48.915
-49.331
-49.497
-49.427
-49.138
-48.645
-47.964
-47.112
-46.105
-44.959
-43.69
-42.314
-40.847
-39.304
-37.699
-36.046
-34.358
-32.648
-30.925
-29.202
-27.487
-25.79
-24.119
-22.483
-20.887
-19.34
-17.846
-16.412
-15.041
-13.739
-12.509
-11.354
-10.277
-9.279
-8.362
-7.528
-6.778
-6.111
-5.528
-5.028
-4.61
-4.274
-4.016
-3.835
-3.728
-3.693
-3.725
-3.822
-3.98
-4.195
-4.465
-4.785
-5.151
-5.561
-6.01
-6.494
-7.009
-7.552
-8.119
-8.705
-9.306
-9.918
-10.538
-11.16
-11.783
-12.4
-13.01
-13.607
-14.188
-14.749
-15.286
-15.797
-16.278
-16.727
-17.141
-17.519
-17.861
-18.166
-18.434
-18.666
-18.865
-19.031
-19.167
-19.274
-19.354
-19.41
-19.444
-19.459
-19.458
-19.442
-19.416
-19.382
-19.343
-19.304
-19.266
-19.233
-19.208
-19.194
-19.193
-19.21
-19.248
-19.308
-19.394
-19.51
-19.657
-19.837
-20.051
-20.299
-20.579
-20.887
-21.221
-21.573
-21.938
-22.309
-22.678
-23.039
-23.385
-23.709
-24.005
-24.269
-24.494
-24.676
-24.805
-24.872
-24.867
-24.779
-24.598
-24.312
-23.908
-23.373
-22.697
-21.876
-20.901
-19.766
-18.46
-16.964
-15.269
-13.373
-11.279
-8.994
-6.529
-3.898
-1.13
1.731
4.643
7.562
10.466
13.352
16.215
19.044
21.831
24.561
27.235
29.884
32.524
35.164
37.819
40.503
43.264
46.195
49.364
52.825
56.594
60.639
64.929
69.434
74.095
78.844
83.576
88.143
92.439
96.393
99.925
102.963
105.384
107.006
107.69
107.338
105.888
103.339
99.698
94.977
89.26
82.685
75.426
67.709
59.702
51.521
43.301
35.17
27.3
19.918
13.2
7.276
2.257
-1.805
-4.885
-6.979
-8.17
-8.605
-8.462
-7.978
-7.35
-6.727
-6.269
-6.092
-6.396
-7.499
-9.613
-12.799
-16.968
-21.788
-26.865
-31.881
-36.274
-39.228
-40.12
-38.708
-35.321
-30.847
-26.514
-23.57
-23.344
-27.692
-36.696
-47.932
-58.84
-66.175
-70.574
-77.699
-88.304
-98.231
-94.675
-56.345
27.071
154.012
309.517
465.039
600.791
707.345
784.82
842.906
884.883
905.509
892.109
830.624
713.622
542.453
334.43
112.016
-100.812
-277.696
-408.672
-493.558
-538.587
-560.952
-569.552
-565.812
-549.383
-515.384
-464.386
-402.468
-336.346
-273.198
-217.785
-173.046
-140.983
-121.647
-114.082
-116.489
-126.162
-140.771
-157.919
-174.364
-187.309
-195.224
-197.589
-194.963
-188.514
-179.231
-168.182
-156.959
-147.07
-139.352
-134.1
-131.049
-129.609
-129.303
-129.709
-130.265
-130.405
-129.793
-128.265
-125.813
-122.575
-118.654
-114.132
-109.14
-103.839
-98.381
-92.903
-87.514
-82.292
-77.321
-72.671
-68.382
-64.487
-60.996
-57.924
-55.296
-53.126
-51.411
-50.144
-49.306
-48.865
-48.776
-48.987
-49.439
-50.079
-50.861
-51.746
-52.701
-53.7
-54.723
-55.748
-56.753
-57.713
-58.604
-59.401
-60.08
-60.62
-61.002
-61.208
-61.225
-61.037
-60.63
-59.989
-59.1
-57.948
-56.517
-54.794
-52.766
-50.423
-47.759
-44.768
-41.448
-37.797
-33.816
-29.508
-24.878
-19.929
-14.669
-9.106
-3.248
2.893
9.306
15.975
22.888
30.029
37.379
44.921
52.637
60.505
68.505
76.615
84.812
93.073
101.373
109.688
117.993
126.261
134.467
142.584
150.585
158.442
166.13
173.621
180.888
187.905
194.648
201.09
207.208
212.978
218.377
223.385
227.98
232.143
235.857
239.104
241.871
244.145
245.914
247.17
247.904
248.114
247.794
246.946
245.571
243.672
241.257
238.334
234.913
231.008
226.635
221.81
216.553
210.885
204.83
198.412
191.658
184.596
177.255
169.665
161.858
153.863
145.715
137.445
129.087
120.672
112.233
103.802
95.41
87.089
78.868
70.774
62.836
55.078
47.525
40.199
33.12
26.307
19.777
13.543
7.62
2.017
-3.257
-8.196
-12.794
-17.049
-20.961
-24.531
-27.762
-30.659
-33.23
-35.481
-37.423
-39.067
-40.424
-41.508
-42.333
-42.913
-43.264
-43.403
-43.347
-43.111
-42.712
-42.169
-41.496
-40.711
-39.828
-38.864
-37.834
-36.751
-35.628
-34.48
-33.319
-32.155
-31
-29.864
-28.755
-27.682
-26.653
-25.675
-24.752
-23.891
-23.094
-22.367
-21.711
-21.128
-20.621
-20.189
-19.833
-19.551
-19.344
-19.21
-19.146
-19.151
-19.222
-19.357
-19.552
-19.807
-20.116
-20.479
-20.892
-21.353
-21.858
-22.405
-22.991
-23.614
-24.269
-24.954
-25.667
-26.405
-27.165
-27.943
-28.739
-29.549
-30.371
-31.203
-32.043
-32.889
-33.739
-34.593
-35.45
-36.309
-37.17
-38.033
-38.897
-39.764
-40.633
-41.505
-42.38
-43.26
-44.145
-45.036
-45.933
-46.839
-47.754
-48.68
-49.618
-50.571
-51.54
-52.526
-53.533
-54.562
-55.615
-56.695
-57.802
-58.941
-60.111
-61.315
-62.554
-63.829
-65.14
-66.486
-67.866
-69.281
-70.726
-72.2
-73.699
-75.219
-76.758
-78.308
-79.866
-81.425
-82.978
-84.519
-86.039
-87.53
-88.984
-90.389
-91.738
-93.021
-94.226
-95.345
-96.366
-97.277
-98.07
-98.732
-99.253
-99.623
-99.832
-99.869
-99.725
-99.395
-98.87
-98.145
-97.214
-96.075
-94.725
-93.163
-91.39
-89.408
-87.22
-84.831
-82.249
-79.482
-76.543
-73.442
-70.196
-66.821
-63.336
-59.76
-56.116
-52.426
-48.712
-44.999
-41.31
-37.671
-34.104
-30.636
-27.292
-24.098
-21.081
-18.265
-15.675
-13.334
-11.265
-9.49
-8.029
-6.892
-6.09
-5.634
-5.537
-5.815
-6.479
-7.526
-8.95
-10.745
-12.894
-15.38
-18.169
-21.203
-24.426
-27.785
-31.233
-34.741
-38.271
-41.771
-45.181
-48.444
-51.508
-54.353
-56.968
-59.32
-61.404
-63.234
-64.874
-66.458
-68.126
-69.98
-72.107
-74.553
-77.377
-80.69
-84.611
-89.221
-94.567
-100.604
-107.307
-114.788
-123.059
-131.924
-140.964
-149.458
-156.714
-162.322
-165.787
-166.385
-163.617
-157.345
-148.026
-136.903
-125.088
-113.407
-103.041
-95.389
-91.44
-90.076
-87.899
-81.274
-67.871
-49.994
-32.121
-13.538
11.164
52.375
121.707
220.966
343.602
478.974
612.91
732.375
825.142
876.56
874.059
812.745
696.957
538.986
353.058
153.224
-48.391
-238.984
-400.503
-521.974
-601.37
-642.518
-658.651
-656.63
-633.512
-590.302
-530.041
-460.992
-399.48
-351.997
-314.703
-283.408
-250.533
-215.049
-184.158
-161.323
-148.142
-143.929
-144.262
-146.297
-148.898
-150.77
-151.076
-149.533
-146.056
-140.905
-134.645
-127.92
-121.257
-115.408
-111.353
-109.463
-109.669
-111.725
-115.125
-119.406
-124.18
-128.895
-132.917
-135.88
-137.631
-138.143
-137.533
-135.87
-133.187
-129.599
-125.269
-120.347
-114.97
-109.261
-103.308
-97.235
-91.208
-85.371
-79.839
-74.693
-69.968
-65.682
-61.854
-58.492
-55.578
-53.083
-50.971
-49.202
-47.746
-46.566
-45.616
-44.84
-44.171
-43.552
-42.943
-42.311
-41.634
-40.896
-40.078
-39.171
-38.173
-37.081
-35.889
-34.587
-33.159
-31.593
-29.88
-28.013
-25.988
-23.797
-21.428
-18.873
-16.121
-13.165
-9.994
-6.596
-2.96
0.924
5.062
9.457
14.112
19.026
24.199
29.629
35.31
41.237
47.404
53.803
60.426
67.265
74.306
81.539
88.947
96.517
104.23
112.069
120.013
128.041
136.13
144.258
152.399
160.529
168.62
176.644
184.574
192.38
200.033
207.502
214.758
221.77
228.509
234.945
241.05
246.795
252.155
257.104
261.617
265.671
269.245
272.319
274.874
276.895
278.367
279.278
279.62
279.385
278.568
277.168
275.185
272.623
269.488
265.788
261.535
256.743
251.427
245.608
239.307
232.548
225.356
217.761
209.792
201.481
192.862
183.97
174.839
165.507
156.012
146.39
136.679
126.919
117.145
107.396
97.708
88.116
78.655
69.358
60.256
51.38
42.758
34.416
26.379
18.67
11.308
4.313
-2.3
-8.518
-14.329
-19.725
-24.699
-29.247
-33.368
-37.062
-40.334
-43.187
-45.63
-47.673
-49.326
-50.603
-51.519
-52.09
-52.334
-52.269
-51.917
-51.295
-50.427
-49.333
-48.034
-46.552
-44.91
-43.127
-41.226
-39.227
-37.151
-35.016
-32.843
-30.649
-28.451
-26.267
-24.111
-21.998
-19.94
-17.951
-16.041
-14.22
-12.495
-10.874
-9.362
-7.964
-6.683
-5.519
-4.475
-3.549
-2.74
-2.044
-1.459
-0.98
-0.603
-0.322
-0.132
-0.026
0.002
-0.041
-0.148
-0.313
-0.528
-0.786
-1.081
-1.405
-1.751
-2.114
-2.486
-2.862
-3.236
-3.602
-3.954
-4.29
-4.603
-4.892
-5.152
-5.383
-5.581
-5.746
-5.878
-5.977
-6.045
-6.082
-6.09
-6.073
-6.032
-5.971
-5.894
-5.803
-5.704
-5.599
-5.494
-5.391
-5.297
-5.214
-5.147
-5.1
-5.077
-5.082
-5.119
-5.191
-5.303
-5.458
-5.659
-5.908
-6.209
-6.564
-6.973
-7.438
-7.959
-8.536
-9.167
-9.851
-10.586
-11.367
-12.192
-13.056
-13.953
-14.877
-15.823
-16.782
-17.748
-18.711
-19.664
-20.598
-21.503
-22.369
-23.189
-23.951
-24.647
-25.267
-25.801
-26.24
-26.575
-26.794
-26.89
-26.854
-26.676
-26.348
-25.863
-25.215
-24.399
-23.409
-22.242
-20.896
-19.37
-17.664
-15.781
-13.723
-11.494
-9.103
-6.558
-3.868
-1.045
1.897
4.944
8.078
11.282
14.535
17.817
21.107
24.382
27.621
30.8
33.897
36.892
39.762
42.486
45.041
47.403
49.552
51.464
53.122
54.508
55.605
56.403
56.895
57.078
56.951
56.51
55.747
54.655
53.232
51.482
49.41
47.028
44.359
41.431
38.289
34.98
31.544
28.019
24.435
20.82
17.212
13.658
10.212
6.933
3.87
1.069
-1.419
-3.566
-5.38
-6.899
-8.202
-9.363
-10.423
-11.429
-12.448
-13.557
-14.868
-16.5
-18.529
-21.091
-24.381
-28.499
-33.438
-38.979
-44.581
-49.639
-53.639
-55.993
-56.082
-53.579
-48.473
-41.391
-33.73
-27.026
-22.573
-21.502
-24.75
-32.644
-44.715
-59.238
-73.066
-82.326
-83.208
-72.32
-46.333
-2.616
60.273
142.548
240.882
348.311
457.863
562.445
658.771
748.932
830.69
897.622
936.612
928.301
863.302
742.728
577.739
387.599
186.499
-14.069
-202.819
-367.762
-493.655
-570.237
-594.201
-571.907
-519.091
-451.521
-386.226
-334.935
-298.596
-273.856
-251.268
-222.63
-188.419
-153.214
-124.333
-106.93
-100.852
-103.16
-109.817
-117.828
-125.019
-129.626
-131.009
-128.961
-123.717
-116.133
-106.963
-96.96
-87.427
-79.688
-74.493
-72.114
-72.321
-74.518
-78.18
-82.86
-87.933
-92.757
-96.904
-100.086
-102.222
-103.392
-103.639
-102.986
-101.495
-99.238
-96.299
-92.781
-88.775
-84.379
-79.724
-74.945
-70.19
-65.586
-61.224
-57.187
-53.528
-50.274
-47.444
-45.04
-43.054
-41.48
-40.304
-39.491
-39.011
-38.82
-38.866
-39.095
-39.441
-39.849
-40.275
-40.684
-41.05
-41.353
-41.576
-41.706
-41.735
-41.654
-41.449
-41.109
-40.619
-39.965
-39.137
-38.129
-36.933
-35.543
-33.953
-32.152
-30.132
-27.885
-25.403
-22.677
-19.699
-16.46
-12.958
-9.189
-5.156
-0.859
3.7
8.516
13.582
18.893
24.439
30.214
36.206
42.407
48.803
55.381
62.126
69.023
76.054
83.2
90.443
97.761
105.133
112.536
119.947
127.342
134.697
141.986
149.183
156.262
163.196
169.958
176.521
182.857
188.94
194.742
200.239
205.406
210.216
214.649
218.68
222.29
225.458
228.167
230.401
232.144
233.384
234.112
234.318
233.998
233.147
231.766
229.855
227.419
224.463
220.997
217.031
212.578
207.654
202.277
196.466
190.244
183.635
176.665
169.361
161.752
153.87
145.746
137.413
128.903
120.253
111.494
102.663
93.794
84.92
76.076
67.293
58.604
50.038
41.625
33.392
25.364
17.566
10.019
2.744
-4.24
-10.918
-17.274
-23.296
-28.973
-34.297
-39.26
-43.859
-48.091
-51.956
-55.455
-58.592
-61.373
-63.804
-65.895
-67.656
-69.099
-70.237
-71.085
-71.659
-71.974
-72.048
-71.898
-71.542
-70.997
-70.281
-69.412
-68.407
-67.282
-66.054
-64.739
-63.351
-61.907
-60.42
-58.905
-57.374
-55.842
-54.319
-52.818
-51.349
-49.922
-48.545
-47.228
-45.976
-44.797
-43.696
-42.677
-41.743
-40.897
-40.141
-39.475
-38.899
-38.413
-38.016
-37.704
-37.476
-37.329
-37.26
-37.265
-37.343
-37.488
-37.699
-37.97
-38.3
-38.683
-39.116
-39.594
-40.113
-40.667
-41.251
-41.861
-42.49
-43.134
-43.788
-44.447
-45.105
-45.758
-46.401
-47.03
-47.641
-48.23
-48.794
-49.329
-49.834
-50.306
-50.745
-51.15
-51.521
-51.858
-52.162
-52.433
-52.672
-52.879
-53.057
-53.204
-53.324
-53.416
-53.484
-53.529
-53.555
-53.564
-53.561
-53.549
-53.532
-53.515
-53.502
-53.496
-53.503
-53.525
-53.569
-53.637
-53.735
-53.866
-54.033
-54.241
-54.491
-54.784
-55.12
-55.499
-55.918
-56.375
-56.865
-57.384
-57.927
-58.489
-59.066
-59.652
-60.243
-60.834
-61.421
-61.999
-62.562
-63.101
-63.608
-64.071
-64.476
-64.812
-65.065
-65.225
-65.28
-65.218
-65.033
-64.719
-64.267
-63.671
-62.917
-61.988
-60.873
-59.569
-58.078
-56.409
-54.58
-52.616
-50.548
-48.409
-46.227
-44.017
-41.786
-39.525
-37.226
-34.88
-32.491
-30.079
-27.661
-25.252
-22.858
-20.481
-18.101
-15.685
-13.191
-10.566
-7.781
-4.836
-1.76
1.384
4.514
7.531
10.354
12.93
15.218
17.183
18.786
19.981
20.697
20.853
20.36
19.112
17.035
14.097
10.311
5.75
0.543
-5.152
-11.195
-17.468
-23.88
-30.355
-36.799
-43.114
-49.187
-54.893
-60.128
-64.768
-68.699
-71.861
-74.251
-75.942
-77.09
-77.871
-78.432
-78.922
-79.474
-80.218
-81.337
-82.956
-85.207
-88.269
-92.193
-96.98
-102.559
-108.572
-114.547
-120.061
-124.556
-127.43
-128.367
-127.137
-123.831
-119.253
-114.302
-109.721
-106.127
-104.077
-104.112
-106.556
-111.094
-114.769
-112.752
-101.515
-79.501
-50.024
-18.989
13.366
53.03
112.368
203.074
324.039
463.056
599.405
716.172
810.499
882.909
936.188
964.975
949.839
879.488
750.258
567.604
354.639
132.193
-81.716
-265.073
-405.552
-497.824
-541.259
-548.186
-534.148
-507.99
-475.669
-437.829
-391.04
-337.495
-282.342
-230.529
-188.408
-159.127
-142.028
-135.492
-136.975
-143.581
-152.927
-162.945
-171.131
-175.336
-174.774
-169.509
-160.272
-148.383
-135.075
-121.413
-108.807
-98.608
-91.458
-87.541
-86.63
-88.135
-91.528
-96.312
-101.823
-107.395
-112.558
-117.022
-120.651
-123.412
-125.265
-126.169
-126.132
-125.204
-123.439
-120.885
-117.598
-113.65
-109.134
-104.186
-98.948
-93.558
-88.167
-82.895
-77.837
-73.084
-68.697
-64.711
-61.156
-58.04
-55.354
-53.088
-51.219
-49.712
-48.538
-47.654
-47.012
-46.559
-46.233
-45.983
-45.774
-45.572
-45.351
-45.092
-44.774
-44.385
-43.921
-43.372
-42.727
-41.976
-41.103
-40.096
-38.945
-37.64
-36.173
-34.536
-32.715
-30.699
-28.477
-26.037
-23.368
-20.46
-17.299
-13.875
-10.184
-6.221
-1.984
2.526
7.308
12.359
17.674
23.245
29.064
35.124
41.414
47.923
54.639
61.547
68.632
75.877
83.264
90.775
98.387
106.078
113.824
121.602
129.385
137.146
144.857
152.489
160.012
167.398
174.614
181.631
188.419
194.948
201.187
207.109
212.687
217.894
222.704
227.096
231.047
234.538
237.55
240.067
242.074
243.559
244.512
244.923
244.787
244.1
242.861
241.07
238.731
235.85
232.436
228.501
224.059
219.125
213.719
207.862
201.579
194.894
187.836
180.434
172.721
164.727
156.489
148.039
139.413
130.646
121.773
112.831
103.853
94.873
85.925
77.043
68.256
59.596
51.093
42.774
34.667
26.796
19.185
11.856
4.829
-1.879
-8.251
-14.273
-19.933
-25.222
-30.133
-34.66
-38.801
-42.556
-45.927
-48.918
-51.535
-53.786
-55.681
-57.232
-58.452
-59.355
-59.956
-60.271
-60.317
-60.11
-59.669
-59.013
-58.158
-57.123
-55.928
-54.59
-53.128
-51.561
-49.906
-48.182
-46.405
-44.593
-42.762
-40.928
-39.107
-37.312
-35.557
-33.854
-32.216
-30.651
-29.169
-27.777
-26.482
-25.288
-24.201
-23.222
-22.354
-21.598
-20.953
-20.419
-19.995
-19.677
-19.465
-19.353
-19.34
-19.421
-19.591
-19.846
-20.181
-20.59
-21.066
-21.605
-22.2
-22.843
-23.529
-24.249
-24.997
-25.766
-26.548
-27.336
-28.124
-28.905
-29.672
-30.421
-31.147
-31.843
-32.507
-33.135
-33.724
-34.273
-34.778
-35.24
-35.657
-36.029
-36.357
-36.64
-36.881
-37.08
-37.239
-37.36
-37.444
-37.496
-37.517
-37.512
-37.484
-37.436
-37.374
-37.302
-37.225
-37.148
-37.075
-37.011
-36.964
-36.936
-36.933
-36.961
-37.023
-37.123
-37.266
-37.454
-37.688
-37.971
-38.303
-38.685
-39.115
-39.591
-40.113
-40.676
-41.277
-41.912
-42.577
-43.265
-43.97
-44.684
-45.4
-46.109
-46.803
-47.471
-48.102
-48.687
-49.216
-49.676
-50.058
-50.349
-50.538
-50.613
-50.564
-50.379
-50.047
-49.558
-48.902
-48.071
-47.058
-45.857
-44.462
-42.87
-41.079
-39.089
-36.9
-34.516
-31.939
-29.175
-26.234
-23.123
-19.855
-16.443
-12.903
-9.25
-5.508
-1.697
2.159
6.037
9.91
13.753
17.538
21.238
24.83
28.288
31.586
34.698
37.597
40.256
42.649
44.753
46.546
48.009
49.123
49.873
50.255
50.264
49.895
49.143
47.991
46.428
44.454
42.072
39.292
36.131
32.615
28.778
24.675
20.366
15.906
11.347
6.729
2.095
-2.501
-6.992
-11.301
-15.353
-19.092
-22.474
-25.454
-28.024
-30.193
-32.014
-33.582
-34.987
-36.318
-37.68
-39.175
-40.92
-43.057
-45.696
-48.978
-53.108
-58.173
-64.167
-70.965
-78.162
-85.312
-92.012
-97.69
-101.691
-103.591
-103.097
-100.332
-96.15
-91.389
-86.781
-83.223
-81.429
-81.856
-84.763
-89.507
-94.112
-96.258
-93.396
-82.756
-61.74
-27.614
22.153
89.306
172.838
268.658
371.996
477.462
581.906
686.984
792.204
891.475
973.797
1019.555
1009.524
936.723
802.678
619.057
406.924
184.133
-31.501
-219.313
-366.227
-465.435
-516.765
-532.257
-525.746
-504.821
-474.036
-433.059
-379.477
-316.931
-252.011
-191.159
-141.546
-106.995
-87.477
-81.692
-87.168
-100.672
-119.094
-139.552
-158.694
-173.522
-182.633
-185.668
-183.042
-175.983
-165.85
-153.888
-141.81
-131.298
-123.116
-117.51
-114.318
-112.963
-112.951
-113.854
-115.016
-115.789
-115.842
-115.041
-113.435
-111.193
-108.382
-105.023
-101.179
-96.957
-92.492
-87.884
-83.192
-78.455
-73.729
-69.104
-64.682
-60.534
-56.68
-53.126
-49.865
-46.901
-44.254
-41.934
-39.943
-38.274
-36.894
-35.777
-34.903
-34.243
-33.767
-33.439
-33.213
-33.054
-32.95
-32.886
-32.852
-32.831
-32.802
-32.744
-32.641
-32.477
-32.236
-31.899
-31.448
-30.864
-30.134
-29.243
-28.18
-26.932
-25.483
-23.819
-21.925
-19.79
-17.404
-14.756
-11.835
-8.633
-5.145
-1.367
2.705
7.072
11.734
16.69
21.939
27.474
33.293
39.386
45.747
52.367
59.233
66.333
73.653
81.177
88.888
96.766
104.792
112.943
121.197
129.528
137.913
146.324
154.734
163.115
171.437
179.67
187.784
195.747
203.526
211.091
218.41
225.453
232.188
238.586
244.619
250.259
255.479
260.254
264.561
268.375
271.678
274.451
276.677
278.342
279.436
279.948
279.873
279.208
277.951
276.103
273.671
270.66
267.082
262.948
258.275
253.081
247.386
241.215
234.593
227.548
220.11
212.31
204.18
195.755
187.07
178.159
169.06
159.809
150.443
140.999
131.513
122.022
112.561
103.165
93.866
84.697
75.689
66.87
58.267
49.906
41.81
34.001
26.497
19.316
12.472
5.978
-0.156
-5.923
-11.318
-16.337
-20.982
-25.251
-29.15
-32.683
-35.856
-38.679
-41.161
-43.313
-45.147
-46.678
-47.92
-48.889
-49.6
-50.071
-50.319
-50.361
-50.215
-49.897
-49.426
-48.819
-48.093
-47.264
-46.349
-45.363
-44.323
-43.242
-42.134
-41.012
-39.888
-38.774
-37.678
-36.61
-35.58
-34.594
-33.66
-32.784
-31.971
-31.226
-30.554
-29.958
-29.441
-29.003
-28.647
-28.373
-28.182
-28.073
-28.045
-28.097
-28.228
-28.435
-28.717
-29.07
-29.491
-29.976
-30.521
-31.123
-31.776
-32.477
-33.221
-34.003
-34.819
-35.664
-36.535
-37.425
-38.33
-39.245
-40.166
-41.087
-42.003
-42.91
-43.803
-44.678
-45.53
-46.357
-47.153
-47.917
-48.646
-49.336
-49.986
-50.593
-51.156
-51.675
-52.15
-52.579
-52.965
-53.308
-53.611
-53.875
-54.104
-54.3
-54.466
-54.606
-54.723
-54.822
-54.907
-54.982
-55.053
-55.124
-55.2
-55.288
-55.392
-55.516
-55.666
-55.846
-56.058
-56.307
-56.595
-56.924
-57.296
-57.711
-58.169
-58.671
-59.213
-59.794
-60.41
-61.057
-61.728
-62.419
-63.12
-63.825
-64.525
-65.211
-65.873
-66.502
-67.088
-67.619
-68.085
-68.475
-68.776
-68.979
-69.07
-69.039
-68.876
-68.569
-68.11
-67.49
-66.703
-65.741
-64.6
-63.277
-61.767
-60.073
-58.193
-56.131
-53.89
-51.479
-48.906
-46.18
-43.316
-40.327
-37.23
-34.045
-30.793
-27.495
-24.176
-20.859
-17.57
-14.336
-11.183
-8.134
-5.215
-2.449
0.139
2.523
4.676
6.575
8.199
9.527
10.541
11.224
11.563
11.557
11.203
10.498
9.441
8.017
6.216
4.043
1.5
-1.404
-4.647
-8.209
-12.054
-16.126
-20.374
-24.745
-29.193
-33.691
-38.203
-42.682
-47.076
-51.308
-55.305
-59.021
-62.404
-65.408
-68.028
-70.27
-72.18
-73.858
-75.375
-76.796
-78.204
-79.658
-81.247
-83.086
-85.255
-87.906
-91.25
-95.405
-100.416
-106.143
-112.152
-117.924
-122.943
-126.548
-128.051
-126.932
-122.95
-116.569
-108.976
-101.647
-96.071
-93.534
-95.182
-101.843
-113.566
-128.983
-145.26
-158.496
-164.463
-159.3
-139.16
-100.657
-41.584
38.363
136.946
249.588
370.356
492.677
608.473
709.076
786.282
832.712
844.631
822.214
765.075
673.45
548.786
390.968
208.915
19.612
-160.693
-312.938
-428.337
-512.503
-570.947
-609.479
-630.763
-627.574
-596.275
-543.952
-478.462
-412.551
-358.362
-314.842
-281.21
-256.621
-236.904
-224.679
-221.555
-225.787
-236.746
-250.986
-264.31
-274.29
-279.31
-279.039
-274.057
-265.169
-253.405
-239.917
-226.249
-214.053
-204.217
-197.081
-192.584
-190.217
-189.458
-189.82
-190.623
-191.176
-191.117
-190.279
-188.635
-186.309
-183.34
-179.701
-175.451
-170.667
-165.4
-159.726
-153.707
-147.418
-141.014
-134.66
-128.486
-122.598
-117.05
-111.863
-107.07
-102.683
-98.708
-95.161
-92.044
-89.357
-87.111
-85.289
-83.864
-82.788
-81.987
-81.388
-80.929
-80.556
-80.228
-79.916
-79.589
-79.225
-78.811
-78.329
-77.761
-77.083
-76.267
-75.287
-74.125
-72.762
-71.186
-69.385
-67.345
-65.052
-62.498
-59.671
-56.562
-53.164
-49.467
-45.467
-41.164
-36.559
-31.655
-26.458
-20.969
-15.195
-9.144
-2.826
3.75
10.569
17.617
24.872
32.31
39.906
47.639
55.494
63.46
71.518
79.644
87.815
96.003
104.171
112.276
120.257
128.047
135.596
142.862
149.819
156.459
162.767
168.735
174.363
179.635
184.548
189.101
193.281
197.081
200.513
203.608
206.442
209.104
211.644
214.098
216.486
218.792
221.016
223.121
225.022
226.653
227.942
228.818
229.249
229.191
228.566
227.287
225.23
222.249
218.267
213.216
207.031
199.687
191.148
181.446
170.713
159.08
146.678
133.647
120.096
106.158
92.028
77.881
63.904
50.294
37.184
24.718
13.059
2.346
-7.271
-15.715
-23.01
-29.19
-34.287
-38.36
-41.458
-43.67
-45.157
-46.039
-46.414
-46.378
-45.987
-45.318
-44.48
-43.571
-42.694
-41.917
-41.252
-40.707
-40.295
-40.005
-39.816
-39.675
-39.479
-39.166
-38.707
-38.084
-37.299
-36.348
-35.204
-33.853
-32.287
-30.502
-28.509
-26.315
-23.924
-21.353
-18.636
-15.817
-12.964
-10.124
-7.325
-4.591
-1.932
0.638
3.103
5.458
7.705
9.843
11.867
13.774
15.553
17.203
18.727
20.134
21.435
22.638
23.75
24.776
25.724
26.596
27.398
28.128
28.787
29.373
29.89
30.343
30.736
31.076
31.366
31.613
31.824
32.003
32.157
32.287
32.399
32.496
32.581
32.658
32.729
32.798
32.867
32.939
33.017
33.103
33.197
33.301
33.416
33.543
33.682
33.834
33.999
34.177
34.37
34.577
34.798
35.034
35.284
35.548
35.824
36.112
36.409
36.713
37.022
37.333
37.643
37.949
38.25
38.541
38.82
39.084
39.33
39.556
39.76
39.939
40.09
40.212
40.303
40.362
40.388
40.38
40.338
40.261
40.15
40.007
39.83
39.623
39.385
39.12
38.83
38.518
38.187
37.841
37.486
37.127
36.771
36.423
36.092
35.784
35.508
35.272
35.083
34.952
34.885
34.892
34.981
35.159
35.435
35.816
36.31
36.921
37.656
38.519
39.515
40.646
41.915
43.323
44.871
46.559
48.385
50.347
52.44
54.66
57.001
59.454
62.008
64.651
67.366
70.139
72.951
75.783
78.617
81.432
84.207
86.927
89.572
92.126
94.567
96.875
99.027
101.003
102.785
104.353
105.692
106.783
107.612
108.174
108.462
108.469
108.183
107.579
106.635
105.342
103.694
101.694
99.356
96.695
93.741
90.552
87.182
83.688
80.122
76.513
72.897
69.324
65.847
62.547
59.497
56.731
54.28
52.163
50.35
48.797
47.415
46.048
44.557
42.806
40.639
37.942
34.575
30.387
25.279
19.091
11.619
2.813
-7.291
-18.489
-30.278
-42.165
-53.706
-64.253
-73.119
-79.795
-83.903
-85.672
-85.941
-85.494
-84.993
-85.014
-86.01
-88.364
-92.208
-96.582
-99.42
-98.342
-90.977
-75.145
-48.618
-9.133
45.715
116.015
198.183
287.959
380.685
474.662
573.844
679.619
786.439
881.056
939.616
941.006
879.057
759.669
602.646
429.208
249.086
68.627
-107.72
-271.49
-406.843
-502.658
-556.952
-576.994
-574.673
-557.921
-528.835
-486.059
-429.995
-365.082
-297.927
-235.622
-183.072
-142.589
-115.199
-100.16
-95.692
-99.57
-109.085
-121.661
-134.721
-145.797
-152.912
-155.168
-152.794
-146.63
-137.814
-127.511
-116.899
-107.244
-99.752
-95.046
-93.084
-93.498
-95.67
-98.964
-102.898
-106.937
-110.51
-113.278
-115.061
-115.792
-115.567
-114.475
-112.555
-109.898
-106.602
-102.742
-98.445
-93.835
-89.032
-84.197
-79.445
-74.857
-70.515
-66.478
-62.808
-59.557
-56.738
-54.339
-52.356
-50.782
-49.612
-48.837
-48.412
-48.282
-48.388
-48.661
-49.051
-49.52
-50.028
-50.543
-51.036
-51.484
-51.876
-52.207
-52.463
-52.629
-52.684
-52.608
-52.389
-52.016
-51.476
-50.759
-49.853
-48.746
-47.426
-45.883
-44.103
-42.073
-39.778
-37.205
-34.344
-31.187
-27.728
-23.964
-19.892
-15.512
-10.826
-5.839
-0.554
5.021
10.881
17.016
23.417
30.071
36.967
44.088
51.42
58.943
66.639
74.487
82.464
90.547
98.711
106.93
115.176
123.422
131.64
139.799
147.87
155.823
163.627
171.251
178.665
185.839
192.742
199.345
205.62
211.539
217.075
222.203
226.9
231.142
234.907
238.178
240.935
243.165
244.852
245.987
246.561
246.567
246.002
244.866
243.16
240.889
238.06
234.682
230.769
226.336
221.398
215.976
210.092
203.767
197.029
189.903
182.418
174.604
166.494
158.117
149.509
140.703
131.735
122.641
113.455
104.212
94.945
85.689
76.478
67.345
58.32
49.433
40.714
32.189
23.885
15.829
8.041
0.539
-6.658
-13.538
-20.085
-26.282
-32.119
-37.587
-42.679
-47.395
-51.729
-55.678
-59.245
-62.432
-65.248
-67.709
-69.821
-71.595
-73.039
-74.158
-74.979
-75.529
-75.841
-75.945
-75.845
-75.54
-75.049
-74.392
-73.592
-72.699
-71.688
-70.501
-69.241
-67.972
-66.767
-65.772
-64.882
-63.921
-62.967
-62.067
-60.991
-59.697
-57.991
-55.447
-52.346
-49.006
-45.314
-41.506
-38.016
-34.87
-32.458
-31.488
-31.645
-32.759
-35.092
-38.078
-41.2
-44.461
-47.375
-49.291
-50.43
-50.656
-49.576
-47.84
-45.879
-43.7
-41.728
-40.273
-39.201
-38.798
-39.403
-40.579
-42.077
-43.848
-45.617
-47.361
-49.161
-50.814
-52.154
-53.329
-54.412
-55.442
-56.532
-57.615
-58.633
-59.634
-60.635
-61.618
-62.58
-63.496
-64.341
-65.136
-65.899
-66.635
-67.356
-68.056
-68.731
-69.385
-70.019
-70.637
-71.243
-71.841
-72.436
-73.03
-73.625
-74.226
-74.835
-75.454
-76.087
-76.733
-77.388
-78.055
-78.741
-79.459
-80.225
-81.041
-81.9
-82.786
-83.687
-84.596
-85.504
-86.392
-87.234
-88.017
-88.742
-89.429
-90.102
-90.766
-91.414
-92.02
-92.56
-93.028
-93.438
-93.811
-94.152
-94.464
-94.762
-95.081
-95.472
-95.949
-96.482
-96.993
-97.407
-97.68
-97.791
-97.741
-97.519
-97.098
-96.438
-95.51
-94.301
-92.795
-90.957
-88.716
-85.994
-82.76
-79.055
-74.978
-70.622
-66.051
-61.305
-56.418
-51.442
-46.438
-41.462
-36.55
-31.723
-27.019
-22.5
-18.263
-14.412
-11.008
-8.058
-5.531
-3.401
-1.663
-0.325
0.615
1.174
1.373
1.214
0.678
-0.268
-1.631
-3.402
-5.546
-8.02
-10.802
-13.879
-17.24
-20.856
-24.687
-28.692
-32.84
-37.115
-41.491
-45.927
-50.355
-54.697
-58.887
-62.872
-66.609
-70.059
-73.192
-76.004
-78.529
-80.85
-83.039
-85.149
-87.23
-89.333
-91.538
-93.953
-96.704
-99.887
-103.622
-108.091
-113.377
-119.482
-126.238
-133.179
-139.765
-145.49
-149.767
-151.971
-151.722
-148.833
-143.599
-137.102
-130.464
-124.719
-120.965
-120.034
-122.42
-128.266
-136.597
-144.991
-150.632
-150.438
-141.234
-120.071
-83.936
-30.225
42.506
132.134
233.559
341.805
451.09
560.136
671.675
780.999
879.466
950.429
970.245
930.681
833.814
692.079
526.851
345.677
153.692
-42.329
-233.033
-394.435
-508.709
-569.78
-582.76
-568.221
-540.994
-507.447
-469.552
-422.07
-365.189
-304.901
-247.015
-198.797
-164.415
-143.626
-135.073
-136.469
-144.849
-157.388
-171.43
-183.901
-192.127
-194.943
-192.146
-184.25
-172.55
-158.476
-143.384
-129.021
-117.033
-108.236
-102.923
-100.949
-101.738
-104.722
-109.326
-114.773
-120.304
-125.414
-129.802
-133.332
-135.977
-137.69
-138.43
-138.211
-137.087
-135.105
-132.303
-128.725
-124.435
-119.524
-114.132
-108.409
-102.5
-96.559
-90.707
-85.042
-79.661
-74.628
-69.984
-65.763
-61.979
-58.624
-55.694
-53.17
-51.02
-49.216
-47.715
-46.466
-45.419
-44.511
-43.694
-42.933
-42.196
-41.46
-40.706
-39.917
-39.08
-38.192
-37.245
-36.226
-35.127
-33.931
-32.625
-31.199
-29.644
-27.951
-26.111
-24.112
-21.941
-19.586
-17.034
-14.276
-11.297
-8.086
-4.632
-0.927
3.032
7.248
11.724
16.459
21.453
26.703
32.204
37.952
43.941
50.164
56.613
63.277
70.143
77.199
84.429
91.816
99.341
106.984
114.722
122.533
130.391
138.272
146.149
153.993
161.777
169.469
177.042
184.466
191.71
198.744
205.54
212.068
218.301
224.21
229.768
234.951
239.732
244.089
248
251.443
254.4
256.854
258.789
260.192
261.054
261.365
261.12
260.317
258.955
257.038
254.569
251.559
248.016
243.956
239.394
234.348
228.84
222.892
216.529
209.777
202.666
195.225
187.484
179.476
171.235
162.793
154.185
145.447
136.614
127.721
118.802
109.894
101.029
92.242
83.565
75.029
66.664
58.499
50.559
42.87
35.455
28.334
21.527
15.049
8.914
3.135
-2.279
-7.32
-11.983
-16.265
-20.165
-23.684
-26.825
-29.592
-31.991
-34.031
-35.721
-37.072
-38.097
-38.809
-39.224
-39.358
-39.227
-38.85
-38.244
-37.428
-36.422
-35.246
-33.917
-32.457
-30.884
-29.216
-27.473
-25.671
-23.828
-21.959
-20.082
-18.209
-16.354
-14.53
-12.749
-11.022
-9.357
-7.764
-6.25
-4.823
-3.488
-2.249
-1.111
-0.076
0.854
1.677
2.394
3.005
3.513
3.919
4.227
4.441
4.564
4.602
4.561
4.445
4.262
4.016
3.715
3.365
2.973
2.543
2.084
1.599
1.096
0.579
0.054
-0.474
-1.002
-1.525
-2.04
-2.542
-3.03
-3.501
-3.953
-4.385
-4.794
-5.183
-5.549
-5.894
-6.219
-6.525
-6.815
-7.091
-7.356
-7.614
-7.867
-8.121
-8.38
-8.647
-8.929
-9.229
-9.551
-9.902
-10.284
-10.703
-11.162
-11.665
-12.215
-12.817
-13.471
-14.18
-14.947
-15.772
-16.656
-17.598
-18.598
-19.655
-20.767
-21.931
-23.143
-24.4
-25.697
-27.028
-28.386
-29.766
-31.158
-32.555
-33.947
-35.325
-36.678
-37.994
-39.264
-40.475
-41.615
-42.674
-43.64
-44.5
-45.243
-45.859
-46.337
-46.667
-46.838
-46.842
-46.671
-46.318
-45.777
-45.042
-44.109
-42.977
-41.642
-40.106
-38.369
-36.435
-34.307
-31.992
-29.497
-26.832
-24.008
-21.037
-17.935
-14.72
-11.411
-8.029
-4.597
-1.138
2.322
5.758
9.144
12.457
15.671
18.762
21.706
24.479
27.054
29.407
31.515
33.356
34.909
36.157
37.084
37.683
37.945
37.866
37.438
36.649
35.487
33.946
32.025
29.728
27.065
24.058
20.74
17.155
13.356
9.391
5.31
1.152
-3.042
-7.226
-11.342
-15.323
-19.098
-22.606
-25.798
-28.629
-31.079
-33.165
-34.933
-36.476
-37.89
-39.247
-40.625
-42.116
-43.817
-45.856
-48.362
-51.424
-55.191
-59.872
-65.559
-72.236
-79.657
-87.29
-94.585
-101.059
-106.12
-109.102
-109.525
-107.206
-102.653
-97.036
-91.513
-87.012
-84.325
-84.246
-87.335
-93.449
-101.044
-107.361
-109.388
-104.137
-88.67
-59.781
-14.374
48.403
126.181
215.47
313.387
420.507
539.03
665.314
788.091
888.269
946.015
951.089
905.128
820.43
712.292
592.56
466.168
331.505
185.144
25.806
-140.127
-298.417
-429.338
-517.112
-557.017
-553.461
-522.354
-477.472
-425.297
-373.52
-322.433
-274.394
-236.586
-207.102
-185.58
-170.804
-157.067
-145.919
-138.397
-133.368
-131.983
-131.868
-130.511
-127.596
-122.275
-114.854
-106.447
-97.495
-88.382
-79.709
-71.859
-65.294
-60.754
-58.492
-58.308
-59.951
-63.023
-67.134
-72.041
-77.377
-82.573
-87.182
-90.944
-93.722
-95.548
-96.472
-96.475
-95.587
-93.894
-91.5
-88.528
-85.095
-81.269
-77.115
-72.723
-68.192
-63.655
-59.277
-55.167
-51.395
-48.007
-45.017
-42.442
-40.298
-38.569
-37.212
-36.182
-35.436
-34.941
-34.676
-34.609
-34.696
-34.879
-35.095
-35.294
-35.442
-35.51
-35.473
-35.307
-34.989
-34.508
-33.863
-33.051
-32.062
-30.882
-29.494
-27.886
-26.049
-23.976
-21.66
-19.093
-16.265
-13.17
-9.803
-6.158
-2.23
1.985
6.493
11.296
16.393
21.781
27.454
33.404
39.625
46.105
52.831
59.791
66.969
74.349
81.916
89.651
97.534
105.543
113.658
121.855
130.11
138.397
146.69
154.962
163.186
171.331
179.37
187.272
195.006
202.543
209.854
216.908
223.676
230.13
236.243
241.988
247.34
252.274
256.768
260.8
264.351
267.403
269.941
271.951
273.421
274.342
274.707
274.51
273.749
272.424
270.537
268.091
265.095
261.557
257.489
252.907
247.826
242.267
236.249
229.797
222.936
215.691
208.093
200.169
191.951
183.47
174.76
165.853
156.783
147.584
138.29
128.934
119.551
110.174
100.834
91.562
82.39
73.345
64.456
55.749
47.25
38.98
30.962
23.216
15.76
8.609
1.777
-4.724
-10.883
-16.693
-22.149
-27.245
-31.981
-36.354
-40.368
-44.024
-47.327
-50.283
-52.901
-55.189
-57.158
-58.819
-60.186
-61.271
-62.09
-62.658
-62.99
-63.103
-63.012
-62.734
-62.285
-61.684
-60.945
-60.087
-59.124
-58.073
-56.949
-55.768
-54.544
-53.29
-52.02
-50.747
-49.482
-48.238
-47.024
-45.852
-44.73
-43.668
-42.673
-41.752
-40.911
-40.154
-39.486
-38.91
-38.427
-38.04
-37.747
-37.55
-37.447
-37.436
-37.516
-37.683
-37.935
-38.267
-38.675
-39.155
-39.701
-40.309
-40.974
-41.69
-42.451
-43.253
-44.09
-44.956
-45.844
-46.749
-47.664
-48.584
-49.502
-50.413
-51.312
-52.193
-53.054
-53.889
-54.698
-55.477
-56.225
-56.941
-57.626
-58.279
-58.903
-59.499
-60.069
-60.618
-61.148
-61.665
-62.172
-62.676
-63.18
-63.689
-64.21
-64.746
-65.303
-65.887
-66.504
-67.158
-67.855
-68.602
-69.404
-70.266
-71.193
-72.19
-73.261
-74.409
-75.636
-76.944
-78.333
-79.804
-81.353
-82.98
-84.68
-86.448
-88.278
-90.162
-92.092
-94.057
-96.047
-98.05
-100.053
-102.044
-104.009
-105.935
-107.808
-109.614
-111.341
-112.973
-114.496
-115.897
-117.162
-118.275
-119.224
-119.996
-120.576
-120.955
-121.121
-121.064
-120.775
-120.247
-119.472
-118.448
-117.169
-115.636
-113.848
-111.81
-109.526
-107.004
-104.255
-101.291
-98.129
-94.786
-91.281
-87.636
-83.871
-80.012
-76.082
-72.105
-68.107
-64.112
-60.143
-56.229
-52.394
-48.667
-45.074
-41.641
-38.395
-35.362
-32.567
-30.035
-27.787
-25.837
-24.199
-22.889
-21.923
-21.319
-21.091
-21.241
-21.766
-22.661
-23.913
-25.502
-27.396
-29.536
-31.87
-34.344
-36.917
-39.555
-42.223
-44.875
-47.456
-49.906
-52.178
-54.244
-56.084
-57.683
-59.031
-60.135
-61.058
-61.926
-62.862
-63.986
-65.376
-67.063
-69.111
-71.609
-74.673
-78.419
-82.903
-88.102
-94.023
-100.757
-108.325
-116.61
-125.204
-133.407
-140.587
-146.287
-150.023
-151.198
-149.322
-144.172
-136.192
-126.495
-116.036
-105.657
-96.478
-89.672
-86.171
-85.194
-83.367
-76.888
-63.872
-46.442
-29.067
-13.156
7.389
45.696
114.458
219.915
353.608
495.789
627.573
731.334
803.013
847.054
863.727
856.348
816.714
733.053
601.691
418.607
198.991
-31.524
-247.265
-417.538
-532.386
-597.931
-624.859
-632.492
-627.558
-604.648
-563.936
-507.257
-442.626
-386.65
-345.397
-315.225
-292.645
-270.342
-246.424
-226.663
-213.377
-207.403
-208.003
-210.698
-212.022
-210.216
-204.345
-194.797
-182.445
-168.111
-152.595
-136.843
-122.185
-109.942
-100.918
-95.416
-93.23
-93.869
-96.891
-101.841
-108.143
-115.163
-122.4
-129.498
-136.268
-142.625
-148.462
-153.637
-158.005
-161.486
-164.043
-165.669
-166.395
-166.248
-165.279
-163.57
-161.206
-158.272
-154.863
-151.071
-146.97
-142.649
-138.198
-133.713
-129.317
-125.102
-121.12
-117.395
-113.924
-110.693
-107.691
-104.891
-102.253
-99.741
-97.321
-94.968
-92.666
-90.392
-88.113
-85.79
-83.371
-80.82
-78.115
-75.24
-72.189
-68.955
-65.537
-61.937
-58.17
-54.246
-50.167
-45.936
-41.547
-37.002
-32.305
-27.461
-22.477
-17.359
-12.108
-6.731
-1.232
4.387
10.121
15.971
21.935
28.013
34.2
40.49
46.876
53.353
59.911
66.545
73.242
79.994
86.792
93.624
100.481
107.35
114.22
121.075
127.903
134.687
141.413
148.063
154.62
161.066
167.384
173.555
179.56
185.381
190.997
196.39
201.54
206.428
211.035
215.343
219.332
222.985
226.287
229.22
231.77
233.923
235.666
236.987
237.878
238.329
238.333
237.885
236.981
235.622
233.807
231.539
228.825
225.67
222.085
218.082
213.673
208.875
203.705
198.183
192.328
186.165
179.717
173.011
166.073
158.931
151.614
144.152
136.573
128.91
121.191
113.447
105.709
98.006
90.37
82.827
75.408
68.14
61.049
54.159
47.495
41.079
34.93
29.066
23.505
18.261
13.346
8.77
4.543
0.671
-2.842
-5.995
-8.786
-11.218
-13.295
-15.022
-16.405
-17.455
-18.18
-18.593
-18.704
-18.529
-18.082
-17.377
-16.432
-15.264
-13.89
-12.328
-10.596
-8.714
-6.699
-4.571
-2.347
-0.046
2.315
4.719
7.15
9.591
12.027
14.446
16.833
19.176
21.465
23.69
25.841
27.911
29.894
31.782
33.572
35.26
36.841
38.315
39.678
40.932
42.075
43.108
44.033
44.853
45.569
46.186
46.706
47.135
47.476
47.736
47.919
48.032
48.081
48.071
48.009
47.902
47.754
47.573
47.363
47.131
46.88
46.617
46.345
46.069
45.791
45.516
45.247
44.985
44.733
44.493
44.266
44.053
43.855
43.671
43.503
43.35
43.21
43.083
42.966
42.859
42.758
42.661
42.564
42.464
42.357
42.239
42.106
41.955
41.78
41.578
41.345
41.078
40.772
40.423
40.03
39.588
39.097
38.553
37.956
37.305
36.6
35.84
35.027
34.162
33.247
32.283
31.274
30.222
29.133
28.011
26.861
25.69
24.505
23.314
22.126
20.949
19.792
18.665
17.578
16.54
15.562
14.654
13.826
13.089
12.454
11.929
11.524
11.25
11.112
11.119
11.276
11.59
12.065
12.704
13.511
14.485
15.629
16.941
18.419
20.059
21.855
23.8
25.886
28.1
30.43
32.86
35.373
37.951
40.574
43.221
45.871
48.502
51.09
53.615
56.055
58.389
60.593
62.644
64.519
66.194
67.649
68.862
69.814
70.489
70.872
70.955
70.734
70.201
69.349
68.161
66.627
64.742
62.505
59.92
57.002
53.774
50.269
46.54
42.64
38.616
34.517
30.375
26.226
22.112
18.087
14.21
10.545
7.143
4.042
1.283
-1.123
-3.203
-5.014
-6.666
-8.266
-9.894
-11.629
-13.558
-15.769
-18.375
-21.495
-25.204
-29.629
-34.938
-41.193
-48.368
-56.235
-64.287
-71.967
-78.749
-84.023
-87.159
-87.73
-85.563
-81.071
-75.284
-69.312
-64.181
-60.743
-59.705
-61.507
-66.006
-71.953
-77.026
-78.32
-72.673
-57.398
-30.104
11.65
69.581
144.024
234.064
335.297
440.187
542.283
634.906
716.23
790.281
856.292
910.239
938.474
917.853
833.646
680.305
471.153
237.829
11.813
-176.574
-313.056
-401.496
-451.394
-479.79
-496.667
-501.895
-493.564
-466.576
-421.086
-363.51
-301.279
-242.092
-190.988
-150.76
-122.98
-107.346
-102.59
-106.592
-116.427
-129.686
-144.157
-157.017
-165.96
-169.821
-168.344
-162.351
-153.277
-142.291
-130.525
-119.466
-110.428
-104.161
-100.909
-100.336
-101.769
-104.586
-108.212
-112.036
-115.521
-118.332
-120.3
-121.384
-121.618
-121.033
-119.665
-117.573
-114.833
-111.5
-107.634
-103.33
-98.718
-93.977
-89.269
-84.704
-80.349
-76.256
-72.464
-69.021
-65.971
-63.318
-61.056
-59.188
-57.715
-56.643
-55.96
-55.625
-55.57
-55.718
-56.006
-56.389
-56.83
-57.299
-57.769
-58.214
-58.62
-58.984
-59.297
-59.544
-59.704
-59.749
-59.659
-59.421
-59.028
-58.472
-57.745
-56.833
-55.728
-54.422
-52.908
-51.175
-49.208
-46.985
-44.489
-41.709
-38.641
-35.288
-31.648
-27.712
-23.476
-18.933
-14.082
-8.927
-3.469
2.296
8.37
14.753
21.428
28.365
35.533
42.907
50.472
58.228
66.153
74.208
82.332
90.442
98.488
106.455
114.328
122.105
129.756
137.195
144.419
151.511
158.481
165.283
171.695
177.275
181.823
185.447
188.313
190.664
192.766
194.772
197.29
201.474
208.016
217.009
227.988
239.79
251.331
262.01
270.727
275.742
275.74
269.972
258.798
244.009
227.387
209.966
192.952
177.869
166.104
158.9
156.367
157.042
159.244
161.914
164.221
165.435
164.765
161.178
154.286
144.742
133.548
121.447
108.874
96.013
83.088
70.602
58.896
47.908
37.363
27.011
16.79
6.82
-2.716
-11.733
-20.174
-27.925
-34.853
-40.833
-45.817
-49.851
-53.056
-55.575
-57.513
-58.942
-59.918
-60.485
-60.7
-60.617
-60.295
-59.795
-59.194
-58.591
-58.07
-57.701
-57.513
-57.499
-57.619
-57.803
-57.996
-58.157
-58.26
-58.294
-58.256
-58.146
-57.97
-57.737
-57.441
-57.059
-56.573
-55.964
-55.231
-54.391
-53.472
-52.515
-51.555
-50.628
-49.758
-48.961
-48.246
-47.617
-47.068
-46.592
-46.183
-45.844
-45.578
-45.39
-45.282
-45.252
-45.295
-45.405
-45.576
-45.797
-46.063
-46.366
-46.702
-47.07
-47.469
-47.899
-48.363
-48.858
-49.383
-49.936
-50.513
-51.111
-51.724
-52.351
-52.985
-53.626
-54.269
-54.914
-55.559
-56.201
-56.838
-57.469
-58.092
-58.705
-59.305
-59.891
-60.461
-61.014
-61.547
-62.06
-62.552
-63.021
-63.466
-63.887
-64.284
-64.656
-65.004
-65.328
-65.63
-65.911
-66.173
-66.418
-66.649
-66.87
-67.082
-67.289
-67.495
-67.704
-67.917
-68.139
-68.374
-68.623
-68.891
-69.181
-69.495
-69.838
-70.21
-70.614
-71.052
-71.525
-72.035
-72.581
-73.164
-73.782
-74.436
-75.122
-75.839
-76.582
-77.347
-78.129
-78.921
-79.715
-80.504
-81.278
-82.028
-82.744
-83.418
-84.038
-84.594
-85.077
-85.474
-85.776
-85.971
-86.05
-86.001
-85.814
-85.48
-84.991
-84.338
-83.514
-82.513
-81.33
-79.96
-78.4
-76.649
-74.706
-72.572
-70.251
-67.747
-65.067
-62.222
-59.221
-56.08
-52.815
-49.443
-45.985
-42.463
-38.898
-35.316
-31.741
-28.196
-24.708
-21.299
-17.997
-14.826
-11.811
-8.979
-6.355
-3.965
-1.833
0.018
1.569
2.801
3.7
4.255
4.457
4.295
3.754
2.824
1.5
-0.218
-2.324
-4.806
-7.646
-10.808
-14.244
-17.903
-21.729
-25.676
-29.704
-33.766
-37.819
-41.804
-45.654
-49.312
-52.729
-55.864
-58.688
-61.174
-63.32
-65.184
-66.862
-68.457
-70.071
-71.762
-73.583
-75.632
-78.002
-80.819
-84.205
-88.216
-92.95
-98.546
-105.042
-112.375
-120.289
-128.219
-135.54
-141.712
-146.098
-148.058
-147.156
-143.176
-136.488
-128.061
-118.985
-110.294
-102.939
-97.828
-95.568
-96.117
-98.318
-99.979
-98.299
-90.181
-72.803
-43.322
0.981
61.792
139.412
232.842
337.785
447.074
554.001
650.776
733.968
806.449
866.475
910.245
927.325
896.781
808.189
660.319
461.609
237.915
10.747
-201.063
-378.524
-514.815
-603.813
-644.299
-643.826
-607.488
-543.167
-459.96
-366.513
-277.348
-205.275
-157.098
-132.857
-122.931
-117.32
-110.886
-103.19
-99.297
-102.843
-113.093
-126.764
-138.972
-146.607
-149.638
-149.757
-148.984
-148.405
-148.48
-149.465
-151.299
-154.246
-157.964
-160.904
-161.73
-159.695
-154.424
-146.478
-136.996
-126.549
-115.837
-106.077
-98.06
-92.303
-89.101
-87.923
-87.817
-88.206
-88.601
-88.491
-87.704
-86.149
-83.782
-80.896
-77.901
-75.03
-72.44
-70.217
-68.309
-66.65
-65.178
-63.79
-62.412
-61.055
-59.75
-58.522
-57.405
-56.408
-55.534
-54.794
-54.181
-53.667
-53.219
-52.819
-52.46
-52.157
-51.928
-51.766
-51.641
-51.51
-51.328
-51.063
-50.687
-50.169
-49.474
-48.574
-47.455
-46.115
-44.553
-42.759
-40.716
-38.404
-35.805
-32.909
-29.71
-26.203
-22.382
-18.243
-13.786
-9.013
-3.93
1.459
7.153
13.149
19.444
26.03
32.896
40.03
47.419
55.046
62.893
70.939
79.16
87.535
96.038
104.647
113.334
122.073
130.836
139.596
148.325
156.991
165.565
174.014
182.306
190.409
198.29
205.918
213.26
220.284
226.96
233.258
239.151
244.611
249.613
254.132
258.146
261.637
264.586
266.978
268.801
270.043
270.698
270.762
270.233
269.111
267.4
265.105
262.235
258.799
254.811
250.285
245.241
239.697
233.678
227.208
220.314
213.027
205.378
197.398
189.123
180.587
171.826
162.876
153.774
144.557
135.263
125.927
116.586
107.276
98.03
88.883
79.866
71.011
62.345
53.897
45.691
37.752
30.101
22.759
15.743
9.069
2.753
-3.195
-8.766
-13.952
-18.748
-23.153
-27.166
-30.79
-34.029
-36.888
-39.377
-41.504
-43.279
-44.717
-45.829
-46.631
-47.139
-47.369
-47.338
-47.065
-46.567
-45.865
-44.975
-43.918
-42.712
-41.375
-39.926
-38.384
-36.765
-35.088
-33.369
-31.625
-29.871
-28.122
-26.392
-24.692
-23.034
-21.428
-19.884
-18.409
-17.01
-15.694
-14.465
-13.329
-12.287
-11.345
-10.502
-9.762
-9.123
-8.587
-8.152
-7.816
-7.578
-7.434
-7.383
-7.419
-7.54
-7.74
-8.016
-8.36
-8.769
-9.235
-9.753
-10.316
-10.918
-11.553
-12.216
-12.901
-13.604
-14.32
-15.046
-15.777
-16.51
-17.242
-17.969
-18.689
-19.398
-20.094
-20.773
-21.433
-22.073
-22.69
-23.281
-23.847
-24.385
-24.894
-25.374
-25.824
-26.244
-26.634
-26.997
-27.333
-27.646
-27.938
-28.214
-28.477
-28.731
-28.981
-29.229
-29.478
-29.731
-29.989
-30.255
-30.53
-30.816
-31.113
-31.425
-31.752
-32.097
-32.462
-32.847
-33.254
-33.685
-34.14
-34.62
-35.127
-35.662
-36.224
-36.816
-37.437
-38.087
-38.764
-39.465
-40.185
-40.919
-41.66
-42.398
-43.123
-43.826
-44.498
-45.13
-45.713
-46.242
-46.71
-47.115
-47.452
-47.717
-47.904
-48.004
-48.009
-47.912
-47.701
-47.368
-46.903
-46.294
-45.533
-44.62
-43.55
-42.319
-40.919
-39.332
-37.551
-35.579
-33.421
-31.089
-28.6
-25.972
-23.243
-20.467
-17.698
-14.989
-12.372
-9.854
-7.446
-5.165
-3.024
-1.042
0.782
2.482
4.077
5.579
7.007
8.378
9.749
11.222
12.882
14.791
16.974
19.399
22.039
24.88
27.876
30.971
34.069
37.014
39.691
42.029
43.948
45.377
46.201
46.243
45.376
43.528
40.675
36.862
32.126
26.48
19.983
12.716
4.823
-3.455
-11.915
-20.404
-28.757
-36.871
-44.598
-51.677
-58.019
-63.69
-68.831
-73.823
-78.979
-84.256
-89.654
-95.204
-100.606
-105.646
-110.009
-112.724
-113.089
-111.03
-106.444
-99.662
-91.624
-82.81
-73.799
-66.029
-60.434
-57.471
-57.916
-61.658
-67.964
-76.667
-87.033
-97.763
-108.354
-118.024
-125.161
-127.417
-121.07
-102.865
-72.015
-32.245
11.127
56.164
104.754
166.759
252.812
365.884
504.012
653.571
794.53
909.524
979.136
991.84
948.944
856.063
727.858
578.818
411.446
230.117
39.926
-148.41
-309.588
-426.234
-492.02
-512.06
-507.214
-491.919
-471.685
-447.649
-414.059
-370.366
-321.837
-273.502
-231.278
-198.955
-176.968
-164.526
-159.902
-160.793
-165.026
-170.971
-177.128
-181.505
-182.407
-179.128
-171.697
-160.966
-148.208
-134.345
-120.23
-107.074
-96.034
-87.788
-82.592
-80.215
-80.129
-81.886
-85.049
-89.097
-93.509
-97.893
-101.985
-105.61
-108.639
-110.972
-112.537
-113.301
-113.29
-112.513
-110.968
-108.696
-105.764
-102.267
-98.329
-94.039
-89.453
-84.653
-79.73
-74.802
-70.023
-65.494
-61.268
-57.397
-53.914
-50.84
-48.198
-45.971
-44.108
-42.567
-41.31
-40.304
-39.534
-38.967
-38.56
-38.264
-38.02
-37.783
-37.522
-37.204
-36.802
-36.29
-35.646
-34.857
-33.924
-32.842
-31.597
-30.178
-28.565
-26.747
-24.714
-22.457
-19.967
-17.234
-14.25
-11.006
-7.499
-3.723
0.328
4.659
9.275
14.179
19.37
24.846
30.603
36.635
42.935
49.492
56.297
63.336
70.595
78.06
85.715
93.541
101.518
109.627
117.843
126.143
134.502
142.892
151.286
159.654
167.967
176.194
184.303
192.264
200.044
207.613
214.94
221.994
228.745
235.165
241.225
246.898
252.159
256.982
261.344
265.223
268.599
271.453
273.771
275.538
276.742
277.373
277.426
276.895
275.779
274.079
271.799
268.947
265.531
261.564
257.063
252.045
246.531
240.543
234.108
227.253
220.005
212.397
204.46
196.226
187.731
179.009
170.095
161.026
151.838
142.568
133.252
123.926
114.628
105.391
96.251
87.24
78.39
69.732
61.296
53.107
45.191
37.57
30.266
23.296
16.677
10.422
4.542
-0.954
-6.062
-10.777
-15.097
-19.025
-22.563
-25.715
-28.488
-30.891
-32.933
-34.626
-35.982
-37.015
-37.741
-38.176
-38.337
-38.243
-37.912
-37.365
-36.62
-35.699
-34.621
-33.406
-32.075
-30.646
-29.138
-27.571
-25.961
-24.325
-22.679
-21.038
-19.415
-17.823
-16.274
-14.776
-13.338
-11.97
-10.677
-9.466
-8.34
-7.306
-6.365
-5.522
-4.777
-4.131
-3.585
-3.138
-2.788
-2.533
-2.37
-2.296
-2.306
-2.397
-2.564
-2.802
-3.107
-3.473
-3.895
-4.368
-4.887
-5.447
-6.043
-6.669
-7.323
-7.999
-8.694
-9.406
-10.132
-10.869
-11.614
-12.366
-13.123
-13.882
-14.642
-15.399
-16.153
-16.903
-17.648
-18.387
-19.122
-19.851
-20.577
-21.302
-22.025
-22.749
-23.474
-24.201
-24.931
-25.665
-26.404
-27.15
-27.902
-28.663
-29.435
-30.218
-31.015
-31.825
-32.65
-33.489
-34.343
-35.213
-36.099
-37.002
-37.921
-38.86
-39.819
-40.8
-41.804
-42.83
-43.879
-44.947
-46.034
-47.135
-48.246
-49.36
-50.472
-51.581
-52.68
-53.766
-54.837
-55.89
-56.923
-57.937
-58.927
-59.888
-60.811
-61.689
-62.514
-63.276
-63.965
-64.571
-65.08
-65.487
-65.788
-65.976
-66.045
-65.979
-65.76
-65.374
-64.818
-64.09
-63.191
-62.124
-60.902
-59.549
-58.109
-56.621
-55.114
-53.594
-52.055
-50.492
-48.901
-47.279
-45.625
-43.914
-42.118
-40.22
-38.212
-36.086
-33.815
-31.339
-28.568
-25.427
-21.882
-17.933
-13.612
-8.952
-4.003
1.164
6.449
11.712
16.827
21.697
26.249
30.411
34.086
37.141
39.417
40.781
41.153
40.484
38.747
35.924
32.044
27.172
21.436
15.012
8.049
0.671
-7.003
-14.861
-22.769
-30.568
-38.102
-45.237
-51.852
-57.844
-63.101
-67.526
-71.079
-73.761
-75.635
-76.816
-77.412
-77.532
-77.311
-76.885
-76.4
-76.03
-75.928
-76.25
-77.145
-78.788
-81.425
-85.214
-90.19
-96.223
-102.928
-109.822
-116.449
-122.234
-126.483
-128.696
-128.589
-126.346
-122.896
-119.272
-116.506
-115.701
-117.73
-123.169
-132.169
-143.802
-155.802
-165.424
-169.364
-164.14
-146.839
-114.471
-64.576
3.8
90.317
191.685
301.277
412.513
518.263
615.117
705.23
785.797
851.808
891.992
885.318
821.545
698.387
520.949
311.459
90.356
-123.414
-305.967
-444.243
-533.531
-575.111
-583.71
-575.865
-559.66
-538.861
-511.756
-473.754
-426.377
-374.529
-322.906
-276.909
-239.803
-212.266
-193.892
-183.338
-178.831
-178.751
-181.922
-187.014
-192.005
-194.994
-195.015
-191.937
-186.31
-178.988
-170.554
-161.573
-153.105
-146.346
-141.976
-140.155
-140.581
-142.629
-145.76
-149.596
-153.621
-157.247
-160.086
-161.868
-162.5
-162.083
-160.7
-158.397
-155.267
-151.407
-146.906
-141.905
-136.548
-130.975
-125.371
-119.864
-114.546
-109.506
-104.808
-100.514
-96.675
-93.298
-90.364
-87.859
-85.774
-84.104
-82.842
-81.942
-81.347
-80.992
-80.807
-80.739
-80.749
-80.792
-80.834
-80.846
-80.803
-80.694
-80.516
-80.257
-79.899
-79.421
-78.803
-78.03
-77.093
-75.978
-74.673
-73.169
-71.451
-69.511
-67.338
-64.921
-62.246
-59.302
-56.075
-52.557
-48.74
-44.619
-40.192
-35.456
-30.411
-25.06
-19.407
-13.455
-7.212
-0.685
6.119
13.19
20.515
28.082
35.877
43.884
52.085
60.462
68.993
77.657
86.432
95.291
104.21
113.162
122.121
131.058
139.946
148.754
157.453
166.014
174.406
182.6
190.564
198.27
205.688
212.788
219.542
225.924
231.908
237.469
242.582
247.226
251.379
255.024
258.142
260.718
262.74
264.197
265.079
265.383
265.104
264.241
262.798
260.777
258.187
255.036
251.336
247.102
242.35
237.098
231.367
225.181
218.564
211.543
204.146
196.404
188.348
180.01
171.423
162.621
153.639
144.511
135.274
125.961
116.608
107.25
97.918
88.647
79.469
70.412
61.507
52.782
44.261
35.969
27.93
20.163
12.688
5.522
-1.32
-7.824
-13.979
-19.776
-25.208
-30.269
-34.956
-39.267
-43.202
-46.764
-49.957
-52.786
-55.258
-57.381
-59.167
-60.626
-61.77
-62.613
-63.17
-63.456
-63.485
-63.273
-62.838
-62.195
-61.361
-60.351
-59.183
-57.873
-56.436
-54.889
-53.247
-51.524
-49.736
-47.895
-46.017
-44.113
-42.196
-40.278
-38.369
-36.481
-34.623
-32.804
-31.031
-29.314
-27.657
-26.067
-24.549
-23.106
-21.743
-20.461
-19.263
-18.15
-17.122
-16.181
-15.325
-14.554
-13.866
-13.261
-12.735
-12.287
-11.914
-11.614
-11.385
-11.223
-11.125
-11.088
-11.109
-11.185
-11.31
-11.482
-11.697
-11.951
-12.24
-12.56
-12.906
-13.276
-13.666
-14.072
-14.49
-14.918
-15.351
-15.788
-16.225
-16.662
-17.096
-17.527
-17.953
-18.376
-18.797
-19.214
-19.63
-20.044
-20.457
-20.87
-21.283
-21.698
-22.114
-22.533
-22.955
-23.383
-23.818
-24.262
-24.715
-25.18
-25.658
-26.149
-26.657
-27.183
-27.728
-28.293
-28.88
-29.492
-30.131
-30.797
-31.49
-32.209
-32.952
-33.717
-34.5
-35.293
-36.091
-36.887
-37.675
-38.449
-39.202
-39.93
-40.626
-41.288
-41.913
-42.494
-43.024
-43.494
-43.893
-44.214
-44.444
-44.574
-44.59
-44.481
-44.238
-43.858
-43.336
-42.664
-41.831
-40.818
-39.615
-38.222
-36.64
-34.874
-32.933
-30.829
-28.594
-26.276
-23.919
-21.557
-19.203
-16.858
-14.524
-12.21
-9.924
-7.674
-5.444
-3.216
-0.978
1.27
3.532
5.834
8.231
10.814
13.655
16.786
20.199
23.862
27.738
31.782
35.929
40.084
44.118
47.92
51.406
54.517
57.19
59.332
60.807
61.458
61.165
59.856
57.511
54.142
49.777
44.491
38.4
31.666
24.492
17.038
9.425
1.762
-5.837
-13.231
-20.246
-26.716
-32.52
-37.549
-41.748
-45.108
-47.651
-49.483
-50.748
-51.588
-52.179
-52.683
-53.22
-53.943
-55.003
-56.501
-58.584
-61.41
-65.029
-69.437
-74.45
-79.602
-84.355
-88.214
-90.647
-91.136
-89.3
-84.965
-78.522
-70.97
-63.541
-57.272
-52.766
-50.68
-51.725
-56.072
-62.83
-68.744
-68.522
-57.719
-34.444
-1.495
35.893
74.994
117.673
174.416
256.637
369.866
511.664
663.85
803.817
909.996
965.167
967.166
917.783
824.17
694.638
529.466
337.215
129.232
-76.879
-251.168
-377.047
-449.511
-476.021
-480.802
-479.36
-476.94
-472.217
-455.598
-424.249
-382.4
-335.382
-289.825
-248.964
-213.245
-183.735
-160.83
-144.125
-132.901
-125.954
-122.467
-122.03
-123.817
-126.152
-127.259
-126.273
-123.156
-118.37
-112.377
-105.433
-97.979
-90.987
-85.629
-82.568
-81.897
-83.299
-86.269
-90.38
-95.228
-100.279
-104.903
-108.636
-111.251
-112.692
-113.042
-112.381
-110.746
-108.206
-104.879
-100.88
-96.325
-91.341
-86.043
-80.57
-75.091
-69.738
-64.622
-59.847
-55.472
-51.54
-48.075
-45.075
-42.523
-40.413
-38.726
-37.434
-36.51
-35.908
-35.575
-35.459
-35.49
-35.611
-35.778
-35.948
-36.091
-36.186
-36.211
-36.154
-36.011
-35.769
-35.414
-34.933
-34.307
-33.522
-32.565
-31.424
-30.088
-28.548
-26.79
-24.804
-22.576
-20.096
-17.35
-14.327
-11.015
-7.403
-3.485
0.744
5.284
10.136
15.298
20.768
26.538
32.602
38.951
45.575
52.465
59.608
66.989
74.595
82.406
90.405
98.572
106.885
115.32
123.853
132.457
141.105
149.769
158.42
167.027
175.56
183.987
192.276
200.396
208.316
216.002
223.423
230.549
237.349
243.794
249.855
255.506
260.72
265.475
269.747
273.516
276.763
279.47
281.624
283.21
284.219
284.642
284.473
283.71
282.352
280.401
277.864
274.748
271.065
266.827
262.052
256.757
250.964
244.696
237.978
230.839
223.306
215.412
207.189
198.671
189.892
180.889
171.697
162.352
152.893
143.354
133.773
124.185
114.624
105.127
95.726
86.454
77.341
68.419
59.714
51.253
43.061
35.159
27.567
20.304
13.385
6.822
0.628
-5.189
-10.623
-15.67
-20.328
-24.596
-28.478
-31.978
-35.103
-37.859
-40.259
-42.311
-44.031
-45.43
-46.524
-47.328
-47.86
-48.136
-48.173
-47.991
-47.607
-47.041
-46.311
-45.436
-44.435
-43.326
-42.126
-40.854
-39.524
-38.154
-36.759
-35.352
-33.947
-32.556
-31.192
-29.864
-28.581
-27.353
-26.187
-25.088
-24.063
-23.114
-22.247
-21.463
-20.765
-20.153
-19.629
-19.192
-18.842
-18.578
-18.399
-18.302
-18.285
-18.344
-18.478
-18.681
-18.95
-19.281
-19.67
-20.112
-20.603
-21.139
-21.715
-22.326
-22.969
-23.64
-24.333
-25.046
-25.775
-26.516
-27.266
-28.024
-28.786
-29.55
-30.315
-31.079
-31.839
-32.596
-33.347
-34.092
-34.83
-35.559
-36.279
-36.989
-37.69
-38.382
-39.064
-39.737
-40.403
-41.062
-41.714
-42.363
-43.008
-43.651
-44.294
-44.939
-45.587
-46.241
-46.902
-47.572
-48.253
-48.946
-49.652
-50.373
-51.109
-51.86
-52.627
-53.409
-54.207
-55.019
-55.844
-56.682
-57.531
-58.389
-59.254
-60.123
-60.993
-61.861
-62.722
-63.571
-64.404
-65.214
-65.995
-66.741
-67.444
-68.097
-68.693
-69.223
-69.68
-70.055
-70.34
-70.525
-70.604
-70.568
-70.409
-70.119
-69.692
-69.122
-68.403
-67.53
-66.5
-65.307
-63.95
-62.428
-60.739
-58.884
-56.866
-54.687
-52.352
-49.869
-47.245
-44.489
-41.614
-38.634
-35.564
-32.421
-29.225
-25.995
-22.752
-19.518
-16.315
-13.165
-10.09
-7.111
-4.252
-1.536
1.013
3.372
5.516
7.426
9.081
10.462
11.554
12.344
12.823
12.986
12.82
12.309
11.441
10.209
8.609
6.649
4.336
1.691
-1.256
-4.463
-7.882
-11.464
-15.167
-18.956
-22.794
-26.641
-30.439
-34.117
-37.611
-40.863
-43.836
-46.499
-48.834
-50.849
-52.597
-54.171
-55.667
-57.167
-58.738
-60.448
-62.394
-64.688
-67.473
-70.855
-74.959
-79.965
-85.93
-92.819
-100.454
-108.375
-116.056
-123.024
-128.694
-132.419
-133.82
-132.675
-129.194
-124.31
-118.894
-113.708
-109.618
-107.286
-107.201
-109.603
-113.664
-117.273
-118.089
-113.556
-101.071
-78.206
-42.029
10.138
79.486
164.086
259.543
361.276
465.273
571.323
680.013
785.876
877.857
937.804
946.747
898.434
799.741
667.086
519.811
366.219
203.07
28.216
-155.135
-331.477
-473.659
-564.111
-597.794
-582.81
-541.268
-489.116
-434.785
-381.635
-325.647
-267.346
-211.265
-162.134
-125.931
-104.637
-96.411
-98.869
-108.713
-122.636
-138.193
-152.473
-162.676
-167.563
-166.971
-161.479
-152.385
-141.111
-128.883
-117.249
-107.758
-101.116
-97.494
-96.629
-97.814
-100.395
-103.829
-107.474
-110.743
-113.331
-115.084
-115.981
-116.116
-115.507
-114.166
-112.157
-109.538
-106.386
-102.782
-98.824
-94.653
-90.426
-86.284
-82.333
-78.635
-75.221
-72.122
-69.355
-66.931
-64.865
-63.159
-61.815
-60.848
-60.248
-59.994
-60.043
-60.323
-60.762
-61.304
-61.901
-62.514
-63.118
-63.687
-64.203
-64.662
-65.051
-65.358
-65.565
-65.646
-65.582
-65.356
-64.954
-64.368
-63.588
-62.606
-61.411
-59.996
-58.351
-56.467
-54.332
-51.933
-49.258
-46.297
-43.045
-39.497
-35.651
-31.503
-27.056
-22.311
-17.274
-11.947
-6.338
-0.452
5.704
12.118
18.783
25.687
32.817
40.161
47.704
55.43
63.321
71.359
79.524
87.796
96.15
104.565
113.016
121.479
129.927
138.334
146.674
154.919
163.039
171.005
178.79
186.362
193.694
200.757
207.523
213.965
220.057
225.774
231.093
235.989
240.441
244.428
247.932
250.934
253.419
255.371
256.781
257.637
257.932
257.662
256.824
255.419
253.45
250.921
247.842
244.222
240.074
235.415
230.261
224.633
218.555
212.05
205.147
197.874
190.261
182.341
174.146
165.709
157.066
148.251
139.299
130.245
121.125
111.974
102.827
93.718
84.682
75.752
66.96
58.336
49.909
41.707
33.754
26.074
18.69
11.62
4.881
-1.51
-7.541
-13.201
-18.482
-23.378
-27.886
-32.004
-35.735
-39.082
-42.05
-44.647
-46.882
-48.765
-50.309
-51.526
-52.431
-53.039
-53.367
-53.433
-53.254
-52.85
-52.24
-51.444
-50.481
-49.372
-48.135
-46.789
-45.354
-43.848
-42.288
-40.691
-39.074
-37.453
-35.842
-34.254
-32.703
-31.198
-29.751
-28.37
-27.061
-25.83
-24.684
-23.626
-22.658
-21.784
-21.004
-20.319
-19.729
-19.232
-18.828
-18.513
-18.284
-18.137
-18.068
-18.071
-18.144
-18.279
-18.471
-18.717
-19.008
-19.341
-19.708
-20.105
-20.526
-20.964
-21.415
-21.873
-22.335
-22.796
-23.252
-23.702
-24.142
-24.57
-24.986
-25.387
-25.773
-26.143
-26.497
-26.835
-27.158
-27.466
-27.76
-28.043
-28.315
-28.579
-28.837
-29.091
-29.343
-29.597
-29.854
-30.117
-30.389
-30.672
-30.971
-31.287
-31.624
-31.984
-32.37
-32.784
-33.228
-33.703
-34.211
-34.751
-35.324
-35.929
-36.565
-37.231
-37.925
-38.644
-39.387
-40.148
-40.926
-41.716
-42.512
-43.31
-44.105
-44.889
-45.658
-46.402
-47.117
-47.793
-48.424
-49
-49.515
-49.958
-50.323
-50.599
-50.778
-50.851
-50.81
-50.646
-50.351
-49.918
-49.34
-48.612
-47.729
-46.687
-45.482
-44.111
-42.575
-40.872
-39.004
-36.973
-34.782
-32.437
-29.944
-27.312
-24.548
-21.665
-18.675
-15.593
-12.435
-9.219
-5.963
-2.689
0.582
3.828
7.026
10.156
13.196
16.123
18.917
21.553
24.01
26.262
28.29
30.073
31.591
32.829
33.772
34.411
34.741
34.757
34.45
33.808
32.818
31.473
29.771
27.713
25.311
22.583
19.559
16.283
12.805
9.172
5.428
1.61
-2.244
-6.093
-9.881
-13.544
-17.01
-20.22
-23.126
-25.683
-27.873
-29.715
-31.262
-32.611
-33.866
-35.107
-36.419
-37.9
-39.649
-41.798
-44.487
-47.809
-51.919
-57.023
-63.205
-70.448
-78.515
-86.85
-94.871
-102.067
-107.816
-111.458
-112.557
-110.918
-107.005
-102.017
-97.163
-93.43
-91.66
-92.54
-96.453
-103.271
-111.586
-118.59
-121.062
-115.927
-100.243
-71.115
-25.965
37.513
118.755
213.248
315.962
421.567
527.809
637.255
748.564
854.277
940.16
984.589
972.156
899.564
774.051
611.846
427.23
230.964
32.729
-154.845
-312.907
-427.948
-494.316
-517.924
-516.755
-502.846
-481.752
-454.612
-416.25
-366.942
-312.182
-257.103
-207.972
-169.018
-141.195
-124.254
-116.898
-117.045
-122.506
-131.492
-142.214
-152.26
-159.451
-162.652
-161.532
-156.653
-149.13
-139.808
-129.515
-119.56
-111.261
-105.374
-102.162
-101.348
-102.297
-104.496
-107.498
-110.736
-113.655
-115.877
-117.2
-117.575
-117.059
-115.695
-113.526
-110.616
-107.058
-102.949
-98.381
-93.48
-88.397
-83.275
-78.25
-73.415
-68.824
-64.522
-60.551
-56.94
-53.714
-50.88
-48.43
-46.366
-44.694
-43.405
-42.474
-41.853
-41.463
-41.242
-41.145
-41.129
-41.166
-41.23
-41.295
-41.343
-41.371
-41.366
-41.318
-41.208
-41.011
-40.707
-40.281
-39.721
-39.019
-38.165
-37.147
-35.953
-34.573
-32.995
-31.209
-29.199
-26.949
-24.446
-21.68
-18.642
-15.328
-11.732
-7.85
-3.682
0.773
5.512
10.534
15.836
21.414
27.263
33.375
39.744
46.358
53.206
60.276
67.552
75.019
82.658
90.45
98.375
106.411
114.534
122.721
130.946
139.181
147.4
155.574
163.673
171.667
179.526
187.218
194.714
201.982
208.993
215.716
222.123
228.185
233.876
239.167
244.034
248.451
252.397
255.848
258.787
261.195
263.057
264.36
265.093
265.249
264.823
263.811
262.213
260.033
257.275
253.949
250.066
245.639
240.687
235.227
229.282
222.877
216.037
208.791
201.168
193.199
184.917
176.356
167.55
158.534
149.346
140.02
130.595
121.105
111.589
102.081
92.617
83.23
73.954
64.82
55.858
47.098
38.565
30.286
22.282
14.575
7.184
0.123
-6.592
-12.951
-18.945
-24.567
-29.812
-34.679
-39.168
-43.279
-47.018
-50.389
-53.399
-56.058
-58.375
-60.361
-62.03
-63.396
-64.474
-65.279
-65.827
-66.137
-66.225
-66.109
-65.807
-65.337
-64.717
-63.964
-63.096
-62.13
-61.082
-59.969
-58.804
-57.603
-56.378
-55.142
-53.907
-52.681
-51.476
-50.299
-49.159
-48.063
-47.017
-46.026
-45.096
-44.231
-43.433
-42.707
-42.053
-41.474
-40.97
-40.541
-40.189
-39.911
-39.709
-39.58
-39.524
-39.538
-39.621
-39.771
-39.987
-40.265
-40.603
-41.001
-41.456
-41.967
-42.533
-43.153
-43.826
-44.552
-45.33
-46.162
-47.047
-47.984
-48.975
-50.02
-51.119
-52.273
-53.482
-54.748
-56.07
-57.449
-58.886
-60.381
-61.934
-63.545
-65.215
-66.941
-68.724
-70.562
-72.454
-74.399
-76.393
-78.434
-80.519
-82.644
-84.804
-86.994
-89.207
-91.436
-93.674
-95.91
-98.136
-100.342
-102.516
-104.647
-106.722
-108.729
-110.654
-112.483
-114.201
-115.793
-117.245
-118.54
-119.662
-120.597
-121.328
-121.839
-122.117
-122.146
-121.912
-121.403
-120.604
-119.505
-118.095
-116.363
-114.302
-111.903
-109.162
-106.073
-102.636
-98.85
-94.719
-90.245
-85.434
-80.295
-74.838
-69.075
-63.021
-56.694
-50.112
-43.298
-36.276
-29.072
-21.715
-14.235
-6.664
0.964
8.613
16.246
23.824
31.306
38.653
45.823
52.778
59.481
65.893
71.98
77.709
83.045
87.96
92.425
96.408
99.884
102.828
105.222
107.058
108.337
109.059
109.224
108.833
107.88
106.368
104.306
101.705
98.576
94.939
90.822
86.271
81.357
76.153
70.716
65.082
59.272
53.303
47.235
41.167
35.192
29.391
23.815
18.485
13.474
8.911
4.768
0.856
-3.047
-7.204
-11.665
-16.192
-20.722
-25.44
-30.301
-35.064
-39.47
-43.099
-45.994
-48.872
-52.019
-55.153
-58.179
-61.078
-63.859
-66.822
-69.626
-71.102
-70.884
-69.545
-67.668
-65.892
-64.484
-63.58
-64.216
-67.494
-73.433
-79.524
-81.199
-75.939
-62.754
-42.81
-19.88
8.871
49.962
110.916
202.825
325.813
470.773
622.72
757.167
856.375
910.1
915.321
881.57
818.47
732.935
629.015
501.135
342.297
155.109
-49.93
-250.045
-414.856
-528.816
-590.406
-608.212
-601.698
-580.401
-542.671
-490.729
-426.99
-359.184
-303.062
-264.217
-239.236
-224.125
-210.726
-196.547
-186.641
-182.913
-186.335
-195.9
-206.526
-214.906
-219.613
-219.913
-216.603
-210.668
-202.712
-193.573
-184.31
-175.958
-169.529
-165.581
-164.065
-164.646
-166.803
-169.942
-173.576
-177.231
-180.395
-182.77
-184.204
-184.595
-183.995
-182.475
-180.059
-176.831
-172.887
-168.283
-163.134
-157.582
-151.769
-145.886
-140.076
-134.417
-128.992
-123.856
-119.062
-114.677
-110.724
-107.192
-104.084
-101.399
-99.135
-97.298
-95.856
-94.75
-93.917
-93.282
-92.79
-92.406
-92.091
-91.812
-91.543
-91.259
-90.948
-90.606
-90.222
-89.774
-89.243
-88.602
-87.835
-86.93
-85.876
-84.66
-83.271
-81.695
-79.92
-77.936
-75.728
-73.281
-70.58
-67.61
-64.357
-60.813
-56.971
-52.827
-48.379
-43.625
-38.567
-33.209
-27.556
-21.612
-15.384
-8.88
-2.109
4.918
12.188
19.688
27.401
35.31
43.394
51.634
60.005
68.485
77.048
85.668
94.319
102.971
111.596
120.164
128.645
137.007
145.218
153.246
161.06
168.627
175.917
182.899
189.545
195.826
201.715
207.188
212.217
216.782
220.858
224.426
227.466
229.962
231.899
233.264
234.049
234.244
233.847
232.854
231.267
229.088
226.323
222.981
219.072
214.609
209.61
204.093
198.079
191.592
184.658
177.304
169.56
161.457
153.026
144.301
135.315
126.104
116.702
107.145
97.469
87.71
77.905
68.09
58.298
48.566
38.925
29.409
20.048
10.871
1.906
-6.821
-15.286
-23.466
-31.34
-38.891
-46.102
-52.959
-59.45
-65.566
-71.299
-76.646
-81.604
-86.172
-90.352
-94.147
-97.561
-100.602
-103.278
-105.598
-107.574
-109.218
-110.545
-111.569
-112.307
-112.775
-112.991
-112.974
-112.74
-112.309
-111.7
-110.93
-110.02
-108.986
-107.847
-106.623
-105.329
-103.984
-102.603
-101.203
-99.796
-98.397
-97.018
-95.671
-94.366
-93.113
-91.92
-90.797
-89.75
-88.785
-87.907
-87.121
-86.431
-85.838
-85.343
-84.949
-84.653
-84.457
-84.358
-84.356
-84.447
-84.63
-84.901
-85.256
-85.692
-86.205
-86.789
-87.439
-88.151
-88.92
-89.741
-90.61
-91.523
-92.476
-93.465
-94.487
-95.539
-96.618
-97.72
-98.843
-99.984
-101.14
-102.311
-103.494
-104.688
-105.893
-107.106
-108.329
-109.56
-110.8
-112.047
-113.301
-114.561
-115.828
-117.101
-118.381
-119.668
-120.962
-122.263
-123.571
-124.887
-126.21
-127.536
-128.866
-130.195
-131.521
-132.84
-134.148
-135.438
-136.707
-137.949
-139.161
-140.336
-141.468
-142.549
-143.574
-144.536
-145.428
-146.24
-146.96
-147.579
-148.088
-148.481
-148.748
-148.883
-148.877
-148.721
-148.412
-147.947
-147.32
-146.52
-145.537
-144.357
-142.978
-141.414
-139.673
-137.76
-135.683
-133.451
-131.079
-128.594
-126.007
-123.309
-120.499
-117.566
-114.523
-111.401
-108.229
-105.036
-101.838
-98.627
-95.411
-92.215
-89.045
-85.9
-82.773
-79.634
-76.506
-73.461
-70.561
-67.871
-65.432
-63.249
-61.34
-59.731
-58.446
-57.526
-56.99
-56.84
-57.11
-57.851
-59.115
-60.97
-63.417
-66.374
-69.773
-73.538
-77.592
-81.895
-86.382
-90.976
-95.623
-100.268
-104.861
-109.362
-113.689
-117.739
-121.417
-124.628
-127.322
-129.533
-131.306
-132.712
-133.864
-134.861
-135.793
-136.766
-137.862
-139.152
-140.74
-142.746
-145.252
-148.371
-152.262
-156.996
-162.575
-168.86
-175.419
-181.671
-187.096
-191.156
-193.229
-192.921
-190.007
-184.556
-177.384
-169.707
-162.486
-156.46
-152.676
-151.928
-154.277
-159.509
-164.628
-163.899
-154.786
-136.365
-109.611
-80.053
-44.857
5.576
79.064
184.001
314.611
452.23
579.751
683.771
763.646
824.423
867.329
885.982
861.919
783.175
646.095
455.544
236.338
11.697
-195.947
-360.941
-476.903
-544.525
-570.709
-574.329
-564.23
-543.134
-512.713
-469.099
-414.19
-354.859
-296.658
-245.698
-205.973
-178.163
-161.709
-154.716
-154.483
-158.414
-164.51
-171.126
-176.259
-178.21
-176.319
-170.776
-162.559
-152.977
-142.911
-133.009
-124.246
-117.616
-113.593
-112.213
-113.031
-115.293
-118.434
-122.047
-125.64
-128.712
-130.891
-131.913
-131.695
-130.319
-127.858
-124.376
-119.959
-114.699
-108.721
-102.183
-95.255
-88.117
-80.927
-73.809
-66.866
-60.177
-53.818
-47.865
-42.364
-37.325
-32.748
-28.621
-24.94
-21.704
-18.888
-16.44
-14.293
-12.373
-10.62
-8.995
-7.46
-5.98
-4.526
-3.069
-1.595
-0.098
1.432
