Name,Criss Capps
Date of Birth,"Feb 5, 1952"
Recorded Date,2025-04-05 18:37:07 -0400
Classification,Poor Recording
Symptoms,
Software Version,1.90
Device,"Watch5,4"
Sample Rate,512.844 hertz


Lead,Lead I
Unit,µV

286.969
367.685
407.762
403.541
366.965
316.684
269.954
236.868
216.769
203.395
189.924
170.945
146.183
118.835
92.201
69.226
50.781
35.801
22.849
10.582
-1.93
-15.335
-29.957
-45.864
-63.07
-81.355
-100.354
-119.82
-139.396
-158.577
-177.069
-194.729
-211.522
-227.607
-243.153
-258.246
-273.006
-287.594
-302.115
-316.638
-331.184
-345.692
-360.101
-374.366
-388.467
-402.413
-416.181
-429.696
-442.812
-455.312
-467.045
-477.939
-487.923
-496.919
-504.859
-511.673
-517.45
-522.447
-526.738
-530.192
-532.546
-533.373
-532.333
-529.241
-523.793
-515.57
-504.407
-490.38
-473.824
-455.387
-435.624
-414.923
-393.755
-372.64
-351.97
-332.035
-312.949
-294.614
-276.998
-260.153
-244.079
-228.751
-214.153
-200.258
-187.089
-174.729
-163.186
-152.396
-142.293
-132.785
-123.76
-115.103
-106.647
-98.179
-89.539
-80.614
-71.313
-61.591
-51.406
-40.722
-29.539
-17.887
-5.799
6.685
19.534
32.725
46.207
59.912
73.757
87.644
101.504
115.295
128.982
142.551
155.995
169.322
182.565
195.773
208.986
222.243
235.571
248.999
262.57
276.338
290.366
304.711
319.415
334.508
350.021
365.967
382.351
399.155
416.331
433.833
451.628
469.687
487.995
506.525
525.234
544.085
563.035
582.039
601.066
620.075
639.011
657.843
676.55
695.128
713.614
732.032
750.39
768.698
786.949
805.141
823.29
841.405
859.49
877.555
895.629
913.776
932.112
950.764
969.843
989.425
1009.519
1030.144
1051.244
1072.654
1094.155
1115.43
1136.137
1156.026
1174.938
1192.689
1209.237
1224.741
1239.424
1253.639
1267.725
1281.516
1294.424
1305.966
1315.877
1324.847
1334.036
1343.742
1352.76
1357.312
1353.042
1336.602
1306.152
1263.255
1210.346
1150.075
1086.785
1024.279
966.645
916.578
871.248
823.881
763.605
679.445
566.827
426.479
267.394
103.714
-53.012
-191.826
-307.858
-403.073
-479.569
-543.397
-600.501
-653.783
-707.779
-763.935
-822.017
-881.851
-939.659
-992.145
-1035.507
-1066.037
-1083.906
-1090.471
-1090.571
-1090.457
-1093.537
-1102.073
-1114.14
-1125.545
-1134.13
-1138.22
-1138.498
-1137.303
-1135.358
-1133.009
-1130.125
-1125.805
-1119.853
-1112.475
-1103.84
-1094.397
-1084.662
-1074.944
-1065.459
-1056.356
-1047.634
-1039.225
-1031.076
-1023.072
-1015.031
-1006.846
-998.44
-989.735
-980.721
-971.394
-961.725
-951.72
-941.39
-930.711
-919.669
-908.247
-896.413
-884.176
-871.576
-858.653
-845.466
-832.07
-818.521
-804.895
-791.262
-777.688
-764.241
-750.976
-737.95
-725.229
-712.87
-700.929
-689.466
-678.511
-668.07
-658.133
-648.668
-639.637
-631.007
-622.737
-614.781
-607.095
-599.628
-592.333
-585.167
-578.089
-571.059
-564.035
-556.974
-549.86
-542.7
-535.526
-528.385
-521.304
-514.309
-507.436
-500.728
-494.237
-488.007
-482.059
-476.419
-471.129
-466.211
-461.663
-457.398
-453.225
-448.949
-444.398
-439.379
-433.682
-427.144
-419.699
-411.521
-402.979
-394.415
-386.128
-378.459
-371.792
-366.435
-362.077
-357.586
-351.729
-343.735
-334.196
-324.513
-314.679
-302.649
-284.237
-255.228
-214.838
-166.509
-116.644
-71.708
-34.691
-4.61
20.462
41.446
55.064
54.209
33.381
-10.573
-74.585
-149.059
-223.988
-289.224
-338.996
-373.838
-396.628
-412.391
-424.453
-432.899
-436.5
-433.11
-422.53
-406.585
-387.671
-368.601
-351.08
-335.885
-323.885
-315.58
-311
-309.916
-311.72
-315.641
-321.102
-327.522
-334.05
-339.858
-344.486
-347.785
-349.886
-351.084
-351.595
-351.624
-351.573
-351.906
-352.885
-354.605
-356.992
-359.84
-363.006
-366.397
-369.859
-373.223
-376.388
-379.3
-381.978
-384.498
-386.913
-389.254
-391.556
-393.851
-396.171
-398.548
-401.01
-403.581
-406.277
-409.11
-412.089
-415.223
-418.519
-421.979
-425.598
-429.366
-433.271
-437.31
-441.486
-445.805
-450.269
-454.882
-459.646
-464.567
-469.661
-474.942
-480.421
-486.11
-492.007
-498.11
-504.416
-510.922
-517.625
-524.515
-531.567
-538.757
-546.06
-553.45
-560.899
-568.375
-575.818
-583.171
-590.38
-597.379
-604.13
-610.607
-616.786
-622.663
-628.237
-633.504
-638.483
-643.196
-647.649
-651.87
-655.876
-659.662
-663.298
-666.877
-670.516
-674.416
-678.743
-683.551
-688.885
-694.77
-701.111
-707.792
-714.609
-721.124
-726.931
-731.809
-735.605
-738.305
-740.073
-741.019
-741.326
-741.584
-742.492
-744.624
-748.537
-754.038
-760.074
-765.822
-770.432
-774.014
-778.144
-782.946
-786.899
-785.747
-772.356
-742.349
-695.165
-634.774
-569.385
-505.087
-444.976
-389.69
-337.551
-288.512
-243.914
-204.865
-172.534
-146.903
-126.933
-111.632
-99.594
-89.135
-78.949
-68.216
-56.479
-43.656
-29.828
-15.025
0.316
15.306
29.219
41.69
52.616
62.139
70.422
77.471
83.507
89.05
94.521
100.181
106.153
112.371
118.773
125.413
132.252
139.112
145.832
152.23
158.14
163.496
168.223
172.22
175.45
177.903
179.58
180.525
180.779
180.388
179.438
178.022
176.23
174.187
172.031
169.932
168.117
166.78
166.079
166.153
167.088
168.95
171.802
175.67
180.554
186.439
193.279
201.018
209.603
218.941
228.902
239.326
249.98
260.643
271.168
281.456
291.476
301.269
310.86
320.263
329.516
338.643
347.57
356.137
364.097
371.153
377.136
382.034
385.998
389.326
392.47
396.005
400.508
406.473
414.157
423.634
434.749
446.965
459.495
471.506
482.216
491.467
499.884
507.424
513.703
518.191
518.898
515.348
509.087
501.422
496.034
495.926
499.509
503.239
499.623
478.919
436.252
372.413
293.748
211.022
133.474
64.419
2.694
-53.607
-105.357
-148.207
-173.289
-175.581
-153.416
-110.223
-56.609
-0.122
54.352
103.701
150.668
196.228
239.315
279.564
314.363
342.321
364.248
380.897
393.809
404.668
414.448
423.946
433.697
443.823
454.172
464.408
474.112
482.863
490.432
496.854
502.403
507.518
512.632
518.159
524.527
531.997
540.642
550.284
560.391
570.399
579.923
588.645
596.357
603.002
608.578
613.255
617.441
621.46
625.496
629.654
633.894
638.12
642.257
646.147
649.586
652.456
654.699
656.314
657.379
657.972
658.157
658.022
657.647
657.079
656.365
655.544
654.659
653.777
652.966
652.277
651.749
651.417
651.301
651.422
651.781
652.329
653.012
653.778
654.58
655.414
656.295
657.194
658.057
658.852
659.583
660.36
661.395
662.828
664.747
667.274
670.58
674.844
680.164
686.362
692.965
699.514
705.706
711.214
715.685
718.93
720.864
722.153
724.382
728.544
735.158
744.297
755.182
768.898
788.023
814.151
848.275
888.46
929.974
969.847
1007.042
1041.362
1073.031
1099.019
1111.669
1104.015
1072.313
1017.126
946.085
868.792
793.262
726.621
672.116
630.534
602.004
585.235
579.457
583.96
597.557
618.168
641.351
663.303
681.667
696.452
712.202
732.761
760.282
795.19
833.342
871.189
906.683
938.148
966.765
993.309
1017.359
1038.957
1057.326
1071.992
1083.511
1092.33
1099.015
1104.297
1108.547
1111.964
1114.781
1117.056
1118.651
1119.445
1119.221
1117.685
1114.795
1110.671
1105.477
1099.489
1092.991
1086.224
1079.465
1072.994
1066.971
1061.49
1056.596
1052.278
1048.563
1045.505
1043.146
1041.532
1040.682
1040.582
1041.208
1042.525
1044.48
1047.007
1050.04
1053.511
1057.375
1061.603
1066.173
1071.058
1076.203
1081.53
1086.957
1092.399
1097.781
1103.05
1108.154
1113.053
1117.731
1122.179
1126.396
1130.384
1134.123
1137.571
1140.695
1143.445
1145.775
1147.696
1149.235
1150.459
1151.495
1152.447
1153.383
1154.415
1155.657
1157.079
1158.582
1159.941
1160.734
1160.679
1159.635
1157.363
1153.655
1148.524
1142.067
1134.653
1127.065
1119.868
1113.41
1108.288
1105.04
1103.978
1105.469
1108.992
1112.79
1115.48
1115.79
1113.321
1109.694
1105.387
1099.096
1087.716
1064.804
1025.051
966.548
889.931
800.97
707.495
616.355
535.151
468.503
416.886
379.008
349.999
324.247
299.411
274.818
251.695
232.324
216.708
203.523
191.421
178.953
165.694
152.028
138.175
124.206
110.361
96.947
84.206
72.41
61.585
51.506
42.119
33.525
25.67
18.392
11.473
4.558
-2.543
-9.827
-17.358
-25.235
-33.477
-42.054
-50.826
-59.513
-67.892
-75.838
-83.26
-90.122
-96.414
-102.113
-107.232
-111.831
-115.953
-119.638
-122.899
-125.71
-128.065
-129.993
-131.547
-132.811
-133.884
-134.845
-135.754
-136.663
-137.604
-138.6
-139.667
-140.798
-141.981
-143.208
-144.482
-145.819
-147.236
-148.734
-150.301
-151.914
-153.54
-155.152
-156.73
-158.247
-159.684
-161.028
-162.267
-163.401
-164.435
-165.367
-166.194
-166.909
-167.502
-167.969
-168.307
-168.516
-168.597
-168.552
-168.385
-168.103
-167.713
-167.222
-166.636
-165.96
-165.2
-164.362
-163.455
-162.487
-161.469
-160.412
-159.327
-158.226
-157.124
-156.033
-154.966
-153.935
-152.953
-152.032
-151.183
-150.418
-149.746
-149.177
-148.722
-148.387
-148.182
-148.114
-148.187
-148.407
-148.779
-149.306
-149.99
-150.832
-151.83
-152.985
-154.293
-155.751
-157.356
-159.102
-160.982
-162.991
-165.121
-167.363
-169.71
-172.151
-174.675
-177.273
-179.934
-182.647
-185.401
-188.185
-190.988
-193.801
-196.612
-199.412
-202.191
-204.941
-207.653
-210.32
-212.935
-215.492
-217.986
-220.412
-222.768
-225.052
-227.263
-229.4
-231.466
-233.462
-235.393
-237.264
-239.081
-240.851
-242.58
-244.278
-245.953
-247.614
-249.27
-250.929
-252.601
-254.296
-256.027
-257.803
-259.636
-261.535
-263.513
-265.578
-267.743
-270.014
-272.395
-274.89
-277.506
-280.248
-283.126
-286.143
-289.299
-292.592
-296.02
-299.575
-303.249
-307.025
-310.876
-314.779
-318.717
-322.676
-326.646
-330.614
-334.557
-338.451
-342.274
-346.016
-349.673
-353.235
-356.69
-360.037
-363.298
-366.511
-369.728
-372.981
-376.281
-379.633
-383.062
-386.598
-390.287
-394.167
-398.239
-402.51
-407.007
-411.739
-416.682
-421.732
-426.661
-431.215
-435.189
-438.386
-440.61
-441.747
-441.755
-440.785
-439.249
-437.604
-436.263
-435.633
-436.067
-437.745
-440.62
-444.227
-447.658
-449.885
-449.866
-446.451
-438.488
-425.037
-405.429
-380.11
-350.808
-319.321
-287.597
-256.798
-226.457
-197.211
-171.486
-153.164
-148.577
-162.941
-197.312
-249.799
-315.54
-387.9
-461.789
-532.683
-595.193
-645.441
-680.793
-700.504
-707.719
-706.43
-700.287
-692.622
-684.792
-677.797
-671.933
-665.968
-659.214
-651.003
-641.697
-633.493
-627.755
-625.068
-625.309
-627.368
-630.688
-635.133
-640.359
-645.875
-651.045
-655.399
-658.831
-661.443
-663.301
-664.439
-664.962
-665.168
-665.486
-666.172
-667.273
-668.705
-670.323
-672.04
-673.81
-675.527
-677.03
-678.222
-679.075
-679.618
-679.935
-680.084
-680.094
-679.999
-679.839
-679.653
-679.484
-679.365
-679.317
-679.359
-679.507
-679.771
-680.163
-680.692
-681.356
-682.152
-683.07
-684.104
-685.253
-686.518
-687.9
-689.396
-691.002
-692.712
-694.521
-696.425
-698.421
-700.502
-702.665
-704.906
-707.224
-709.617
-712.085
-714.627
-717.241
-719.924
-722.674
-725.489
-728.366
-731.306
-734.306
-737.368
-740.491
-743.677
-746.929
-750.249
-753.64
-757.106
-760.649
-764.274
-767.984
-771.785
-775.68
-779.675
-783.776
-787.988
-792.318
-796.771
-801.352
-806.069
-810.927
-815.93
-821.085
-826.394
-831.864
-837.499
-843.304
-849.284
-855.44
-861.777
-868.296
-874.998
-881.885
-888.955
-896.205
-903.632
-911.232
-919.002
-926.938
-935.035
-943.283
-951.672
-960.19
-968.829
-977.577
-986.424
-995.357
-1004.363
-1013.429
-1022.543
-1031.698
-1040.885
-1050.094
-1059.312
-1068.52
-1077.708
-1086.867
-1096.001
-1105.11
-1114.186
-1123.207
-1132.148
-1140.988
-1149.715
-1158.329
-1166.817
-1175.133
-1183.255
-1191.192
-1199.006
-1206.773
-1214.509
-1222.138
-1229.555
-1236.718
-1243.565
-1249.987
-1255.789
-1260.707
-1264.592
-1267.493
-1269.578
-1270.99
-1271.914
-1272.594
-1273.331
-1274.533
-1276.494
-1279.295
-1282.852
-1287.015
-1291.504
-1295.948
-1300.013
-1303.311
-1305.52
-1306.467
-1306.076
-1304.422
-1301.809
-1298.68
-1295.376
-1292.199
-1289.393
-1287.125
-1285.572
-1284.772
-1284.527
-1284.498
-1284.406
-1284.051
-1283.301
-1282.045
-1280.108
-1277.347
-1273.72
-1269.27
-1264.051
-1258.068
-1251.29
-1243.697
-1235.32
-1226.248
-1216.609
-1206.508
-1196.05
-1185.359
-1174.554
-1163.792
-1153.239
-1143.024
-1133.292
-1124.209
-1115.935
-1108.675
-1102.633
-1097.908
-1094.551
-1092.555
-1091.738
-1091.852
-1092.564
-1093.363
-1093.754
-1093.278
-1091.519
-1088.213
-1083.307
-1076.849
-1069.021
-1060.157
-1050.633
-1040.985
-1031.656
-1022.886
-1014.248
-1004.326
-991.631
-974.649
-952.977
-928.277
-901.637
-872.662
-838.566
-791.905
-725.412
-635.418
-521.228
-389.109
-248.416
-106.443
28.075
149.386
255.71
345.272
422.84
497.426
577.064
670.615
780.683
902.783
1031.218
1159.178
1282.637
1402.742
1521.841
1640.975
1760.177
1876.92
1987.384
2090.619
2186.414
2275.135
2358.311
2435.392
2505.55
2568.725
2624.853
2674.981
2720.258
2761.192
2797.976
2830.549
2858.961
2883.427
2904.181
2921.483
2935.618
2947.036
2956.46
2964.541
2971.772
2978.548
2984.998
2991.083
2996.662
3001.341
3004.644
3006.26
3005.964
3003.628
2999.318
2993.179
2985.466
2976.603
2966.951
2956.725
2946.08
2935.093
2923.792
2912.204
2900.283
2887.917
2875.048
2861.685
2847.87
2833.677
2819.157
2804.329
2789.219
2773.866
2758.288
2742.47
2726.372
2709.924
2693.049
2675.7
2657.821
2639.333
2620.187
2600.348
2579.832
2558.758
2537.27
2515.496
2493.629
2471.91
2450.522
2429.621
2409.228
2389.149
2369.175
2349.052
2328.415
2306.809
2283.826
2259.229
2233.003
2205.402
2176.782
2147.574
2118.827
2092.389
2070.091
2053.437
2042.175
2033.647
2025.116
2014.365
2001.813
1991.804
1989.154
1997.347
2015.242
2034.411
2041.279
2020.85
1961.513
1858.86
1717.406
1546.632
1356.463
1155.655
948.788
739.913
535.736
343.394
170.708
21.971
-104.531
-213.304
-309.982
-397.779
-476.444
-544.498
-600.638
-645.704
-682.166
-712.85
-740.395
-766.307
-791.501
-816.72
-842.423
-868.941
-896.481
-925.083
-954.619
-984.9
-1015.578
-1046.246
-1076.516
-1106.163
-1135.102
-1163.109
-1190.08
-1216.012
-1240.943
-1265.141
-1288.952
-1312.485
-1335.754
-1359.006
-1382.404
-1406.114
-1430.314
-1454.735
-1478.984
-1502.878
-1526.256
-1548.853
-1570.471
-1590.825
-1609.713
-1627.502
-1644.714
-1661.774
-1679.095
-1697.074
-1716.152
-1736.719
-1758.992
-1782.202
-1804.743
-1825.77
-1844.724
-1861.538
-1877.188
-1889.777
-1895.089
-1889.263
-1867.03
-1826.825
-1772.069
-1705.331
-1630.762
-1550.877
-1462.988
-1366.35
-1260.722
-1146.394
-1028.597
-911.849
-799.675
-696.15
-602.319
-518.484
-445.046
-381.832
-329.441
-288.765
-260.532
-243.191
-233.26
-227.063
-220.298
-211.748
-203.194
-195.769
-191.067
-189.184
-187.964
-186.387
-184.022
-180.662
-177.121
-173.992
-171.395
-169.589
-168.76
-168.8
-169.532
-170.801
-172.312
-173.763
-174.965
-175.608
-175.356
-174.09
-171.758
-168.434
-164.375
-159.749
-154.603
-149.053
-143.193
-137.22
-131.549
-126.444
-122.003
-118.454
-116.058
-115.108
-115.988
-118.759
-123.112
-128.863
-135.93
-144.171
-153.514
-163.787
-174.652
-186.051
-198.182
-211.143
-224.993
-239.717
-255.172
-271.284
-288.101
-305.554
-323.476
-341.712
-360.086
-378.491
-396.906
-415.284
-433.548
-451.612
-469.408
-486.89
-504.045
-520.863
-537.332
-553.445
-569.195
-584.594
-599.665
-614.436
-628.94
-643.189
-657.184
-670.926
-684.417
-697.679
-710.727
-723.57
-736.211
-748.645
-760.87
-772.88
-784.658
-796.175
-807.396
-818.287
-828.82
-838.966
-848.699
-857.984
-866.787
-875.075
-882.814
-889.966
-896.482
-902.305
-907.374
-911.638
-915.062
-917.622
-919.304
-920.076
-919.9
-918.792
-916.808
-914.046
-910.638
-906.657
-902.141
-897.198
-891.955
-886.456
-880.681
-874.455
-867.524
-859.821
-851.358
-842.104
-832.065
-821.287
-809.95
-798.531
-787.559
-777.279
-767.832
-759.317
-751.806
-745.466
-740.242
-735.668
-731.193
-726.391
-720.868
-714.199
-705.675
-694.206
-678.785
-658.653
-633.206
-601.955
-564.419
-520.336
-470.112
-414.788
-355.683
-294.277
-231.985
-170.157
-110.331
-53.884
-1.555
46.453
90.332
130.586
167.711
202.239
235.017
266.897
298.382
329.688
360.747
391.296
421.101
449.898
477.233
502.598
525.65
546.221
564.309
580.035
593.564
605.129
615.086
623.856
631.732
638.85
645.283
651.101
656.354
661.032
665.001
668.087
670.334
672.07
673.742
675.697
678.177
681.415
685.754
691.591
699.096
708.068
718.059
728.705
739.773
751.057
762.279
773.036
783.006
792.115
800.492
808.223
815.31
821.722
827.429
832.512
837.056
841.044
844.383
846.988
848.823
849.908
850.297
850.018
849.107
847.633
845.691
843.392
840.817
838.013
835.007
831.809
828.427
824.862
821.103
817.131
812.932
808.5
803.828
798.921
793.774
788.381
782.741
776.851
770.709
764.327
757.712
750.876
743.835
736.616
729.256
721.796
714.264
706.671
699.027
691.342
683.625
675.885
668.109
660.262
652.318
644.244
636.018
627.645
619.112
610.372
601.401
592.209
582.873
573.582
564.534
555.852
547.66
540.101
533.286
527.274
521.915
516.8
511.441
505.431
498.516
490.493
481.202
470.636
459.165
447.904
438.566
432.654
430.946
432.904
437.236
443.35
451.81
465.065
485.602
514.176
549.435
586.64
620.455
645.703
657.905
655.299
636.212
600.693
550.413
486.705
413.683
336.161
259.206
189.819
132.931
90.773
63.213
46.223
35.216
27.798
23.212
22.734
27.867
37.996
51.466
66.337
80.782
94.107
106.033
116.015
123.903
129.807
133.886
136.52
137.961
138.203
137.439
136.122
134.451
132.434
129.981
126.838
122.861
118.036
112.18
104.97
96.259
85.953
73.989
60.402
45.121
28.136
9.68
-9.842
-29.96
-50.03
-69.293
-87.006
-102.339
-114.617
-123.449
-128.689
-130.437
-129.091
-125.274
-119.589
-112.636
-104.887
-96.638
-88.068
-79.269
-70.222
-60.698
-50.49
-39.467
-27.56
-14.815
-1.322
12.951
28.116
44.038
60.42
76.876
92.885
108.036
122.037
134.443
144.696
152.52
157.903
161.096
162.642
162.982
162.396
161.277
160.097
159.167
158.668
158.578
158.66
158.793
158.978
159.168
159.302
159.348
159.284
159.18
159.192
159.386
159.753
160.278
160.915
161.621
162.36
163.054
163.589
163.879
163.872
163.534
162.855
161.826
160.437
158.691
156.612
154.231
151.582
148.703
145.634
142.423
139.121
135.778
132.432
129.117
125.856
122.669
119.574
116.574
113.657
110.811
108.023
105.275
102.556
99.833
97.054
94.175
91.163
88.003
84.709
81.297
77.783
74.199
70.586
67.005
63.545
60.275
57.249
54.521
52.139
50.176
48.734
47.889
47.696
48.188
49.362
51.214
53.738
56.896
60.627
64.846
69.439
74.316
79.415
84.667
90.007
95.355
100.603
105.67
110.496
115.028
119.237
123.089
126.554
129.627
132.331
134.701
136.789
138.629
140.23
141.607
142.77
143.734
144.525
145.156
145.622
145.926
146.064
146.037
145.85
145.491
144.938
144.166
143.146
141.86
140.302
138.466
136.349
133.951
131.275
128.328
125.125
121.68
118.001
114.1
109.986
105.67
101.173
96.51
91.699
86.757
81.7
76.542
71.299
65.984
60.611
55.191
49.734
44.252
38.756
33.261
27.778
22.32
16.9
11.528
6.216
0.975
-4.185
-9.256
-14.23
-19.1
-23.859
-28.501
-33.022
-37.415
-41.678
-45.807
-49.799
-53.651
-57.363
-60.934
-64.362
-67.649
-70.795
-73.8
-76.667
-79.398
-81.993
-84.457
-86.791
-88.999
-91.084
-93.051
-94.904
-96.647
-98.285
-99.822
-101.264
-102.614
-103.877
-105.056
-106.156
-107.18
-108.13
-109.01
-109.822
-110.57
-111.253
-111.875
-112.437
-112.939
-113.383
-113.769
-114.095
-114.362
-114.568
-114.714
-114.798
-114.818
-114.773
-114.661
-114.481
-114.23
-113.909
-113.513
-113.042
-112.494
-111.869
-111.166
-110.385
-109.526
-108.591
-107.581
-106.501
-105.356
-104.149
-102.885
-101.571
-100.214
-98.819
-97.396
-95.949
-94.484
-93.011
-91.538
-90.076
-88.637
-87.231
-85.868
-84.562
-83.326
-82.172
-81.112
-80.153
-79.304
-78.577
-77.986
-77.551
-77.284
-77.195
-77.292
-77.582
-78.066
-78.743
-79.602
-80.623
-81.789
-83.084
-84.501
-86.036
-87.679
-89.417
-91.231
-93.104
-95.025
-96.994
-99.004
-101.054
-103.166
-105.37
-107.718
-110.277
-113.089
-116.192
-119.622
-123.411
-127.602
-132.236
-137.328
-142.897
-148.973
-155.546
-162.579
-169.967
-177.48
-184.864
-191.886
-198.272
-203.762
-208.196
-211.48
-213.712
-215.278
-216.575
-217.956
-219.801
-222.389
-225.822
-230.043
-234.576
-238.453
-240.635
-240.068
-235.586
-226.198
-211.104
-189.658
-162.424
-131.271
-98.048
-64.909
-32.928
-1.013
30.391
59.195
81.534
89.752
78.021
44.682
-9.049
-76.281
-148.135
-217.635
-277.842
-324.676
-357.869
-378
-388.055
-391.827
-390.665
-385.172
-375.028
-359.461
-339.575
-317.341
-294.743
-273.865
-255.948
-241.587
-231.23
-224.72
-221.553
-221.145
-222.734
-225.571
-228.916
-231.953
-233.938
-234.483
-233.537
-231.224
-227.802
-223.536
-218.718
-213.748
-209.044
-204.847
-201.196
-198.016
-195.177
-192.57
-190.116
-187.697
-185.164
-182.43
-179.483
-176.359
-173.128
-169.845
-166.532
-163.22
-159.955
-156.773
-153.71
-150.796
-148.038
-145.441
-143.013
-140.758
-138.681
-136.783
-135.058
-133.494
-132.084
-130.82
-129.701
-128.725
-127.884
-127.17
-126.57
-126.073
-125.667
-125.342
-125.086
-124.885
-124.728
-124.601
-124.496
-124.403
-124.311
-124.208
-124.081
-123.918
-123.705
-123.432
-123.086
-122.656
-122.132
-121.503
-120.762
-119.901
-118.913
-117.792
-116.531
-115.125
-113.572
-111.866
-110.007
-107.992
-105.822
-103.497
-101.02
-98.394
-95.623
-92.713
-89.669
-86.5
-83.212
-79.816
-76.32
-72.734
-69.071
-65.34
-61.555
-57.727
-53.87
-49.997
-46.12
-42.253
-38.411
-34.605
-30.85
-27.158
-23.542
-20.014
-16.587
-13.272
-10.081
-7.025
-4.112
-1.354
1.242
3.668
5.916
7.98
9.855
11.537
13.021
14.306
15.389
16.269
16.948
17.424
17.702
17.782
17.668
17.365
16.878
16.211
15.373
14.369
13.207
11.897
10.445
8.862
7.158
5.342
3.424
1.416
-0.671
-2.827
-5.041
-7.301
-9.597
-11.916
-14.249
-16.585
-18.912
-21.221
-23.503
-25.746
-27.943
-30.084
-32.162
-34.168
-36.095
-37.937
-39.687
-41.339
-42.89
-44.334
-45.667
-46.887
-47.991
-48.977
-49.843
-50.59
-51.217
-51.725
-52.115
-52.389
-52.548
-52.597
-52.537
-52.373
-52.11
-51.75
-51.3
-50.765
-50.149
-49.458
-48.699
-47.876
-46.997
-46.066
-45.09
-44.075
-43.026
-41.951
-40.854
-39.741
-38.618
-37.49
-36.362
-35.239
-34.125
-33.025
-31.943
-30.882
-29.846
-28.837
-27.859
-26.914
-26.004
-25.13
-24.293
-23.496
-22.738
-22.02
-21.343
-20.707
-20.112
-19.558
-19.045
-18.573
-18.141
-17.748
-17.396
-17.083
-16.808
-16.572
-16.373
-16.211
-16.085
-15.996
-15.941
-15.921
-15.934
-15.98
-16.057
-16.164
-16.3
-16.463
-16.653
-16.868
-17.107
-17.368
-17.65
-17.951
-18.269
-18.602
-18.948
-19.304
-19.667
-20.034
-20.4
-20.763
-21.118
-21.463
-21.791
-22.1
-22.384
-22.638
-22.858
-23.039
-23.176
-23.264
-23.298
-23.274
-23.189
-23.039
-22.822
-22.535
-22.176
-21.743
-21.236
-20.655
-19.997
-19.264
-18.455
-17.572
-16.619
-15.596
-14.51
-13.364
-12.165
-10.92
-9.637
-8.323
-6.985
-5.63
-4.265
-2.898
-1.535
-0.182
1.153
2.462
3.736
4.967
6.148
7.272
8.335
9.333
10.26
11.115
11.9
12.612
13.25
13.806
14.268
14.631
14.891
15.049
15.107
15.067
14.933
14.72
14.454
14.16
13.861
13.566
13.277
13.002
12.759
12.574
12.477
12.475
12.565
12.753
13.053
13.481
14.043
14.693
15.351
15.948
16.422
16.76
16.95
16.925
16.631
16.059
15.264
14.422
13.712
13.198
12.947
13.092
13.714
14.856
16.386
17.881
18.944
19.258
18.482
16.318
12.497
7.34
2.028
-2.115
-3.732
-2.741
-0.632
2.411
7.049
15.734
33.353
61.839
100.981
148.415
197.641
243.491
280.955
304.811
313.096
303.816
277.104
235.641
181.316
117.941
49.754
-18.794
-80.524
-129.443
-162.446
-179.203
-184.029
-182.529
-177.703
-170.736
-160.87
-146.549
-128.42
-108.38
-88.247
-69.983
-54.708
-42.686
-34.069
-28.617
-25.712
-24.747
-25.259
-26.72
-28.524
-30.064
-30.708
-30.123
-28.374
-25.641
-22.084
-17.897
-13.317
-8.663
-4.337
-0.566
2.656
5.427
7.876
10.103
12.173
14.185
16.294
18.592
21.092
23.761
26.531
29.351
32.206
35.073
37.917
40.704
43.4
45.977
48.43
50.759
52.96
55.033
56.978
58.799
60.505
62.117
63.647
65.105
66.5
67.835
69.118
70.362
71.579
72.779
73.972
75.166
76.37
77.591
78.838
80.116
81.427
82.773
84.156
85.578
87.044
88.555
90.113
91.717
93.369
95.068
96.812
98.599
100.425
102.285
104.176
106.093
108.031
109.984
111.947
113.915
115.88
117.838
119.781
121.704
123.599
125.459
127.279
129.05
130.766
132.42
134.005
135.514
136.94
138.278
139.52
140.661
141.695
142.617
143.422
144.105
144.661
145.088
145.382
145.539
145.558
145.437
145.172
144.765
144.212
143.515
142.672
141.684
140.552
139.275
137.856
136.296
134.598
132.763
130.796
128.699
126.478
124.137
121.682
119.118
116.452
113.691
110.842
107.913
104.911
101.845
98.724
95.556
92.351
89.117
85.865
82.603
79.341
76.089
72.857
69.654
66.49
63.374
60.315
57.323
54.407
51.574
48.834
46.193
43.659
41.238
38.938
36.761
34.714
32.8
31.021
29.38
27.877
26.513
25.288
24.199
23.247
22.426
21.736
21.17
20.726
20.397
20.179
20.065
20.05
20.125
20.286
20.523
20.83
21.2
21.625
22.097
22.61
23.155
23.725
24.314
24.914
25.52
26.125
26.725
27.313
27.888
28.443
28.978
29.489
29.974
30.432
30.863
31.266
31.641
31.99
32.313
32.611
32.886
33.141
33.377
33.596
33.8
33.993
34.175
34.35
34.518
34.683
34.845
35.006
35.168
35.33
35.495
35.662
35.832
36.003
36.175
36.346
36.516
36.68
36.838
36.986
37.121
37.239
37.337
37.411
37.457
37.471
37.45
37.39
37.286
37.135
36.934
36.681
36.372
36.005
35.578
35.09
34.542
33.931
33.26
32.528
31.737
30.888
29.985
29.029
28.023
26.972
25.88
24.751
23.589
22.402
21.193
19.969
18.735
17.498
16.264
15.037
13.823
12.627
11.455
10.309
9.195
8.115
7.073
6.07
5.107
4.187
3.308
2.469
1.667
0.898
0.159
-0.556
-1.251
-1.933
-2.61
-3.286
-3.967
-4.659
-5.367
-6.098
-6.86
-7.66
-8.505
-9.403
-10.36
-11.383
-12.479
-13.651
-14.903
-16.234
-17.645
-19.139
-20.72
-22.396
-24.171
-26.044
-28.014
-30.076
-32.224
-34.447
-36.728
-39.042
-41.371
-43.693
-45.992
-48.258
-50.475
-52.627
-54.697
-56.659
-58.49
-60.18
-61.727
-63.131
-64.405
-65.562
-66.619
-67.62
-68.611
-69.638
-70.749
-71.978
-73.348
-74.902
-76.687
-78.741
-81.072
-83.605
-86.189
-88.659
-90.849
-92.602
-93.75
-94.13
-93.671
-92.516
-91.003
-89.562
-88.634
-88.535
-89.479
-91.673
-95.152
-99.465
-103.871
-107.109
-107.327
-103.48
-95.047
-81.885
-65.407
-46.144
-23.215
3.759
36.55
75.774
118.445
160.952
197.26
220.331
226.091
212.137
179.488
132.618
76.122
13.919
-51.342
-117.796
-182.447
-240.029
-284.769
-313.224
-325.322
-325.152
-318.529
-309.234
-299.249
-288.493
-275.755
-261.562
-247.103
-233.701
-223.142
-215.944
-211.656
-209.817
-209.608
-210.186
-211.144
-211.954
-211.888
-210.649
-208.202
-204.61
-200.23
-195.482
-190.658
-186.174
-182.549
-180.056
-178.811
-178.816
-179.897
-181.851
-184.497
-187.606
-190.911
-194.216
-197.4
-200.398
-203.201
-205.808
-208.189
-210.303
-212.136
-213.678
-214.925
-215.896
-216.605
-217.076
-217.368
-217.549
-217.688
-217.866
-218.136
-218.524
-219.059
-219.758
-220.639
-221.732
-223.056
-224.611
-226.403
-228.434
-230.702
-233.211
-235.947
-238.875
-241.962
-245.165
-248.445
-251.777
-255.125
-258.451
-261.72
-264.903
-267.976
-270.927
-273.736
-276.374
-278.817
-281.039
-283.025
-284.782
-286.317
-287.641
-288.784
-289.781
-290.677
-291.532
-292.382
-293.248
-294.147
-295.081
-296.057
-297.087
-298.169
-299.288
-300.426
-301.54
-302.571
-303.455
-304.084
-304.335
-304.078
-303.171
-301.504
-298.993
-295.55
-291.107
-285.6
-278.961
-271.152
-262.153
-251.944
-240.539
-227.989
-214.361
-199.783
-184.415
-168.415
-151.962
-135.214
-118.309
-101.407
-84.658
-68.206
-52.216
-36.829
-22.168
-8.37
4.46
16.259
26.978
36.625
45.237
52.85
59.518
65.298
70.233
74.391
77.847
80.675
82.981
84.854
86.375
87.645
88.738
89.708
90.598
91.425
92.182
92.869
93.477
93.991
94.405
94.703
94.857
94.845
94.623
94.156
93.42
92.386
91.038
89.371
87.385
85.092
82.518
79.685
76.62
73.352
69.903
66.302
62.581
58.771
54.91
51.032
47.163
43.326
39.543
35.828
32.195
28.653
25.202
21.844
18.581
15.412
12.341
9.368
6.489
3.701
1
-1.618
-4.156
-6.618
-9.006
-11.324
-13.574
-15.76
-17.882
-19.942
-21.942
-23.885
-25.776
-27.619
-29.414
-31.166
-32.878
-34.552
-36.192
-37.799
-39.375
-40.923
-42.445
-43.946
-45.427
-46.89
-48.338
-49.77
-51.188
-52.592
-53.98
-55.352
-56.708
-58.05
-59.377
-60.692
-61.995
-63.288
-64.57
-65.845
-67.116
-68.386
-69.655
-70.926
-72.204
-73.498
-74.82
-76.177
-77.569
-78.995
-80.454
-81.942
-83.456
-84.984
-86.507
-88.005
-89.462
-90.865
-92.209
-93.483
-94.666
-95.736
-96.668
-97.457
-98.114
-98.649
-99.075
-99.404
-99.65
-99.855
-100.085
-100.399
-100.848
-101.471
-102.294
-103.358
-104.732
-106.445
-108.483
-110.771
-113.166
-115.54
-117.807
-119.885
-121.682
-123.164
-124.359
-125.365
-126.371
-127.531
-128.882
-130.346
-131.754
-132.743
-132.787
-131.353
-127.876
-121.821
-112.818
-100.672
-85.334
-67.15
-46.816
-25.082
-2.778
19.187
39.952
58.725
74.769
87.711
97.575
104.526
108.895
111.172
111.921
111.69
111.027
110.333
109.782
109.447
109.303
109.209
108.967
108.472
107.69
106.624
105.364
104.007
102.652
101.464
100.633
100.274
100.443
101.142
102.321
103.952
106.017
108.471
111.258
114.306
117.517
120.833
124.223
127.657
131.109
134.53
137.841
140.97
143.871
146.513
148.86
150.858
152.458
153.641
154.45
155.039
155.585
156.222
157.076
158.28
159.933
162.098
164.665
167.262
169.468
170.963
171.448
170.643
168.337
164.386
159.526
155.442
153.665
155.534
160.705
167.273
174.698
183.568
197.056
220.403
256.065
303.926
359.559
414.882
463.215
498.375
517.493
520.712
507.222
478.603
435.857
379.378
314.043
244.605
177.353
120.928
78.674
51.307
37.131
30.332
27.98
29.59
35.28
46.727
63.683
84.001
105.389
125.494
142.825
156.565
166.219
171.859
173.885
172.948
169.899
165.453
160.31
155.393
151.529
149.166
148.432
149.151
150.979
153.632
156.822
160.091
162.971
165.202
166.687
167.508
167.862
167.889
167.694
167.436
167.27
167.285
167.521
167.952
168.507
169.138
169.816
170.508
171.188
171.83
172.406
172.895
173.279
173.543
173.679
173.68
173.541
173.264
172.85
172.309
171.655
170.897
170.044
169.099
168.067
166.954
165.771
164.529
163.239
161.913
160.559
159.188
157.81
156.433
155.064
153.707
152.366
151.046
149.754
148.495
147.275
146.099
144.971
143.896
142.877
141.918
141.02
140.184
139.411
138.701
138.054
137.472
136.953
136.497
136.102
135.769
135.494
135.276
135.112
134.999
134.934
134.913
134.932
134.987
135.073
135.185
135.319
135.47
135.632
135.8
135.97
136.135
136.291
136.434
136.557
136.657
136.728
136.767
136.769
136.73
136.647
136.515
136.332
136.093
135.795
135.437
135.014
134.525
133.967
133.339
132.639
131.866
131.019
130.099
129.106
128.041
126.904
125.699
124.427
123.091
121.695
120.241
118.735
117.179
115.579
113.94
112.267
110.564
108.838
107.093
105.335
103.571
101.804
100.042
98.289
96.552
94.835
93.144
91.484
89.86
88.275
86.735
85.242
83.801
82.414
81.082
79.809
78.594
77.437
76.34
75.3
74.316
73.386
72.507
71.676
70.889
70.141
69.429
68.748
68.091
67.455
66.833
66.219
65.61
64.998
64.379
63.748
63.098
62.426
61.727
60.997
60.231
59.426
58.58
57.69
56.753
55.768
54.735
53.653
52.522
51.343
50.118
48.849
47.539
46.19
44.807
43.394
41.956
40.497
39.022
37.538
36.049
34.562
33.081
31.612
30.161
28.732
27.33
25.96
24.627
23.332
22.081
20.876
19.719
18.613
17.559
16.557
15.608
14.713
13.871
13.079
12.338
11.645
10.996
10.39
9.824
9.293
8.793
8.322
7.873
7.444
7.03
6.626
6.228
5.832
5.434
5.032
4.622
4.201
3.768
3.32
2.857
2.378
1.882
1.37
0.842
0.299
-0.257
-0.824
-1.4
-1.981
-2.564
-3.146
-3.722
-4.287
-4.837
-5.367
-5.872
-6.347
-6.788
-7.189
-7.544
-7.851
-8.104
-8.298
-8.43
-8.497
-8.495
-8.423
-8.281
-8.067
-7.782
-7.426
-7.002
-6.513
-5.96
-5.347
-4.677
-3.955
-3.185
-2.374
-1.528
-0.655
0.239
1.144
2.049
2.944
3.82
4.668
5.479
6.244
6.954
7.601
8.179
8.681
9.102
9.434
9.67
9.805
9.837
9.763
9.583
9.294
8.896
8.389
7.777
7.062
6.239
5.306
4.253
3.072
1.764
0.329
-1.236
-2.926
-4.735
-6.648
-8.637
-10.678
-12.751
-14.845
-16.951
-19.054
-21.129
-23.157
-25.115
-26.989
-28.764
-30.415
-31.915
-33.257
-34.466
-35.593
-36.717
-37.899
-39.197
-40.685
-42.414
-44.408
-46.634
-48.97
-51.27
-53.413
-55.279
-56.733
-57.703
-58.213
-58.473
-58.905
-59.975
-62.117
-65.729
-71.186
-78.744
-88.34
-99.365
-110.778
-121.327
-129.564
-134.043
-133.334
-125.92
-111.276
-90.442
-64.694
-35.65
-4.144
31.026
69.604
108.684
143.152
164.788
166.567
146.587
106.599
52.2
-9.203
-72.879
-134.875
-191.337
-239.684
-276.746
-300.695
-312.358
-313.389
-305.969
-292.637
-275.826
-257.764
-240.883
-226.081
-212.241
-198.472
-183.916
-169.076
-155.959
-145.427
-137.674
-132.275
-128.03
-124.357
-120.864
-116.867
-112.085
-106.456
-100.009
-93.104
-86.082
-79.116
-72.504
-66.67
-61.875
-58.246
-55.771
-54.228
-53.381
-53.05
-53.033
-53.129
-53.201
-53.149
-52.901
-52.431
-51.73
-50.788
-49.615
-48.233
-46.654
-44.892
-42.986
-40.992
-38.984
-37.049
-35.241
-33.592
-32.128
-30.866
-29.829
-29.039
-28.501
-28.205
-28.146
-28.318
-28.715
-29.332
-30.145
-31.119
-32.212
-33.382
-34.596
-35.83
-37.061
-38.271
-39.443
-40.563
-41.623
-42.621
-43.547
-44.394
-45.15
-45.805
-46.352
-46.787
-47.109
-47.316
-47.405
-47.375
-47.224
-46.95
-46.552
-46.026
-45.371
-44.584
-43.663
-42.611
-41.43
-40.123
-38.696
-37.154
-35.503
-33.749
-31.902
-29.967
-27.954
-25.869
-23.722
-21.52
-19.274
-16.992
-14.684
-12.36
-10.029
-7.701
-5.387
-3.096
-0.838
1.376
3.537
5.636
7.663
9.61
11.467
13.226
14.879
16.418
17.836
19.128
20.287
21.309
22.188
22.923
23.51
23.947
24.233
24.367
24.348
24.178
23.857
23.387
22.77
22.008
21.105
20.065
18.891
17.589
16.165
14.623
12.97
11.214
9.36
7.417
5.393
3.295
1.132
-1.088
-3.355
-5.662
-7.999
-10.359
-12.732
-15.11
-17.485
-19.849
-22.194
-24.515
-26.803
-29.051
-31.255
-33.408
-35.505
-37.54
-39.51
-41.409
-43.234
-44.98
-46.646
-48.227
-49.722
-51.129
-52.446
-53.671
-54.805
-55.848
-56.798
-57.658
-58.427
-59.107
-59.701
-60.209
-60.633
-60.978
-61.244
-61.436
-61.555
-61.605
-61.59
-61.512
-61.375
-61.182
-60.936
-60.641
-60.299
-59.915
-59.491
-59.032
-58.541
-58.021
-57.477
-56.912
-56.329
-55.732
-55.126
-54.512
-53.896
-53.279
-52.665
-52.057
-51.459
-50.872
-50.299
-49.743
-49.206
-48.689
-48.196
-47.727
-47.284
-46.869
-46.483
-46.127
-45.803
-45.511
-45.253
-45.029
-44.838
-44.682
-44.561
-44.472
-44.417
-44.393
-44.398
-44.431
-44.49
-44.571
-44.672
-44.789
-44.918
-45.055
-45.197
-45.338
-45.473
-45.599
-45.709
-45.798
-45.861
-45.891
-45.882
-45.828
-45.723
-45.561
-45.336
-45.041
-44.67
-44.216
-43.673
-43.037
-42.3
-41.456
-40.502
-39.431
-38.241
-36.927
-35.487
-33.918
-32.219
-30.389
-28.428
-26.338
-24.119
-21.774
-19.306
-16.719
-14.019
-11.21
-8.301
-5.299
-2.214
0.945
4.166
7.437
10.748
14.084
17.431
20.775
24.102
27.401
30.657
33.858
36.988
40.033
42.982
45.823
48.545
51.134
53.578
55.865
57.991
59.954
61.753
63.386
64.845
66.12
67.207
68.109
68.827
69.36
69.708
69.875
69.874
69.735
69.486
69.147
68.727
68.225
67.642
66.993
66.305
65.609
64.934
64.294
63.692
63.15
62.697
62.325
61.996
61.599
60.97
60.028
58.778
57.24
55.458
53.476
51.305
49.122
47.273
45.969
45.308
45.268
45.677
46.474
47.71
49.212
50.594
51.502
51.547
50.587
48.729
45.898
42.019
37.281
31.949
26.525
21.987
19.052
18.693
22.619
31.6
45.926
65.436
88.055
112.774
140.494
171.929
209.275
253.436
300.914
346.651
383.552
403.671
403.252
382.741
345.315
297.252
243.332
184.14
120.589
53.754
-12.582
-69.623
-111.303
-135.372
-143.908
-144.382
-141.977
-138.537
-134.071
-126.263
-114.688
-100.904
-86.42
-73.031
-61.759
-52.898
-46.658
-42.849
-40.995
-40.621
-41.4
-43.087
-45.362
-47.666
-49.367
-50.129
-49.946
-48.991
-47.422
-45.339
-42.863
-40.278
-37.977
-36.18
-34.924
-34.101
-33.534
-33.108
-32.755
-32.363
-31.788
-30.937
-29.773
-28.322
-26.663
-24.853
-22.925
-20.912
-18.847
-16.77
-14.721
-12.737
-10.849
-9.08
-7.444
-5.952
-4.613
-3.429
-2.4
-1.515
-0.756
-0.109
0.434
0.881
1.237
1.511
1.719
1.873
1.988
2.077
2.151
2.223
2.307
2.413
2.549
2.723
2.94
3.206
3.531
3.92
4.383
4.926
5.553
6.271
7.084
7.996
9.007
10.119
11.331
12.642
14.049
15.55
17.141
18.817
20.573
22.403
24.3
26.257
28.265
30.316
32.399
34.505
36.624
38.745
40.858
42.951
45.013
47.035
49.005
50.913
52.748
54.501
56.161
57.721
59.17
60.502
61.708
62.782
63.717
64.51
65.154
65.647
65.987
66.17
66.196
66.065
65.778
65.335
64.738
63.992
63.098
62.062
60.888
59.583
58.152
56.602
54.941
53.175
51.314
49.365
47.337
45.239
43.078
40.864
38.606
36.313
33.992
31.653
29.304
26.952
24.606
22.272
19.958
17.67
15.415
13.198
11.024
8.898
6.823
4.804
2.843
0.944
-0.894
-2.667
-4.376
-6.02
-7.599
-9.115
-10.569
-11.961
-13.296
-14.574
-15.799
-16.974
-18.102
-19.187
-20.232
-21.241
-22.218
-23.167
-24.091
-24.995
-25.882
-26.757
-27.623
-28.483
-29.341
-30.199
-31.062
-31.931
-32.81
-33.7
-34.604
-35.522
-36.458
-37.412
-38.384
-39.376
-40.388
-41.421
-42.473
-43.546
-44.637
-45.748
-46.877
-48.022
-49.184
-50.361
-51.551
-52.754
-53.969
-55.193
-56.426
-57.666
-58.913
-60.166
-61.423
-62.685
-63.949
-65.217
-66.487
-67.759
-69.033
-70.309
-71.588
-72.869
-74.153
-75.44
-76.732
-78.03
-79.333
-80.643
-81.96
-83.285
-84.619
-85.964
-87.319
-88.685
-90.064
-91.455
-92.862
-94.283
-95.719
-97.172
-98.641
-100.126
-101.627
-103.144
-104.677
-106.224
-107.784
-109.358
-110.945
-112.543
-114.151
-115.769
-117.393
-119.025
-120.661
-122.299
-123.939
-125.578
-127.216
-128.852
-130.485
-132.116
-133.743
-135.368
-136.99
-138.611
-140.23
-141.847
-143.464
-145.081
-146.699
-148.322
-149.95
-151.587
-153.237
-154.904
-156.593
-158.308
-160.055
-161.835
-163.652
-165.51
-167.41
-169.355
-171.346
-173.382
-175.466
-177.601
-179.788
-182.027
-184.317
-186.656
-189.04
-191.469
-193.937
-196.436
-198.96
-201.506
-204.073
-206.669
-209.296
-211.952
-214.632
-217.332
-220.045
-222.763
-225.467
-228.129
-230.719
-233.209
-235.585
-237.845
-239.977
-241.964
-243.779
-245.396
-246.804
-248.003
-248.979
-249.714
-250.197
-250.435
-250.479
-250.413
-250.317
-250.253
-250.265
-250.4
-250.701
-251.19
-251.845
-252.567
-253.21
-253.638
-253.733
-253.374
-252.489
-251.048
-249.098
-246.869
-244.688
-242.919
-241.94
-242.021
-243.364
-246.073
-249.848
-254.078
-257.649
-258.762
-256.17
-249.15
-237.438
-222.185
-203.539
-180.353
-151.831
-116.003
-72.614
-24.668
24.276
68.025
99.737
114.875
110.182
86.733
48.844
1.582
-50.537
-106.574
-165.994
-227.44
-287.129
-336.942
-371.278
-388.177
-389.38
-381.531
-369.134
-353.509
-334.518
-310.11
-279.967
-245.858
-209.845
-174.064
-139.973
-108.495
-80.377
-56.128
-35.942
-19.562
-6.494
3.651
11.408
17.548
22.875
28.214
34.06
40.446
47.25
54.311
61.368
68.071
74.011
78.75
82.091
84.087
84.893
84.75
83.946
82.774
81.549
80.572
80.013
79.933
80.348
81.225
82.527
84.217
86.228
88.48
90.908
93.472
96.125
98.817
101.471
103.987
106.296
108.356
110.144
111.652
112.871
113.801
114.459
114.878
115.089
115.123
115.002
114.744
114.378
113.937
113.461
112.991
112.559
112.186
111.887
111.674
111.556
111.537
111.616
111.782
112.03
112.358
112.764
113.25
113.812
114.445
115.146
115.907
116.726
117.598
118.52
119.485
120.492
121.537
122.618
123.733
124.878
126.051
127.246
128.458
129.68
130.909
132.137
133.358
134.567
135.759
136.927
138.066
139.173
140.242
141.267
142.244
143.169
144.037
144.842
145.58
146.248
146.841
147.355
147.786
148.132
148.389
148.555
148.629
148.608
148.491
148.278
147.97
147.566
147.069
146.48
145.801
145.037
144.19
143.266
142.269
141.206
140.083
138.905
137.681
136.418
135.125
133.809
132.479
131.146
129.818
128.505
127.219
125.968
124.764
123.616
122.535
121.53
120.611
119.786
119.065
118.455
117.963
117.596
117.36
117.257
117.294
117.471
117.79
118.252
118.856
119.599
120.48
121.492
122.633
123.893
125.268
126.747
128.322
129.982
131.716
133.513
135.359
137.242
139.147
141.061
142.97
144.858
146.711
148.516
150.256
151.919
153.491
154.958
156.308
157.531
158.614
159.548
160.324
160.935
161.374
161.636
161.715
161.611
161.32
160.842
160.178
159.33
158.3
157.094
155.716
154.172
152.47
150.617
148.622
146.494
144.244
141.882
139.418
136.865
134.234
131.536
128.783
125.987
123.159
120.31
117.452
114.594
111.746
108.917
106.116
103.35
100.626
97.951
95.33
92.766
90.264
87.826
85.454
83.148
80.909
78.737
76.629
74.585
72.602
70.676
68.805
66.985
65.213
63.482
61.79
60.13
58.5
56.892
55.303
53.728
52.163
50.603
49.044
47.484
45.92
44.348
42.767
41.176
39.573
37.957
36.33
34.692
33.044
31.389
29.73
28.07
26.414
24.765
23.129
21.511
19.915
18.349
16.817
15.325
13.878
12.484
11.148
9.876
8.673
7.545
6.499
5.538
4.667
3.889
3.206
2.619
2.131
1.742
1.452
1.26
1.167
1.172
1.277
1.481
1.782
2.176
2.658
3.224
3.869
4.587
5.37
6.211
7.103
8.04
9.021
10.037
11.081
12.14
13.198
14.242
15.263
16.25
17.195
18.092
18.938
19.736
20.499
21.235
21.948
22.642
23.313
23.962
24.596
25.219
25.84
26.463
27.086
27.699
28.291
28.839
29.313
29.678
29.875
29.848
29.546
28.911
27.899
26.478
24.604
22.221
19.311
15.884
12.004
7.826
3.515
-0.789
-4.92
-8.692
-11.957
-14.641
-16.841
-18.859
-21.06
-23.728
-27.039
-31.163
-36.248
-42.268
-48.853
-54.98
-59.11
-59.898
-56.648
-49.833
-40.579
-29.504
-16.256
1.441
25.951
58.224
97.371
138.955
177.683
208.215
225.762
228.566
215.591
187.778
147.606
96.521
37.826
-24.706
-86.811
-141.378
-182.692
-208.149
-217.792
-216.12
-208.849
-198.955
-187.766
-174.878
-158.792
-139.875
-119.699
-99.797
-81.977
-67.395
-56.162
-47.982
-42.413
-38.873
-36.738
-35.561
-34.751
-33.488
-31.347
-28.241
-24.189
-19.474
-14.455
-9.33
-4.434
-0.24
3.051
5.402
6.875
7.713
8.104
8.14
7.98
7.807
7.725
7.809
8.089
8.533
9.156
9.985
11.02
12.248
13.633
15.114
16.624
18.105
19.509
20.804
21.971
22.998
23.886
24.638
25.267
25.783
26.181
26.455
26.601
26.62
26.528
26.352
26.128
25.889
25.667
25.488
25.371
25.333
25.383
25.526
25.76
26.086
26.509
27.036
27.674
28.43
29.306
30.303
31.419
32.652
33.997
35.45
37.005
38.656
40.399
42.232
44.149
46.149
48.225
50.371
52.58
54.843
57.152
59.497
61.868
64.254
66.647
69.035
71.41
73.762
76.083
78.362
80.593
82.767
84.875
86.91
88.864
90.731
92.503
94.175
95.74
97.193
98.53
99.747
100.841
101.808
102.647
103.357
103.935
104.381
104.694
104.877
104.928
104.85
104.646
104.317
103.868
103.302
102.623
101.834
100.942
99.949
98.86
97.68
96.415
95.068
93.646
92.152
90.593
88.974
87.3
85.577
83.81
82.005
80.165
78.298
76.407
74.498
72.576
70.645
68.71
66.775
64.844
62.921
61.01
59.114
57.235
55.377
53.542
51.733
49.951
48.199
46.479
44.791
43.138
41.521
39.94
38.399
36.896
35.433
34.01
32.628
31.288
29.989
28.731
27.516
26.341
25.208
24.116
23.065
22.054
21.083
20.151
19.258
18.403
17.587
16.808
16.066
15.36
14.691
14.058
13.459
12.895
12.364
11.867
11.401
10.967
10.562
10.186
9.838
9.515
9.217
8.942
8.687
8.452
8.233
8.029
7.837
7.655
7.48
7.31
7.142
6.972
6.799
6.618
6.427
6.223
6.003
5.762
5.498
5.208
4.888
4.535
4.147
3.72
3.252
2.741
2.184
1.581
0.928
0.225
-0.529
-1.335
-2.192
-3.1
-4.059
-5.066
-6.121
-7.221
-8.362
-9.542
-10.758
-12.004
-13.277
-14.572
-15.884
-17.206
-18.533
-19.859
-21.177
-22.481
-23.763
-25.016
-26.234
-27.408
-28.532
-29.6
-30.604
-31.538
-32.396
-33.173
-33.862
-34.46
-34.961
-35.362
-35.659
-35.851
-35.936
-35.912
-35.781
-35.542
-35.2
-34.755
-34.213
-33.578
-32.855
-32.049
-31.17
-30.225
-29.221
-28.17
-27.081
-25.966
-24.839
-23.714
-22.602
-21.518
-20.475
-19.489
-18.571
-17.736
-16.991
-16.349
-15.822
-15.42
-15.154
-15.035
-15.071
-15.268
-15.635
-16.177
-16.898
-17.798
-18.874
-20.124
-21.547
-23.145
-24.923
-26.88
-29.011
-31.307
-33.76
-36.358
-39.086
-41.918
-44.822
-47.767
-50.729
-53.683
-56.611
-59.486
-62.28
-64.96
-67.496
-69.859
-72.029
-73.993
-75.741
-77.28
-78.625
-79.794
-80.833
-81.791
-82.716
-83.665
-84.688
-85.82
-87.115
-88.642
-90.431
-92.486
-94.746
-97.043
-99.204
-101.087
-102.53
-103.367
-103.467
-102.77
-101.415
-99.793
-98.347
-97.41
-97.171
-97.787
-99.368
-101.882
-104.926
-107.272
-107.15
-103.185
-94.687
-82.213
-67.194
-49.94
-29.65
-4.39
28.169
68.001
112.858
158.784
201.031
236.086
261.131
273.848
271.939
252.774
215.588
161.178
92.62
16.478
-60.448
-130.507
-186.559
-226.331
-250.313
-262.207
-267.83
-269.96
-269.248
-264.861
-255.151
-240.642
-223.196
-204.892
-187.85
-173.152
-161.363
-152.941
-147.676
-145.126
-144.819
-146.103
-148.504
-151.597
-154.652
-156.967
-158.22
-158.348
-157.505
-155.972
-153.917
-151.498
-149.064
-146.998
-145.511
-144.656
-144.319
-144.298
-144.465
-144.736
-144.983
-145.064
-144.888
-144.414
-143.673
-142.741
-141.675
-140.508
-139.275
-138.01
-136.753
-135.543
-134.417
-133.403
-132.524
-131.791
-131.215
-130.8
-130.547
-130.452
-130.502
-130.678
-130.964
-131.349
-131.824
-132.382
-133.008
-133.688
-134.402
-135.134
-135.867
-136.586
-137.274
-137.915
-138.493
-138.997
-139.414
-139.736
-139.95
-140.044
-140.006
-139.824
-139.485
-138.982
-138.303
-137.44
-136.386
-135.136
-133.685
-132.033
-130.177
-128.116
-125.852
-123.387
-120.723
-117.866
-114.82
-111.592
-108.19
-104.623
-100.902
-97.038
-93.043
-88.929
-84.71
-80.402
-76.018
-71.575
-67.088
-62.572
-58.044
-53.521
-49.019
-44.553
-40.138
-35.791
-31.525
-27.356
-23.295
-19.355
-15.548
-11.883
-8.37
-5.017
-1.83
1.183
4.019
6.674
9.145
11.431
13.532
15.449
17.184
18.74
20.121
21.333
22.38
23.27
24.01
24.608
25.073
25.414
25.639
25.759
25.784
25.724
25.588
25.387
25.13
24.827
24.487
24.119
23.731
23.331
22.926
22.523
22.127
21.744
21.379
21.035
20.715
20.422
20.157
19.921
19.715
19.538
19.39
19.27
19.175
19.103
19.052
19.02
19.002
18.997
19
19.008
19.019
19.028
19.033
19.031
19.019
18.994
18.955
18.9
18.827
18.734
18.623
18.491
18.34
18.169
17.981
17.775
17.554
17.32
17.074
16.821
16.562
16.3
16.038
15.78
15.527
15.284
15.052
14.834
14.634
14.451
14.289
14.148
14.029
13.933
13.859
13.807
13.776
13.764
13.769
13.789
13.82
13.86
13.903
13.946
13.985
14.014
14.027
14.02
13.987
13.921
13.816
13.668
13.469
13.214
12.897
12.514
12.058
11.527
10.915
10.22
9.438
8.568
7.607
6.556
5.415
4.184
2.866
1.464
-0.019
-1.578
-3.208
-4.903
-6.657
-8.462
-10.309
-12.19
-14.097
-16.018
-17.945
-19.866
-21.77
-23.645
-25.482
-27.269
-28.993
-30.646
-32.214
-33.689
-35.059
-36.316
-37.45
-38.452
-39.316
-40.033
-40.598
-41.007
-41.255
-41.34
-41.26
-41.015
-40.605
-40.034
-39.302
-38.414
-37.376
-36.194
-34.874
-33.425
-31.856
-30.177
-28.4
-26.538
-24.604
-22.612
-20.576
-18.512
-16.433
-14.354
-12.29
-10.252
-8.253
-6.307
-4.425
-2.621
-0.908
0.705
2.209
3.593
4.849
5.971
6.955
7.8
8.506
9.07
9.488
9.752
9.86
9.811
9.611
9.263
8.774
8.156
7.427
6.614
5.743
4.837
3.916
2.995
2.094
1.237
0.454
-0.226
-0.78
-1.189
-1.445
-1.538
-1.474
-1.266
-0.943
-0.555
-0.154
0.209
0.481
0.613
0.562
0.278
-0.309
-1.238
-2.516
-4.106
-5.888
-7.713
-9.444
-10.917
-11.929
-12.321
-11.999
-10.995
-9.576
-8.101
-6.877
-6.169
-6.224
-7.227
-9.255
-12.095
-14.784
-15.783
-13.638
-7.41
2.526
15.037
29.466
46.418
68.712
99.235
139.321
187.872
239.349
287.402
326.766
352.927
365.129
363.92
348.447
318.668
274.178
214.038
141.543
63.169
-13.482
-78.129
-123.823
-149.927
-158.979
-157.599
-152.54
-146.039
-138.215
-127.945
-113.743
-96.385
-77.814
-59.748
-43.82
-31.002
-21.574
-15.37
-11.927
-10.694
-11.067
-12.586
-14.779
-16.894
-18.248
-18.518
-17.621
-15.707
-13.062
-9.879
-6.375
-2.959
-0.014
2.268
3.845
4.84
5.452
5.801
5.99
6.169
6.491
7.057
7.899
8.985
10.255
11.673
13.227
14.905
16.662
18.447
20.221
21.942
23.584
25.129
26.557
27.846
28.996
30.007
30.886
31.652
32.314
32.877
33.345
33.716
34.002
34.219
34.38
34.501
34.596
34.678
34.762
34.865
34.994
35.157
35.359
35.602
35.892
36.236
36.642
37.117
37.665
38.293
39.005
39.806
40.699
41.687
42.769
43.946
45.217
46.583
48.042
49.593
51.234
52.96
54.769
56.656
58.616
60.643
62.73
64.87
67.054
69.277
71.528
73.799
76.082
78.366
80.641
82.9
85.13
87.323
89.468
91.555
93.573
95.514
97.367
99.123
100.773
102.308
103.721
105.005
106.152
107.157
108.014
108.718
109.266
109.654
109.88
109.942
109.839
109.57
109.138
108.542
107.787
106.873
105.806
104.59
103.231
101.733
100.104
98.352
96.483
94.508
92.434
90.273
88.033
85.726
83.362
80.952
78.507
76.039
73.558
71.077
68.604
66.153
63.731
61.351
59.022
56.752
54.55
52.426
50.385
48.435
46.583
44.833
43.192
41.662
40.248
38.952
37.776
36.722
35.79
34.979
34.288
33.716
33.259
32.915
32.679
32.547
32.514
32.574
32.721
32.948
33.25
33.618
34.046
34.527
35.053
35.618
36.213
36.831
37.466
38.111
38.76
39.405
40.041
40.662
41.263
41.837
42.382
42.891
43.361
43.789
44.17
44.503
44.786
45.016
45.193
45.315
45.383
45.396
45.354
45.26
45.113
44.916
44.669
44.376
44.038
43.657
43.236
42.778
42.285
41.76
41.205
40.623
40.016
39.388
38.74
38.076
37.397
36.707
36.008
35.301
34.591
33.878
33.166
32.455
31.748
31.047
30.353
29.669
28.994
28.332
27.682
27.048
26.429
25.827
25.244
24.679
24.135
23.613
23.113
22.637
22.186
21.761
21.364
20.998
20.663
20.362
20.095
19.866
19.675
19.524
19.414
19.347
19.324
19.346
19.415
19.532
19.697
19.911
20.175
20.49
20.856
21.272
21.738
22.252
22.814
23.422
24.075
24.77
25.504
26.275
27.079
27.912
28.771
29.65
30.544
31.443
32.343
33.234
34.111
34.964
35.785
36.567
37.305
37.993
38.625
39.195
39.697
40.123
40.47
40.73
40.898
40.968
40.938
40.804
40.565
40.225
39.783
39.241
38.594
37.838
36.969
35.989
34.901
33.71
32.423
31.05
29.609
28.125
26.617
25.107
23.61
22.139
20.707
19.331
18.027
16.82
15.731
14.769
13.936
13.23
12.637
12.142
11.726
11.343
10.948
10.494
9.93
9.222
8.348
7.276
5.962
4.373
2.493
0.387
-1.785
-3.86
-5.694
-7.145
-8.069
-8.309
-7.75
-6.497
-4.908
-3.385
-2.252
-1.772
-2.166
-3.634
-6.364
-9.779
-12.409
-12.869
-9.975
-3.947
3.493
11.811
21.815
36.056
58.579
90.846
131.222
175.824
218.925
256.435
286.362
307.184
317.737
315.371
296.399
258.861
202.506
130.915
51.869
-26.255
-94.238
-145.342
-178.604
-196.038
-202.929
-205.145
-204.778
-201.81
-194.749
-181.92
-164.042
-143.052
-121.087
-100.156
-81.291
-65.158
-52.328
-42.816
-36.411
-32.755
-31.251
-31.384
-32.602
-34.015
-34.791
-34.506
-33.045
-30.569
-27.364
-23.631
-19.608
-15.72
-12.418
-9.927
-8.244
-7.208
-6.611
-6.314
-6.224
-6.191
-6.006
-5.528
-4.688
-3.466
-1.9
-0.014
2.192
4.689
7.411
10.284
13.206
16.087
18.886
21.57
24.118
26.521
28.763
30.833
32.737
34.472
36.034
37.421
38.626
39.649
40.509
41.23
41.853
42.419
42.956
43.488
44.034
44.607
45.222
45.889
46.609
47.386
48.228
49.145
50.148
51.248
52.45
53.758
55.174
56.695
58.324
60.058
61.896
63.836
65.876
68.016
70.256
72.592
75.023
77.542
80.143
82.818
85.557
88.352
91.19
94.061
96.951
99.849
102.743
105.62
108.466
111.268
114.013
116.688
119.279
121.773
124.157
126.419
128.547
130.529
132.353
134.011
135.493
136.791
137.897
138.805
139.51
140.007
140.292
140.363
140.216
139.852
139.271
138.474
137.464
136.243
134.816
133.189
131.368
129.36
127.173
124.816
122.298
119.628
116.817
113.875
110.815
107.649
104.387
101.042
97.627
94.154
90.635
87.081
83.505
79.918
76.332
72.755
69.2
65.676
62.192
58.756
55.378
52.064
48.823
45.66
42.581
39.591
36.695
33.897
31.199
28.603
26.113
23.727
21.447
19.273
17.202
15.235
13.367
11.597
9.922
8.338
6.84
5.425
4.089
2.826
1.632
0.502
-0.568
-1.584
-2.55
-3.471
-4.351
-5.196
-6.008
-6.794
-7.556
-8.299
-9.028
-9.744
-10.452
-11.156
-11.858
-12.56
-13.266
-13.977
-14.696
-15.424
-16.162
-16.911
-17.672
-18.445
-19.231
-20.029
-20.84
-21.662
-22.494
-23.338
-24.19
-25.052
-25.922
-26.799
-27.683
-28.573
-29.468
-30.368
-31.273
-32.18
-33.091
-34.003
-34.917
-35.832
-36.747
-37.661
-38.574
-39.486
-40.394
-41.3
-42.201
-43.097
-43.987
-44.87
-45.746
-46.614
-47.473
-48.324
-49.164
-49.993
-50.811
-51.617
-52.41
-53.189
-53.951
-54.696
-55.422
-56.127
-56.81
-57.468
-58.1
-58.703
-59.276
-59.817
-60.324
-60.795
-61.228
-61.622
-61.974
-62.284
-62.55
-62.773
-62.95
-63.082
-63.171
-63.215
-63.216
-63.174
-63.091
-62.969
-62.808
-62.611
-62.38
-62.118
-61.83
-61.519
-61.191
-60.852
-60.509
-60.166
-59.831
-59.51
-59.21
-58.935
-58.689
-58.477
-58.305
-58.178
-58.102
-58.08
-58.116
-58.216
-58.383
-58.62
-58.928
-59.308
-59.757
-60.276
-60.866
-61.528
-62.271
-63.096
-64.003
-64.991
-66.059
-67.201
-68.409
-69.67
-70.961
-72.264
-73.559
-74.829
-76.06
-77.236
-78.337
-79.349
-80.247
-81.011
-81.636
-82.118
-82.458
-82.668
-82.754
-82.737
-82.671
-82.606
-82.605
-82.73
-83.016
-83.51
-84.273
-85.333
-86.704
-88.355
-90.157
-91.962
-93.663
-95.128
-96.225
-96.882
-97.037
-96.743
-96.285
-96.001
-96.153
-96.955
-98.596
-101.17
-104.694
-108.963
-112.973
-115.211
-114.516
-110.141
-102.568
-93.201
-82.199
-68.487
-49.797
-23.478
10.677
50.501
92.166
131.227
164.521
188.985
201.85
200.883
183.414
149.619
101.374
40.637
-27.298
-97.38
-163.727
-218.031
-256.588
-278.59
-286.407
-286.748
-283.314
-277.396
-269.193
-256.852
-240.592
-222.558
-204.716
-189.401
-178.208
-171.375
-168.686
-169.552
-173.042
-178.173
-184.155
-190.146
-195.157
-198.627
-200.343
-200.29
-198.817
-196.395
-193.374
-190.194
-187.399
-185.276
-183.946
-183.436
-183.572
-184.144
-184.989
-185.9
-186.664
-187.177
-187.389
-187.286
-186.911
-186.3
-185.477
-184.483
-183.352
-182.103
-180.747
-179.299
-177.77
-176.188
-174.588
-172.999
-171.436
-169.913
-168.434
-167.005
-165.628
-164.301
-163.014
-161.762
-160.544
-159.358
-158.205
-157.082
-155.984
-154.905
-153.839
-152.782
-151.731
-150.687
-149.647
-148.614
-147.588
-146.568
-145.557
-144.556
-143.562
-142.574
-141.589
-140.605
-139.624
-138.649
-137.684
-136.727
-135.779
-134.835
-133.894
-132.962
-132.042
-131.139
-130.261
-129.417
-128.627
-127.917
-127.314
-126.834
-126.482
-126.253
-126.147
-126.164
-126.306
-126.57
-126.943
-127.408
-127.958
-128.59
-129.301
-130.068
-130.849
-131.58
-132.206
-132.69
-133.015
-133.167
-133.133
-132.906
-132.493
-131.924
-131.25
-130.513
-129.733
-128.915
-128.065
-127.22
-126.45
-125.836
-125.457
-125.378
-125.656
-126.37
-127.599
-129.379
-131.74
-134.672
-138.087
-141.903
-146.021
-150.306
-154.676
-159.048
-163.261
-167.172
-170.738
-173.998
-177.148
-180.422
-183.857
-187.425
-191.104
-194.811
-198.383
-201.376
-202.958
-202.215
-198.486
-191.352
-180.616
-166.229
-148.191
-126.943
-103.463
-78.907
-54.355
-30.628
-8.233
12.386
30.728
46.635
60.349
72.288
82.977
92.77
101.782
110.17
118.208
126.003
133.498
140.545
146.852
152.257
156.777
160.403
163.104
164.931
165.987
166.44
166.564
166.543
166.456
166.378
166.347
166.384
166.512
166.704
166.88
166.99
167.004
166.89
166.635
166.199
165.513
164.531
163.218
161.548
159.515
157.116
154.345
151.218
147.761
144.006
139.994
135.76
131.334
126.75
122.048
117.271
112.471
107.69
102.962
98.316
93.777
89.364
85.097
80.986
77.036
73.249
69.632
66.187
62.922
59.839
56.938
54.216
51.67
49.297
47.093
45.054
43.177
41.457
39.888
38.467
37.19
36.052
35.048
34.168
33.406
32.753
32.199
31.737
31.355
31.046
30.801
30.612
30.471
30.372
30.308
30.272
30.258
30.261
30.275
30.295
30.317
30.337
30.353
30.361
30.359
30.345
30.316
30.271
30.209
30.126
30.021
29.892
29.736
29.55
29.331
29.074
28.777
28.434
28.042
27.596
27.093
26.529
25.898
25.197
24.421
23.565
22.623
21.589
20.456
19.218
17.869
16.401
14.808
13.082
11.221
9.222
7.079
4.786
2.331
-0.291
-3.081
-6.04
-9.166
-12.455
-15.898
-19.48
-23.174
-26.957
-30.806
-34.706
-38.647
-42.617
-46.595
-50.56
-54.483
-58.35
-62.163
-65.915
-69.599
-73.22
-76.794
-80.367
-84.016
-87.798
-91.753
-95.904
-100.265
-104.87
-109.768
-114.994
-120.573
-126.494
-132.733
-139.314
-146.248
-153.466
-160.814
-168.019
-174.778
-180.901
-186.202
-190.441
-193.448
-195.16
-195.714
-195.531
-195.002
-194.395
-194.063
-194.369
-195.542
-197.26
-198.45
-197.854
-194.724
-189.737
-184.122
-177.799
-168.982
-153.732
-128.648
-94.111
-53.531
-13.016
22.251
51.402
74.961
93.884
107.093
108.36
91.389
52.373
-9.715
-88.621
-174.232
-257.149
-327.135
-378.736
-413.163
-432.625
-442.07
-446.258
-444.683
-437.567
-426.238
-411.344
-396.735
-384.929
-375.056
-366.97
-359.749
-353.186
-349.12
-348.285
-350.701
-355.887
-362.417
-369.171
-375.185
-379.53
-381.808
-381.893
-379.871
-376.052
-370.739
-364.285
-357.233
-350.18
-343.574
-337.641
-332.4
-327.728
-323.488
-319.589
-315.947
-312.488
-309.202
-306.158
-303.442
-301.133
-299.267
-297.804
-296.647
-295.596
-294.429
-292.908
-290.702
-288.089
-285.521
-282.908
-280.658
-277.898
-272.975
-266.7
-259.671
-254.156
-254.329
-259.638
-267.563
-273.005
-267.456
-247.341
-213.114
-168.71
-122.026
-77.897
-38.02
-2.128
32.146
65.314
96.449
124.702
148.975
169.218
186.324
201.036
214.262
227.066
240.031
253.448
267.484
281.987
296.709
311.524
326.126
340.015
352.919
364.719
375.41
385.208
394.317
402.843
410.958
418.864
426.68
434.489
442.313
450.082
457.728
465.202
472.448
479.434
486.128
492.49
498.474
504.028
509.105
513.682
517.739
521.263
524.247
526.684
528.584
529.975
530.886
531.348
531.383
531.007
530.242
529.118
527.669
525.936
523.95
521.734
519.309
516.696
513.912
510.971
507.881
504.643
501.259
497.733
494.072
490.283
486.372
482.341
478.193
473.928
469.552
465.067
460.478
455.789
451.002
446.124
441.16
436.119
431.007
425.829
420.593
415.303
409.966
404.588
399.175
393.735
388.273
382.798
377.318
371.84
366.374
360.929
355.512
350.134
344.803
339.529
334.32
329.186
324.137
319.182
314.329
309.589
304.968
300.477
296.122
291.912
287.853
283.952
280.214
276.645
273.249
270.031
266.992
264.135
261.46
258.969
256.661
254.534
252.585
250.812
249.21
247.774
246.497
245.374
244.395
243.554
242.84
242.244
241.757
241.366
241.061
240.831
240.663
240.545
240.465
240.409
240.365
240.321
240.263
240.18
240.059
239.888
239.658
239.355
238.972
238.497
237.923
237.242
236.445
235.528
234.484
233.309
231.999
230.552
228.967
227.243
225.379
223.378
221.242
218.973
216.575
214.054
211.415
208.664
205.808
202.856
199.816
196.697
193.509
190.263
186.968
183.637
180.279
176.907
173.531
170.163
166.814
163.495
160.217
156.99
153.826
150.733
147.722
144.802
141.979
139.263
136.659
134.174
131.814
129.582
127.483
125.52
123.694
122.008
120.462
119.056
117.788
116.657
115.66
114.792
114.05
113.427
112.918
112.515
112.211
111.998
111.868
111.81
111.816
111.875
111.977
112.11
112.263
112.422
112.576
112.711
112.816
112.877
112.883
112.822
112.684
112.46
112.144
111.725
111.196
110.548
109.775
108.872
107.831
106.649
105.321
103.845
102.222
100.457
98.551
96.508
94.327
92.006
89.545
86.947
84.219
81.367
78.402
75.339
72.198
69.009
65.795
62.581
59.387
56.227
53.122
50.091
47.157
44.341
41.665
39.142
36.784
34.589
32.542
30.617
28.779
26.984
25.191
23.349
21.402
19.3
16.994
14.454
11.645
8.508
5.008
1.151
-2.971
-7.178
-11.269
-15.088
-18.468
-21.175
-23.029
-23.97
-24.173
-24.04
-23.968
-24.284
-25.289
-27.34
-30.786
-35.326
-39.788
-42.905
-43.419
-41.316
-38.054
-33.755
-27.344
-16.118
4.249
35.423
75.952
122.061
167.907
208.749
242.213
266.705
280.844
283.149
270.394
239.809
190.894
123.891
43.36
-42.61
-125.929
-196.602
-248.374
-281.715
-298.954
-305.615
-306.905
-302.716
-293.32
-279.914
-263.226
-247.063
-233.754
-222.27
-212.19
-202.337
-192.408
-184.166
-178.358
-175.155
-174.28
-174.591
-175.31
-175.826
-175.511
-174.191
-171.899
-168.775
-165.145
-161.307
-157.509
-154.133
-151.592
-150.113
-149.744
-150.376
-151.766
-153.663
-155.892
-158.257
-160.559
-162.688
-164.573
-166.182
-167.53
-168.608
-169.4
-169.918
-170.178
-170.195
-170.008
-169.667
-169.236
-168.819
-168.489
-168.293
-168.266
-168.419
-168.76
-169.305
-170.057
-171.014
-172.179
-173.546
-175.117
-176.892
-178.858
-180.988
-183.248
-185.586
-187.964
-190.353
-192.726
-195.067
-197.359
-199.588
-201.743
-203.823
-205.817
-207.718
-209.515
-211.194
-212.746
-214.167
-215.456
-216.614
-217.646
-218.552
-219.338
-220.005
-220.559
-221.002
-221.337
-221.564
-221.686
-221.707
-221.634
-221.475
-221.24
-220.939
-220.584
-220.189
-219.767
-219.333
-218.902
-218.486
-218.097
-217.748
-217.451
-217.222
-217.08
-217.036
-217.101
-217.28
-217.575
-217.985
-218.505
-219.124
-219.821
-220.577
-221.376
-222.203
-223.05
-223.911
-224.78
-225.651
-226.512
-227.364
-228.219
-229.092
-230.003
-230.977
-232.037
-233.218
-234.568
-236.126
-237.92
-239.965
-242.257
-244.785
-247.524
-250.445
-253.511
-256.664
-259.828
-262.915
-265.826
-268.466
-270.745
-272.562
-273.804
-274.372
-274.188
-273.192
-271.356
-268.662
-265.113
-260.724
-255.53
-249.591
-242.988
-235.824
-228.211
-220.259
-212.066
-203.74
-195.393
-187.131
-179.04
-171.192
-163.635
-156.409
-149.547
-143.07
-136.983
-131.278
-125.93
-120.901
-116.146
-111.629
-107.321
-103.195
-99.223
-95.383
-91.658
-88.044
-84.548
-81.175
-77.929
-74.816
-71.847
-69.038
-66.407
-63.977
-61.772
-59.806
-58.089
-56.627
-55.42
-54.468
-53.764
-53.296
-53.049
-53.007
-53.156
-53.483
-53.973
-54.613
-55.384
-56.269
-57.252
-58.318
-59.451
-60.639
-61.869
-63.131
-64.412
-65.705
-67.002
-68.294
-69.573
-70.832
-72.061
-73.253
-74.403
-75.504
-76.552
-77.541
-78.468
-79.332
-80.131
-80.864
-81.531
-82.133
-82.671
-83.146
-83.559
-83.914
-84.213
-84.457
-84.65
-84.795
-84.895
-84.952
-84.971
-84.953
-84.902
-84.823
-84.717
-84.588
-84.441
-84.278
-84.103
-83.918
-83.728
-83.535
-83.341
-83.148
-82.961
-82.779
-82.606
-82.443
-82.291
-82.151
-82.024
-81.91
-81.81
-81.725
-81.652
-81.594
-81.549
-81.517
-81.5
-81.497
-81.509
-81.535
-81.575
-81.63
-81.7
-81.783
-81.878
-81.985
-82.102
-82.229
-82.364
-82.508
-82.66
-82.821
-82.99
-83.167
-83.351
-83.541
-83.735
-83.928
-84.117
-84.297
-84.464
-84.614
-84.741
-84.841
-84.909
-84.94
-84.926
-84.862
-84.738
-84.548
-84.281
-83.93
-83.487
-82.948
-82.314
-81.584
-80.755
-79.824
-78.787
-77.637
-76.368
-74.965
-73.409
-71.68
-69.755
-67.615
-65.247
-62.64
-59.783
-56.663
-53.258
-49.56
-45.571
-41.301
-36.758
-31.952
-26.894
-21.63
-16.233
-10.791
-5.394
-0.119
4.963
9.763
14.221
18.307
22.032
25.508
28.875
32.25
35.758
39.531
43.618
48.029
52.674
57.233
61.344
64.678
66.926
67.922
67.592
65.938
63.362
60.642
59.029
60.292
65.487
75.094
88.908
105.623
125.388
149.273
178.217
213.721
254.81
298.253
340.753
378.187
406.503
422.984
424.929
409.47
376.566
326.975
261.97
187.367
109.012
34.061
-27.831
-72.808
-100.432
-113.436
-119.241
-121.85
-122.104
-119.547
-111.698
-98.292
-81.26
-62.743
-44.961
-29.118
-15.65
-4.849
3.301
8.977
12.572
14.643
15.508
15.521
15.229
15.148
15.803
17.462
20.01
23.235
26.98
31.018
35.086
38.893
42.067
44.451
46.141
47.274
48.033
48.573
48.986
49.405
50.012
50.898
52.095
53.601
55.377
57.423
59.765
62.383
65.239
68.27
71.388
74.53
77.65
80.698
83.647
86.474
89.158
91.702
94.114
96.4
98.562
100.587
102.458
104.173
105.737
107.17
108.501
109.754
110.952
112.118
113.272
114.426
115.593
116.774
117.962
119.159
120.364
121.583
122.825
124.093
125.39
126.718
128.076
129.463
130.879
132.319
133.779
135.256
136.746
138.25
139.766
141.294
142.831
144.375
145.921
147.467
149.006
150.533
152.042
153.527
154.981
156.399
157.775
159.104
160.38
161.598
162.752
163.839
164.852
165.787
166.64
167.405
168.079
168.657
169.136
169.513
169.784
169.946
169.999
169.939
169.766
169.477
169.073
168.552
167.914
167.16
166.289
165.302
164.2
162.986
161.662
160.229
158.691
157.051
155.311
153.474
151.545
149.526
147.421
145.234
142.97
140.632
138.226
135.755
133.226
130.642
128.01
125.334
122.62
119.874
117.1
114.306
111.496
108.677
105.855
103.035
100.224
97.428
94.652
91.902
89.184
86.504
83.866
81.276
78.739
76.26
73.844
71.495
69.218
67.016
64.894
62.854
60.901
59.037
57.264
55.585
54.002
52.515
51.126
49.835
48.644
47.55
46.554
45.653
44.848
44.134
43.51
42.973
42.519
42.145
41.846
41.618
41.456
41.356
41.31
41.315
41.364
41.451
41.57
41.713
41.876
42.051
42.231
42.411
42.582
42.74
42.877
42.987
43.064
43.102
43.096
43.04
42.931
42.762
42.531
42.234
41.868
41.43
40.918
40.332
39.669
38.929
38.113
37.22
36.253
35.212
34.1
32.919
31.673
30.365
29
27.581
26.114
24.604
23.056
21.477
19.873
18.251
16.617
14.979
13.343
11.717
10.109
8.524
6.97
5.454
3.982
2.561
1.198
-0.103
-1.336
-2.494
-3.572
-4.566
-5.472
-6.286
-7.004
-7.624
-8.144
-8.561
-8.875
-9.085
-9.19
-9.192
-9.09
-8.888
-8.585
-8.186
-7.694
-7.113
-6.448
-5.704
-4.887
-4.003
-3.059
-2.062
-1.019
0.062
1.174
2.309
3.458
4.613
5.764
6.899
8.008
9.083
10.111
11.083
11.988
12.819
13.568
14.228
14.793
15.257
15.614
15.857
15.982
15.985
15.861
15.608
15.225
14.71
14.067
13.299
12.41
11.402
10.275
9.025
7.652
6.158
4.548
2.826
1.001
-0.915
-2.904
-4.94
-7
-9.059
-11.094
-13.09
-15.026
-16.881
-18.636
-20.262
-21.736
-23.048
-24.192
-25.168
-25.989
-26.66
-27.204
-27.675
-28.127
-28.626
-29.236
-29.999
-30.961
-32.186
-33.707
-35.542
-37.671
-39.968
-42.273
-44.456
-46.358
-47.818
-48.729
-49.001
-48.675
-48.023
-47.413
-47.174
-47.587
-48.937
-51.422
-55.083
-59.694
-64.212
-66.981
-66.662
-62.364
-54.435
-44.093
-31.545
-15.835
5.652
35.617
74.701
121.273
170.525
216.95
255.305
280.369
289.259
280.225
253.464
212.155
159.918
100.301
36.43
-29.046
-92.523
-148.491
-191.442
-218.627
-230.489
-231.206
-226.359
-219.04
-210.3
-199.699
-186.063
-169.814
-152.372
-135.1
-119.439
-106.278
-95.887
-88.186
-82.803
-79.295
-77.254
-76.38
-76.319
-76.446
-76.135
-75.081
-73.249
-70.833
-68.118
-65.293
-62.542
-60.21
-58.692
-58.21
-58.8
-60.324
-62.535
-65.222
-68.236
-71.404
-74.521
-77.439
-80.052
-82.292
-84.164
-85.674
-86.817
-87.606
-88.06
-88.196
-88.063
-87.722
-87.241
-86.698
-86.144
-85.606
-85.111
-84.678
-84.327
-84.078
-83.935
-83.89
-83.937
-84.074
-84.297
-84.604
-84.975
-85.376
-85.774
-86.129
-86.414
-86.612
-86.706
-86.681
-86.53
-86.243
-85.822
-85.271
-84.591
-83.779
-82.835
-81.754
-80.54
-79.199
-77.735
-76.157
-74.471
-72.683
-70.802
-68.833
-66.784
-64.659
-62.465
-60.204
-57.883
-55.508
-53.088
-50.631
-48.146
-45.64
-43.122
-40.602
-38.088
-35.587
-33.106
-30.653
-28.232
-25.849
-23.51
-21.22
-18.982
-16.801
-14.68
-12.622
-10.629
-8.702
-6.844
-5.055
-3.334
-1.682
-0.098
1.421
2.874
4.265
5.596
6.868
8.086
9.251
10.368
11.441
12.473
13.468
14.431
15.366
16.278
17.17
18.047
18.912
19.769
20.622
21.474
22.328
23.189
24.058
24.938
25.834
26.746
27.679
28.635
29.616
30.624
31.661
32.73
33.833
34.971
36.147
37.362
38.618
39.916
41.258
42.646
44.08
45.563
47.093
48.674
50.305
51.988
53.723
55.51
57.35
59.245
61.192
63.194
65.25
67.359
69.522
71.737
74.004
76.322
78.689
81.104
83.565
86.07
88.616
91.2
93.821
96.473
99.155
101.862
104.589
107.333
110.089
112.852
115.618
118.38
121.135
123.876
126.598
129.295
131.962
134.593
137.181
139.722
142.209
144.637
147
149.292
151.509
153.645
155.694
157.653
159.517
161.281
162.941
164.494
165.938
167.268
168.483
169.581
170.561
171.42
172.16
172.779
173.279
173.659
173.922
174.069
174.103
174.026
173.841
173.553
173.165
172.681
172.108
171.449
170.71
169.898
169.018
168.077
167.082
166.04
164.958
163.843
162.703
161.547
160.381
159.214
158.053
156.906
155.781
154.684
153.623
152.603
151.632
150.716
149.859
149.069
148.348
147.701
147.132
146.644
146.239
145.92
145.686
145.539
145.479
145.504
145.613
145.804
146.074
146.419
146.836
147.318
147.86
148.455
149.095
149.769
150.469
151.187
151.911
152.631
153.337
154.021
154.674
155.289
155.857
156.369
156.815
157.189
157.483
157.691
157.805
157.819
157.728
157.532
157.23
156.824
156.31
155.685
154.943
154.08
153.099
152.003
150.797
149.488
148.087
146.613
145.093
143.552
142.01
140.487
138.997
137.561
136.206
134.955
133.834
132.865
132.062
131.432
130.979
130.693
130.554
130.541
130.606
130.705
130.792
130.815
130.725
130.484
130.032
129.302
128.258
126.898
125.274
123.532
121.832
120.329
119.221
118.73
119.01
120.127
121.984
124.253
126.552
128.533
129.825
130.094
129.19
127.167
124.403
121.722
120.148
120.78
124.804
133.314
147.179
167.005
192.96
224.69
260.882
299.275
337.493
372.903
404.385
432.622
456.709
475.247
484.746
478.548
453.638
409.471
347.683
275.663
200.286
127.712
65.733
18.054
-14.876
-33.339
-41.095
-41.883
-35.815
-24.261
-9.246
8.056
23.744
35.909
45.971
54.484
62.794
71.076
77.292
80.567
80.603
77.717
73.269
68.197
63.243
59.107
55.967
53.836
52.627
52.063
51.891
51.839
51.476
50.389
48.372
45.416
41.684
37.42
32.801
27.961
23.065
18.292
13.764
9.533
5.597
1.913
-1.526
-4.686
-7.542
-10.102
-12.397
-14.483
-16.435
-18.306
-20.135
-21.962
-23.811
-25.702
-27.647
-29.637
-31.659
-33.701
-35.765
-37.868
-40.032
-42.261
-44.549
-46.88
-49.225
-51.563
-53.878
-56.148
-58.358
-60.498
-62.563
-64.558
-66.492
-68.372
-70.201
-71.977
-73.695
-75.355
-76.96
-78.512
-80.015
-81.472
-82.889
-84.273
-85.63
-86.966
-88.286
-89.591
-90.88
-92.158
-93.424
-94.682
-95.933
-97.181
-98.428
-99.677
-100.933
-102.2
-103.48
-104.776
-106.092
-107.428
-108.788
-110.174
-111.587
-113.03
-114.505
-116.013
-117.557
-119.139
-120.76
-122.423
-124.13
-125.882
-127.683
-129.535
-131.438
-133.396
-135.411
-137.486
-139.623
-141.824
-144.094
-146.435
-148.849
-151.34
-153.91
-156.561
-159.296
-162.116
-165.022
-168.017
-171.1
-174.275
-177.539
-180.895
-184.343
-187.881
-191.509
-195.225
-199.029
-202.917
-206.886
-210.935
-215.058
-219.252
-223.512
-227.833
-232.21
-236.636
-241.105
-245.61
-250.145
-254.701
-259.271
-263.847
-268.421
-272.985
-277.531
-282.051
-286.538
-290.983
-295.38
-299.722
-304.003
-308.215
-312.355
-316.415
-320.393
-324.284
-328.084
-331.791
-335.402
-338.917
-342.334
-345.653
-348.875
-352.001
-355.032
-357.972
-360.822
-363.588
-366.272
-368.879
-371.416
-373.888
-376.3
-378.661
-380.977
-383.255
-385.504
-387.73
-389.943
-392.148
-394.355
-396.571
-398.802
-401.057
-403.342
-405.663
-408.028
-410.441
-412.909
-415.435
-418.026
-420.685
-423.414
-426.218
-429.098
-432.058
-435.099
-438.222
-441.429
-444.718
-448.09
-451.545
-455.08
-458.694
-462.383
-466.144
-469.974
-473.866
-477.815
-481.818
-485.867
-489.957
-494.083
-498.24
-502.423
-506.628
-510.85
-515.084
-519.326
-523.569
-527.81
-532.042
-536.26
-540.461
-544.641
-548.796
-552.922
-557.019
-561.084
-565.113
-569.102
-573.044
-576.935
-580.776
-584.572
-588.328
-592.058
-595.773
-599.493
-603.244
-607.047
-610.922
-614.884
-618.942
-623.106
-627.392
-631.816
-636.402
-641.164
-646.105
-651.215
-656.483
-661.887
-667.394
-672.96
-678.514
-683.992
-689.341
-694.523
-699.512
-704.282
-708.792
-713.001
-716.861
-720.34
-723.45
-726.213
-728.633
-730.734
-732.549
-734.13
-735.619
-737.146
-738.7
-740.263
-741.95
-743.893
-746.275
-749.357
-752.797
-756.267
-760.314
-765.095
-771.37
-779.85
-788.897
-797.405
-804.218
-807.817
-809.411
-810.144
-811.015
-813.777
-818.361
-824.071
-829.897
-834.93
-839.637
-844.932
-851.928
-859.377
-863.628
-861.159
-848.483
-825.419
-794.823
-759.079
-721.012
-681.909
-641.112
-598.833
-555.038
-509.715
-463.817
-417.777
-371.613
-325.414
-278.911
-231.851
-184.65
-138.082
-92.883
-49.849
-9.58
27.68
61.79
92.649
120.544
145.958
169.207
190.684
210.662
229.109
245.901
260.944
274.176
285.735
296.622
308.359
321.875
338.058
357.352
379.085
404.595
435.998
473.942
519.799
571.963
626.492
681.477
734.042
781.614
821.938
850.02
860.724
850.343
817.929
765.919
699.555
626.398
553.741
489.153
438.99
405.079
386.639
379.649
378.509
380.716
385.617
394.065
407.614
425.552
445.893
466.484
485.045
500.305
511.75
519.034
522.395
522.354
519.484
514.504
508.127
501.097
494.233
488.283
483.635
480.334
478.244
477.119
476.694
476.67
476.643
476.161
474.973
473.046
470.452
467.355
463.888
460.139
456.239
452.353
448.569
444.903
441.325
437.753
434.129
430.426
426.609
422.643
418.492
414.125
409.514
404.644
399.504
394.087
388.39
382.413
376.161
369.646
362.886
355.904
348.721
341.35
333.807
326.108
318.27
310.318
302.272
294.158
285.996
277.81
269.622
261.456
253.333
245.271
237.286
229.394
221.611
213.954
206.435
199.07
191.87
184.846
178.008
171.367
164.931
158.703
152.69
146.891
141.308
135.942
130.79
125.846
121.105
116.562
112.211
108.051
104.073
100.263
96.605
93.076
89.65
86.301
82.998
79.698
76.366
72.968
69.476
65.871
62.135
58.244
54.17
49.88
45.347
40.562
35.529
30.251
24.749
19.045
13.179
7.216
1.219
-4.772
-10.726
-16.635
-22.494
-28.276
-33.948
-39.47
-44.803
-49.934
-54.866
-59.603
-64.173
-68.613
-72.979
-77.367
-81.865
-86.529
-91.406
-96.505
-101.803
-107.331
-113.16
-119.398
-126.234
-133.794
-142.113
-151.235
-161.167
-171.808
-182.96
-194.195
-204.837
-214.309
-222.229
-228.273
-232.225
-234.02
-233.723
-232.065
-230.587
-230.703
-233.169
-237.455
-241.508
-243.192
-242.102
-240.23
-241.518
-250.545
-268.427
-290.566
-307.724
-306.823
-276.987
-214.952
-125.153
-19.375
88.317
187.543
273.188
344.043
400.625
443.071
469.959
482.414
485.038
484.118
487.877
500.459
520.568
544.358
565.468
580.276
589.174
594.102
598.255
603.164
608.282
612.574
614.915
615.035
613.385
610.471
606.76
602.534
597.98
593.318
588.671
584.068
579.516
574.985
570.493
566.105
561.849
557.743
553.794
549.977
546.268
542.633
539.018
535.388
531.734
528.057
524.37
520.69
517.017
513.357
509.689
505.957
502.1
498.043
493.734
489.162
484.33
479.259
473.979
468.514
462.886
457.116
451.222
445.215
439.11
432.917
426.665
420.404
414.199
408.127
402.245
396.59
391.185
386.043
381.169
376.561
372.214
368.11
364.239
360.592
357.164
353.953
350.947
348.127
345.465
342.929
340.489
338.126
335.822
333.562
331.334
329.129
326.944
324.778
322.63
320.493
318.36
316.221
314.066
311.889
309.68
307.432
305.136
302.785
300.369
297.88
295.308
292.648
289.889
287.025
284.048
280.952
277.732
274.383
270.9
267.28
263.521
259.621
255.583
251.407
247.099
242.665
238.114
233.453
228.686
223.814
218.84
213.771
208.62
203.396
198.116
192.799
187.466
182.15
176.883
171.695
166.613
161.658
156.845
152.189
147.716
143.453
139.429
135.659
132.143
128.88
125.867
123.1
120.566
118.223
116.008
113.862
111.727
109.56
107.354
105.086
102.704
100.176
97.495
94.732
92.062
89.652
87.601
86.016
85.028
84.784
85.414
86.825
88.665
90.554
92.182
93.295
93.678
93.088
91.264
88.751
86.959
87.265
91.095
98.263
106.664
115.46
124.607
136.18
155.549
185.41
226.222
275.987
327.491
374.551
411.241
431.656
433.929
416.24
379.188
326.075
259.115
182.942
102.548
22.963
-47.594
-102.649
-139.199
-157.204
-161.972
-160.146
-155.176
-148.454
-139.13
-125.262
-107.289
-87.116
-66.575
-47.624
-31.397
-18.058
-7.605
0.051
5.294
8.607
10.242
10.512
9.965
9.028
8.158
7.841
8.117
8.805
9.847
11.107
12.366
13.463
14.101
13.938
12.93
11.205
8.907
6.221
3.276
0.158
-2.968
-5.877
-8.425
-10.551
-12.247
-13.559
-14.515
-15.117
-15.393
-15.405
-15.238
-14.985
-14.73
-14.514
-14.357
-14.283
-14.309
-14.461
-14.766
-15.223
-15.823
-16.557
-17.419
-18.407
-19.514
-20.718
-21.981
-23.265
-24.525
-25.732
-26.866
-27.906
-28.836
-29.641
-30.308
-30.833
-31.217
-31.458
-31.55
-31.489
-31.266
-30.881
-30.338
-29.64
-28.791
-27.797
-26.661
-25.389
-23.987
-22.46
-20.815
-19.054
-17.183
-15.208
-13.137
-10.98
-8.747
-6.449
-4.097
-1.705
0.715
3.149
5.585
8.009
10.41
12.774
15.088
17.341
19.519
21.612
23.607
25.494
27.261
28.899
30.398
31.748
32.943
33.974
34.835
35.521
36.027
36.349
36.483
36.427
36.179
35.739
35.106
34.281
33.267
32.066
30.683
29.122
27.39
25.493
23.44
21.239
18.899
16.429
13.841
11.145
8.351
5.471
2.516
-0.502
-3.57
-6.677
-9.81
-12.956
-16.104
-19.24
-22.354
-25.433
-28.466
-31.442
-34.351
-37.183
-39.927
-42.575
-45.117
-47.545
-49.852
-52.031
-54.076
-55.984
-57.75
-59.374
-60.854
-62.192
-63.389
-64.45
-65.376
-66.173
-66.844
-67.395
-67.83
-68.155
-68.374
-68.495
-68.527
-68.478
-68.361
-68.187
-67.968
-67.717
-67.448
-67.174
-66.906
-66.654
-66.428
-66.238
-66.097
-66.017
-66.017
-66.108
-66.301
-66.602
-67.016
-67.541
-68.17
-68.888
-69.674
-70.52
-71.419
-72.374
-73.396
-74.495
-75.682
-76.969
-78.36
-79.859
-81.474
-83.203
-85.052
-87.038
-89.186
-91.537
-94.145
-97.033
-100.215
-103.688
-107.422
-111.384
-115.528
-119.786
-124.108
-128.451
-132.772
-137.043
-141.238
-145.308
-149.201
-152.845
-156.154
-159.071
-161.557
-163.587
-165.172
-166.337
-167.125
-167.616
-167.876
-167.953
-167.891
-167.714
-167.444
-167.118
-166.776
-166.464
-166.246
-166.17
-166.267
-166.57
-167.08
-167.783
-168.651
-169.625
-170.653
-171.699
-172.737
-173.751
-174.735
-175.671
-176.548
-177.355
-178.07
-178.677
-179.16
-179.502
-179.699
-179.754
-179.68
-179.5
-179.24
-178.914
-178.532
-178.102
-177.623
-177.1
-176.533
-175.92
-175.26
-174.558
-173.819
-173.05
-172.259
-171.449
-170.621
-169.774
-168.908
-168.025
-167.127
-166.22
-165.308
-164.399
-163.499
-162.621
-161.77
-160.956
-160.181
-159.446
-158.754
-158.106
-157.508
-156.966
-156.487
-156.073
-155.724
-155.439
-155.213
-155.039
-154.905
-154.791
-154.68
-154.555
-154.401
-154.211
-153.974
-153.681
-153.321
-152.873
-152.317
-151.647
-150.859
-149.959
-148.967
-147.899
-146.781
-145.651
-144.549
-143.522
-142.618
-141.874
-141.322
-140.972
-140.84
-140.983
-141.43
-142.161
-143.084
-144
-144.704
-145.077
-144.98
-144.204
-142.613
-140.135
-136.899
-133.377
-130.018
-127.097
-124.926
-123.789
-123.839
-125.161
-127.02
-127.781
-126.125
-121.208
-113.4
-104.078
-93.314
-79.712
-60.61
-33.159
2.837
44.89
88.625
129.219
163.404
188.604
202.731
203.357
187.185
152.855
100.823
33.95
-41.366
-118.007
-188.353
-245.195
-284.784
-307.073
-315.32
-314.93
-310.773
-304.877
-297.076
-286.513
-272.36
-255.294
-236.985
-218.902
-202.348
-188.117
-176.447
-167.124
-159.697
-153.747
-148.882
-144.872
-141.494
-138.217
-134.477
-130.052
-124.939
-119.32
-113.499
-107.647
-101.918
-96.647
-92.2
-88.774
-86.42
-85.008
-84.306
-84.136
-84.34
-84.727
-85.109
-85.337
-85.325
-85.034
-84.455
-83.576
-82.388
-80.894
-79.117
-77.088
-74.835
-72.408
-69.873
-67.298
-64.761
-62.32
-60.002
-57.835
-55.835
-54.016
-52.395
-50.979
-49.761
-48.739
-47.909
-47.261
-46.788
-46.468
-46.266
-46.144
-46.062
-45.987
-45.897
-45.774
-45.599
-45.36
-45.045
-44.645
-44.158
-43.579
-42.9
-42.112
-41.207
-40.178
-39.026
-37.751
-36.353
-34.834
-33.194
-31.435
-29.557
-27.564
-25.455
-23.231
-20.894
-18.446
-15.892
-13.238
-10.493
-7.663
-4.759
-1.789
1.234
4.299
7.396
10.512
13.636
16.755
19.856
22.928
25.957
28.93
31.834
34.656
37.383
40.002
42.502
44.869
47.092
49.162
51.067
52.799
54.347
55.705
56.863
57.817
58.56
59.087
59.396
59.483
59.347
58.989
58.408
57.609
56.593
55.366
53.932
52.298
50.471
48.459
46.272
43.919
41.411
38.759
35.976
33.075
30.068
26.97
23.794
20.556
17.271
13.952
10.615
7.275
3.947
0.645
-2.616
-5.822
-8.961
-12.018
-14.981
-17.839
-20.582
-23.197
-25.678
-28.014
-30.199
-32.226
-34.089
-35.785
-37.309
-38.659
-39.833
-40.83
-41.652
-42.298
-42.772
-43.077
-43.215
-43.193
-43.015
-42.688
-42.219
-41.614
-40.882
-40.032
-39.072
-38.012
-36.861
-35.63
-34.327
-32.964
-31.551
-30.099
-28.616
-27.115
-25.603
-24.093
-22.592
-21.111
-19.657
-18.24
-16.868
-15.548
-14.288
-13.094
-11.972
-10.927
-9.966
-9.092
-8.308
-7.62
-7.028
-6.536
-6.145
-5.855
-5.668
-5.583
-5.6
-5.716
-5.931
-6.243
-6.647
-7.142
-7.722
-8.384
-9.123
-9.934
-10.812
-11.749
-12.74
-13.779
-14.858
-15.971
-17.111
-18.27
-19.442
-20.618
-21.792
-22.955
-24.102
-25.224
-26.313
-27.364
-28.368
-29.319
-30.211
-31.039
-31.794
-32.474
-33.071
-33.583
-34.005
-34.332
-34.562
-34.691
-34.719
-34.645
-34.466
-34.183
-33.797
-33.31
-32.723
-32.04
-31.264
-30.399
-29.45
-28.421
-27.32
-26.152
-24.924
-23.645
-22.323
-20.969
-19.594
-18.207
-16.82
-15.443
-14.089
-12.768
-11.491
-10.266
-9.103
-8.012
-7.002
-6.084
-5.268
-4.561
-3.971
-3.505
-3.171
-2.976
-2.922
-3.009
-3.24
-3.616
-4.144
-4.832
-5.683
-6.697
-7.87
-9.198
-10.677
-12.298
-14.042
-15.884
-17.798
-19.762
-21.758
-23.775
-25.788
-27.771
-29.692
-31.522
-33.243
-34.845
-36.318
-37.653
-38.855
-39.937
-40.933
-41.897
-42.878
-43.92
-45.072
-46.386
-47.911
-49.713
-51.867
-54.405
-57.313
-60.54
-63.967
-67.468
-70.92
-74.152
-76.955
-79.191
-80.774
-81.749
-82.361
-82.84
-83.397
-84.245
-85.472
-87.164
-89.415
-91.976
-94.266
-95.308
-93.625
-88.459
-79.597
-67.144
-52.149
-33.967
-11.115
16.839
51.019
89.942
130.202
170.508
208.366
241.053
266.482
279.247
274.308
250.243
207.494
149.942
83.995
14.705
-53.102
-113.715
-162.89
-198.078
-218.683
-228.009
-230.857
-230.067
-226.96
-220.952
-210.474
-195.859
-178.532
-160.173
-142.715
-127.199
-114.21
-104.284
-97.39
-93.258
-91.579
-91.859
-93.644
-96.445
-99.439
-101.781
-103.007
-102.938
-101.613
-99.232
-95.95
-91.965
-87.703
-83.656
-80.113
-77.186
-74.818
-72.847
-71.167
-69.702
-68.309
-66.824
-65.144
-63.231
-61.117
-58.887
-56.6
-54.292
-52
-49.763
-47.619
-45.605
-43.749
-42.07
-40.581
-39.291
-38.206
-37.328
-36.655
-36.183
-35.895
-35.773
-35.801
-35.97
-36.27
-36.693
-37.224
-37.842
-38.527
-39.259
-40.017
-40.78
-41.526
-42.228
-42.868
-43.43
-43.897
-44.256
-44.487
-44.564
-44.468
-44.185
-43.704
-43.017
-42.119
-41.004
-39.68
-38.164
-36.473
-34.623
-32.621
-30.459
-28.136
-25.651
-23.005
-20.205
-17.244
-14.099
-10.758
-7.213
-3.454
0.528
4.76
9.292
14.16
19.385
24.969
30.881
37.093
43.578
50.292
57.182
64.174
71.166
78.076
84.841
91.394
97.671
103.585
109.018
113.879
118.102
121.641
124.489
126.638
128.081
128.844
128.975
128.55
127.672
126.419
124.845
123.01
120.97
118.798
116.596
114.44
112.382
110.464
108.711
107.147
105.799
104.667
103.723
102.929
102.229
101.586
100.989
100.421
99.87
99.318
98.737
98.114
97.453
96.754
96.019
95.252
94.448
93.621
92.795
91.997
91.26
90.604
90.039
89.574
89.217
88.972
88.844
88.828
88.915
89.1
89.378
89.746
90.202
90.74
91.35
92.023
92.75
93.523
94.336
95.184
96.059
96.958
97.879
98.818
99.776
100.75
101.738
102.737
103.742
104.75
105.759
106.764
107.762
108.75
109.725
110.686
111.629
112.554
113.459
114.341
115.2
116.034
116.841
117.618
118.364
119.077
119.754
120.393
120.992
121.549
122.06
122.522
122.933
123.29
123.589
123.826
124
124.106
124.143
124.107
123.997
123.811
123.548
123.206
122.785
122.285
121.705
121.045
120.306
119.489
118.595
117.625
116.583
115.47
114.29
113.048
111.746
110.391
108.987
107.54
106.056
104.542
103.004
101.451
99.889
98.327
96.773
95.235
93.722
92.242
90.803
89.413
88.079
86.809
85.609
84.485
83.443
82.489
81.626
80.859
80.191
79.625
79.163
78.806
78.554
78.406
78.362
78.417
78.57
78.814
79.147
79.56
80.048
80.603
81.214
81.875
82.573
83.299
84.039
84.78
85.509
86.211
86.873
87.48
88.019
88.476
88.839
89.097
89.241
89.261
89.145
88.883
88.468
87.891
87.146
86.225
85.124
83.839
82.368
80.716
78.885
76.876
74.691
72.326
69.783
67.069
64.193
61.164
57.998
54.71
51.325
47.876
44.394
40.904
37.432
33.998
30.626
27.345
24.181
21.163
18.314
15.652
13.191
10.934
8.871
6.983
5.242
3.608
2.045
0.513
-1.03
-2.626
-4.323
-6.149
-8.137
-10.334
-12.756
-15.392
-18.166
-20.914
-23.439
-25.581
-27.183
-28.066
-28.103
-27.234
-25.569
-23.446
-21.272
-19.362
-17.878
-17.006
-16.932
-17.692
-19.025
-19.818
-18.289
-13.076
-3.65
8.913
22.619
36.703
52.085
72.28
101.149
140.179
188.037
238.943
285.981
322.767
343.958
347.967
334.2
303.853
259.797
203.671
138.694
68.656
-2.39
-67.563
-120.756
-158.682
-180.557
-190.013
-192.426
-190.817
-186.517
-178.972
-166.621
-149.935
-130.677
-110.808
-92.555
-77.244
-65.349
-57.168
-52.508
-50.862
-51.71
-54.394
-58.204
-62.413
-66.278
-69.148
-70.722
-71.025
-70.249
-68.7
-66.675
-64.48
-62.469
-60.952
-60.076
-59.809
-60.006
-60.498
-61.141
-61.81
-62.369
-62.672
-62.62
-62.187
-61.379
-60.202
-58.677
-56.828
-54.697
-52.377
-49.944
-47.453
-44.964
-42.511
-40.122
-37.825
-35.632
-33.538
-31.544
-29.654
-27.872
-26.22
-24.713
-23.348
-22.124
-21.018
-20.012
-19.092
-18.238
-17.432
-16.66
-15.909
-15.174
-14.457
-13.76
-13.078
-12.407
-11.737
-11.06
-10.37
-9.66
-8.926
-8.162
-7.363
-6.524
-5.646
-4.724
-3.757
-2.739
-1.664
-0.527
0.675
1.945
3.286
4.7
6.188
7.75
9.384
11.089
12.862
14.701
16.602
18.563
20.579
22.645
24.756
26.907
29.091
31.303
33.534
35.779
38.03
40.279
42.519
44.742
46.94
49.107
51.234
53.315
55.342
57.31
59.211
61.04
62.791
64.458
66.036
67.521
68.908
70.194
71.376
72.452
73.42
74.279
75.029
75.668
76.197
76.618
76.93
77.137
77.239
77.239
77.141
76.947
76.66
76.285
75.824
75.281
74.66
73.966
73.201
72.369
71.474
70.519
69.508
68.444
67.329
66.166
64.958
63.707
62.414
61.083
59.713
58.307
56.865
55.387
53.875
52.328
50.747
49.131
47.48
45.795
44.073
42.316
40.523
38.694
36.828
34.925
32.986
31.011
29.002
26.958
24.882
22.775
20.64
18.479
16.295
14.091
11.871
9.64
7.4
5.158
2.917
0.683
-1.539
-3.744
-5.927
-8.081
-10.202
-12.284
-14.323
-16.312
-18.248
-20.126
-21.942
-23.691
-25.371
-26.98
-28.514
-29.972
-31.354
-32.658
-33.885
-35.036
-36.112
-37.116
-38.052
-38.922
-39.732
-40.486
-41.191
-41.851
-42.473
-43.065
-43.633
-44.184
-44.725
-45.265
-45.811
-46.369
-46.948
-47.553
-48.191
-48.867
-49.588
-50.357
-51.179
-52.056
-52.992
-53.986
-55.041
-56.155
-57.327
-58.556
-59.838
-61.168
-62.541
-63.951
-65.391
-66.853
-68.327
-69.803
-71.273
-72.725
-74.149
-75.533
-76.865
-78.135
-79.33
-80.44
-81.453
-82.358
-83.144
-83.803
-84.324
-84.7
-84.924
-84.989
-84.891
-84.625
-84.191
-83.586
-82.81
-81.866
-80.756
-79.484
-78.058
-76.484
-74.771
-72.931
-70.974
-68.916
-66.771
-64.556
-62.286
-59.978
-57.651
-55.322
-53.009
-50.728
-48.496
-46.329
-44.246
-42.263
-40.399
-38.667
-37.083
-35.66
-34.412
-33.35
-32.482
-31.808
-31.335
-31.063
-30.997
-31.144
-31.505
-32.076
-32.854
-33.831
-34.995
-36.331
-37.816
-39.419
-41.111
-42.867
-44.664
-46.488
-48.316
-50.123
-51.884
-53.569
-55.157
-56.634
-57.975
-59.164
-60.203
-61.104
-61.896
-62.625
-63.314
-63.983
-64.667
-65.396
-66.211
-67.148
-68.217
-69.435
-70.845
-72.468
-74.301
-76.256
-78.148
-79.785
-81.011
-81.65
-81.496
-80.37
-78.197
-75.161
-71.648
-68.029
-64.665
-61.885
-60.07
-59.68
-60.436
-61.086
-60.461
-57.44
-52.295
-46.957
-41.513
-34.437
-22.362
-0.32
33.298
76.624
125.524
174.247
219.027
257.789
288.207
307.596
311.515
295.503
258.261
200.938
128.457
48.872
-30.605
-102.493
-160.944
-204.718
-234.355
-252.951
-265.11
-272.602
-275.703
-273.729
-265.36
-251.299
-233.523
-214.142
-195.13
-177.558
-162.008
-148.939
-138.47
-130.48
-124.546
-120.058
-116.661
-114.011
-111.588
-108.871
-105.336
-100.743
-95.277
-89.284
-83.037
-76.798
-70.854
-65.522
-61.217
-58.177
-56.385
-55.726
-56.009
-57.054
-58.737
-60.909
-63.348
-65.881
-68.368
-70.672
-72.739
-74.534
-76.005
-77.144
-77.946
-78.407
-78.548
-78.411
-78.024
-77.423
-76.625
-75.634
-74.477
-73.189
-71.823
-70.45
-69.116
-67.847
-66.668
-65.589
-64.62
-63.765
-63.01
-62.324
-61.682
-61.062
-60.45
-59.841
-59.219
-58.563
-57.85
-57.049
-56.14
-55.111
-53.949
-52.646
-51.198
-49.6
-47.858
-45.986
-43.991
-41.882
-39.666
-37.347
-34.931
-32.43
-29.853
-27.21
-24.512
-21.767
-18.987
-16.183
-13.364
-10.54
-7.72
-4.912
-2.123
0.637
3.359
6.034
8.651
11.204
13.683
16.081
18.389
20.603
22.716
24.725
26.624
28.411
30.083
31.639
33.076
34.395
35.595
36.677
37.643
38.494
39.233
39.862
40.385
40.806
41.128
41.356
41.495
41.55
41.526
41.43
41.267
41.043
40.764
40.435
40.064
39.655
39.215
38.748
38.26
37.754
37.236
36.709
36.175
35.639
35.102
34.565
34.032
33.503
32.978
32.458
31.943
31.433
30.927
30.424
29.924
29.424
28.923
28.419
27.91
27.395
26.871
26.335
25.786
25.22
24.636
24.031
23.405
22.754
22.078
21.376
20.648
19.893
19.113
18.308
17.48
16.632
15.765
14.882
13.988
13.086
12.18
11.275
10.376
9.488
8.617
7.769
6.949
6.164
5.419
4.72
4.074
3.486
2.961
2.506
2.126
1.826
1.611
1.484
1.451
1.513
1.672
1.93
2.288
2.743
3.296
3.944
4.683
5.509
6.419
7.407
8.467
9.592
10.774
12.006
13.279
14.583
15.909
17.247
18.586
19.918
21.231
22.515
23.761
24.959
26.099
27.172
28.167
29.076
29.891
30.605
31.209
31.7
32.072
32.323
32.452
32.459
32.344
32.111
31.762
31.303
30.739
30.074
29.316
28.471
27.548
26.555
25.504
24.405
23.273
22.122
20.968
19.826
18.711
17.637
16.618
15.668
14.8
14.025
13.355
12.803
12.384
12.115
12.014
12.085
12.334
12.757
13.345
14.09
14.983
16.007
17.151
18.409
19.78
21.277
22.913
24.689
26.599
28.624
30.743
32.951
35.244
37.621
40.091
42.66
45.34
48.16
51.135
54.256
57.495
60.794
64.081
67.307
70.433
73.43
76.277
78.939
81.38
83.577
85.494
87.092
88.325
89.118
89.41
89.184
88.446
87.245
85.653
83.722
81.496
79.029
76.366
73.561
70.663
67.704
64.719
61.758
58.881
56.176
53.719
51.556
49.709
48.163
46.882
45.834
44.99
44.309
43.738
43.221
42.7
42.125
41.457
40.654
39.656
38.373
36.756
34.806
32.588
30.27
28.033
26.03
24.44
23.456
23.186
23.66
24.764
26.134
27.384
28.188
28.227
27.32
25.464
22.732
19.474
16.474
14.93
16.418
22.396
33.615
49.322
67.993
88.5
110.649
136.504
168.38
207.128
251.831
298.248
341.155
374.848
393.675
394.523
375.275
336.927
283.131
216.98
143.392
67.012
-7.755
-73.63
-124.759
-158.353
-174.228
-177.025
-172.707
-164.342
-153.255
-138.992
-120.122
-97.356
-72.674
-47.935
-25.291
-6.219
8.747
19.434
26.108
29.431
30.11
28.664
25.77
22.342
19.198
17.066
16.314
16.809
18.299
20.61
23.484
26.593
29.592
32.041
33.719
34.693
35.09
35.065
34.771
34.305
33.809
33.49
33.473
33.811
34.511
35.508
36.743
38.171
39.713
41.295
42.862
44.35
45.724
46.972
48.086
49.07
49.934
50.675
51.287
51.762
52.094
52.289
52.362
52.328
52.215
52.046
51.846
51.642
51.457
51.306
51.2
51.143
51.135
51.18
51.283
51.449
51.686
51.997
52.385
52.852
53.397
54.02
54.719
55.49
56.327
57.229
58.191
59.212
60.289
61.421
62.603
63.832
65.102
66.408
67.745
69.104
70.479
71.862
73.247
74.626
75.992
77.34
78.661
79.95
81.199
82.403
83.555
84.649
85.679
86.64
87.525
88.33
89.049
89.68
90.217
90.657
90.997
91.234
91.366
91.392
91.308
91.115
90.811
90.396
89.87
89.233
88.486
87.631
86.669
85.602
84.433
83.164
81.799
80.34
78.791
77.156
75.438
73.643
71.774
69.837
67.837
65.779
63.669
61.512
59.314
57.082
54.82
52.537
50.237
47.927
45.613
43.302
41
38.713
36.447
34.207
32
29.832
27.706
25.629
23.605
21.638
19.734
17.895
16.125
14.428
12.805
11.261
9.795
8.411
7.108
5.888
4.751
3.696
2.723
1.83
1.017
0.282
-0.379
-0.966
-1.484
-1.935
-2.323
-2.651
-2.924
-3.145
-3.319
-3.451
-3.544
-3.603
-3.634
-3.64
-3.628
-3.6
-3.564
-3.522
-3.48
-3.442
-3.413
-3.396
-3.397
-3.418
-3.464
-3.538
-3.642
-3.78
-3.955
-4.168
-4.423
-4.72
-5.061
-5.448
-5.881
-6.362
-6.89
-7.466
-8.089
-8.76
-9.478
-10.241
-11.048
-11.899
-12.79
-13.72
-14.687
-15.688
-16.719
-17.778
-18.861
-19.965
-21.084
-22.216
-23.356
-24.499
-25.64
-26.776
-27.9
-29.008
-30.094
-31.154
-32.183
-33.175
-34.125
-35.026
-35.875
-36.666
-37.393
-38.053
-38.64
-39.15
-39.578
-39.922
-40.177
-40.34
-40.408
-40.379
-40.25
-40.021
-39.69
-39.258
-38.724
-38.089
-37.355
-36.525
-35.601
-34.588
-33.489
-32.31
-31.054
-29.73
-28.343
-26.902
-25.412
-23.885
-22.331
-20.76
-19.184
-17.615
-16.063
-14.541
-13.06
-11.632
-10.266
-8.971
-7.757
-6.634
-5.615
-4.707
-3.919
-3.26
-2.735
-2.354
-2.123
-2.042
-2.111
-2.331
-2.703
-3.232
-3.925
-4.786
-5.811
-6.999
-8.343
-9.839
-11.478
-13.24
-15.099
-17.031
-19.012
-21.028
-23.064
-25.098
-27.103
-29.046
-30.897
-32.635
-34.246
-35.717
-37.034
-38.2
-39.226
-40.141
-40.989
-41.814
-42.651
-43.546
-44.548
-45.707
-47.089
-48.775
-50.804
-53.179
-55.852
-58.7
-61.575
-64.322
-66.746
-68.627
-69.815
-70.238
-69.977
-69.359
-68.746
-68.507
-68.983
-70.35
-72.753
-76.286
-80.618
-85.005
-88.176
-88.292
-84.324
-75.857
-62.905
-46.552
-26.085
0.022
32.136
71.196
115.191
160.013
203.831
244.028
278.142
304.655
318.402
313.67
288.152
241.304
176.715
102.222
24.562
-49.797
-114.165
-165.258
-201.751
-224.023
-235.957
-241.554
-242.772
-240.493
-234.02
-222.403
-206.598
-188.399
-169.661
-152.085
-136.509
-123.382
-113.072
-105.629
-100.843
-98.293
-97.476
-98.073
-99.726
-101.887
-103.978
-105.44
-106.004
-105.77
-104.912
-103.528
-101.734
-99.682
-97.609
-95.87
-94.648
-93.895
-93.502
-93.334
-93.284
-93.298
-93.288
-93.09
-92.602
-91.783
-90.626
-89.193
-87.552
-85.76
-83.879
-81.977
-80.105
-78.32
-76.675
-75.194
-73.891
-72.766
-71.812
-71.033
-70.441
-70.045
-69.85
-69.853
-70.04
-70.393
-70.898
-71.538
-72.299
-73.16
-74.099
-75.097
-76.145
-77.239
-78.375
-79.545
-80.737
-81.94
-83.142
-84.336
-85.512
-86.662
-87.777
-88.846
-89.864
-90.823
-91.719
-92.545
-93.296
-93.964
-94.542
-95.026
-95.412
-95.698
-95.881
-95.959
-95.931
-95.799
-95.565
-95.229
-94.796
-94.268
-93.649
-92.945
-92.16
-91.3
-90.372
-89.384
-88.344
-87.259
-86.138
-84.992
-83.83
-82.662
-81.499
-80.351
-79.228
-78.142
-77.103
-76.122
-75.21
-74.375
-73.628
-72.978
-72.435
-72.007
-71.701
-71.526
-71.489
-71.594
-71.849
-72.257
-72.823
-73.551
-74.443
-75.5
-76.725
-78.118
-79.679
-81.406
-83.298
-85.352
-87.563
-89.929
-92.444
-95.101
-97.896
-100.82
-103.866
-107.025
-110.289
-113.649
-117.095
-120.617
-124.205
-127.85
-131.54
-135.266
-139.018
-142.785
-146.557
-150.325
-154.08
-157.811
-161.51
-165.169
-168.778
-172.329
-175.816
-179.23
-182.565
-185.814
-188.972
-192.032
-194.989
-197.839
-200.576
-203.197
-205.698
-208.076
-210.327
-212.45
-214.442
-216.3
-218.022
-219.607
-221.053
-222.359
-223.521
-224.539
-225.411
-226.135
-226.709
-227.131
-227.399
-227.511
-227.465
-227.258
-226.889
-226.355
-225.654
-224.783
-223.742
-222.528
-221.14
-219.576
-217.836
-215.917
-213.821
-211.547
-209.095
-206.467
-203.662
-200.683
-197.531
-194.21
-190.723
-187.074
-183.266
-179.306
-175.2
-170.953
-166.573
-162.068
-157.446
-152.716
-147.888
-142.971
-137.978
-132.918
-127.803
-122.645
-117.456
-112.248
-107.033
-101.822
-96.628
-91.463
-86.337
-81.262
-76.247
-71.304
-66.441
-61.667
-56.989
-52.417
-47.954
-43.608
-39.382
-35.28
-31.304
-27.457
-23.737
-20.147
-16.683
-13.344
-10.127
-7.028
-4.041
-1.161
1.619
4.305
6.906
9.43
11.886
14.283
16.63
18.937
21.212
23.467
25.709
27.947
30.19
32.446
34.722
37.025
39.36
41.733
44.146
46.603
49.105
51.651
54.241
56.87
59.536
62.235
64.96
67.706
70.465
73.231
75.995
78.75
81.485
84.189
86.849
89.455
91.994
94.453
96.821
99.086
101.234
103.26
105.154
106.907
108.508
109.941
111.192
112.255
113.125
113.797
114.274
114.56
114.662
114.601
114.395
114.061
113.613
113.056
112.399
111.66
110.86
110.028
109.19
108.355
107.532
106.733
105.953
105.179
104.382
103.507
102.51
101.359
100.02
98.468
96.675
94.593
92.19
89.424
86.239
82.637
78.651
74.344
69.88
65.45
61.244
57.519
54.528
52.395
51.203
50.892
51.162
51.733
52.316
52.588
52.402
51.69
50.389
48.728
47.316
47.189
49.884
56.695
68.166
83.622
101.595
121.441
143.698
170.495
204.236
244.982
290.644
337.208
379.956
415.466
440.781
453.083
449.389
426.592
383.637
321.343
243.816
158.877
74.831
1.473
-53.43
-88.2
-104.322
-107.674
-105.579
-100.942
-94.472
-85.115
-70.718
-51.888
-30.762
-9.224
10.628
27.577
41.385
51.905
59.341
64.298
67.354
68.879
69.336
69.313
69.393
70.21
72.084
74.886
78.374
82.354
86.605
90.891
94.912
98.272
100.791
102.519
103.593
104.207
104.514
104.616
104.657
104.831
105.265
106.024
107.133
108.554
110.258
112.227
114.408
116.729
119.1
121.437
123.669
125.745
127.63
129.298
130.734
131.924
132.865
133.551
133.972
134.128
134.013
133.632
132.998
132.131
131.064
129.835
128.476
127.018
125.485
123.897
122.27
120.619
118.952
117.28
115.615
113.97
112.362
110.806
109.315
107.9
106.571
105.336
104.203
103.179
102.272
101.486
100.83
100.311
99.935
99.71
99.639
99.725
99.971
100.375
100.936
101.652
102.518
103.528
104.678
105.96
107.368
108.893
110.527
112.26
114.082
115.982
117.95
119.973
122.039
124.136
126.25
128.368
130.478
132.566
134.618
136.623
138.566
140.435
142.219
143.904
145.479
146.933
148.256
149.437
150.467
151.337
152.04
152.569
152.917
153.082
153.057
152.84
152.428
151.821
151.017
150.017
148.822
147.434
145.857
144.094
142.15
140.032
137.745
135.297
132.695
129.95
127.07
124.064
120.944
117.721
114.406
111.01
107.546
104.026
100.463
96.868
93.255
89.634
86.019
82.42
78.85
75.318
71.836
68.412
65.057
61.779
58.586
55.486
52.483
49.586
46.798
44.123
41.566
39.129
36.813
34.62
32.551
30.604
28.779
27.074
25.487
24.014
22.653
21.4
20.249
19.196
18.236
17.363
16.573
15.858
15.215
14.635
14.115
13.647
13.227
12.848
12.507
12.196
11.912
11.651
11.407
11.177
10.956
10.743
10.532
10.322
10.11
9.893
9.67
9.439
9.198
8.945
8.68
8.402
8.109
7.801
7.477
7.137
6.78
6.404
6.011
5.599
5.168
4.716
4.245
3.752
3.237
2.7
2.14
1.556
0.949
0.317
-0.339
-1.02
-1.725
-2.455
-3.207
-3.982
-4.779
-5.596
-6.43
-7.281
-8.145
-9.02
-9.901
-10.785
-11.668
-12.545
-13.41
-14.258
-15.084
-15.88
-16.642
-17.36
-18.03
-18.643
-19.193
-19.672
-20.072
-20.387
-20.608
-20.73
-20.747
-20.651
-20.438
-20.103
-19.641
-19.049
-18.325
-17.467
-16.473
-15.343
-14.079
-12.683
-11.158
-9.509
-7.741
-5.861
-3.88
-1.806
0.35
2.575
4.858
7.185
9.541
11.913
14.288
16.651
18.988
21.284
23.522
25.686
27.761
29.731
31.583
33.301
34.872
36.284
37.531
38.605
39.498
40.202
40.701
40.986
41.054
40.901
40.53
39.946
39.156
38.176
37.033
35.75
34.35
32.853
31.269
29.616
27.918
26.2
24.496
22.833
21.221
19.681
18.227
16.853
15.548
14.276
12.978
11.619
10.167
8.581
6.838
4.89
2.69
0.222
-2.552
-5.677
-9.158
-12.979
-17.055
-21.171
-25.111
-28.69
-31.677
-33.844
-35.026
-35.117
-34.263
-32.865
-31.313
-29.876
-28.798
-28.374
-28.842
-30.276
-31.928
-32.27
-29.969
-24.234
-15.608
-5.259
6.974
22.594
44.442
75.213
114.824
160.792
209.067
255.552
297.635
332.839
358.194
369.131
360.367
329.439
276.853
207.406
129.339
50.411
-22.044
-82.433
-128.257
-159.241
-177.34
-186.067
-188.904
-187.471
-182.039
-172.501
-158.508
-141.098
-122.256
-103.618
-86.807
-72.97
-62.473
-55.212
-50.721
-48.328
-47.363
-47.355
-47.829
-48.07
-47.426
-45.606
-42.611
-38.716
-34.341
-29.78
-25.31
-21.369
-18.411
-16.711
-16.358
-17.256
-19.178
-21.921
-25.313
-29.127
-33.111
-37.048
-40.783
-44.225
-47.331
-50.077
-52.429
-54.364
-55.882
-56.983
-57.68
-58.002
-57.98
-57.653
-57.067
-56.268
-55.311
-54.268
-53.195
-52.136
-51.132
-50.201
-49.361
-48.632
-48.022
-47.529
-47.149
-46.866
-46.667
-46.542
-46.477
-46.452
-46.447
-46.431
-46.384
-46.294
-46.149
-45.944
-45.676
-45.34
-44.936
-44.471
-43.95
-43.376
-42.753
-42.081
-41.36
-40.598
-39.798
-38.966
-38.107
-37.222
-36.314
-35.387
-34.441
-33.479
-32.501
-31.507
-30.496
-29.472
-28.435
-27.39
-26.338
-25.283
-24.228
-23.176
-22.131
-21.096
-20.073
-19.065
-18.075
-17.106
-16.161
-15.242
-14.354
-13.499
-12.68
-11.903
-11.17
-10.484
-9.851
-9.272
-8.753
-8.296
-7.906
-7.586
-7.341
-7.173
-7.087
-7.085
-7.171
-7.347
-7.615
-7.977
-8.435
-8.99
-9.642
-10.392
-11.24
-12.186
-13.229
-14.368
-15.601
-16.926
-18.341
-19.843
-21.428
-23.092
-24.831
-26.639
-28.511
-30.44
-32.421
-34.446
-36.508
-38.6
-40.713
-42.841
-44.973
-47.103
-49.222
-51.32
-53.391
-55.425
-57.415
-59.353
-61.232
-63.044
-64.782
-66.44
-68.012
-69.491
-70.873
-72.153
-73.326
-74.389
-75.339
-76.172
-76.887
-77.482
-77.957
-78.312
-78.546
-78.662
-78.659
-78.542
-78.312
-77.972
-77.527
-76.98
-76.336
-75.6
-74.777
-73.872
-72.89
-71.839
-70.723
-69.549
-68.322
-67.05
-65.737
-64.391
-63.017
-61.621
-60.21
-58.789
-57.365
-55.942
-54.526
-53.123
-51.737
-50.373
-49.035
-47.727
-46.454
-45.219
-44.024
-42.874
-41.77
-40.715
-39.711
-38.76
-37.863
-37.022
-36.237
-35.509
-34.839
-34.227
-33.672
-33.176
-32.738
-32.356
-32.031
-31.76
-31.544
-31.379
-31.265
-31.198
-31.177
-31.199
-31.26
-31.359
-31.492
-31.655
-31.845
-32.058
-32.29
-32.538
-32.797
-33.063
-33.33
-33.595
-33.852
-34.096
-34.324
-34.53
-34.709
-34.857
-34.968
-35.039
-35.064
-35.039
-34.959
-34.821
-34.62
-34.353
-34.017
-33.609
-33.129
-32.573
-31.942
-31.234
-30.451
-29.592
-28.658
-27.651
-26.574
-25.429
-24.221
-22.952
-21.63
-20.26
-18.85
-17.408
-15.942
-14.462
-12.975
-11.492
-10.022
-8.572
-7.151
-5.766
-4.426
-3.14
-1.918
-0.767
0.305
1.291
2.183
2.975
3.663
4.244
4.718
5.084
5.336
5.469
5.475
5.346
5.085
4.69
4.164
3.512
2.743
1.872
0.926
-0.071
-1.103
-2.15
-3.2
-4.238
-5.235
-6.171
-7.017
-7.75
-8.363
-8.848
-9.2
-9.427
-9.544
-9.58
-9.602
-9.673
-9.847
-10.187
-10.731
-11.531
-12.669
-14.182
-16.074
-18.309
-20.758
-23.282
-25.768
-28.048
-29.934
-31.307
-32.058
-32.231
-32.132
-32.049
-32.293
-33.188
-34.883
-37.5
-41.152
-45.569
-50.071
-53.497
-54.121
-50.545
-42.135
-29.53
-14.216
3.049
22.621
47.104
79.323
120.047
167.835
217.294
262.017
296.166
314.771
316.045
299.177
265.301
217.065
156.499
87.424
13.427
-61.099
-129.245
-185.298
-224.666
-246.035
-252.833
-249.978
-242.44
-233.065
-222.27
-209.589
-194.46
-177.637
-160.454
-144.192
-130.215
-119.018
-110.453
-104.208
-99.619
-96.078
-93.38
-91.259
-89.279
-87.064
-84.187
-80.449
-76.025
-71.154
-66.014
-60.841
-55.877
-51.385
-47.723
-45.064
-43.348
-42.449
-42.163
-42.285
-42.685
-43.209
-43.673
-43.977
-44.069
-43.925
-43.561
-42.966
-42.11
-41.001
-39.651
-38.078
-36.324
-34.437
-32.476
-30.526
-28.644
-26.867
-25.223
-23.714
-22.347
-21.127
-20.052
-19.122
-18.34
-17.703
-17.21
-16.861
-16.641
-16.527
-16.488
-16.477
-16.463
-16.42
-16.33
-16.178
-15.958
-15.658
-15.276
-14.814
-14.27
-13.639
-12.919
-12.101
-11.184
-10.169
-9.059
-7.86
-6.58
-5.223
-3.797
-2.306
-0.758
0.842
2.49
4.182
5.915
7.681
9.474
11.285
13.107
14.931
16.748
18.549
20.326
22.07
23.775
25.432
27.035
28.578
30.055
31.461
32.79
34.038
35.2
36.273
37.253
38.138
38.925
39.614
40.204
40.693
41.083
41.375
41.569
41.667
41.671
41.582
41.404
41.138
40.788
40.358
39.85
39.268
38.618
37.902
37.125
36.292
35.405
34.468
33.486
32.461
31.397
30.297
29.163
28
26.808
25.592
24.353
23.093
21.815
20.521
19.211
17.888
16.553
15.207
13.852
12.488
11.116
9.738
8.354
6.965
5.572
4.176
2.776
1.376
-0.026
-1.428
-2.829
-4.227
-5.62
-7.008
-8.388
-9.758
-11.115
-12.458
-13.783
-15.087
-16.368
-17.622
-18.847
-20.039
-21.194
-22.31
-23.382
-24.407
-25.382
-26.304
-27.168
-27.973
-28.715
-29.39
-29.997
-30.533
-30.995
-31.382
-31.691
-31.922
-32.073
-32.144
-32.135
-32.047
-31.88
-31.636
-31.317
-30.926
-30.466
-29.939
-29.35
-28.704
-28.005
-27.258
-26.47
-25.644
-24.789
-23.91
-23.013
-22.106
-21.195
-20.287
-19.389
-18.506
-17.647
-16.817
-16.023
-15.272
-14.568
-13.918
-13.327
-12.8
-12.341
-11.953
-11.64
-11.404
-11.246
-11.169
-11.171
-11.254
-11.415
-11.655
-11.97
-12.358
-12.815
-13.338
-13.922
-14.561
-15.251
-15.986
-16.758
-17.562
-18.39
-19.236
-20.093
-20.953
-21.81
-22.656
-23.483
-24.284
-25.053
-25.782
-26.464
-27.094
-27.667
-28.176
-28.618
-28.989
-29.285
-29.505
-29.646
-29.707
-29.688
-29.589
-29.411
-29.156
-28.825
-28.423
-27.952
-27.42
-26.831
-26.194
-25.516
-24.803
-24.064
-23.307
-22.54
-21.769
-21
-20.241
-19.497
-18.778
-18.089
-17.439
-16.831
-16.273
-15.77
-15.326
-14.945
-14.627
-14.37
-14.176
-14.048
-13.99
-14.01
-14.113
-14.297
-14.563
-14.91
-15.332
-15.821
-16.365
-16.938
-17.521
-18.098
-18.652
-19.174
-19.648
-20.05
-20.359
-20.551
-20.605
-20.513
-20.273
-19.878
-19.337
-18.665
-17.891
-17.073
-16.272
-15.541
-14.942
-14.521
-14.331
-14.462
-14.96
-15.843
-17.083
-18.556
-20.117
-21.646
-22.98
-23.93
-24.376
-24.21
-23.491
-22.55
-21.731
-21.405
-21.931
-23.477
-26.226
-30.337
-35.481
-40.907
-45.391
-47.077
-44.839
-38.193
-27.071
-12.414
6.11
29.562
58.734
94.872
137.128
183.001
229.61
272.681
307.441
329.333
334.058
318.682
283.841
232.516
168.452
97.209
23.488
-48.362
-112.1
-163.311
-199.923
-221.836
-232.796
-237.1
-236.772
-232.605
-223.873
-209.578
-190.644
-168.963
-146.564
-125.522
-107.139
-92.108
-80.914
-73.554
-69.672
-68.761
-70.175
-73.179
-76.944
-80.574
-83.224
-84.418
-84.06
-82.254
-79.24
-75.314
-70.825
-66.233
-62.041
-58.526
-55.735
-53.597
-51.942
-50.619
-49.52
-48.484
-47.328
-45.95
-44.328
-42.489
-40.511
-38.448
-36.324
-34.175
-32.036
-29.94
-27.919
-25.994
-24.18
-22.485
-20.917
-19.477
-18.168
-16.984
-15.916
-14.947
-14.06
-13.24
-12.478
-11.767
-11.1
-10.466
-9.853
-9.248
-8.639
-8.015
-7.366
-6.681
-5.95
-5.166
-4.324
-3.418
-2.448
-1.41
-0.298
0.89
2.161
3.516
4.957
6.488
8.109
9.82
11.621
13.509
15.481
17.535
19.666
21.872
24.147
26.487
28.886
31.341
33.844
36.39
38.973
41.585
44.22
46.872
49.532
52.194
54.85
57.494
60.117
62.713
65.274
67.794
70.265
72.68
75.033
77.316
79.524
81.65
83.688
85.633
87.48
89.225
90.863
92.393
93.81
95.112
96.298
97.366
98.314
99.144
99.854
100.445
100.918
101.275
101.518
101.648
101.669
101.585
101.398
101.113
100.734
100.266
99.715
99.085
98.384
97.617
96.792
95.915
94.994
94.037
93.051
92.045
91.024
89.999
88.975
87.96
86.963
85.989
85.045
84.138
83.275
82.46
81.699
80.997
80.359
79.788
79.289
78.864
78.516
78.247
78.06
77.956
77.936
77.999
78.147
78.378
78.691
79.085
79.556
80.102
80.72
81.406
82.156
82.964
83.828
84.741
85.698
86.694
87.723
88.78
89.859
90.954
92.061
93.172
94.284
95.391
96.487
97.568
98.628
99.664
100.669
101.641
102.573
103.463
104.306
105.098
105.836
106.518
107.139
107.698
108.193
108.621
108.982
109.275
109.497
109.651
109.734
109.749
109.694
109.572
109.382
109.127
108.809
108.428
107.987
107.488
106.932
106.324
105.664
104.956
104.204
103.41
102.577
101.711
100.815
99.893
98.95
97.991
97.021
96.045
95.069
94.097
93.136
92.192
91.269
90.375
89.515
88.694
87.918
87.193
86.523
85.914
85.37
84.897
84.499
84.179
83.943
83.793
83.735
83.77
83.901
84.13
84.46
84.892
85.426
86.061
86.798
87.634
88.567
89.595
90.713
91.917
93.199
94.555
95.977
97.455
98.981
100.544
102.133
103.738
105.346
106.947
108.527
110.077
111.583
113.036
114.425
115.737
116.962
118.085
119.097
119.986
120.741
121.353
121.812
122.109
122.243
122.209
122.003
121.622
121.056
120.303
119.363
118.241
116.938
115.465
113.831
112.056
110.165
108.183
106.133
104.031
101.887
99.715
97.536
95.375
93.256
91.197
89.206
87.292
85.472
83.747
82.105
80.512
78.914
77.273
75.572
73.797
71.931
69.948
67.804
65.465
62.917
60.143
57.126
53.861
50.363
46.733
43.178
39.946
37.274
35.363
34.402
34.517
35.745
37.925
40.669
43.476
45.908
47.649
48.384
47.876
46.148
43.598
41.348
41.069
44.184
51.575
63.021
77.65
95.067
115.41
140.421
171.868
210.062
254.322
301.073
345.356
381.987
404.948
409.381
392.309
353.482
295.887
225.272
148.669
72.613
2.984
-55.885
-101.365
-132.826
-151.818
-161.136
-164.142
-162.645
-157.063
-147.614
-134.095
-117.447
-99.51
-81.759
-65.663
-52.301
-42.055
-34.861
-30.336
-27.894
-26.921
-26.997
-27.696
-28.361
-28.374
-27.436
-25.513
-22.822
-19.721
-16.456
-13.236
-10.403
-8.303
-7.108
-6.81
-7.265
-8.237
-9.535
-11.03
-12.559
-13.945
-15.073
-15.878
-16.333
-16.452
-16.246
-15.715
-14.888
-13.818
-12.569
-11.224
-9.86
-8.537
-7.314
-6.233
-5.319
-4.591
-4.055
-3.711
-3.563
-3.62
-3.882
-4.353
-5.032
-5.903
-6.945
-8.126
-9.41
-10.765
-12.162
-13.576
-14.989
-16.386
-17.756
-19.094
-20.392
-21.639
-22.826
-23.937
-24.961
-25.888
-26.708
-27.415
-28.004
-28.468
-28.804
-29.007
-29.072
-28.995
-28.77
-28.392
-27.857
-27.16
-26.302
-25.281
-24.1
-22.76
-21.265
-19.621
-17.832
-15.905
-13.847
-11.666
-9.369
-6.966
-4.468
-1.885
0.77
3.485
6.246
9.041
11.856
14.676
17.488
20.276
23.026
25.724
28.355
30.902
33.352
35.69
37.9
39.97
41.886
43.633
45.201
46.578
47.752
48.715
49.458
49.972
50.249
50.285
50.072
49.609
48.892
47.92
46.693
45.216
43.494
41.531
39.333
36.908
34.262
31.403
28.34
25.08
21.634
18.012
14.228
10.299
6.242
2.077
-2.178
-6.503
-10.879
-15.287
-19.709
-24.127
-28.525
-32.885
-37.187
-41.406
-45.523
-49.522
-53.392
-57.125
-60.714
-64.158
-67.464
-70.647
-73.722
-76.691
-79.557
-82.316
-84.972
-87.53
-89.989
-92.335
-94.548
-96.608
-98.499
-100.222
-101.761
-103.053
-104.079
-104.84
-105.337
-105.622
-105.685
-105.419
-104.787
-103.836
-102.518
-100.758
-98.487
-95.551
-92.017
-88.21
-84.332
-80.495
-76.917
-73.838
-71.549
-70.454
-70.616
-71.735
-73.643
-76.253
-79.442
-83.12
-87.057
-90.875
-94.455
-97.96
-101.464
-104.981
-108.479
-111.809
-114.92
-117.894
-120.702
-123.198
-125.254
-126.737
-127.563
-127.775
-127.419
-126.5
-125.059
-123.15
-120.842
-118.256
-115.489
-112.604
-109.651
-106.661
-103.661
-100.707
-97.853
-95.146
-92.641
-90.359
-88.302
-86.485
-84.902
-83.537
-82.363
-81.322
-80.364
-79.462
-78.6
-77.774
-76.985
-76.216
-75.455
-74.695
-73.922
-73.126
-72.302
-71.437
-70.53
-69.586
-68.619
-67.652
-66.707
-65.792
-64.913
-64.068
-63.254
-62.467
-61.704
-60.953
-60.207
-59.462
-58.714
-57.964
-57.21
-56.447
-55.669
-54.872
-54.047
-53.191
-52.302
-51.375
-50.412
-49.411
-48.374
-47.304
-46.206
-45.085
-43.944
-42.786
-41.615
-40.437
-39.257
-38.078
-36.905
-35.741
-34.59
-33.458
-32.353
-31.284
-30.265
-29.308
-28.421
-27.614
-26.894
-26.265
-25.73
-25.285
-24.919
-24.625
-24.394
-24.219
-24.099
-24.028
-24
-24.009
-24.042
-24.086
-24.142
-24.216
-24.314
-24.453
-24.644
-24.913
-25.317
-25.915
-26.767
-27.936
-29.462
-31.39
-33.783
-36.671
-40.063
-43.927
-48.14
-52.56
-57.061
-61.491
-65.695
-69.566
-73.019
-76.086
-79.007
-82.073
-85.587
-89.843
-95.023
-101.263
-108.639
-116.881
-125.368
-133.01
-138.208
-139.94
-137.633
-131.238
-121.647
-108.594
-91.239
-69.085
-41.113
-8.003
28.137
65.115
99.369
126.183
140.65
138.211
115.774
74.296
17.778
-49.334
-121.329
-193.486
-262.094
-321.595
-367.331
-396.587
-408.068
-404.415
-390.613
-371.237
-351.441
-334.568
-320.949
-310.003
-299.272
-286.637
-272.469
-258.175
-246.081
-237.825
-233.275
-231.489
-231.317
-231.887
-232.628
-233.04
-232.615
-231.013
-228.217
-224.389
-219.697
-214.338
-208.567
-202.715
-197.21
-192.308
-188.032
-184.303
-180.97
-177.916
-175.069
-172.318
-169.513
-166.566
-163.459
-160.221
-156.931
-153.647
-150.398
-147.215
-144.133
-141.188
-138.416
-135.845
-133.498
-131.389
-129.531
-127.932
-126.6
-125.538
-124.745
-124.21
-123.92
-123.863
-124.035
-124.429
-125.042
-125.865
-126.886
-128.094
-129.478
-131.028
-132.733
-134.582
-136.563
-138.665
-140.879
-143.198
-145.613
-148.114
-150.691
-153.332
-156.025
-158.758
-161.519
-164.296
-167.075
-169.845
-172.594
-175.31
-177.983
-180.599
-183.147
-185.614
-187.99
-190.261
-192.415
-194.441
-196.327
-198.061
-199.631
-201.026
-202.236
-203.249
-204.056
-204.645
-205.009
-205.138
-205.024
-204.659
-204.036
-203.148
-201.992
-200.561
-198.852
-196.862
-194.59
-192.035
-189.196
-186.075
-182.673
-178.994
-175.041
-170.819
-166.335
-161.593
-156.603
-151.372
-145.911
-140.23
-134.34
-128.252
-121.981
-115.539
-108.941
-102.201
-95.335
-88.358
-81.287
-74.138
-66.928
-59.674
-52.393
-45.101
-37.816
-30.554
-23.331
-16.164
-9.068
-2.058
4.851
11.645
18.311
24.836
31.208
37.415
43.446
49.292
54.944
60.392
65.629
70.648
75.442
80.007
84.337
88.428
92.277
95.882
99.24
102.351
105.214
107.83
110.2
112.324
114.206
115.848
117.253
118.424
119.365
120.082
120.577
120.856
120.924
120.786
120.447
119.913
119.189
118.281
117.195
115.936
114.511
112.927
111.188
109.302
107.275
105.114
102.826
100.416
97.891
95.259
92.526
89.699
86.785
83.789
80.719
77.581
74.383
71.13
67.829
64.486
61.108
57.701
54.271
50.826
47.371
43.914
40.461
37.019
33.595
30.196
26.829
23.5
20.215
16.98
13.802
10.687
7.641
4.671
1.783
-1.017
-3.725
-6.334
-8.84
-11.239
-13.527
-15.703
-17.763
-19.704
-21.522
-23.211
-24.769
-26.194
-27.489
-28.652
-29.686
-30.589
-31.364
-32.012
-32.536
-32.937
-33.213
-33.361
-33.382
-33.276
-33.05
-32.713
-32.272
-31.719
-31.044
-30.232
-29.277
-28.19
-26.991
-25.683
-24.262
-22.734
-21.123
-19.475
-17.818
-16.109
-14.246
-12.149
-9.821
-7.296
-4.623
-1.877
0.894
3.581
5.812
7.666
9.375
10.576
11.389
11.059
8.592
5.381
2.532
1.652
4.619
9.788
15.523
20.666
23.612
25.239
26.385
26.969
27.424
27.463
26.893
26.047
25.001
23.852
22.753
21.776
20.993
20.422
19.975
19.557
19.134
18.724
18.374
18.107
17.933
17.856
17.904
18.114
18.511
19.104
19.861
20.739
21.709
22.73
23.736
24.64
25.288
25.525
25.307
24.625
23.475
21.938
20.122
18.224
16.667
15.904
16.18
17.641
20.335
24.162
29.038
34.707
40.532
45.784
49.86
52.33
53.041
51.91
49.175
45.828
43.098
42.436
44.634
48.734
54.197
62.069
74.654
96.658
132.4
182.283
244.767
316.087
390.014
461.941
527.185
579.357
614.433
629.488
622.788
597.178
556.106
502.022
438.326
367.701
293.866
223.87
164.962
121.857
95.928
83.64
79.038
78.328
80.032
84.988
94.971
109.636
127.284
145.79
162.997
177.975
190.324
199.682
206.301
210.606
213.065
214.345
214.852
214.839
214.834
215.391
216.766
219.016
221.976
225.337
228.909
232.535
235.905
238.667
240.621
241.705
241.998
241.687
240.929
239.865
238.672
237.532
236.563
235.816
235.294
234.954
234.756
234.673
234.666
234.693
234.723
234.729
234.685
234.569
234.349
233.989
233.464
232.759
231.869
230.795
229.543
228.121
226.547
224.841
223.018
221.091
219.074
216.977
214.816
212.607
210.368
208.116
205.865
203.63
201.423
199.256
197.137
195.073
193.068
191.128
189.256
187.459
185.739
184.103
182.552
181.088
179.713
178.426
177.227
176.113
175.079
174.121
173.233
172.409
171.642
170.925
170.248
169.603
168.98
168.37
167.763
167.148
166.514
165.852
165.15
164.399
163.59
162.711
161.756
160.715
159.581
158.346
157.004
155.55
153.978
152.283
150.462
148.511
146.429
144.213
141.862
139.377
136.757
134.005
131.122
128.109
124.972
121.712
118.335
114.844
111.245
107.543
103.742
99.849
95.87
91.809
87.673
83.467
79.196
74.866
70.482
66.049
61.57
57.051
52.495
47.907
43.289
38.645
33.979
29.294
24.593
19.879
15.155
10.425
5.692
0.958
-3.773
-8.498
-13.213
-17.915
-22.601
-27.267
-31.91
-36.525
-41.109
-45.657
-50.165
-54.63
-59.045
-63.406
-67.708
-71.946
-76.114
-80.206
-84.217
-88.142
-91.973
-95.706
-99.334
-102.852
-106.254
-109.536
-112.693
-115.72
-118.615
-121.373
-123.992
-126.469
-128.803
-130.994
-133.039
-134.94
-136.697
-138.312
-139.787
-141.123
-142.326
-143.397
-144.342
-145.164
-145.87
-146.464
-146.953
-147.342
-147.64
-147.852
-147.986
-148.05
-148.051
-147.997
-147.896
-147.755
-147.581
-147.381
-147.162
-146.929
-146.689
-146.447
-146.208
-145.977
-145.757
-145.552
-145.363
-145.192
-145.041
-144.91
-144.797
-144.702
-144.623
-144.558
-144.504
-144.459
-144.419
-144.38
-144.34
-144.292
-144.232
-144.154
-144.053
-143.923
-143.758
-143.552
-143.3
-142.997
-142.636
-142.215
-141.726
-141.168
-140.535
-139.823
-139.029
-138.15
-137.182
-136.125
-134.978
-133.741
-132.416
-131.005
-129.511
-127.941
-126.297
-124.585
-122.809
-120.976
-119.091
-117.161
-115.192
-113.189
-111.16
-109.116
-107.067
-105.026
-103.004
-101.015
-99.071
-97.187
-95.373
-93.644
-92.009
-90.476
-89.058
-87.766
-86.615
-85.625
-84.808
-84.172
-83.726
-83.472
-83.407
-83.522
-83.799
-84.215
-84.758
-85.42
-86.199
-87.103
-88.137
-89.306
-90.615
-92.059
-93.63
-95.328
-97.143
-99.07
-101.122
-103.315
-105.69
-108.299
-111.168
-114.306
-117.708
-121.337
-125.144
-129.068
-133.024
-136.946
-140.775
-144.454
-147.939
-151.189
-154.138
-156.724
-158.859
-160.424
-161.337
-161.528
-160.946
-159.598
-157.526
-154.806
-151.564
-147.917
-143.943
-139.738
-135.407
-131.021
-126.637
-122.227
-117.682
-112.945
-108.008
-102.838
-97.353
-91.484
-85.212
-78.745
-72.593
-67.281
-63.199
-60.73
-60.266
-62.067
-66.201
-71.859
-77.189
-80.377
-80.152
-76.647
-70.847
-62.841
-51.363
-33.093
-4.943
33.991
82.354
134.843
185.368
228.385
257.957
271.283
266.43
241.973
199.811
141.78
71.049
-6.704
-85.855
-159.2
-219.21
-261.182
-283.978
-290.525
-286.73
-278.401
-268.35
-256.715
-242.31
-223.775
-201.66
-177.888
-154.199
-132.133
-112.672
-96.073
-82.435
-71.842
-64.049
-58.633
-55.419
-54.145
-54.214
-55.175
-56.598
-58.059
-59.592
-61.296
-62.937
-64.319
-65.472
-66.408
-67.229
-67.956
-68.255
-67.895
-66.993
-65.8
-64.488
-63.111
-61.593
-59.924
-58.322
-56.962
-55.815
-54.7
-53.471
-52.12
-50.732
-49.427
-48.238
-47.128
-46.105
-45.223
-44.461
-43.778
-43.178
-42.606
-42.026
-41.533
-41.212
-41.181
-41.685
-42.846
-44.571
-46.75
-49.161
-51.333
-52.822
-53.138
-51.663
-47.998
-42.024
-33.675
-23.133
-10.966
2.204
15.66
28.623
40.567
51.135
59.961
66.864
72.014
75.748
78.58
80.99
83.235
85.516
88.084
91.173
94.867
99.062
103.48
107.903
112.26
116.526
120.668
124.599
128.243
131.624
134.851
138.014
141.139
144.204
147.165
150.001
152.708
155.269
157.656
159.84
161.804
163.55
165.099
166.468
167.678
168.738
169.654
170.436
171.091
171.632
172.067
172.405
172.653
172.816
172.898
172.905
172.84
172.704
172.497
172.217
171.862
171.431
170.926
170.349
169.701
168.982
168.192
167.332
166.404
165.408
164.344
163.213
162.012
160.743
159.406
158.001
156.528
154.989
153.384
151.715
149.984
148.193
146.345
144.443
142.492
140.495
138.457
136.383
134.277
132.147
129.996
127.831
125.656
123.478
121.302
119.133
116.977
114.838
112.722
110.632
108.573
106.55
104.566
102.626
100.732
98.889
97.098
95.363
93.685
92.067
90.51
89.014
87.58
86.208
84.899
83.65
82.461
81.331
80.258
79.24
78.276
77.363
76.499
75.682
74.911
74.182
73.495
72.846
72.235
71.659
71.116
70.605
70.125
69.674
69.251
68.855
68.485
68.14
67.819
67.523
67.25
67.001
66.774
66.571
66.391
66.234
66.101
65.99
65.904
65.84
65.8
65.783
65.788
65.816
65.864
65.933
66.021
66.126
66.247
66.383
66.531
66.689
66.857
67.032
67.212
67.396
67.581
67.766
67.95
68.13
68.306
68.475
68.636
68.789
68.932
69.064
69.187
69.299
69.402
69.496
69.584
69.665
69.744
69.822
69.903
69.989
70.086
70.198
70.328
70.483
70.668
70.888
71.149
71.456
71.815
72.231
72.71
73.255
73.872
74.565
75.338
76.193
77.136
78.166
79.288
80.504
81.813
83.217
84.713
86.297
87.965
89.711
91.528
93.408
95.343
97.324
99.344
101.399
103.482
105.585
107.703
109.827
111.947
114.059
116.153
118.225
120.271
122.285
124.266
126.216
128.131
130.004
131.825
133.576
135.236
136.786
138.208
139.488
140.616
141.579
142.366
142.97
143.387
143.62
143.677
143.56
143.283
142.857
142.312
141.719
141.114
140.494
139.819
138.982
137.891
136.521
134.802
132.623
130.008
127.067
124.029
121.356
119.399
118.318
118.339
119.611
121.977
125.172
128.663
131.481
132.876
132.323
129.138
122.832
113.3
100.504
84.86
67.433
49.064
30.51
12.92
-2.586
-14.632
-21.306
-21.303
-14.424
-1.612
15.352
35.037
57.466
85.075
120.281
163.943
214.845
267.249
314.879
352.555
375.392
382.35
372.632
344.912
300.059
237.921
161.096
76.546
-8.239
-82.972
-139.186
-175.007
-191.918
-196.105
-195.162
-192.084
-187.543
-180.395
-168.459
-152.31
-134.026
-115.44
-98.567
-84.509
-73.438
-65.46
-60.321
-57.402
-56.134
-56.161
-57.07
-58.349
-59.457
-59.778
-59
-57.241
-54.757
-51.769
-48.518
-45.275
-42.382
-40.284
-39.236
-39.245
-40.193
-41.878
-44.096
-46.666
-49.385
-52.009
-54.362
-56.345
-57.884
-58.972
-59.609
-59.781
-59.502
-58.796
-57.684
-56.192
-54.368
-52.259
-49.922
-47.425
-44.809
-42.106
-39.35
-36.566
-33.782
-31.017
-28.272
-25.542
-22.83
-20.136
-17.464
-14.815
-12.18
-9.549
-6.923
-4.299
-1.685
0.906
3.466
5.994
8.481
10.917
13.284
15.56
17.73
19.785
21.716
23.531
25.244
26.885
28.495
30.106
31.787
33.593
35.524
37.542
39.533
41.359
42.958
44.338
45.427
46.181
46.747
47.381
48.432
50.337
52.958
55.512
57.985
60.598
63.86
69.334
76.048
80.965
81.346
73.59
57.392
36.407
13.856
-6.787
-23.821
-38.57
-51.686
-63.268
-73.203
-80.715
-85.778
-89.054
-91.295
-93.113
-94.912
-97.067
-99.803
-103.155
-106.989
-110.939
-114.567
-117.679
-120.202
-122.05
-123.249
-123.833
-123.862
-123.528
-123.061
-122.617
-122.288
-122.119
-122.104
-122.241
-122.54
-122.989
-123.563
-124.229
-124.952
-125.7
-126.438
-127.152
-127.823
-128.43
-128.95
-129.357
-129.633
-129.777
-129.797
-129.699
-129.489
-129.168
-128.741
-128.225
-127.643
-127.016
-126.371
-125.724
-125.088
-124.478
-123.906
-123.379
-122.908
-122.49
-122.122
-121.802
-121.53
-121.306
-121.131
-121.001
-120.91
-120.853
-120.827
-120.827
-120.85
-120.893
-120.953
-121.03
-121.123
-121.231
-121.358
-121.503
-121.664
-121.842
-122.035
-122.24
-122.456
-122.681
-122.913
-123.149
-123.388
-123.627
-123.865
-124.101
-124.333
-124.558
-124.774
-124.981
-125.175
-125.356
-125.52
-125.667
-125.794
-125.9
-125.984
-126.042
-126.074
-126.077
-126.05
-125.988
-125.892
-125.757
-125.582
-125.364
-125.102
-124.794
-124.439
-124.034
-123.579
-123.073
-122.515
-121.904
-121.24
-120.521
-119.747
-118.917
-118.031
-117.089
-116.09
-115.035
-113.923
-112.755
-111.53
-110.249
-108.912
-107.52
-106.072
-104.568
-103.011
-101.399
-99.735
-98.018
-96.25
-94.433
-92.567
-90.653
-88.694
-86.69
-84.642
-82.552
-80.42
-78.248
-76.037
-73.788
-71.503
-69.184
-66.831
-64.448
-62.035
-59.595
-57.128
-54.638
-52.126
-49.595
-47.045
-44.48
-41.903
-39.316
-36.726
-34.135
-31.548
-28.97
-26.404
-23.856
-21.33
-18.828
-16.352
-13.905
-11.488
-9.106
-6.764
-4.463
-2.206
0.004
2.162
4.266
6.314
8.307
10.247
12.134
13.966
15.738
17.441
19.07
20.623
22.098
23.491
24.806
26.046
27.221
28.35
29.448
30.529
31.601
32.672
33.754
34.86
36.007
37.209
38.48
39.827
41.247
42.737
44.279
45.847
47.413
48.925
50.329
51.571
52.586
53.315
53.719
53.742
53.312
52.397
50.995
49.157
47.052
44.863
42.725
40.804
39.293
38.33
37.986
38.156
38.465
38.48
37.908
36.565
34.227
30.734
26.17
20.936
16.245
13.938
14.967
19.771
28.314
39.455
54.067
73.935
99.601
132.284
170.197
209.334
247.908
283.093
312.317
334.326
344.57
338.253
313.753
270.18
210.103
140.614
67.929
-0.565
-56.736
-97.883
-123.913
-137.954
-146.329
-151.747
-153.944
-150.528
-139.305
-122.049
-102.586
-85.705
-73.494
-64.158
-55.72
-46.177
-35.337
-25.172
-16.663
-10.265
-5.993
-2.894
-0.393
1.911
4.552
7.603
10.943
14.451
17.943
21.253
24.233
26.577
27.867
27.868
26.524
23.889
20.107
15.271
9.444
2.757
-4.597
-12.44
-20.62
-29.032
-37.598
-46.22
-54.802
-63.268
-71.553
-79.617
-87.409
-94.867
-101.928
-108.497
-114.468
-119.741
-124.214
-127.815
-130.52
-132.31
-133.195
-133.213
-132.387
-130.753
-128.36
-125.244
-121.449
-117.039
-112.077
-106.655
-100.903
-94.938
-88.885
-82.852
-76.905
-71.107
-65.501
-60.11
-54.954
-50.042
-45.369
-40.935
-36.744
-32.781
-29.034
-25.47
-22.035
-18.683
-15.374
-12.077
-8.78
-5.479
-2.17
1.134
4.412
7.64
10.788
13.832
16.753
19.525
22.123
24.515
26.664
28.54
30.122
31.393
32.343
32.966
33.256
33.217
32.857
32.186
31.213
29.949
28.401
26.581
24.506
22.191
19.656
16.921
14.006
10.929
7.714
4.38
0.951
-2.551
-6.104
-9.684
-13.267
-16.829
-20.346
-23.795
-27.156
-30.41
-33.54
-36.536
-39.387
-42.084
-44.615
-46.969
-49.131
-51.086
-52.815
-54.289
-55.483
-56.364
-56.899
-57.06
-56.814
-56.133
-55.001
-53.393
-51.292
-48.69
-45.57
-41.931
-37.794
-33.183
-28.141
-22.733
-17.023
-11.116
-5.18
0.632
6.199
11.453
16.433
21.189
25.723
30.124
34.592
39.264
44.178
