Name,Criss Capps
Date of Birth,"Feb 5, 1952"
Recorded Date,2025-03-11 10:14:22 -0400
Classification,Inconclusive
Symptoms,
Software Version,1.90
Device,"Watch5,4"
Sample Rate,512.844 hertz


Lead,Lead I
Unit,µV

-298.91
-348.854
-357.961
-337.886
-309.162
-284.9
-268.488
-253.701
-227.873
-188.733
-143.377
-100.578
-72.56
-61.549
-59.187
-58.574
-51.837
-36.431
-17.576
1.448
18.426
32.462
45.666
58.879
71.577
83.33
93.523
101.971
109.005
114.897
119.774
123.809
127.252
130.305
133.086
135.646
137.951
139.988
141.819
143.503
145.099
146.646
148.145
149.595
150.993
152.303
153.473
154.418
155.029
155.239
155.015
154.341
153.227
151.679
149.694
147.279
144.441
141.186
137.531
133.491
129.084
124.346
119.322
114.074
108.68
103.2
97.68
92.164
86.679
81.257
75.926
70.707
65.616
60.675
55.906
51.333
46.983
42.874
39.021
35.436
32.121
29.082
26.321
23.842
21.644
19.729
18.094
16.738
15.66
14.857
14.322
14.043
14.006
14.199
14.605
15.209
15.993
16.937
18.022
19.227
20.533
21.917
23.359
24.836
26.324
27.801
29.245
30.639
31.961
33.195
34.319
35.308
36.143
36.812
37.308
37.627
37.772
37.745
37.563
37.259
36.862
36.401
35.898
35.363
34.814
34.274
33.773
33.352
33.039
32.848
32.786
32.855
33.044
33.338
33.689
33.996
34.164
34.109
33.777
33.159
32.231
30.944
29.224
26.996
24.219
20.898
17.027
12.554
7.477
1.886
-3.939
-9.501
-14.346
-18.143
-20.562
-21.235
-19.918
-16.565
-11.544
-5.794
-0.116
4.969
8.651
10.273
9.658
6.811
3.858
3.806
7.436
16.44
30.515
48.657
75.933
113.919
162.8
223.806
288.867
354.161
420.894
484.859
545.693
595.702
616.307
595.502
526.778
416.649
289.144
168.627
72.901
8.067
-35.204
-71.1
-109.782
-155.369
-204.27
-248.872
-285.27
-313.019
-334.341
-354.055
-374.558
-395.838
-417.547
-438.46
-457.524
-474.455
-488.563
-498.683
-504.237
-505
-500.916
-492.407
-479.969
-463.986
-445.065
-423.955
-401.197
-377.258
-352.566
-327.402
-302.07
-276.855
-251.948
-227.538
-203.867
-181.211
-159.848
-140.033
-121.934
-105.676
-91.372
-79.081
-68.814
-60.518
-54.069
-49.322
-46.146
-44.448
-44.124
-45.026
-46.967
-49.72
-53.085
-56.899
-60.983
-65.117
-69.122
-72.912
-76.441
-79.728
-82.783
-85.53
-87.955
-90.151
-92.037
-93.307
-93.944
-94.106
-93.799
-93.448
-92.426
-88.742
-82.989
-77.114
-74.315
-80.491
-95.111
-112.228
-125.871
-127.575
-116.921
-101.755
-88.117
-82.597
-86.16
-92.82
-98.917
-101.867
-100.893
-98.353
-95.272
-91.559
-87.282
-82.078
-75.876
-69.031
-61.687
-53.844
-45.562
-36.893
-27.858
-18.474
-8.752
1.314
11.691
22.304
33.107
44.083
55.21
66.477
77.888
89.457
101.218
113.232
125.53
138.115
150.979
164.09
177.412
190.915
204.547
218.243
231.927
245.498
258.854
271.889
284.468
296.436
307.625
317.838
326.912
334.72
341.152
346.126
349.575
351.436
351.686
350.332
347.403
342.957
337.061
329.783
321.22
311.489
300.73
289.122
276.828
263.992
250.764
237.283
223.696
210.157
196.788
183.677
170.896
158.492
146.517
135.032
124.088
113.73
103.985
94.843
86.297
78.34
70.94
64.059
57.631
51.558
45.772
40.232
34.908
29.789
24.853
20.061
15.375
10.752
6.159
1.579
-3.002
-7.6
-12.209
-16.809
-21.352
-25.764
-29.992
-34.007
-37.788
-41.335
-44.642
-47.693
-50.481
-52.998
-55.242
-57.213
-58.912
-60.335
-61.496
-62.417
-63.133
-63.697
-64.149
-64.518
-64.827
-65.091
-65.324
-65.541
-65.75
-65.952
-66.152
-66.353
-66.561
-66.787
-67.033
-67.3
-67.585
-67.88
-68.181
-68.486
-68.791
-69.095
-69.398
-69.7
-70.002
-70.311
-70.629
-70.957
-71.296
-71.644
-72
-72.363
-72.73
-73.098
-73.467
-73.834
-74.198
-74.558
-74.916
-75.269
-75.618
-75.964
-76.307
-76.647
-76.986
-77.325
-77.666
-78.01
-78.361
-78.721
-79.092
-79.477
-79.878
-80.297
-80.735
-81.194
-81.676
-82.18
-82.708
-83.261
-83.84
-84.445
-85.078
-85.741
-86.434
-87.158
-87.915
-88.706
-89.529
-90.386
-91.276
-92.198
-93.152
-94.137
-95.151
-96.193
-97.26
-98.35
-99.46
-100.587
-101.729
-102.881
-104.04
-105.204
-106.37
-107.533
-108.693
-109.845
-110.989
-112.121
-113.24
-114.344
-115.43
-116.497
-117.544
-118.568
-119.567
-120.541
-121.488
-122.408
-123.298
-124.157
-124.986
-125.784
-126.549
-127.282
-127.982
-128.65
-129.287
-129.892
-130.468
-131.015
-131.535
-132.028
-132.496
-132.939
-133.36
-133.757
-134.132
-134.485
-134.816
-135.126
-135.413
-135.68
-135.923
-136.145
-136.343
-136.518
-136.668
-136.793
-136.893
-136.966
-137.012
-137.031
-137.023
-136.987
-136.923
-136.83
-136.71
-136.56
-136.381
-136.173
-135.935
-135.667
-135.369
-135.043
-134.688
-134.305
-133.896
-133.463
-133.007
-132.53
-132.035
-131.524
-131.001
-130.468
-129.93
-129.389
-128.852
-128.321
-127.801
-127.296
-126.812
-126.352
-125.921
-125.523
-125.162
-124.841
-124.565
-124.338
-124.162
-124.041
-123.979
-123.978
-124.041
-124.171
-124.369
-124.636
-124.973
-125.381
-125.86
-126.408
-127.026
-127.71
-128.46
-129.271
-130.141
-131.065
-132.04
-133.058
-134.115
-135.203
-136.316
-137.445
-138.584
-139.723
-140.854
-141.967
-143.056
-144.11
-145.122
-146.081
-146.978
-147.806
-148.554
-149.215
-149.78
-150.241
-150.59
-150.821
-150.926
-150.902
-150.742
-150.441
-149.996
-149.405
-148.665
-147.777
-146.741
-145.556
-144.228
-142.759
-141.156
-139.425
-137.576
-135.616
-133.559
-131.416
-129.202
-126.93
-124.616
-122.275
-119.923
-117.577
-115.251
-112.961
-110.721
-108.549
-106.461
-104.474
-102.605
-100.869
-99.281
-97.857
-96.611
-95.555
-94.692
-94.026
-93.564
-93.311
-93.278
-93.471
-93.887
-94.522
-95.371
-96.424
-97.665
-99.067
-100.588
-102.188
-103.832
-105.494
-107.161
-108.809
-110.409
-111.928
-113.328
-114.585
-115.691
-116.633
-117.385
-117.943
-118.324
-118.59
-118.836
-119.138
-119.543
-120.071
-120.747
-121.621
-122.762
-124.241
-126.103
-128.359
-131.03
-134.198
-137.903
-142.048
-146.37
-150.399
-153.627
-155.707
-156.321
-155.06
-151.656
-146.154
-138.967
-131.02
-123.349
-116.607
-111.334
-108.201
-107.554
-109.13
-112.003
-114.224
-113.459
-108.031
-96.188
-75.735
-44.865
-2.159
51.512
112.036
175.099
236.886
297.522
360.923
425.999
487.439
531.488
538.08
498.972
414.248
295.039
161.565
22.349
-116.9
-251.499
-378.12
-482.181
-550.969
-579.285
-568.787
-531.284
-480.641
-429.155
-384.541
-350.523
-326.327
-305.715
-284.586
-259.969
-232.194
-206.95
-187.347
-174.479
-167.853
-164.433
-162.333
-160.656
-158.487
-155.359
-151.069
-145.619
-139.275
-132.31
-124.995
-117.719
-111.071
-105.877
-102.567
-101.107
-101.305
-102.829
-105.408
-108.844
-112.766
-116.615
-119.972
-122.616
-124.457
-125.56
-125.961
-125.625
-124.575
-122.882
-120.64
-117.957
-114.914
-111.549
-107.91
-104.069
-100.122
-96.204
-92.427
-88.857
-85.535
-82.472
-79.68
-77.174
-74.951
-72.983
-71.231
-69.651
-68.213
-66.894
-65.67
-64.506
-63.355
-62.16
-60.878
-59.483
-57.951
-56.269
-54.423
-52.398
-50.192
-47.811
-45.263
-42.551
-39.677
-36.636
-33.432
-30.069
-26.556
-22.902
-19.111
-15.192
-11.15
-6.995
-2.735
1.621
6.063
10.587
15.182
19.835
24.535
29.268
34.021
38.778
43.525
48.247
52.927
57.55
62.102
66.568
70.934
75.183
79.304
83.282
87.105
90.761
94.238
97.526
100.615
103.495
106.158
108.597
110.804
112.773
114.499
115.976
117.203
118.177
118.896
119.36
119.57
119.526
119.232
118.69
117.904
116.879
115.62
114.133
112.428
110.51
108.39
106.077
103.58
100.91
98.078
95.096
91.974
88.725
85.359
81.89
78.329
74.689
70.983
67.223
63.421
59.591
55.743
51.892
48.047
44.222
40.426
36.673
32.973
29.337
25.775
22.297
18.913
15.631
12.461
9.409
6.483
3.688
1.029
-1.488
-3.86
-6.083
-8.156
-10.076
-11.841
-13.452
-14.908
-16.209
-17.358
-18.356
-19.207
-19.912
-20.476
-20.902
-21.198
-21.366
-21.415
-21.35
-21.18
-20.915
-20.565
-20.142
-19.657
-19.122
-18.547
-17.946
-17.328
-16.701
-16.075
-15.456
-14.853
-14.277
-13.734
-13.235
-12.786
-12.396
-12.073
-11.824
-11.651
-11.552
-11.528
-11.578
-11.709
-11.93
-12.244
-12.653
-13.155
-13.747
-14.417
-15.145
-15.9
-16.638
-17.317
-17.9
-18.356
-18.661
-18.786
-18.697
-18.359
-17.737
-16.811
-15.57
-13.998
-12.091
-9.877
-7.413
-4.791
-2.124
0.495
3.001
5.312
7.34
8.993
10.166
10.77
10.771
10.11
8.703
6.562
3.773
0.573
-2.588
-5.288
-7.182
-7.878
-7.085
-4.757
-0.977
3.814
8.784
13.272
16.701
18.531
18.778
18.037
17.234
17.851
21.763
30.869
47.096
71.98
106.161
147.967
194.918
245.697
297.49
349.431
400.293
442.528
471.182
481.1
467.053
434.006
386.698
329.61
270.409
210.216
149.38
90.172
32.747
-20.764
-67.791
-108.124
-142.536
-172.422
-199.283
-224.227
-247.629
-269.689
-290.983
-311.593
-330.995
-348.544
-363.359
-374.547
-381.822
-385.072
-384.066
-378.89
-369.777
-357.07
-341.454
-323.671
-304.249
-283.659
-262.332
-240.619
-218.913
-197.546
-176.72
-156.61
-137.395
-119.287
-102.525
-87.304
-73.774
-62.036
-52.106
-43.97
-37.584
-32.838
-29.607
-27.742
-27.07
-27.461
-28.801
-30.955
-33.787
-37.135
-40.813
-44.664
-48.534
-52.254
-55.708
-58.813
-61.515
-63.817
-65.736
-67.293
-68.526
-69.466
-70.135
-70.574
-70.818
-70.909
-70.904
-70.855
-70.822
-70.883
-71.089
-71.462
-72.003
-72.684
-73.466
-74.314
-75.176
-75.995
-76.717
-77.286
-77.654
-77.781
-77.619
-77.115
-76.217
-74.863
-73.005
-70.613
-67.662
-64.142
-60.048
-55.376
-50.136
-44.349
-38.032
-31.206
-23.889
-16.1
-7.861
0.797
9.841
19.236
28.944
38.929
49.153
59.575
70.152
80.845
91.611
102.411
113.203
123.942
134.584
145.083
155.394
165.472
175.273
184.753
193.868
202.579
210.847
218.633
225.905
232.628
238.773
244.312
249.221
253.479
257.067
259.97
262.175
263.673
264.458
264.529
263.885
262.532
260.475
257.725
254.296
250.202
245.463
240.1
234.136
227.597
220.512
212.91
204.823
196.285
187.332
178.001
168.329
158.357
148.122
137.667
127.029
116.25
105.37
94.427
83.46
72.506
61.601
50.782
40.08
29.527
19.155
8.99
-0.941
-10.614
-20.006
-29.098
-37.872
-46.312
-54.404
-62.138
-69.502
-76.49
-83.096
-89.316
-95.149
-100.594
-105.654
-110.332
-114.633
-118.563
-122.131
-125.345
-128.215
-130.753
-132.969
-134.876
-136.486
-137.812
-138.867
-139.663
-140.214
-140.532
-140.629
-140.518
-140.211
-139.718
-139.051
-138.219
-137.234
-136.103
-134.837
-133.444
-131.93
-130.305
-128.574
-126.744
-124.821
-122.811
-120.719
-118.549
-116.307
-113.996
-111.62
-109.182
-106.687
-104.137
-101.535
-98.885
-96.189
-93.451
-90.674
-87.861
-85.016
-82.141
-79.24
-76.317
-73.375
-70.417
-67.447
-64.468
-61.484
-58.498
-55.513
-52.532
-49.559
-46.596
-43.647
-40.713
-37.798
-34.902
-32.029
-29.179
-26.354
-23.555
-20.783
-18.037
-15.32
-12.63
-9.968
-7.332
-4.723
-2.138
0.423
2.961
5.48
7.98
10.464
12.933
15.39
17.837
20.275
22.706
25.132
27.555
29.977
32.398
34.821
37.246
39.674
42.107
44.544
46.987
49.434
51.886
54.341
56.8
59.26
61.721
64.182
66.64
69.093
71.54
73.977
76.403
78.814
81.207
83.579
85.927
88.246
90.534
92.787
95.003
97.177
99.306
101.387
103.418
105.394
107.312
109.169
110.962
112.688
114.344
115.928
117.436
118.867
120.219
121.49
122.679
123.784
124.804
125.738
126.586
127.347
128.02
128.607
129.108
129.525
129.859
130.112
130.287
130.385
130.41
130.364
130.25
130.072
129.833
129.537
129.188
128.791
128.351
127.873
127.362
126.825
126.266
125.692
125.107
124.518
123.929
123.346
122.774
122.218
121.683
121.175
120.696
120.252
119.844
119.476
119.15
118.865
118.622
118.42
118.259
118.136
118.051
118.001
117.983
117.994
118.032
118.09
118.165
118.249
118.337
118.42
118.491
118.542
118.564
118.55
118.49
118.377
118.203
117.957
117.632
117.219
116.71
116.097
115.372
114.529
113.564
112.473
111.253
109.904
108.428
106.826
105.101
103.256
101.296
99.224
97.044
94.762
92.383
89.91
87.353
84.723
82.03
79.289
76.517
73.727
70.94
68.172
65.441
62.762
60.15
57.617
55.177
52.849
50.65
48.605
46.729
45.035
43.532
42.224
41.107
40.171
39.39
38.738
38.198
37.761
37.425
37.205
37.107
37.142
37.323
37.643
38.1
38.698
39.424
40.277
41.27
42.424
43.786
45.417
47.344
49.572
52.09
54.845
57.782
60.83
63.893
66.897
69.777
72.466
74.928
77.129
79.005
80.489
81.485
81.862
81.542
80.477
78.634
76.035
72.728
68.782
64.327
59.49
54.37
49.067
43.646
38.151
32.666
27.284
22.105
17.277
12.903
9.05
5.791
3.153
1.103
-0.416
-1.532
-2.409
-3.145
-3.84
-4.597
-5.488
-6.634
-8.162
-10.153
-12.752
-16.123
-20.321
-25.349
-31.052
-37.035
-42.88
-48.19
-52.449
-55.162
-56.032
-54.961
-52.319
-48.926
-45.648
-43.265
-42.486
-43.943
-47.947
-54.261
-61.77
-68.548
-72.246
-70.36
-60.617
-40.846
-9.116
35.732
93.654
163.345
241.051
320.926
397.626
466.426
525.737
576.371
615.758
637.272
629.844
582.686
493.604
370.535
229.993
89.336
-39.888
-152.363
-248.286
-327.609
-387.919
-426.769
-442.022
-434.409
-407.963
-367.734
-319.035
-267.207
-216.862
-171.768
-135.238
-109.049
-93.195
-86.778
-88.122
-94.817
-104.481
-114.805
-123.224
-128.124
-128.991
-125.783
-119.163
-110.278
-100.216
-90.201
-81.658
-75.396
-71.689
-70.585
-71.711
-74.548
-78.615
-83.297
-87.963
-92.27
-96.05
-99.215
-101.785
-103.725
-104.988
-105.616
-105.675
-105.212
-104.26
-102.851
-101.041
-98.954
-96.754
-94.576
-92.512
-90.606
-88.886
-87.381
-86.129
-85.161
-84.48
-84.076
-83.942
-84.074
-84.47
-85.114
-85.962
-86.951
-88.009
-89.076
-90.11
-91.08
-91.96
-92.726
-93.357
-93.839
-94.168
-94.341
-94.344
-94.163
-93.782
-93.189
-92.377
-91.348
-90.101
-88.636
-86.951
-85.048
-82.927
-80.591
-78.041
-75.276
-72.296
-69.103
-65.703
-62.104
-58.314
-54.345
-50.207
-45.913
-41.479
-36.92
-32.251
-27.487
-22.645
-17.739
-12.787
-7.805
-2.811
2.179
7.147
12.076
16.947
21.743
26.447
31.041
35.51
39.837
44.006
48.006
51.821
55.441
58.853
62.046
65.009
67.735
70.214
72.438
74.403
76.101
77.53
78.687
79.569
80.178
80.512
80.573
80.363
79.884
79.14
78.136
76.877
75.369
73.621
71.641
69.439
67.025
64.411
61.609
58.632
55.493
52.204
48.781
45.236
41.585
37.842
34.021
30.138
26.209
22.247
18.268
14.288
10.32
6.379
2.479
-1.367
-5.146
-8.845
-12.453
-15.958
-19.348
-22.615
-25.748
-28.74
-31.583
-34.27
-36.797
-39.159
-41.354
-43.378
-45.232
-46.915
-48.427
-49.771
-50.949
-51.964
-52.819
-53.519
-54.07
-54.478
-54.748
-54.889
-54.906
-54.808
-54.603
-54.3
-53.907
-53.433
-52.887
-52.279
-51.618
-50.914
-50.175
-49.411
-48.63
-47.842
-47.054
-46.275
-45.511
-44.769
-44.055
-43.375
-42.734
-42.136
-41.587
-41.088
-40.643
-40.255
-39.927
-39.66
-39.457
-39.319
-39.251
-39.254
-39.33
-39.482
-39.713
-40.023
-40.416
-40.89
-41.444
-42.077
-42.788
-43.574
-44.437
-45.374
-46.384
-47.466
-48.622
-49.85
-51.152
-52.526
-53.964
-55.462
-57.017
-58.628
-60.302
-62.041
-63.838
-65.687
-67.584
-69.518
-71.474
-73.427
-75.328
-77.135
-78.807
-80.312
-81.628
-82.731
-83.584
-84.152
-84.397
-84.292
-83.837
-83.035
-81.88
-80.387
-78.594
-76.576
-74.466
-72.394
-70.463
-68.762
-67.356
-66.323
-65.766
-65.78
-66.452
-67.85
-69.97
-72.814
-76.419
-80.71
-85.526
-90.571
-95.342
-99.327
-102.126
-103.393
-102.869
-100.547
-96.488
-90.937
-84.527
-77.974
-71.993
-67.054
-63.081
-59.352
-55.059
-49.433
-40.99
-27.851
-8.14
19.803
55.372
95.487
138.904
185.352
235.172
290.566
346.556
393.337
422.354
423.916
397.44
350.65
290.464
225.882
161.454
95.429
27.778
-41.224
-109.658
-172.333
-226.003
-269.926
-304.566
-331.582
-352.269
-367.356
-378.045
-386.3
-394.038
-402.324
-411.372
-420.84
-430.348
-439.656
-448.359
-455.605
-460.394
-462.14
-460.723
-456.389
-449.508
-440.386
-429.316
-416.739
-403.224
-389.214
-375
-360.706
-346.306
-331.791
-317.191
-302.524
-287.802
-273.086
-258.453
-244.017
-229.968
-216.477
-203.696
-191.76
-180.731
-170.622
-161.432
-153.159
-145.823
-139.451
-134.057
-129.642
-126.197
-123.678
-122.03
-121.157
-120.893
-121.06
-121.47
-121.926
-122.3
-122.502
-122.465
-122.145
-121.506
-120.505
-119.116
-117.323
-115.104
-112.453
-109.37
-105.871
-102.019
-97.888
-93.567
-89.158
-84.725
-80.302
-75.911
-71.547
-67.19
-62.822
-58.409
-53.908
-49.286
-44.511
-39.55
-34.376
-28.945
-23.214
-17.132
-10.641
-3.698
3.732
11.672
20.125
29.081
38.527
48.43
58.753
69.452
80.471
91.759
103.271
114.96
126.795
138.747
150.777
162.851
174.929
186.985
199.016
211.024
223.005
234.962
246.901
258.835
270.815
282.873
295.022
307.264
319.562
331.866
344.126
356.288
368.275
379.996
391.323
402.111
412.247
421.618
430.115
437.623
443.985
449.066
452.772
455.033
455.822
455.139
452.985
449.384
444.405
438.141
430.729
422.334
413.084
403.099
392.505
381.428
370.03
358.46
346.827
335.226
323.726
312.384
301.263
290.409
279.828
269.509
259.42
249.506
239.746
230.133
220.653
211.301
202.057
192.907
183.862
174.944
166.172
157.57
149.152
140.933
132.952
125.249
117.868
110.856
104.245
98.055
92.304
87.003
82.157
77.769
73.83
70.32
67.225
64.53
62.221
60.284
58.698
57.438
56.482
55.804
55.38
55.189
55.208
55.414
55.789
56.314
56.971
57.747
58.625
59.588
60.62
61.703
62.823
63.965
65.114
66.257
67.382
68.48
69.541
70.559
71.528
72.442
73.298
74.093
74.823
75.489
76.087
76.62
77.085
77.486
77.824
78.1
78.318
78.481
78.59
78.65
78.664
78.633
78.562
78.453
78.31
78.134
77.929
77.698
77.444
77.169
76.876
76.567
76.245
75.91
75.564
75.209
74.844
74.471
74.09
73.702
73.307
72.907
72.501
72.092
71.678
71.262
70.843
70.422
69.998
69.573
69.147
68.721
68.294
67.869
67.445
67.025
66.608
66.198
65.794
65.398
65.011
64.636
64.271
63.92
63.583
63.262
62.957
62.67
62.402
62.152
61.922
61.71
61.518
61.343
61.186
61.044
60.916
60.8
60.695
60.599
60.511
60.427
60.347
60.267
60.186
60.1
60.008
59.905
59.79
59.658
59.508
59.336
59.139
58.916
58.664
58.379
58.061
57.707
57.315
56.884
56.412
55.898
55.34
54.74
54.097
53.41
52.682
51.914
51.106
50.26
49.378
48.461
47.51
46.528
45.516
44.477
43.411
42.322
41.212
40.083
38.939
37.78
36.61
35.43
34.242
33.046
31.844
30.635
29.42
28.198
26.97
25.736
24.495
23.247
21.991
20.726
19.45
18.161
16.857
15.534
14.189
12.821
11.426
10.002
8.547
7.057
5.532
3.969
2.365
0.717
-0.977
-2.72
-4.513
-6.358
-8.256
-10.207
-12.209
-14.259
-16.356
-18.493
-20.666
-22.87
-25.099
-27.348
-29.612
-31.885
-34.162
-36.437
-38.704
-40.955
-43.182
-45.372
-47.514
-49.594
-51.6
-53.517
-55.334
-57.038
-58.62
-60.07
-61.381
-62.543
-63.547
-64.377
-65.017
-65.455
-65.682
-65.697
-65.504
-65.116
-64.553
-63.837
-62.995
-62.046
-61.002
-59.863
-58.618
-57.256
-55.763
-54.137
-52.394
-50.549
-48.611
-46.586
-44.475
-42.263
-39.923
-37.424
-34.718
-31.781
-28.609
-25.225
-21.691
-18.084
-14.497
-11.006
-7.662
-4.509
-1.593
1.043
3.354
5.287
6.779
7.75
8.094
7.728
6.597
4.693
2.061
-1.225
-5.053
-9.318
-13.94
-18.83
-23.917
-29.14
-34.418
-39.675
-44.841
-49.811
-54.461
-58.696
-62.381
-65.424
-67.895
-69.862
-71.462
-72.881
-74.117
-75.153
-76.147
-77.204
-78.233
-79.221
-80.034
-80.502
-81.019
-81.992
-83.521
-85.771
-88.938
-93.015
-98.108
-104.221
-110.615
-116.555
-121.552
-125.027
-126.633
-126.263
-123.829
-119.567
-114.182
-108.272
-102.413
-97.095
-92.229
-87.772
-83.493
-78.242
-70.942
-59.607
-40.592
-12.755
23.236
65.567
107.915
147.999
189.301
235.132
293.362
367.443
449.483
528.778
588.94
612.867
594.109
532.265
433.556
309.843
169.347
20.063
-128.84
-267.271
-380.398
-457.207
-495.49
-500.075
-484.514
-462.588
-439.832
-418.628
-397.454
-370.935
-339.091
-302.819
-262.119
-222.12
-186.242
-155.799
-133.087
-116.983
-105.654
-99.024
-96.652
-97.929
-102.052
-107.457
-112.433
-116.222
-118.761
-119.9
-119.602
-118.091
-115.749
-113.32
-111.744
-111.376
-112.093
-113.749
-116.081
-118.83
-121.777
-124.513
-126.541
-127.61
-127.669
-126.766
-125.058
-122.655
-119.622
-116.103
-112.278
-108.321
-104.401
-100.616
-97.006
-93.62
-90.511
-87.727
-85.312
-83.274
-81.587
-80.232
-79.19
-78.442
-77.965
-77.719
-77.649
-77.698
-77.804
-77.92
-78.012
-78.048
-77.999
-77.843
-77.556
-77.131
-76.566
-75.855
-74.991
-73.962
-72.758
-71.375
-69.81
-68.061
-66.129
-64.012
-61.71
-59.224
-56.554
-53.702
-50.668
-47.454
-44.063
-40.497
-36.764
-32.873
-28.834
-24.66
-20.364
-15.958
-11.459
-6.882
-2.242
2.446
7.165
11.9
16.635
21.352
26.035
30.666
35.229
39.706
44.081
48.337
52.456
56.424
60.224
63.84
67.26
70.469
73.454
76.202
78.703
80.947
82.925
84.628
86.051
87.188
88.035
88.589
88.849
88.813
88.484
87.861
86.948
85.748
84.265
82.505
80.474
78.179
75.628
72.83
69.795
66.534
63.058
59.38
55.513
51.47
47.267
42.917
38.437
33.843
29.149
24.374
19.533
14.642
9.717
4.776
-0.167
-5.095
-9.994
-14.848
-19.642
-24.362
-28.996
-33.53
-37.953
-42.253
-46.419
-50.442
-54.312
-58.021
-61.561
-64.925
-68.108
-71.104
-73.908
-76.519
-78.933
-81.15
-83.167
-84.986
-86.608
-88.035
-89.269
-90.313
-91.172
-91.85
-92.353
-92.688
-92.861
-92.883
-92.762
-92.508
-92.134
-91.651
-91.069
-90.401
-89.658
-88.852
-87.992
-87.088
-86.151
-85.19
-84.217
-83.244
-82.281
-81.34
-80.432
-79.566
-78.754
-78.003
-77.316
-76.696
-76.148
-75.678
-75.303
-75.031
-74.865
-74.806
-74.853
-74.998
-75.229
-75.521
-75.832
-76.125
-76.366
-76.526
-76.593
-76.547
-76.359
-76.001
-75.435
-74.63
-73.581
-72.287
-70.739
-68.954
-66.972
-64.874
-62.785
-60.822
-59.07
-57.589
-56.43
-55.667
-55.395
-55.703
-56.676
-58.357
-60.78
-64.031
-68.1
-72.863
-78.064
-83.233
-87.884
-91.69
-94.274
-95.234
-94.507
-92.193
-88.656
-84.8
-81.289
-78.464
-76.873
-76.848
-78.022
-79.753
-80.762
-78.911
-72.577
-60.414
-40.728
-12.468
24.468
69.487
120.703
175.088
229.741
281.318
325.794
359.659
379.983
384.713
373.22
345.763
303.117
247.361
181.692
109.535
34.545
-40.079
-111.796
-178.021
-236.597
-286.657
-328.349
-362.428
-390.128
-412.508
-430.55
-445.818
-459.856
-473.46
-486.838
-499.687
-511.417
-521.625
-529.958
-535.691
-538.011
-536.458
-530.874
-521.456
-508.636
-492.804
-474.342
-453.752
-431.622
-408.437
-384.582
-360.357
-335.937
-311.471
-287.114
-262.993
-239.22
-215.971
-193.471
-171.913
-151.48
-132.33
-114.562
-98.298
-83.647
-70.655
-59.326
-49.626
-41.5
-34.921
-29.863
-26.269
-24.07
-23.144
-23.315
-24.449
-26.408
-29.037
-32.212
-35.762
-39.485
-43.229
-46.864
-50.27
-53.373
-56.101
-58.383
-60.19
-61.499
-62.304
-62.633
-62.481
-61.842
-60.722
-59.103
-57.003
-54.501
-51.654
-48.532
-45.221
-41.759
-38.17
-34.474
-30.654
-26.687
-22.557
-18.223
-13.663
-8.873
-3.848
1.388
6.821
12.484
18.415
24.671
31.338
38.457
46.049
54.134
62.7
71.721
81.174
91.002
101.135
111.523
122.123
132.917
143.906
155.059
166.333
177.674
189.007
200.286
211.49
222.58
233.524
244.299
254.882
265.293
275.588
285.79
295.908
305.911
315.736
325.335
334.67
343.687
352.329
360.512
368.123
375.096
381.386
386.935
391.695
395.559
398.381
400.056
400.513
399.713
397.65
394.298
389.625
383.654
376.43
368.036
358.586
348.124
336.674
324.292
311.035
297.027
282.438
267.401
252.03
236.448
220.773
205.164
189.804
174.806
160.253
146.208
132.717
119.893
107.862
96.706
86.49
77.235
68.919
61.549
55.128
49.613
44.941
41.004
37.661
34.826
32.44
30.444
28.785
27.363
26.075
24.859
23.665
22.463
21.233
19.943
18.563
17.108
15.614
14.135
12.752
11.505
10.413
9.501
8.786
8.296
8.055
8.063
8.304
8.766
9.435
10.302
11.361
12.579
13.916
15.327
16.763
18.186
19.572
20.894
22.132
23.27
24.295
25.204
26.006
26.701
27.291
27.775
28.153
28.43
28.614
28.713
28.736
28.69
28.582
28.419
28.206
27.949
27.651
27.315
26.942
26.535
26.099
25.638
25.159
24.666
24.165
23.662
23.162
22.67
22.191
21.728
21.283
20.859
20.457
20.079
19.725
19.397
19.094
18.818
18.568
18.344
18.147
17.977
17.833
17.716
17.625
17.561
17.525
17.515
17.533
17.579
17.652
17.753
17.882
18.037
18.219
18.426
18.659
18.916
19.196
19.5
19.826
20.174
20.545
20.939
21.356
21.796
22.26
22.749
23.262
23.8
24.362
24.948
25.559
26.192
26.848
27.523
28.218
28.931
29.658
30.399
31.151
31.912
32.679
33.449
34.222
34.993
35.76
36.522
37.276
38.019
38.749
39.464
40.162
40.84
41.497
42.129
42.734
43.31
43.855
44.367
44.843
45.282
45.682
46.042
46.36
46.637
46.872
47.066
47.218
47.329
47.401
47.434
47.431
47.392
47.319
47.216
47.083
46.923
46.74
46.534
46.31
46.07
45.817
45.552
45.279
45
44.718
44.436
44.157
43.883
43.618
43.365
43.126
42.905
42.703
42.524
42.369
42.241
42.14
42.069
42.029
42.02
42.044
42.1
42.19
42.312
42.467
42.653
42.869
43.113
43.384
43.68
43.999
44.339
44.696
45.069
45.456
45.852
46.256
46.664
47.073
47.479
47.879
48.268
48.644
49.002
49.338
49.65
49.933
50.184
50.399
50.576
50.71
50.798
50.839
50.829
50.766
50.65
50.479
50.253
49.972
49.637
49.248
48.808
48.318
47.781
47.2
46.578
45.919
45.227
44.508
43.766
43.007
42.237
41.463
40.692
39.93
39.185
38.463
37.771
37.118
36.511
35.957
35.465
35.041
34.693
34.428
34.253
34.173
34.192
34.316
34.548
34.891
35.346
35.915
36.597
37.391
38.295
39.307
40.422
41.634
42.937
44.324
45.786
47.314
48.895
50.516
52.164
53.826
55.486
57.129
58.741
60.305
61.811
63.245
64.595
65.847
66.986
67.998
68.869
69.589
70.145
70.528
70.728
70.74
70.566
70.205
69.66
68.925
67.988
66.843
65.487
63.923
62.159
60.209
58.092
55.839
53.493
51.099
48.699
46.327
44.005
41.76
39.624
37.636
35.851
34.31
33.042
32.074
31.417
31.047
30.931
30.996
31.14
31.282
31.331
31.195
30.793
30.035
28.827
27.103
24.764
21.663
17.754
13.093
7.872
2.513
-2.549
-6.947
-10.228
-11.879
-11.621
-9.464
-5.795
-1.58
2.204
4.896
5.866
4.607
1.099
-4.118
-9.791
-13.63
-13.125
-6.067
9.68
35.685
73.073
122.383
182.605
251.456
324.779
396.319
461.488
517.222
561.668
596.48
618.313
618.787
591
527.029
428.865
309.701
182.188
59.92
-49.484
-146.403
-229.574
-297.769
-349.357
-381.057
-392.711
-386.221
-364.07
-330.567
-289.906
-245.587
-201.359
-159.954
-123.308
-93.496
-71.508
-56.981
-49.214
-46.997
-48.601
-52.778
-58.099
-62.529
-64.931
-65.018
-62.748
-58.692
-53.647
-48.061
-42.686
-38.665
-36.574
-36.59
-38.678
-42.337
-47.044
-52.503
-58.283
-63.865
-68.947
-73.284
-76.741
-79.392
-81.29
-82.459
-82.979
-82.922
-82.355
-81.396
-80.163
-78.773
-77.38
-76.088
-74.972
-74.102
-73.526
-73.296
-73.451
-73.997
-74.919
-76.205
-77.843
-79.826
-82.144
-84.752
-87.594
-90.608
-93.725
-96.894
-100.075
-103.226
-106.313
-109.308
-112.186
-114.934
-117.547
-120.011
-122.309
-124.421
-126.328
-128.017
-129.481
-130.709
-131.695
-132.43
-132.907
-133.121
-133.067
-132.737
-132.126
-131.228
-130.037
-128.55
-126.77
-124.699
-122.342
-119.708
-116.804
-113.641
-110.233
-106.592
-102.733
-98.672
-94.424
-90.007
-85.439
-80.742
-75.934
-71.038
-66.075
-61.068
-56.041
-51.016
-46.017
-41.067
-36.189
-31.406
-26.741
-22.214
-17.847
-13.66
-9.672
-5.902
-2.367
0.917
3.937
6.678
9.129
11.279
13.121
14.647
15.851
16.729
17.278
17.497
17.386
16.948
16.185
15.104
13.71
12.013
10.022
7.749
5.205
2.405
-0.636
-3.902
-7.377
-11.042
-14.879
-18.868
-22.991
-27.226
-31.553
-35.952
-40.403
-44.885
-49.378
-53.862
-58.317
-62.725
-67.067
-71.325
-75.482
-79.52
-83.425
-87.181
-90.775
-94.194
-97.426
-100.461
-103.291
-105.906
-108.301
-110.47
-112.409
-114.114
-115.585
-116.821
-117.822
-118.591
-119.132
-119.448
-119.546
-119.432
-119.115
-118.603
-117.908
-117.042
-116.018
-114.849
-113.549
-112.133
-110.614
-109.007
-107.327
-105.587
-103.802
-101.987
-100.156
-98.325
-96.51
-94.728
-92.989
-91.308
-89.694
-88.155
-86.698
-85.329
-84.055
-82.884
-81.826
-80.89
-80.08
-79.397
-78.837
-78.393
-78.048
-77.776
-77.55
-77.337
-77.114
-76.862
-76.565
-76.206
-75.765
-75.205
-74.5
-73.623
-72.555
-71.299
-69.836
-68.159
-66.304
-64.324
-62.308
-60.36
-58.496
-56.705
-55.116
-53.834
-52.995
-52.791
-53.17
-54.06
-55.652
-58.02
-60.946
-64.182
-67.139
-69.143
-70.182
-70.255
-69.01
-66.368
-62.532
-57.966
-53.892
-51.502
-50.975
-52.279
-55.538
-60.655
-67.302
-74.444
-79.904
-81.317
-77.191
-66.706
-48.789
-22.082
14.143
59.811
112.341
166.658
220.298
272.628
323.742
376.371
426.574
464.419
481.427
467.445
421.59
354.063
274.492
194.097
118.5
45.016
-27.22
-98.133
-165.697
-225.185
-274.832
-315.216
-347.446
-373.686
-395.394
-413.634
-430.34
-446.785
-463.305
-479.883
-495.865
-510.397
-523.027
-533.09
-539.512
-541.75
-539.62
-533.117
-522.726
-508.888
-491.898
-472.395
-451.079
-428.471
-405.069
-381.069
-356.483
-331.611
-306.71
-281.723
-256.699
-231.55
-206.17
-181.128
-157.006
-133.993
-112.348
-92.404
-74.358
-58.711
-45.943
-35.68
-27.505
-21.25
-16.653
-13.57
-11.925
-11.287
-11.161
-11.6
-12.665
-14.277
-16.435
-18.946
-21.548
-24.195
-26.901
-29.478
-31.785
-33.743
-35.221
-36.217
-36.783
-36.908
-36.606
-35.948
-34.945
-33.607
-32.001
-30.179
-28.233
-26.281
-24.343
-22.381
-20.447
-18.619
-16.895
-15.187
-13.221
-10.638
-7.339
-3.503
0.857
5.895
11.411
17.195
22.836
27.325
31.416
36.452
41.6
46.83
49.905
48.082
45.387
45.1
51.4
68.677
91.706
116.251
139.06
156.345
172.664
189.811
205.865
219.579
224.301
219.232
211.283
206.63
214.322
236.056
263.474
289.824
307.968
316.02
320.109
324.224
330.977
341.278
352.498
363.329
373.798
383.724
393.387
402.73
411.213
418.533
424.562
429.159
432.212
433.647
433.428
431.549
428.054
422.989
416.383
408.292
398.833
388.135
376.354
363.695
350.34
336.475
322.304
307.988
293.664
279.467
265.495
251.831
238.552
225.703
213.311
201.405
189.983
179.028
168.506
158.349
148.507
138.939
129.603
120.476
111.544
102.793
94.228
85.868
77.723
69.814
62.163
54.783
47.697
40.934
34.524
28.504
22.903
17.736
13.011
8.732
4.893
1.487
-1.504
-4.106
-6.342
-8.235
-9.808
-11.083
-12.08
-12.828
-13.351
-13.676
-13.829
-13.831
-13.704
-13.468
-13.141
-12.741
-12.283
-11.779
-11.241
-10.685
-10.123
-9.569
-9.035
-8.532
-8.069
-7.656
-7.3
-7.009
-6.784
-6.631
-6.549
-6.54
-6.605
-6.742
-6.948
-7.223
-7.561
-7.961
-8.416
-8.923
-9.477
-10.072
-10.703
-11.366
-12.056
-12.768
-13.496
-14.237
-14.986
-15.738
-16.488
-17.233
-17.966
-18.685
-19.384
-20.059
-20.707
-21.324
-21.906
-22.452
-22.958
-23.423
-23.846
-24.226
-24.562
-24.856
-25.107
-25.316
-25.485
-25.615
-25.708
-25.767
-25.793
-25.79
-25.759
-25.703
-25.624
-25.524
-25.406
-25.272
-25.123
-24.963
-24.793
-24.616
-24.434
-24.25
-24.066
-23.886
-23.711
-23.545
-23.391
-23.25
-23.126
-23.02
-22.936
-22.875
-22.838
-22.827
-22.844
-22.889
-22.962
-23.064
-23.195
-23.353
-23.539
-23.751
-23.989
-24.251
-24.537
-24.845
-25.174
-25.523
-25.891
-26.277
-26.678
-27.094
-27.524
-27.964
-28.415
-28.873
-29.337
-29.805
-30.273
-30.74
-31.204
-31.661
-32.109
-32.545
-32.968
-33.375
-33.764
-34.134
-34.483
-34.809
-35.113
-35.392
-35.648
-35.88
-36.088
-36.272
-36.433
-36.571
-36.686
-36.78
-36.852
-36.903
-36.933
-36.942
-36.931
-36.899
-36.847
-36.776
-36.684
-36.574
-36.444
-36.297
-36.131
-35.95
-35.752
-35.539
-35.312
-35.071
-34.818
-34.552
-34.274
-33.985
-33.683
-33.371
-33.046
-32.709
-32.359
-31.995
-31.616
-31.221
-30.81
-30.381
-29.933
-29.467
-28.983
-28.482
-27.964
-27.43
-26.883
-26.324
-25.755
-25.178
-24.596
-24.01
-23.422
-22.834
-22.248
-21.668
-21.095
-20.532
-19.98
-19.443
-18.923
-18.422
-17.942
-17.486
-17.057
-16.655
-16.286
-15.95
-15.653
-15.395
-15.18
-15.01
-14.886
-14.811
-14.782
-14.801
-14.864
-14.969
-15.113
-15.292
-15.499
-15.73
-15.979
-16.241
-16.511
-16.784
-17.053
-17.312
-17.556
-17.778
-17.969
-18.122
-18.222
-18.261
-18.229
-18.118
-17.919
-17.625
-17.225
-16.714
-16.087
-15.339
-14.462
-13.444
-12.268
-10.923
-9.413
-7.744
-5.931
-3.989
-1.925
0.241
2.485
4.789
7.144
9.553
12.043
14.619
17.277
19.999
22.747
25.504
28.271
31.048
33.842
36.662
39.508
42.405
45.4
48.506
51.707
54.95
58.138
61.201
64.098
66.796
69.284
71.536
73.506
75.165
76.491
77.448
78.002
78.078
77.571
76.434
74.664
72.308
69.478
66.257
62.708
58.911
54.928
50.825
46.675
42.516
38.375
34.302
30.359
26.651
23.309
20.405
17.976
16.016
14.444
13.192
12.185
11.308
10.475
9.6
8.586
7.381
5.924
4.15
2.008
-0.623
-3.902
-7.868
-12.475
-17.513
-22.548
-27.193
-31.116
-33.853
-34.991
-34.318
-31.805
-27.922
-23.613
-19.723
-16.939
-15.93
-17.064
-20.238
-25.254
-31.241
-36.208
-38.298
-34.801
-21.538
2.994
38.463
83.158
129.767
174.73
221.141
271.889
336.721
421.007
513.794
601.27
661.996
674.395
637.825
558.935
450.139
328.455
197.625
59.431
-79.214
-208.591
-312.819
-380.737
-413.096
-420.26
-415.304
-405.884
-392.373
-370.358
-337.372
-295.5
-249.6
-205.32
-166.118
-133.671
-108.813
-91.149
-79.941
-74.179
-72.32
-73.132
-75.531
-77.894
-78.732
-77.316
-73.452
-67.507
-60.206
-52.092
-43.692
-35.898
-29.623
-25.381
-23.32
-23.201
-24.558
-26.99
-30.128
-33.522
-36.687
-39.268
-41.068
-42.04
-42.242
-41.733
-40.545
-38.731
-36.375
-33.565
-30.384
-26.928
-23.283
-19.553
-15.869
-12.329
-9.013
-5.997
-3.322
-1.014
0.909
2.457
3.649
4.496
5.021
5.255
5.225
4.975
4.554
4.011
3.408
2.794
2.211
1.695
1.274
0.968
0.796
0.768
0.89
1.168
1.614
2.234
3.04
4.037
5.23
6.622
8.211
9.997
11.98
14.161
16.537
19.107
21.871
24.825
27.968
31.296
34.803
38.478
42.312
46.293
50.406
54.638
58.972
63.392
67.88
72.42
76.992
81.58
86.165
90.726
95.246
99.705
104.083
108.361
112.522
116.545
120.415
124.113
127.623
130.93
134.019
136.876
139.487
141.839
143.922
145.725
147.237
148.45
149.358
149.954
150.234
150.195
149.835
149.155
148.156
146.841
145.215
143.282
141.049
138.525
135.719
132.642
129.306
125.723
121.908
117.876
113.641
109.222
104.634
99.894
95.022
90.034
84.95
79.789
74.57
69.312
64.035
58.758
53.501
48.284
43.124
38.039
33.048
28.166
23.409
18.793
14.33
10.035
5.918
1.992
-1.736
-5.256
-8.563
-11.65
-14.514
-17.151
-19.561
-21.742
-23.696
-25.425
-26.931
-28.219
-29.294
-30.164
-30.834
-31.314
-31.613
-31.742
-31.714
-31.543
-31.241
-30.824
-30.307
-29.706
-29.035
-28.31
-27.543
-26.749
-25.94
-25.129
-24.331
-23.56
-22.828
-22.148
-21.531
-20.987
-20.526
-20.153
-19.87
-19.678
-19.578
-19.575
-19.679
-19.895
-20.223
-20.663
-21.211
-21.858
-22.589
-23.38
-24.197
-25.006
-25.778
-26.489
-27.124
-27.663
-28.08
-28.343
-28.412
-28.255
-27.852
-27.189
-26.25
-25.037
-23.583
-21.943
-20.202
-18.435
-16.684
-14.991
-13.415
-12.019
-10.891
-10.13
-9.797
-9.981
-10.819
-12.329
-14.449
-17.012
-19.624
-21.898
-23.566
-24.239
-23.509
-21.368
-17.977
-13.824
-9.946
-7.098
-5.699
-6.396
-9.629
-15.041
-21.823
-28.345
-32.015
-30.809
-23.097
-6.931
19.121
55.392
101.191
154.301
211.125
268.39
322.815
370.405
407.388
430.766
438.792
431.319
409.466
374.35
327.31
270.894
208.304
142.723
76.639
11.762
-50.696
-109.205
-161.875
-207.905
-247.544
-281.321
-309.666
-332.86
-351.124
-365.325
-377.17
-387.729
-397.264
-405.795
-413.163
-419.293
-424.261
-427.678
-428.565
-426.278
-420.636
-411.735
-400.006
-385.847
-369.51
-351.437
-332.273
-312.541
-292.658
-272.878
-253.24
-233.782
-214.601
-195.789
-177.475
-159.839
-143.029
-127.182
-112.444
-98.938
-86.782
-76.042
-66.722
-58.772
-52.11
-46.69
-42.497
-39.525
-37.747
-37.091
-37.429
-38.609
-40.492
-42.922
-45.73
-48.736
-51.736
-54.585
-57.195
-59.523
-61.557
-63.27
-64.62
-65.575
-66.125
-66.277
-66.062
-65.517
-64.67
-63.572
-62.294
-60.921
-59.553
-58.252
-57.037
-55.902
-54.827
-53.785
-52.752
-51.69
-50.547
-49.27
-47.808
-46.118
-44.163
-41.896
-39.259
-36.188
-32.615
-28.49
-23.793
-18.512
-12.648
-6.212
0.776
8.281
16.248
24.629
33.381
42.466
51.851
61.503
71.382
81.446
91.649
101.959
112.36
122.841
133.403
144.048
154.779
165.612
176.581
187.703
198.98
210.401
221.938
233.553
245.198
256.819
268.357
279.73
290.831
301.537
311.708
321.211
329.919
337.7
344.41
349.926
354.152
357.014
358.472
358.503
357.101
354.28
350.068
344.53
337.759
329.88
321.043
311.393
301.062
290.191
278.931
267.415
255.763
244.071
232.41
220.845
209.434
198.225
187.253
176.536
166.068
155.829
145.775
135.878
126.119
116.479
106.941
97.494
88.134
78.874
69.739
60.753
51.936
43.31
34.894
26.717
18.81
11.211
3.958
-2.918
-9.396
-15.46
-21.099
-26.308
-31.088
-35.448
-39.406
-42.979
-46.181
-49.028
-51.537
-53.724
-55.612
-57.224
-58.581
-59.705
-60.617
-61.337
-61.885
-62.278
-62.533
-62.667
-62.691
-62.621
-62.47
-62.252
-61.982
-61.672
-61.333
-60.976
-60.612
-60.248
-59.891
-59.547
-59.221
-58.916
-58.634
-58.377
-58.148
-57.945
-57.769
-57.618
-57.491
-57.386
-57.299
-57.228
-57.169
-57.119
-57.074
-57.031
-56.987
-56.937
-56.879
-56.809
-56.723
-56.619
-56.494
-56.344
-56.169
-55.967
-55.738
-55.48
-55.194
-54.881
-54.541
-54.178
-53.791
-53.384
-52.959
-52.518
-52.064
-51.6
-51.129
-50.654
-50.18
-49.708
-49.244
-48.79
-48.35
-47.926
-47.523
-47.144
-46.791
-46.469
-46.179
-45.925
-45.71
-45.536
-45.405
-45.319
-45.278
-45.282
-45.333
-45.428
-45.568
-45.749
-45.972
-46.233
-46.531
-46.862
-47.226
-47.618
-48.038
-48.48
-48.944
-49.425
-49.922
-50.43
-50.949
-51.474
-52.004
-52.535
-53.067
-53.595
-54.118
-54.632
-55.135
-55.626
-56.1
-56.555
-56.991
-57.405
-57.795
-58.162
-58.505
-58.824
-59.119
-59.391
-59.641
-59.869
-60.078
-60.268
-60.44
-60.597
-60.74
-60.87
-60.99
-61.1
-61.203
-61.299
-61.389
-61.475
-61.557
-61.637
-61.714
-61.789
-61.864
-61.939
-62.015
-62.093
-62.174
-62.259
-62.348
-62.442
-62.54
-62.644
-62.751
-62.862
-62.976
-63.092
-63.209
-63.325
-63.44
-63.552
-63.659
-63.76
-63.853
-63.937
-64.009
-64.07
-64.117
-64.15
-64.169
-64.173
-64.162
-64.137
-64.097
-64.042
-63.974
-63.892
-63.798
-63.692
-63.575
-63.448
-63.312
-63.168
-63.019
-62.865
-62.708
-62.55
-62.393
-62.239
-62.089
-61.947
-61.815
-61.694
-61.588
-61.499
-61.429
-61.38
-61.354
-61.352
-61.376
-61.426
-61.504
-61.608
-61.74
-61.897
-62.08
-62.286
-62.514
-62.76
-63.022
-63.296
-63.578
-63.863
-64.145
-64.421
-64.683
-64.927
-65.146
-65.333
-65.483
-65.588
-65.642
-65.636
-65.565
-65.419
-65.193
-64.879
-64.47
-63.96
-63.342
-62.611
-61.762
-60.79
-59.691
-58.461
-57.098
-55.601
-53.969
-52.202
-50.302
-48.273
-46.12
-43.849
-41.468
-38.987
-36.417
-33.769
-31.056
-28.293
-25.494
-22.674
-19.848
-17.033
-14.244
-11.498
-8.813
-6.206
-3.696
-1.301
0.961
3.07
5.01
6.762
8.31
9.645
10.754
11.629
12.255
12.619
12.71
12.524
12.058
11.315
10.298
9.018
7.497
5.775
3.89
1.878
-0.228
-2.409
-4.636
-6.882
-9.11
-11.28
-13.363
-15.342
-17.202
-18.928
-20.508
-21.948
-23.294
-24.642
-26.08
-27.696
-29.543
-31.648
-34.06
-36.844
-40.069
-43.804
-48.085
-52.904
-58.275
-64.267
-70.874
-77.972
-85.25
-92.151
-98.142
-102.837
-105.863
-106.804
-105.4
-101.625
-95.832
-89.013
-82.188
-76.022
-71.108
-67.909
-66.531
-66.729
-67.593
-67.016
-62.687
-52.827
-35.54
-9.164
27.515
75.699
134.147
198.173
263.253
325.138
383.384
442.704
503.021
559.19
599.436
605.224
566.485
483.139
362.347
219.144
67.505
-81.792
-215.332
-319.356
-386.498
-414.889
-412.438
-395.716
-374.944
-354.483
-334.127
-307.918
-274.864
-238.642
-202.978
-172.769
-150.537
-135.6
-126.862
-123.023
-122.445
-123.776
-125.834
-127.08
-126.27
-123.037
-117.386
-109.664
-100.7
-91.275
-82.116
-74.18
-68.127
-64.164
-62.319
-62.335
-63.741
-66.096
-68.916
-71.68
-74.077
-75.952
-77.205
-77.816
-77.758
-76.996
-75.567
-73.537
-70.953
-67.851
-64.278
-60.302
-56.057
-51.71
-47.403
-43.23
-39.243
-35.475
-31.96
-28.736
-25.835
-23.261
-21.002
-19.053
-17.412
-16.078
-15.039
-14.254
-13.663
-13.197
-12.802
-12.436
-12.071
-11.681
-11.243
-10.737
-10.149
-9.475
-8.709
-7.839
-6.85
-5.723
-4.446
-3.012
-1.421
0.329
2.241
4.315
6.554
8.957
11.524
14.255
17.153
20.219
23.452
26.847
30.4
34.1
37.94
41.909
45.994
50.182
54.459
58.812
63.224
67.681
72.167
76.665
81.157
85.626
90.055
94.424
98.715
102.91
106.99
110.938
114.737
118.371
121.823
125.079
128.125
130.948
133.536
135.879
137.965
139.785
141.333
142.6
143.583
144.275
144.675
144.781
144.593
144.112
143.34
142.28
140.937
139.315
137.421
135.264
132.851
130.192
127.297
124.18
120.852
117.328
113.622
109.749
105.723
101.56
97.278
92.891
88.416
83.869
79.267
74.625
69.961
65.291
60.63
55.994
51.399
46.859
42.389
38.003
33.714
29.533
25.473
21.545
17.76
14.126
10.653
7.35
4.221
1.275
-1.483
-4.051
-6.425
-8.604
-10.586
-12.372
-13.961
-15.355
-16.558
-17.571
-18.398
-19.044
-19.514
-19.815
-19.953
-19.937
-19.775
-19.477
-19.055
-18.519
-17.88
-17.152
-16.347
-15.476
-14.555
-13.593
-12.603
-11.597
-10.585
-9.579
-8.592
-7.634
-6.716
-5.849
-5.043
-4.307
-3.652
-3.085
-2.609
-2.225
-1.936
-1.747
-1.667
-1.702
-1.849
-2.102
-2.455
-2.899
-3.421
-3.997
-4.586
-5.144
-5.636
-6.032
-6.314
-6.459
-6.435
-6.204
-5.727
-4.975
-3.94
-2.624
-1.02
0.869
3.024
5.383
7.832
10.257
12.571
14.714
16.658
18.348
19.687
20.58
20.935
20.678
19.809
18.307
16.077
13.142
9.648
5.889
2.421
-0.239
-1.78
-1.844
-0.071
3.57
8.968
15.704
22.737
29.197
34.5
37.905
39.055
38.42
36.791
35.547
36.996
43.148
55.825
77.187
108.476
149.474
199.099
255.154
314.255
372.873
427.004
471.828
503.308
518.795
516.729
496.711
459.274
405.849
339.237
263.538
182.948
101.132
21.137
-54.262
-122.246
-181.012
-230.204
-270.555
-303.428
-330.128
-351.656
-369.431
-385.517
-401.281
-417.204
-433.17
-448.419
-462.273
-474.355
-483.902
-489.737
-491.08
-487.558
-479.145
-466.329
-449.609
-429.372
-406.216
-380.86
-353.906
-325.899
-297.28
-268.317
-239.254
-210.341
-181.801
-153.891
-126.933
-101.237
-77.101
-54.78
-34.478
-16.366
-0.557
12.903
24.047
32.981
39.847
44.79
47.93
49.39
49.324
47.943
45.501
42.249
38.433
34.288
30.056
25.991
22.293
19.093
16.457
14.398
12.911
11.988
11.622
11.787
12.441
13.519
14.942
16.64
18.531
20.524
22.515
24.385
26.053
27.485
28.681
29.672
30.494
31.19
31.811
32.426
33.102
33.906
34.901
36.141
37.686
39.6
41.957
44.833
48.29
52.371
57.1
62.481
68.509
75.173
82.44
90.266
98.601
107.384
116.563
126.098
135.944
146.064
156.412
166.928
177.561
188.258
198.979
209.7
220.403
231.071
241.71
252.342
263
273.736
284.578
295.518
306.543
317.615
328.695
339.758
350.765
361.659
372.376
382.835
392.944
402.617
411.737
420.15
427.695
434.193
439.499
443.521
446.175
447.407
447.181
445.452
442.193
437.412
431.117
423.327
414.089
403.447
391.479
378.324
364.13
349.064
333.284
316.912
300.081
282.917
265.533
248.062
230.636
213.38
196.438
179.953
164.038
148.815
134.387
120.802
108.098
96.301
85.413
75.448
66.403
58.256
50.989
44.558
38.898
33.925
29.525
25.586
22.017
18.719
15.596
12.58
9.611
6.639
3.643
0.6
-2.508
-5.685
-8.931
-12.233
-15.557
-18.855
-22.06
-25.114
-27.975
-30.607
-32.971
-35.045
-36.81
-38.262
-39.418
-40.291
-40.893
-41.242
-41.357
-41.262
-40.993
-40.588
-40.092
-39.542
-38.964
-38.384
-37.821
-37.291
-36.807
-36.372
-35.981
-35.633
-35.327
-35.066
-34.849
-34.675
-34.539
-34.438
-34.368
-34.324
-34.306
-34.311
-34.339
-34.39
-34.464
-34.564
-34.692
-34.849
-35.034
-35.247
-35.485
-35.746
-36.028
-36.327
-36.642
-36.97
-37.309
-37.657
-38.014
-38.379
-38.75
-39.127
-39.508
-39.894
-40.283
-40.674
-41.068
-41.463
-41.858
-42.253
-42.647
-43.039
-43.428
-43.812
-44.19
-44.561
-44.924
-45.277
-45.62
-45.953
-46.275
-46.586
-46.888
-47.18
-47.464
-47.74
-48.011
-48.276
-48.537
-48.795
-49.051
-49.305
-49.56
-49.816
-50.074
-50.336
-50.602
-50.873
-51.152
-51.438
-51.733
-52.039
-52.355
-52.683
-53.025
-53.381
-53.752
-54.139
-54.544
-54.965
-55.405
-55.862
-56.337
-56.829
-57.337
-57.861
-58.397
-58.947
-59.506
-60.074
-60.649
-61.229
-61.811
-62.392
-62.972
-63.546
-64.112
-64.668
-65.211
-65.737
-66.246
-66.733
-67.197
-67.636
-68.048
-68.43
-68.782
-69.1
-69.384
-69.631
-69.842
-70.014
-70.148
-70.242
-70.296
-70.311
-70.287
-70.226
-70.127
-69.992
-69.823
-69.621
-69.388
-69.125
-68.836
-68.522
-68.186
-67.831
-67.459
-67.075
-66.681
-66.279
-65.874
-65.468
-65.062
-64.66
-64.264
-63.875
-63.496
-63.129
-62.774
-62.435
-62.111
-61.803
-61.514
-61.242
-60.987
-60.75
-60.53
-60.327
-60.139
-59.967
-59.81
-59.667
-59.538
-59.422
-59.318
-59.225
-59.142
-59.067
-58.998
-58.934
-58.871
-58.81
-58.747
-58.683
-58.615
-58.543
-58.468
-58.387
-58.302
-58.212
-58.117
-58.016
-57.911
-57.803
-57.691
-57.579
-57.467
-57.357
-57.251
-57.152
-57.058
-56.972
-56.894
-56.822
-56.755
-56.693
-56.632
-56.571
-56.509
-56.443
-56.373
-56.298
-56.218
-56.133
-56.042
-55.943
-55.832
-55.705
-55.557
-55.378
-55.161
-54.898
-54.583
-54.209
-53.768
-53.257
-52.672
-52.007
-51.256
-50.41
-49.453
-48.374
-47.17
-45.84
-44.39
-42.834
-41.193
-39.488
-37.746
-35.986
-34.219
-32.445
-30.652
-28.825
-26.951
-25.026
-23.064
-21.074
-19.061
-17.027
-14.967
-12.861
-10.678
-8.376
-5.904
-3.23
-0.349
2.717
5.912
9.167
12.396
15.527
18.51
21.297
23.851
26.136
28.114
29.73
30.915
31.58
31.625
30.981
29.61
27.511
24.731
21.351
17.493
13.284
8.83
4.224
-0.463
-5.175
-9.847
-14.402
-18.763
-22.829
-26.492
-29.683
-32.337
-34.415
-35.942
-36.977
-37.648
-38.135
-38.588
-39.133
-39.876
-40.873
-42.199
-43.955
-46.215
-49.048
-52.499
-56.54
-61.211
-66.606
-72.67
-79.21
-85.818
-91.867
-96.883
-100.517
-102.28
-101.676
-98.443
-92.553
-84.64
-75.778
-66.605
-57.927
-50.885
-46.056
-43.782
-42.885
-39.638
-32.011
-19.595
-3.499
12.442
30.118
55.375
94.257
154.483
234.818
327.685
424.522
511.361
576.872
611.295
604.035
552.959
462.08
341.936
208.883
74.706
-53.23
-171.415
-279.649
-374.651
-451.391
-506.006
-535.502
-540
-522.611
-487.547
-440.053
-385.812
-330.288
-277.789
-231.689
-194.827
-168.371
-152.046
-144.687
-144.037
-147.337
-152.503
-157.512
-160.078
-159.02
-154.04
-145.332
-133.924
-121.116
-107.818
-95.071
-84.148
-75.692
-69.925
-66.842
-65.946
-66.664
-68.563
-71.107
-73.688
-75.959
-77.686
-78.698
-79.013
-78.639
-77.555
-75.817
-73.483
-70.59
-67.203
-63.392
-59.215
-54.78
-50.213
-45.628
-41.154
-36.889
-32.9
-29.259
-26.008
-23.17
-20.758
-18.767
-17.181
-15.984
-15.152
-14.646
-14.427
-14.447
-14.648
-14.974
-15.358
-15.745
-16.093
-16.365
-16.532
-16.571
-16.462
-16.19
-15.747
-15.124
-14.309
-13.294
-12.067
-10.621
-8.95
-7.054
-4.933
-2.589
-0.021
2.771
5.783
9.014
12.459
16.116
19.98
24.044
28.3
32.734
37.334
42.083
46.966
51.964
57.058
62.228
67.455
72.718
77.999
83.277
88.533
93.747
98.899
103.971
108.943
113.797
118.514
123.078
127.47
131.676
135.679
139.467
143.025
146.341
149.404
152.202
154.728
156.972
158.928
160.589
161.952
163.013
163.77
164.225
164.377
164.231
163.788
163.056
162.039
160.745
159.18
157.354
155.276
152.955
150.402
147.627
144.644
141.463
138.098
134.563
130.87
127.033
123.068
118.987
114.805
110.538
106.199
101.805
97.37
92.908
88.435
83.964
79.51
75.085
70.702
66.373
62.108
57.919
53.814
49.803
45.894
42.095
38.412
34.851
31.418
28.117
24.953
21.928
19.046
16.309
13.716
11.27
8.97
6.816
4.806
2.938
1.21
-0.383
-1.843
-3.177
-4.393
-5.498
-6.499
-7.407
-8.229
-8.975
-9.652
-10.27
-10.834
-11.349
-11.823
-12.26
-12.67
-13.06
-13.437
-13.808
-14.179
-14.557
-14.95
-15.36
-15.784
-16.222
-16.676
-17.152
-17.663
-18.216
-18.812
-19.451
-20.13
-20.842
-21.572
-22.291
-22.961
-23.544
-24.008
-24.329
-24.496
-24.488
-24.276
-23.824
-23.093
-22.06
-20.72
-19.069
-17.098
-14.827
-12.31
-9.632
-6.917
-4.262
-1.725
0.631
2.738
4.509
5.827
6.582
6.71
6.134
4.772
2.639
-0.193
-3.515
-6.913
-10.001
-12.443
-13.848
-13.944
-12.756
-10.455
-7.496
-4.631
-2.317
-0.875
-0.78
-2.107
-4.337
-6.551
-7.193
-4.443
2.933
16.094
36.451
64.723
100.799
143.687
191.135
240.542
289.684
335.788
375.444
405.647
423.923
428.784
420.16
398.248
363.178
316.305
260.176
197.681
131.897
65.455
0.172
-61.858
-118.172
-167.442
-209.504
-244.792
-274.281
-298.841
-318.975
-335.762
-350.918
-365.492
-379.861
-393.986
-407.309
-419.396
-430.096
-438.88
-444.845
-447.43
-446.354
-441.611
-433.603
-422.698
-409.173
-393.475
-376.157
-357.673
-338.416
-318.686
-298.646
-278.444
-258.219
-238.089
-218.187
-198.684
-179.805
-161.771
-144.776
-128.996
-114.578
-101.626
-90.215
-80.361
-72.02
-65.13
-59.616
-55.419
-52.503
-50.8
-50.201
-50.573
-51.739
-53.514
-55.726
-58.174
-60.649
-62.983
-65.047
-66.759
-68.095
-69.038
-69.576
-69.706
-69.423
-68.736
-67.676
-66.279
-64.592
-62.681
-60.614
-58.48
-56.389
-54.413
-52.592
-50.944
-49.453
-48.093
-46.84
-45.651
-44.474
-43.257
-41.948
-40.495
-38.857
-36.976
-34.795
-32.252
-29.28
-25.824
-21.849
-17.321
-12.225
-6.558
-0.326
6.453
13.746
21.519
29.737
38.347
47.306
56.565
66.075
75.804
85.718
95.78
105.955
116.203
126.495
136.824
147.193
157.595
168.032
178.503
189.015
199.609
210.312
221.13
232.06
243.063
254.084
265.076
275.986
286.74
297.252
307.398
317.039
326.068
334.375
341.858
348.406
353.871
358.127
361.086
362.684
362.901
361.737
359.196
355.299
350.113
343.726
336.266
327.893
318.725
308.878
298.473
287.629
276.502
265.231
253.924
242.665
231.521
220.546
209.797
199.321
189.123
179.194
169.505
160.006
150.676
141.508
132.491
123.618
114.87
106.232
97.715
89.337
81.118
73.079
65.234
57.596
50.199
43.083
36.287
29.857
23.823
18.202
13.012
8.265
3.967
0.123
-3.276
-6.245
-8.797
-10.942
-12.693
-14.06
-15.061
-15.717
-16.047
-16.073
-15.815
-15.29
-14.52
-13.52
-12.309
-10.902
-9.312
-7.552
-5.636
-3.58
-1.399
0.892
3.277
5.742
8.273
10.855
13.475
16.121
18.781
21.447
24.108
26.754
29.378
31.971
34.525
37.034
39.491
41.889
44.224
46.489
48.681
50.794
52.826
54.771
56.627
58.391
60.058
61.626
63.093
64.456
65.714
66.866
67.911
68.848
69.68
70.406
71.028
71.549
71.971
72.296
72.528
72.671
72.729
72.706
72.607
72.439
72.208
71.919
71.58
71.198
70.781
70.336
69.872
69.396
68.918
68.445
67.987
67.553
67.15
66.787
66.474
66.217
66.025
65.906
65.865
65.909
66.043
66.272
66.599
67.028
67.559
68.195
68.935
69.779
70.723
71.766
72.903
74.129
75.438
76.823
78.275
79.785
81.343
82.938
84.559
86.191
87.823
89.441
91.029
92.574
94.058
95.468
96.785
97.995
99.08
100.026
100.815
101.433
101.865
102.096
102.115
101.908
101.464
100.771
99.822
98.606
97.117
95.348
93.295
90.953
88.32
85.396
82.181
78.677
74.888
70.817
66.472
61.859
56.987
51.866
46.507
40.923
35.129
29.138
22.968
16.635
10.157
3.554
-3.156
-9.954
-16.82
-23.733
-30.675
-37.626
-44.567
-51.477
-58.338
-65.131
-71.838
-78.44
-84.921
-91.264
-97.454
-103.475
-109.314
-114.958
-120.396
-125.617
-130.61
-135.367
-139.881
-144.146
-148.157
-151.911
-155.406
-158.642
-161.62
-164.342
-166.813
-169.036
-171.017
-172.762
-174.279
-175.576
-176.66
-177.54
-178.227
-178.731
-179.061
-179.229
-179.246
-179.124
-178.874
-178.507
-178.035
-177.468
-176.82
-176.099
-175.317
-174.484
-173.611
-172.705
-171.777
-170.834
-169.883
-168.93
-167.98
-167.036
-166.101
-165.178
-164.266
-163.366
-162.476
-161.595
-160.72
-159.847
-158.974
-158.094
-157.203
-156.295
-155.365
-154.405
-153.409
-152.369
-151.278
-150.13
-148.916
-147.629
-146.262
-144.807
-143.258
-141.61
-139.855
-137.988
-136.004
-133.9
-131.674
-129.324
-126.85
-124.252
-121.534
-118.7
-115.754
-112.705
-109.561
-106.33
-103.023
-99.656
-96.242
-92.798
-89.339
-85.883
-82.448
-79.054
-75.719
-72.462
-69.298
-66.245
-63.323
-60.551
-57.948
-55.534
-53.324
-51.335
-49.583
-48.084
-46.849
-45.883
-45.192
-44.779
-44.655
-44.833
-45.325
-46.13
-47.248
-48.673
-50.392
-52.393
-54.649
-57.119
-59.765
-62.551
-65.443
-68.427
-71.474
-74.545
-77.599
-80.576
-83.429
-86.136
-88.66
-90.976
-93.089
-95.011
-96.792
-98.52
-100.244
-102.012
-103.888
-105.908
-108.15
-110.701
-113.611
-116.983
-120.941
-125.524
-130.722
-136.404
-142.21
-147.764
-152.709
-156.559
-158.85
-159.27
-157.685
-154.431
-150.302
-146.162
-142.835
-141.07
-141.547
-144.711
-150.508
-157.971
-165.284
-170.139
-170.032
-162.644
-145.639
-116.917
-75.166
-20.281
46.443
122.296
203.336
285.09
362.455
429.688
481.08
511.539
516.924
496.175
451.514
385.395
300.428
196.758
73.478
-64.056
-204.376
-329.846
-423.602
-480.212
-502.574
-500.688
-484.196
-453.512
-410.722
-360.368
-308.177
-266.789
-240.904
-225.63
-216.96
-207.376
-194.261
-183.155
-176.656
-175.991
-180.923
-187.103
-191.242
-192.442
-190.33
-185.394
-178.452
-169.974
-160.426
-150.742
-142.089
-135.072
-129.95
-126.762
-125.141
-124.708
-125.141
-125.958
-126.644
-126.924
-126.667
-125.808
-124.409
-122.484
-119.99
-116.953
-113.421
-109.419
-104.98
-100.152
-94.983
-89.587
-84.129
-78.729
-73.473
-68.419
-63.587
-59.004
-54.703
-50.7
-47.004
-43.625
-40.57
-37.851
-35.479
-33.443
-31.717
-30.256
-28.994
-27.882
-26.881
-25.96
-25.098
-24.277
-23.478
-22.691
-21.911
-21.128
-20.327
-19.492
-18.599
-17.633
-16.581
-15.433
-14.182
-12.822
-11.343
-9.739
-8.002
-6.122
-4.092
-1.902
0.46
3.002
5.728
8.641
11.742
15.029
18.498
22.144
25.959
29.936
34.064
38.333
42.732
47.248
51.867
56.575
61.356
66.193
71.069
75.967
80.866
85.749
90.595
95.385
100.099
104.717
109.219
113.587
117.8
121.84
125.688
129.327
132.737
135.904
138.812
141.446
143.793
145.843
147.586
149.013
150.12
150.9
151.35
151.469
151.256
150.712
149.84
148.643
147.128
145.3
143.169
140.743
138.034
135.053
131.813
128.329
124.614
120.686
116.56
112.253
107.784
103.171
98.433
93.589
88.66
83.664
78.622
73.554
68.477
63.411
58.374
53.381
48.451
43.598
38.838
34.184
29.651
25.25
20.992
16.89
12.951
9.186
5.6
2.2
-1.007
-4.019
-6.829
-9.436
-11.839
-14.035
-16.027
-17.814
-19.399
-20.787
-21.981
-22.988
-23.815
-24.47
-24.963
-25.302
-25.497
-25.561
-25.508
-25.351
-25.102
-24.772
-24.371
-23.91
-23.4
-22.852
-22.276
-21.679
-21.069
-20.457
-19.854
-19.274
-18.725
-18.21
-17.719
-17.249
-16.8
-16.379
-15.998
-15.662
-15.369
-15.117
-14.909
-14.747
-14.627
-14.531
-14.411
-14.22
-13.925
-13.514
-13.011
-12.433
-11.765
-10.956
-9.933
-8.649
-7.099
-5.31
-3.266
-0.9
1.783
4.639
7.37
9.642
11.296
12.437
13.221
13.63
13.677
13.486
13.415
14.051
15.685
18.107
20.924
23.912
26.898
29.744
32.109
33.295
32.912
30.951
27.555
22.892
17.08
10.277
2.869
-4.503
-11.285
-16.714
-19.75
-19.259
-13.92
-2.67
15.395
41.265
75.68
118.621
169.09
225.24
284.576
344.543
402.03
453.142
494.01
521.186
532.317
526.301
502.704
461.668
404.776
335.049
256.229
172.572
87.903
5.428
-71.485
-139.821
-197.988
-245.694
-283.611
-313.244
-336.073
-353.512
-367.679
-380.782
-394.138
-408.336
-423.267
-438.214
-452.523
-465.572
-476.255
-483.346
-486.111
-484.149
-477.485
-466.542
-451.71
-433.409
-412.278
-389.006
-364.134
-338.097
-311.207
-283.683
-255.783
-227.732
-199.71
-171.886
-144.475
-117.787
-92.133
-67.781
-44.962
-23.849
-4.601
12.621
27.716
40.669
51.516
60.346
67.26
72.325
75.625
77.282
77.457
76.381
74.286
71.375
67.861
63.963
59.908
55.941
52.242
48.911
46.012
43.569
41.599
40.133
39.18
38.72
38.713
39.097
39.81
40.806
42.019
43.37
44.767
46.106
47.327
48.421
49.396
50.284
51.122
51.946
52.813
53.794
54.956
56.365
58.081
60.153
62.638
65.594
69.084
73.172
77.903
83.309
89.403
96.181
103.631
111.73
120.442
129.719
139.504
149.73
160.335
171.258
182.447
193.865
205.467
217.204
229.027
240.886
252.746
264.594
276.411
288.17
299.854
311.443
322.944
334.393
345.807
357.188
368.512
379.715
390.737
401.527
412.013
422.116
431.73
440.716
448.959
456.378
462.882
468.395
472.806
475.968
477.773
478.148
477.053
474.496
470.489
465.042
458.211
450.083
440.78
430.467
419.277
407.31
394.674
381.475
367.843
353.944
339.911
325.842
311.824
297.921
284.193
270.713
257.509
244.58
231.908
219.446
207.176
195.109
183.251
171.608
160.18
148.95
137.921
127.117
116.558
106.262
96.247
86.52
77.105
68.045
59.38
51.155
43.402
36.133
29.361
23.092
17.33
12.075
7.318
3.037
-0.785
-4.163
-7.116
-9.656
-11.807
-13.596
-15.05
-16.197
-17.064
-17.675
-18.055
-18.228
-18.216
-18.04
-17.719
-17.268
-16.706
-16.051
-15.321
-14.533
-13.704
-12.848
-11.981
-11.115
-10.264
-9.437
-8.644
-7.891
-7.185
-6.531
-5.935
-5.398
-4.923
-4.512
-4.164
-3.879
-3.655
-3.49
-3.38
-3.324
-3.317
-3.357
-3.438
-3.558
-3.712
-3.898
-4.111
-4.349
-4.607
-4.882
-5.172
-5.472
-5.782
-6.097
-6.417
-6.738
-7.061
-7.383
-7.703
-8.021
-8.337
-8.651
-8.962
-9.271
-9.579
-9.888
-10.198
-10.511
-10.83
-11.156
-11.491
-11.838
-12.197
-12.572
-12.963
-13.372
-13.801
-14.251
-14.723
-15.217
-15.735
-16.277
-16.842
-17.43
-18.041
-18.673
-19.326
-19.997
-20.686
-21.391
-22.109
-22.839
-23.579
-24.327
-25.081
-25.838
-26.595
-27.35
-28.1
-28.841
-29.571
-30.286
-30.983
-31.659
-32.311
-32.936
-33.531
-34.094
-34.621
-35.109
-35.558
-35.963
-36.324
-36.639
-36.906
-37.124
-37.293
-37.413
-37.483
-37.503
-37.473
-37.395
-37.268
-37.092
-36.869
-36.599
-36.283
-35.922
-35.518
-35.071
-34.584
-34.059
-33.496
-32.898
-32.268
-31.605
-30.914
-30.195
-29.45
-28.683
-27.894
-27.086
-26.261
-25.421
-24.568
-23.704
-22.829
-21.945
-21.053
-20.153
-19.247
-18.335
-17.418
-16.496
-15.571
-14.642
-13.711
-12.779
-11.845
-10.911
-9.978
-9.046
-8.116
-7.189
-6.265
-5.346
-4.433
-3.528
-2.63
-1.743
-0.866
-0.002
0.848
1.683
2.5
3.299
4.077
4.831
5.559
6.258
6.925
7.557
8.151
8.703
9.21
9.669
10.077
10.429
10.725
10.96
11.132
11.237
11.275
11.241
11.135
10.954
10.696
10.361
9.948
9.455
8.883
8.231
7.499
6.688
5.798
4.831
3.788
2.671
1.482
0.225
-1.096
-2.478
-3.914
-5.401
-6.931
-8.499
-10.098
-11.722
-13.362
-15.012
-16.664
-18.31
-19.943
-21.553
-23.133
-24.674
-26.167
-27.605
-28.978
-30.278
-31.497
-32.627
-33.661
-34.591
-35.408
-36.107
-36.681
-37.123
-37.429
-37.593
-37.612
-37.482
-37.201
-36.77
-36.187
-35.454
-34.573
-33.546
-32.379
-31.076
-29.644
-28.089
-26.419
-24.644
-22.774
-20.82
-18.795
-16.711
-14.584
-12.428
-10.263
-8.103
-5.968
-3.875
-1.843
0.109
1.963
3.703
5.315
6.781
8.086
9.215
10.154
10.888
11.405
11.692
11.737
11.53
11.066
10.345
9.368
8.133
6.639
4.879
2.854
0.57
-1.967
-4.748
-7.757
-10.973
-14.356
-17.851
-21.407
-24.977
-28.522
-32.01
-35.399
-38.647
-41.714
-44.557
-47.151
-49.478
-51.512
-53.244
-54.683
-55.871
-56.902
-57.897
-58.964
-60.2
-61.672
-63.452
-65.639
-68.317
-71.566
-75.449
-79.955
-85.116
-91.028
-97.651
-104.822
-112.197
-119.158
-125.118
-129.648
-132.224
-132.331
-129.77
-124.551
-117.233
-109.038
-101.055
-94.165
-89.287
-86.973
-87.153
-89.288
-91.702
-91.685
-86.721
-74.207
-51.404
-16.359
31.807
91.781
159.428
229.849
298.85
364.988
427.923
483.947
526.157
542.637
521.304
457.461
352.576
216.545
64.567
-88.668
-227.977
-342.358
-426.928
-482.148
-515.169
-533.137
-539.94
-536.346
-519.381
-488.552
-447.04
-399.647
-352.658
-310.391
-274.999
-247.925
-229.268
-218.189
-213.57
-213.654
-216.372
-220.069
-222.891
-223.022
-219.633
-212.605
-202.339
-189.796
-175.998
-161.782
-148.229
-136.43
-126.944
-120.01
-115.547
-113.171
-112.5
-113.172
-114.738
-116.756
-118.924
-121.032
-122.923
-124.471
-125.565
-126.133
-126.142
-125.609
-124.541
-122.922
-120.77
-118.13
-115.065
-111.667
-107.995
-104.08
-99.976
-95.749
-91.493
-87.337
-83.369
-79.633
-76.172
-73.008
-70.155
-67.629
-65.413
-63.458
-61.727
-60.18
-58.792
-57.547
-56.419
-55.372
-54.365
-53.347
-52.279
-51.14
-49.905
-48.553
-47.071
-45.446
-43.675
-41.77
-39.734
-37.569
-35.273
-32.843
-30.277
-27.579
-24.753
-21.801
-18.727
-15.534
-12.228
-8.814
-5.299
-1.688
2.014
5.803
9.672
13.613
17.618
21.675
25.772
29.9
34.044
38.192
42.33
46.446
50.526
54.558
58.531
62.432
66.249
69.969
73.582
77.075
80.435
83.651
86.712
89.606
92.322
94.849
97.176
99.295
101.196
102.871
104.314
105.518
106.475
107.181
107.633
107.825
107.757
107.425
106.831
105.974
104.856
103.481
101.853
99.977
97.856
95.499
92.91
90.099
87.074
83.842
80.416
76.805
73.021
69.078
64.989
60.768
56.429
51.987
47.458
42.857
38.199
33.502
28.779
24.048
19.324
14.624
9.962
5.355
0.817
-3.638
-7.996
-12.244
-16.37
-20.365
-24.216
-27.916
-31.453
-34.822
-38.014
-41.023
-43.845
-46.476
-48.911
-51.15
-53.193
-55.04
-56.694
-58.157
-59.434
-60.531
-61.457
-62.217
-62.823
-63.284
-63.611
-63.815
-63.907
-63.897
-63.797
-63.618
-63.37
-63.068
-62.723
-62.349
-61.958
-61.561
-61.17
-60.796
-60.449
-60.133
-59.853
-59.613
-59.423
-59.298
-59.249
-59.281
-59.394
-59.59
-59.859
-60.19
-60.564
-60.945
-61.301
-61.602
-61.822
-61.947
-61.962
-61.837
-61.542
-61.037
-60.281
-59.261
-57.972
-56.403
-54.569
-52.511
-50.292
-48.02
-45.794
-43.676
-41.73
-40.022
-38.627
-37.646
-37.174
-37.276
-38.05
-39.601
-41.96
-45.075
-48.75
-52.62
-56.325
-59.556
-61.939
-63.055
-62.641
-60.716
-57.675
-54.256
-51.126
-48.643
-47.178
-47.287
-49.227
-52.587
-56.107
-57.905
-56.269
-49.801
-36.81
-15.236
16.613
57.935
104.905
153.635
202.402
254.461
315.191
385.049
455.97
509.314
526.637
497.86
425.955
331.998
236.752
154.283
90.405
34.368
-22.477
-82.495
-146.035
-205.119
-254.847
-295.648
-327.502
-353.161
-374.802
-392.988
-409.592
-425.726
-441.459
-456.793
-471.125
-483.811
-494.637
-503.094
-508.248
-509.527
-506.686
-499.725
-489.095
-475.264
-458.585
-439.582
-418.862
-396.895
-374.087
-350.753
-327.076
-303.25
-279.427
-255.686
-232.104
-208.779
-185.869
-163.605
-142.167
-121.694
-102.319
-84.152
-67.334
-52.017
-38.27
-26.102
-15.495
-6.406
1.159
7.174
11.662
14.669
16.284
16.643
15.838
13.946
11.112
7.505
3.335
-1.135
-5.72
-10.282
-14.68
-18.816
-22.586
-25.875
-28.627
-30.813
-32.394
-33.351
-33.631
-33.156
-31.924
-29.977
-27.381
-24.268
-20.731
-16.842
-12.708
-8.398
-3.952
0.59
5.24
10.033
14.97
20.049
25.252
30.529
35.875
41.317
46.878
52.618
58.59
64.847
71.468
78.511
85.992
93.909
102.23
110.906
119.911
129.224
138.82
148.696
158.834
169.2
179.78
190.557
201.506
212.607
223.823
235.119
246.49
257.949
269.506
281.167
292.917
304.725
316.559
328.37
340.098
351.682
363.031
374.033
384.57
394.505
403.713
412.078
419.468
425.741
430.78
434.488
436.796
437.665
437.074
435.02
431.521
426.612
420.362
412.869
404.257
394.674
384.266
373.166
361.519
349.476
337.172
324.729
312.244
299.788
287.425
275.213
263.195
251.407
239.864
228.563
217.486
206.597
195.871
185.293
174.849
164.523
154.308
144.201
134.217
124.383
114.726
105.268
96.034
87.048
78.339
69.941
61.89
54.226
46.978
40.166
33.805
27.906
22.472
17.503
12.99
8.915
5.259
2.007
-0.858
-3.354
-5.501
-7.323
-8.843
-10.087
-11.077
-11.838
-12.391
-12.758
-12.96
-13.017
-12.946
-12.765
-12.488
-12.133
-11.716
-11.254
-10.76
-10.249
-9.733
-9.224
-8.735
-8.272
-7.844
-7.458
-7.118
-6.829
-6.592
-6.41
-6.284
-6.217
-6.21
-6.262
-6.369
-6.527
-6.736
-6.999
-7.302
-7.63
-7.972
-8.311
-8.653
-9.015
-9.376
-9.713
-10.062
-10.452
-10.901
-11.445
-12.05
-12.651
-13.281
-14.001
-14.646
-15.024
-15.249
-15.311
-15.174
-15.252
-14.431
-11.626
-8.39
-5.195
-4.895
-10.904
-19.447
-28.011
-32.848
-28.813
-20.465
-11.667
-5.07
-5.051
-8.486
-12.212
-15.529
-16.509
-16.278
-16.279
-16.241
-16.351
-16.514
-16.441
-16.325
-16.321
-16.378
-16.486
-16.665
-16.91
-17.211
-17.561
-17.933
-18.293
-18.656
-19.033
-19.419
-19.817
-20.224
-20.638
-21.063
-21.503
-21.954
-22.415
-22.884
-23.359
-23.841
-24.327
-24.818
-25.312
-25.809
-26.307
-26.807
-27.308
-27.811
-28.317
-28.825
-29.337
-29.854
-30.378
-30.909
-31.45
-32.002
-32.567
-33.146
-33.74
-34.35
-34.976
-35.619
-36.278
-36.952
-37.641
-38.344
-39.059
-39.787
-40.525
-41.272
-42.029
-42.793
-43.563
-44.339
-45.118
-45.901
-46.686
-47.47
-48.253
-49.033
-49.807
-50.573
-51.329
-52.071
-52.797
-53.504
-54.187
-54.844
-55.471
-56.064
-56.622
-57.14
-57.618
-58.051
-58.44
-58.782
-59.077
-59.323
-59.52
-59.669
-59.768
-59.818
-59.819
-59.77
-59.673
-59.527
-59.333
-59.091
-58.801
-58.464
-58.081
-57.652
-57.179
-56.663
-56.106
-55.51
-54.878
-54.213
-53.517
-52.795
-52.049
-51.283
-50.502
-49.709
-48.908
-48.102
-47.296
-46.491
-45.691
-44.899
-44.118
-43.35
-42.596
-41.86
-41.144
-40.449
-39.777
-39.13
-38.509
-37.917
-37.353
-36.821
-36.32
-35.851
-35.415
-35.011
-34.64
-34.299
-33.987
-33.703
-33.442
-33.202
-32.978
-32.765
-32.559
-32.353
-32.142
-31.919
-31.677
-31.41
-31.112
-30.776
-30.395
-29.962
-29.472
-28.918
-28.294
-27.594
-26.812
-25.943
-24.981
-23.922
-22.762
-21.497
-20.123
-18.636
-17.036
-15.321
-13.49
-11.544
-9.485
-7.316
-5.042
-2.669
-0.204
2.344
4.965
7.646
10.373
13.132
15.906
18.681
21.438
24.16
26.831
29.434
31.953
34.373
36.676
38.847
40.866
42.717
44.384
45.851
47.105
48.132
48.919
49.463
49.758
49.8
49.582
49.092
48.319
47.263
45.925
44.313
42.439
40.322
37.992
35.49
32.859
30.138
27.36
24.548
21.725
18.923
16.184
13.554
11.08
8.79
6.701
4.84
3.209
1.777
0.495
-0.731
-1.986
-3.315
-4.765
-6.389
-8.24
-10.4
-12.95
-15.93
-19.42
-23.529
-28.277
-33.63
-39.394
-45.15
-50.485
-55.042
-58.396
-60.141
-60.012
-57.882
-54.111
-49.515
-44.801
-40.547
-37.205
-35.125
-34.613
-35.644
-37.294
-37.928
-35.875
-29.458
-17.3
1.97
29.934
67.528
114.83
171.16
234.842
303.613
373.991
440.385
498.407
544.985
578.658
601.067
609.326
597.137
558.279
485.241
377.587
241.302
85.772
-74.505
-223.514
-345.244
-429.114
-472.093
-479.714
-465.447
-439.118
-406.366
-369.115
-323.799
-271
-215.219
-161.185
-115.364
-81.579
-59.872
-49.276
-47.974
-53.605
-63.943
-76.694
-89.021
-98.42
-103.726
-104.693
-101.686
-95.637
-87.558
-78.389
-69.475
-62.161
-57.079
-54.393
-53.873
-54.925
-57.042
-59.845
-62.83
-65.487
-67.514
-68.708
-69.026
-68.58
-67.438
-65.651
-63.29
-60.42
-57.119
-53.498
-49.671
-45.76
-41.876
-38.09
-34.459
-31.03
-27.844
-24.947
-22.362
-20.081
-18.094
-16.392
-14.973
-13.84
-12.974
-12.327
-11.844
-11.46
-11.123
-10.799
-10.455
-10.06
-9.589
-9.019
-8.34
-7.552
-6.651
-5.626
-4.464
-3.149
-1.673
-0.034
1.77
3.74
5.876
8.18
10.651
13.288
16.087
19.05
22.177
25.469
28.924
32.536
36.299
40.203
44.239
48.397
52.664
57.027
61.471
65.982
70.548
75.155
79.786
84.429
89.068
93.687
98.271
102.804
107.27
111.654
115.938
120.107
124.146
128.039
131.772
135.329
138.698
141.866
144.82
147.548
150.04
152.284
154.271
155.995
157.446
158.62
159.511
160.116
160.431
160.456
160.188
159.628
158.776
157.632
156.199
154.479
152.475
150.194
147.64
144.82
141.741
138.414
134.846
131.051
127.039
122.822
118.414
113.829
109.081
104.186
99.159
94.017
88.776
83.453
78.064
72.626
67.155
61.667
56.178
50.704
45.259
39.859
34.517
29.25
24.07
18.991
14.026
9.188
4.49
-0.059
-4.449
-8.669
-12.712
-16.57
-20.238
-23.71
-26.983
-30.054
-32.922
-35.586
-38.048
-40.31
-42.377
-44.252
-45.942
-47.455
-48.799
-49.982
-51.015
-51.909
-52.672
-53.317
-53.854
-54.292
-54.642
-54.916
-55.123
-55.276
-55.388
-55.471
-55.536
-55.598
-55.668
-55.76
-55.886
-56.05
-56.26
-56.522
-56.846
-57.244
-57.729
-58.301
-58.958
-59.699
-60.518
-61.405
-62.339
-63.282
-64.192
-65.038
-65.786
-66.422
-66.927
-67.268
-67.415
-67.326
-66.97
-66.344
-65.452
-64.288
-62.862
-61.196
-59.355
-57.462
-55.635
-53.968
-52.536
-51.371
-50.536
-50.129
-50.237
-50.961
-52.374
-54.477
-57.306
-60.935
-65.321
-70.33
-75.66
-80.763
-85.168
-88.518
-90.392
-90.507
-88.806
-85.36
-80.682
-75.625
-70.856
-67.04
-64.829
-64.327
-65.129
-66.364
-66.382
-63.25
-55.182
-40.23
-16.651
16.428
58.815
109.114
164.85
222.938
279.535
330.333
371.077
397.628
408.375
403.008
380.017
340.143
283.062
208.957
125.559
39.629
-41.423
-109.376
-165.899
-213.209
-253.408
-291.169
-324.998
-353.74
-378.479
-399.234
-418.575
-438.563
-459.134
-480.162
-500.714
-519.554
-535.895
-548.789
-557.429
-561.553
-561.158
-556.443
-547.772
-535.535
-520.196
-502.35
-482.517
-461.037
-438.164
-414.101
-389.056
-363.304
-337.106
-310.63
-284.016
-257.418
-230.985
-204.939
-179.539
-154.986
-131.469
-109.176
-88.28
-68.974
-51.457
-35.834
-22.15
-10.409
-0.564
7.405
13.505
17.763
20.221
20.955
20.089
17.761
14.131
9.411
3.843
-2.298
-8.711
-15.15
-21.423
-27.376
-32.904
-37.908
-42.3
-46.002
-48.946
-51.063
-52.286
-52.577
-51.938
-50.418
-48.109
-45.143
-41.673
-37.844
-33.789
-29.602
-25.333
-21.011
-16.634
-12.2
-7.71
-3.183
1.34
5.839
10.317
14.798
19.335
23.999
28.87
34.041
39.62
45.678
52.247
59.329
66.881
74.86
83.238
92
101.149
110.677
120.569
130.806
141.362
152.217
163.345
174.696
186.193
197.778
209.419
221.115
232.906
244.816
256.833
268.923
281.03
293.098
305.058
316.827
328.298
339.334
349.811
359.636
368.74
377.054
384.49
390.925
396.214
400.241
402.937
404.265
404.214
402.778
399.979
395.874
390.566
384.198
376.894
368.747
359.834
350.231
340.033
329.368
318.374
307.163
295.819
284.414
273.007
261.661
250.417
239.285
228.24
217.233
206.241
195.267
184.328
173.444
162.628
151.878
141.196
130.601
120.118
109.771
99.582
89.566
79.751
70.178
60.904
51.988
43.474
35.392
27.76
20.593
13.904
7.704
1.994
-3.234
-7.99
-12.28
-16.109
-19.484
-22.415
-24.922
-27.026
-28.753
-30.122
-31.157
-31.877
-32.306
-32.466
-32.376
-32.055
-31.52
-30.791
-29.888
-28.833
-27.648
-26.353
-24.969
-23.515
-22.011
-20.475
-18.924
-17.374
-15.837
-14.327
-12.856
-11.435
-10.075
-8.784
-7.569
-6.438
-5.395
-4.447
-3.595
-2.842
-2.191
-1.64
-1.192
-0.844
-0.596
-0.445
-0.39
-0.427
-0.552
-0.762
-1.052
-1.416
-1.85
-2.348
-2.904
-3.513
-4.168
-4.864
-5.594
-6.354
-7.138
-7.941
-8.757
-9.581
-10.409
-11.235
-12.055
-12.866
-13.662
-14.441
-15.198
-15.93
-16.634
-17.308
-17.947
-18.55
-19.114
-19.637
-20.117
-20.552
-20.941
-21.281
-21.573
-21.814
-22.005
-22.143
-22.229
-22.263
-22.242
-22.168
-22.039
-21.856
-21.619
-21.328
-20.983
-20.586
-20.136
-19.635
-19.084
-18.484
-17.836
-17.141
-16.403
-15.621
-14.8
-13.94
-13.045
-12.116
-11.157
-10.171
-9.161
-8.129
-7.08
-6.016
-4.941
-3.86
-2.775
-1.691
-0.612
0.457
1.513
2.551
3.566
4.555
5.513
6.436
7.319
8.159
8.952
9.694
10.382
11.012
11.582
12.089
12.531
12.905
13.209
13.442
13.603
13.69
13.703
13.641
13.504
13.293
13.009
12.652
12.224
11.728
11.165
10.538
9.85
9.105
8.307
7.459
6.566
5.633
4.664
3.666
2.642
1.599
0.541
-0.526
-1.596
-2.666
-3.728
-4.779
-5.814
-6.826
-7.813
-8.768
-9.689
-10.57
-11.408
-12.199
-12.941
-13.63
-14.264
-14.843
-15.363
-15.825
-16.229
-16.573
-16.861
-17.092
-17.268
-17.393
-17.47
-17.501
-17.491
-17.445
-17.366
-17.26
-17.133
-16.989
-16.834
-16.673
-16.514
-16.361
-16.22
-16.098
-16
-15.933
-15.902
-15.913
-15.971
-16.08
-16.246
-16.474
-16.765
-17.124
-17.554
-18.055
-18.629
-19.276
-19.997
-20.789
-21.65
-22.578
-23.568
-24.617
-25.72
-26.869
-28.058
-29.281
-30.529
-31.794
-33.067
-34.338
-35.597
-36.836
-38.042
-39.206
-40.318
-41.366
-42.339
-43.228
-44.021
-44.709
-45.282
-45.729
-46.042
-46.213
-46.235
-46.101
-45.804
-45.341
-44.708
-43.902
-42.924
-41.773
-40.449
-38.956
-37.298
-35.48
-33.508
-31.391
-29.137
-26.757
-24.265
-21.674
-19
-16.258
-13.464
-10.635
-7.788
-4.94
-2.106
0.699
3.46
6.16
8.778
11.298
13.702
15.976
18.103
20.071
21.865
23.475
24.9
26.136
27.177
28.016
28.635
29.023
29.179
29.104
28.801
28.285
27.565
26.668
25.631
24.491
23.278
22.02
20.724
19.412
18.113
16.861
15.706
14.685
13.813
13.111
12.593
12.234
12.011
11.869
11.718
11.502
11.16
10.614
9.812
8.676
7.124
5.11
2.53
-0.758
-4.772
-9.449
-14.6
-19.839
-24.853
-29.44
-33.275
-35.953
-37.241
-37.138
-36.066
-34.857
-34.107
-33.97
-34.518
-35.985
-38.541
-41.909
-45.1
-46.383
-44.165
-37.568
-25.966
-8.305
16.569
49.222
89.632
136.735
188.737
244.267
300.672
352.968
397.515
431.49
453.486
465.901
466.871
450.763
412.217
343.289
241.843
113.843
-31.365
-176.971
-303.625
-398.108
-453.448
-473.363
-471.13
-457.944
-440.395
-419.921
-392.465
-356.554
-314.829
-271.165
-230.786
-197.335
-171.835
-154.114
-143.01
-137.036
-134.784
-135.033
-136.608
-137.997
-137.787
-135.29
-130.453
-123.703
-115.772
-107.234
-98.58
-90.637
-84.314
-80.113
-78.177
-78.318
-80.081
-83.081
-87.01
-91.409
-95.775
-99.75
-103.068
-105.625
-107.452
-108.557
-108.938
-108.632
-107.691
-106.182
-104.194
-101.797
-99.071
-96.118
-93.041
-89.965
-86.994
-84.204
-81.67
-79.434
-77.518
-75.936
-74.685
-73.748
-73.111
-72.75
-72.625
-72.703
-72.939
-73.282
-73.679
-74.07
-74.401
-74.634
-74.734
-74.678
-74.45
-74.033
-73.419
-72.606
-71.591
-70.369
-68.936
-67.288
-65.421
-63.338
-61.042
-58.538
-55.833
-52.929
-49.831
-46.544
-43.073
-39.423
-35.6
-31.61
-27.459
-23.161
-18.726
-14.172
-9.512
-4.764
0.057
4.932
9.843
14.773
19.705
24.621
29.505
34.339
39.106
43.788
48.369
52.832
57.162
61.343
65.361
69.2
72.849
76.295
79.527
82.533
85.302
87.825
90.092
92.096
93.83
95.288
96.466
97.36
97.969
98.292
98.33
98.085
97.559
96.755
95.679
94.334
92.726
90.863
88.752
86.401
83.821
81.021
78.013
74.808
71.419
67.857
64.135
60.268
56.268
52.148
47.923
43.607
39.215
34.763
30.265
25.736
21.193
16.648
12.117
7.615
3.152
-1.256
-5.599
-9.864
-14.04
-18.115
-22.08
-25.925
-29.64
-33.218
-36.651
-39.933
-43.061
-46.028
-48.833
-51.471
-53.942
-56.245
-58.378
-60.343
-62.14
-63.77
-65.236
-66.542
-67.691
-68.689
-69.542
-70.255
-70.838
-71.3
-71.649
-71.894
-72.046
-72.114
-72.109
-72.039
-71.914
-71.741
-71.528
-71.282
-71.014
-70.731
-70.442
-70.154
-69.872
-69.605
-69.359
-69.137
-68.936
-68.755
-68.593
-68.453
-68.346
-68.276
-68.241
-68.241
-68.274
-68.332
-68.406
-68.47
-68.49
-68.431
-68.26
-67.955
-67.503
-66.884
-66.071
-65.031
-63.724
-62.129
-60.241
-58.052
-55.548
-52.737
-49.656
-46.381
-43.025
-39.679
-36.399
-33.246
-30.286
-27.606
-25.316
-23.517
-22.277
-21.673
-21.814
-22.724
-24.377
-26.607
-29.019
-31.226
-32.885
-33.538
-32.74
-30.409
-26.618
-21.783
-16.925
-12.719
-9.609
-8.699
-10.723
-15.305
-22.044
-28.578
-31.336
-29.288
-20.565
-4.732
16.263
44.211
79.849
125.734
188.192
266.572
356.027
444.849
512.194
544.147
535.628
490.681
425.467
353.971
283.366
216.228
148.82
78.572
7.353
-61.042
-121.793
-172.342
-213.061
-245.605
-272.076
-293.905
-312.155
-328.435
-344.37
-360.84
-378.02
-395.399
-412.106
-427.521
-441.131
-452.089
-459.444
-462.628
-461.423
-455.968
-446.705
-434.033
-418.326
-400.113
-379.989
-358.458
-335.932
-312.74
-289.133
-265.336
-241.551
-217.945
-194.661
-171.895
-149.91
-128.958
-109.258
-90.998
-74.314
-59.335
-46.191
-34.929
-25.532
-17.928
-11.993
-7.641
-4.821
-3.452
-3.438
-4.632
-6.821
-9.811
-13.431
-17.482
-21.769
-26.085
-30.204
-33.98
-37.334
-40.219
-42.629
-44.545
-45.927
-46.769
-47.082
-46.899
-46.28
-45.277
-43.926
-42.295
-40.463
-38.52
-36.571
-34.672
-32.831
-31.043
-29.28
-27.511
-25.711
-23.835
-21.819
-19.611
-17.152
-14.394
-11.305
-7.835
-3.929
0.474
5.437
11.003
17.183
23.982
31.393
39.394
47.963
57.056
66.609
76.565
86.871
97.479
108.358
119.476
130.79
142.255
153.827
165.47
177.173
188.931
200.729
212.561
224.419
236.307
248.263
260.309
272.446
284.67
296.936
309.192
321.387
333.466
345.352
356.956
368.152
378.795
388.775
397.98
406.304
413.638
419.832
424.762
428.339
430.495
431.204
430.462
428.267
424.633
419.621
413.314
405.84
397.355
387.983
377.84
367.045
355.721
344.019
332.082
320.016
307.911
295.836
283.852
272.023
260.405
249.01
237.84
226.869
216.053
205.374
194.829
184.41
174.114
163.929
153.845
143.877
134.05
124.39
114.919
105.657
96.618
87.839
79.36
71.222
63.474
56.147
49.262
42.838
36.887
31.417
26.431
21.92
17.866
14.254
11.069
8.298
5.925
3.931
2.293
0.987
-0.01
-0.72
-1.165
-1.366
-1.345
-1.121
-0.712
-0.136
0.593
1.458
2.441
3.526
4.695
5.932
7.222
8.548
9.898
11.256
12.613
13.956
15.277
16.568
17.823
19.036
20.203
21.32
22.385
23.396
24.351
25.25
26.093
26.878
27.606
28.277
28.89
29.447
29.947
30.392
30.781
31.116
31.398
31.628
31.807
31.937
32.02
32.058
32.052
32.006
31.921
31.801
31.648
31.464
31.252
31.012
30.748
30.459
30.148
29.816
29.462
29.087
28.694
28.282
27.853
27.408
26.948
26.475
25.991
25.497
24.995
24.487
23.974
23.458
22.942
22.426
21.912
21.401
20.895
20.394
19.9
19.411
18.928
18.45
17.977
17.508
17.041
16.576
16.111
15.645
15.177
14.707
14.233
13.753
13.268
12.774
12.272
11.758
11.233
10.694
10.141
9.571
8.984
8.379
7.754
7.109
6.442
5.752
5.04
4.303
3.542
2.757
1.948
1.117
0.264
-0.609
-1.501
-2.409
-3.331
-4.265
-5.208
-6.158
-7.113
-8.069
-9.023
-9.974
-10.917
-11.849
-12.769
-13.673
-14.558
-15.422
-16.264
-17.08
-17.87
-18.631
-19.361
-20.06
-20.725
-21.355
-21.949
-22.505
-23.022
-23.5
-23.937
-24.334
-24.69
-25.006
-25.28
-25.515
-25.71
-25.865
-25.982
-26.061
-26.103
-26.111
-26.085
-26.027
-25.939
-25.824
-25.683
-25.518
-25.331
-25.123
-24.897
-24.653
-24.393
-24.119
-23.832
-23.534
-23.227
-22.912
-22.591
-22.268
-21.943
-21.619
-21.299
-20.985
-20.679
-20.386
-20.107
-19.845
-19.605
-19.39
-19.201
-19.043
-18.918
-18.829
-18.777
-18.764
-18.792
-18.863
-18.976
-19.134
-19.336
-19.583
-19.876
-20.214
-20.598
-21.026
-21.498
-22.012
-22.566
-23.158
-23.785
-24.445
-25.132
-25.843
-26.573
-27.316
-28.066
-28.815
-29.555
-30.279
-30.978
-31.644
-32.267
-32.838
-33.35
-33.793
-34.16
-34.442
-34.633
-34.725
-34.712
-34.587
-34.347
-33.986
-33.501
-32.889
-32.147
-31.275
-30.272
-29.14
-27.88
-26.494
-24.987
-23.364
-21.632
-19.798
-17.873
-15.868
-13.796
-11.673
-9.515
-7.339
-5.164
-3.008
-0.892
1.164
3.145
5.03
6.802
8.443
9.935
11.26
12.4
13.34
14.062
14.553
14.799
14.792
14.527
14.001
13.21
12.152
10.816
9.2
7.304
5.13
2.685
-0.02
-2.969
-6.13
-9.457
-12.904
-16.429
-19.991
-23.563
-27.111
-30.592
-33.97
-37.199
-40.239
-43.068
-45.656
-47.974
-50.018
-51.801
-53.384
-54.863
-56.333
-57.867
-59.522
-61.349
-63.422
-65.827
-68.641
-71.935
-75.735
-80.074
-85.062
-90.718
-96.917
-103.38
-109.579
-114.948
-119.081
-121.538
-121.778
-119.546
-114.881
-108.214
-100.671
-93.377
-87.081
-82.585
-80.617
-81.326
-84.301
-88.306
-90.875
-89.431
-81.662
-64.991
-37.099
3.797
57.447
120.966
190.551
261.736
333.602
408.877
485.431
557.278
611.243
626.701
594.261
516.236
403.731
278.221
150.601
19.755
-113.743
-250.183
-378.582
-477.211
-535.531
-551.298
-531.943
-493.791
-444.437
-387.626
-327.995
-270.576
-225.206
-199.197
-192.208
-196.764
-202.796
-204.241
-200.448
-195.3
-192.249
-191.17
-189.953
-185.99
-178.234
-167.481
-155.16
-142.602
-130.689
-120.26
-112.023
-106.301
-103.165
-102.37
-103.452
-106.028
-109.659
-113.776
-117.963
-121.906
-125.391
-128.351
-130.707
-132.374
-133.338
-133.617
-133.229
-132.209
-130.577
-128.357
-125.619
-122.45
-118.959
-115.271
-111.494
-107.745
-104.121
-100.698
-97.549
-94.721
-92.233
-90.101
-88.324
-86.883
-85.765
-84.944
-84.382
-84.046
-83.895
-83.877
-83.945
-84.042
-84.12
-84.145
-84.084
-83.911
-83.608
-83.157
-82.546
-81.772
-80.828
-79.704
-78.395
-76.89
-75.184
-73.274
-71.156
-68.832
-66.3
-63.561
-60.612
-57.454
-54.089
-50.516
-46.738
-42.756
-38.574
-34.198
-29.639
-24.907
-20.014
-14.973
-9.798
-4.506
0.889
6.37
11.92
17.522
23.16
28.815
34.469
40.104
45.7
51.24
56.705
62.076
67.334
72.463
77.445
82.262
86.899
91.339
95.566
99.565
103.322
106.825
110.059
113.015
115.681
118.049
120.111
121.862
123.296
124.408
125.197
125.661
125.799
125.613
125.105
124.278
123.136
121.685
119.933
117.888
115.559
112.957
110.092
106.977
103.625
100.05
96.266
92.288
88.133
83.817
79.358
74.773
70.081
65.3
60.45
55.548
50.614
45.667
40.725
35.805
30.926
26.104
21.357
16.702
12.153
7.725
3.433
-0.71
-4.692
-8.503
-12.133
-15.573
-18.816
-21.855
-24.685
-27.301
-29.701
-31.882
-33.843
-35.584
-37.107
-38.414
-39.51
-40.4
-41.089
-41.587
-41.903
-42.047
-42.033
-41.871
-41.576
-41.161
-40.639
-40.026
-39.334
-38.575
-37.763
-36.909
-36.031
-35.142
-34.255
-33.386
-32.546
-31.746
-30.998
-30.312
-29.689
-29.132
-28.644
-28.232
-27.911
-27.689
-27.571
-27.557
-27.646
-27.83
-28.096
-28.419
-28.759
-29.081
-29.351
-29.543
-29.641
-29.626
-29.471
-29.145
-28.608
-27.824
-26.776
-25.452
-23.834
-21.932
-19.787
-17.466
-15.079
-12.723
-10.459
-8.352
-6.475
-4.909
-3.761
-3.134
-3.093
-3.735
-5.192
-7.501
-10.618
-14.344
-18.244
-21.873
-24.874
-26.831
-27.31
-26.141
-23.397
-19.528
-15.561
-12.444
-10.775
-11.149
-14.009
-19.259
-26.259
-33.576
-38.709
-39.153
-32.87
-17.821
7.6
44.191
91.87
149.134
212.827
279.292
344.683
404.294
453.671
488.922
506.454
505.379
486.273
448.467
393.336
321.536
233.93
138.124
40.668
-51.306
-129.855
-196.199
-251.831
-298.541
-340.737
-376.798
-405.405
-427.478
-443.059
-455.083
-466.6
-478.291
-490.366
-502.358
-513.437
-523.184
-531.062
-536.107
-537.233
-533.838
-525.859
-513.496
-497.19
-477.385
-454.473
-429.051
-401.872
-373.527
-344.474
-315.077
-285.526
-256.018
-226.828
-198.209
-170.438
-143.824
-118.639
-95.142
-73.594
-54.211
-37.141
-22.469
-10.185
-0.208
7.572
13.294
17.076
19.042
19.357
18.236
15.937
12.726
8.866
4.613
0.236
-3.989
-7.842
-11.166
-13.877
-15.946
-17.363
-18.129
-18.254
-17.763
-16.703
-15.146
-13.177
-10.875
-8.334
-5.654
-2.949
-0.345
2.071
4.26
6.217
7.966
9.542
10.983
12.346
13.704
15.128
16.691
18.459
20.491
22.854
25.616
28.847
32.618
36.98
41.964
47.591
53.877
60.821
68.414
76.634
85.443
94.797
104.651
114.946
125.621
136.622
147.898
159.403
171.108
182.977
194.979
207.09
219.265
231.468
243.666
255.816
267.886
279.86
291.727
303.505
315.224
326.879
338.45
349.898
361.148
372.124
382.736
392.867
402.425
411.329
419.501
426.892
433.452
439.104
443.771
447.351
449.722
450.81
450.57
448.973
446.044
441.829
436.406
429.901
422.431
414.084
404.952
395.098
384.582
373.493
361.922
349.973
337.775
325.431
313.029
300.657
288.364
276.177
264.102
252.103
240.154
228.253
216.405
204.635
192.974
181.442
170.06
158.855
147.834
137.01
126.395
115.996
105.834
95.939
86.35
77.12
68.299
59.918
52.003
44.568
37.617
31.156
25.18
19.677
14.637
10.05
5.908
2.203
-1.077
-3.949
-6.434
-8.555
-10.339
-11.808
-12.986
-13.897
-14.562
-15.002
-15.236
-15.281
-15.155
-14.876
-14.464
-13.937
-13.316
-12.619
-11.862
-11.064
-10.24
-9.404
-8.568
-7.743
-6.939
-6.163
-5.423
-4.724
-4.071
-3.468
-2.916
-2.419
-1.978
-1.591
-1.261
-0.984
-0.761
-0.59
-0.468
-0.394
-0.364
-0.377
-0.428
-0.517
-0.639
-0.792
-0.971
-1.175
-1.399
-1.641
-1.896
-2.162
-2.435
-2.713
-2.995
-3.277
-3.559
-3.84
-4.12
-4.397
-4.673
-4.948
-5.221
-5.495
-5.77
-6.046
-6.326
-6.609
-6.897
-7.19
-7.489
-7.796
-8.109
-8.43
-8.759
-9.095
-9.44
-9.792
-10.151
-10.518
-10.891
-11.27
-11.655
-12.044
-12.438
-12.836
-13.236
-13.638
-14.04
-14.442
-14.842
-15.239
-15.631
-16.017
-16.395
-16.764
-17.121
-17.465
-17.795
-18.109
-18.405
-18.683
-18.941
-19.178
-19.394
-19.587
-19.758
-19.905
-20.03
-20.131
-20.21
-20.267
-20.303
-20.318
-20.313
-20.29
-20.248
-20.19
-20.115
-20.024
-19.92
-19.802
-19.672
-19.53
-19.378
-19.217
-19.048
-18.872
-18.692
-18.507
-18.321
-18.134
-17.947
-17.763
-17.584
-17.41
-17.243
-17.085
-16.938
-16.802
-16.678
-16.568
-16.472
-16.39
-16.322
-16.269
-16.231
-16.207
-16.197
-16.201
-16.22
-16.252
-16.299
-16.359
-16.433
-16.519
-16.618
-16.729
-16.852
-16.985
-17.129
-17.281
-17.44
-17.606
-17.776
-17.949
-18.122
-18.294
-18.462
-18.624
-18.777
-18.921
-19.052
-19.171
-19.277
-19.368
-19.445
-19.507
-19.556
-19.59
-19.612
-19.62
-19.615
-19.599
-19.571
-19.533
-19.486
-19.432
-19.371
-19.306
-19.239
-19.172
-19.106
-19.043
-18.987
-18.939
-18.904
-18.883
-18.882
-18.903
-18.951
-19.028
-19.139
-19.285
-19.467
-19.687
-19.945
-20.24
-20.569
-20.931
-21.321
-21.738
-22.178
-22.638
-23.117
-23.61
-24.114
-24.625
-25.14
-25.652
-26.154
-26.636
-27.087
-27.499
-27.861
-28.166
-28.406
-28.571
-28.653
-28.648
-28.548
-28.346
-28.029
-27.578
-26.979
-26.23
-25.333
-24.295
-23.135
-21.864
-20.499
-19.066
-17.582
-16.056
-14.486
-12.855
-11.143
-9.348
-7.477
-5.552
-3.595
-1.608
0.411
2.468
4.586
6.786
9.092
11.558
14.208
17.031
19.996
23.029
26.038
28.962
31.753
34.377
36.815
39.031
40.985
42.646
43.96
44.858
45.274
45.107
44.285
42.798
40.665
37.961
34.805
31.296
27.515
23.547
19.443
15.253
11.044
6.863
2.773
-1.13
-4.759
-8.009
-10.784
-13.052
-14.819
-16.134
-17.101
-17.829
-18.409
-18.963
-19.592
-20.382
-21.437
-22.81
-24.596
-26.965
-29.998
-33.708
-38.002
-42.592
-47.207
-51.67
-55.676
-58.836
-60.909
-61.733
-61.563
-61.119
-60.933
-61.372
-62.701
-65.03
-68.493
-73.082
-77.95
-81.602
-82.58
-79.381
-70.925
-56.309
-34.251
-3.892
34.88
81.643
135.257
194.059
255.243
314.233
366.344
408.241
440.52
466.258
485.907
495.453
483.17
435.486
345.253
214.203
57.805
-101.599
-242.266
-348.114
-416.111
-452.298
-468.192
-474.194
-473.43
-464.733
-444.551
-411.746
-369.706
-323.829
-279.705
-241.083
-210.024
-187.171
-171.934
-163.373
-160.116
-160.27
-162.373
-164.946
-166.052
-164.656
-160.483
-153.587
-144.677
-134.682
-124.228
-114.155
-105.634
-99.3
-95.398
-93.966
-94.593
-96.828
-100.34
-104.661
-109.209
-113.577
-117.476
-120.699
-123.231
-125.066
-126.17
-126.565
-126.292
-125.381
-123.885
-121.871
-119.391
-116.519
-113.357
-109.99
-106.526
-103.087
-99.764
-96.638
-93.766
-91.173
-88.87
-86.873
-85.181
-83.779
-82.645
-81.741
-81.031
-80.486
-80.07
-79.741
-79.452
-79.145
-78.779
-78.322
-77.752
-77.052
-76.21
-75.214
-74.058
-72.747
-71.28
-69.662
-67.891
-65.964
-63.88
-61.644
-59.261
-56.738
-54.081
-51.291
-48.375
-45.337
-42.183
-38.918
-35.548
-32.076
-28.509
-24.855
-21.124
-17.326
-13.474
-9.579
-5.652
-1.707
2.244
6.187
10.113
14.008
17.862
21.664
25.401
29.063
32.638
36.118
39.489
42.743
45.867
48.854
51.693
54.375
56.891
59.234
61.394
63.365
65.14
66.713
68.078
69.23
70.164
70.876
71.365
71.631
71.675
71.497
71.098
70.474
69.635
68.588
67.326
65.843
64.139
62.208
60.064
57.736
55.215
52.492
49.615
46.624
43.552
40.445
37.285
34.025
30.709
27.412
23.99
20.271
16.381
12.325
8.081
4.064
-0.786
-7.501
-14.573
-21.533
-25.622
-23.541
-18.913
-14.152
-12.856
-19.972
-31.102
-42.517
-51.659
-54.308
-53.467
-52.178
-51.115
-52.13
-54.139
-55.751
-57.225
-58.382
-59.315
-60.302
-61.163
-61.749
-62.114
-62.273
-62.213
-61.949
-61.499
-60.88
-60.129
-59.29
-58.362
-57.345
-56.256
-55.104
-53.9
-52.658
-51.385
-50.091
-48.793
-47.502
-46.234
-45
-43.813
-42.684
-41.622
-40.629
-39.711
-38.872
-38.122
-37.475
-36.943
-36.528
-36.234
-36.061
-36.002
-36.042
-36.156
-36.303
-36.442
-36.538
-36.559
-36.484
-36.287
-35.938
-35.401
-34.638
-33.619
-32.334
-30.776
-28.937
-26.83
-24.506
-22.038
-19.541
-17.122
-14.854
-12.814
-11.095
-9.784
-8.989
-8.818
-9.327
-10.584
-12.685
-15.615
-19.299
-23.557
-27.993
-32.201
-35.85
-38.502
-39.729
-39.431
-37.644
-34.673
-31.311
-28.183
-25.703
-24.512
-25.037
-26.964
-29.56
-31.49
-30.589
-25.017
-13.237
6.644
35.975
74.771
122.061
175.733
232.412
288.766
341.44
386.216
419.252
438.182
441.772
429.982
404.005
365.163
315.155
257.172
194.703
130.29
65.983
3.298
-56.706
-112.541
-162.902
-207.874
-248.079
-283.725
-315.033
-342.075
-365.054
-385.032
-403.068
-419.38
-433.825
-446.264
-456.489
-464.488
-470.087
-472.514
-471.115
-465.657
-456.164
-442.993
-426.599
-407.326
-385.642
-362.227
-337.702
-312.602
-287.375
-262.24
-237.375
-213.004
-189.337
-166.614
-145.077
-124.938
-106.387
-89.589
-74.683
-61.752
-50.817
-41.825
-34.668
-29.205
-25.283
-22.8
-21.649
-21.703
-22.8
-24.731
-27.291
-30.281
-33.509
-36.769
-39.844
-42.558
-44.797
-46.508
-47.684
-48.333
-48.466
-48.089
-47.223
-45.907
-44.194
-42.151
-39.837
-37.32
-34.674
-31.997
-29.402
-26.967
-24.728
-22.689
-20.83
-19.126
-17.552
-16.068
-14.615
-13.135
-11.571
-9.87
-7.991
-5.878
-3.472
-0.702
2.5
6.183
10.377
15.103
20.374
26.205
32.599
39.538
46.993
54.936
63.337
72.168
81.392
90.952
100.789
110.846
121.075
131.451
141.941
152.509
163.119
173.731
184.324
194.9
205.453
215.966
226.429
236.823
247.161
257.483
267.814
278.16
288.502
298.784
308.957
318.976
328.778
338.292
347.414
356.007
363.964
371.203
377.636
383.188
387.749
391.172
393.35
394.208
393.702
391.835
388.612
384.036
378.156
371.053
362.841
353.68
343.696
332.982
321.642
309.774
297.503
284.987
272.352
259.691
247.086
234.596
222.279
210.203
198.392
186.842
175.529
164.403
153.441
142.65
132.032
121.592
111.326
101.218
91.269
81.504
71.941
62.598
53.493
44.632
36.039
27.757
19.828
12.297
5.198
-1.456
-7.65
-13.376
-18.631
-23.412
-27.728
-31.601
-35.045
-38.076
-40.708
-42.954
-44.834
-46.371
-47.591
-48.52
-49.181
-49.597
-49.79
-49.784
-49.6
-49.257
-48.773
-48.164
-47.446
-46.639
-45.758
-44.822
-43.848
-42.85
-41.843
-40.842
-39.858
-38.902
-37.982
-37.104
-36.275
-35.497
-34.775
-34.109
-33.501
-32.95
-32.457
-32.019
-31.634
-31.301
-31.016
-30.774
-30.573
-30.407
-30.273
-30.164
-30.076
-30.005
-29.945
-29.892
-29.84
-29.785
-29.722
-29.646
-29.551
-29.435
-29.292
-29.118
-28.911
-28.669
-28.389
-28.071
-27.714
-27.32
-26.888
-26.42
-25.919
-25.384
-24.82
-24.228
-23.611
-22.97
-22.311
-21.634
-20.944
-20.244
-19.537
-18.826
-18.115
-17.405
-16.699
-16.001
-15.313
-14.637
-13.976
-13.332
-12.708
-12.106
-11.528
-10.975
-10.451
-9.954
-9.487
-9.05
-8.642
-8.263
-7.914
-7.592
-7.297
-7.029
-6.785
-6.565
-6.367
-6.19
-6.032
-5.892
-5.766
-5.655
-5.555
-5.466
-5.386
-5.314
-5.249
-5.189
-5.135
-5.085
-5.037
-4.991
-4.946
-4.899
-4.851
-4.799
-4.743
-4.681
-4.612
-4.536
-4.452
-4.358
-4.255
-4.141
-4.015
-3.878
-3.728
-3.565
-3.388
-3.197
-2.991
-2.771
-2.535
-2.283
-2.015
-1.729
-1.426
-1.102
-0.759
-0.393
-0.004
0.409
0.848
1.312
1.804
2.322
2.869
3.444
4.046
4.677
5.336
6.022
6.736
7.475
8.241
9.03
9.843
10.678
11.533
12.409
13.302
14.212
15.136
16.073
17.021
17.976
18.935
19.895
20.852
21.803
22.744
23.671
24.581
25.468
26.331
27.164
27.965
28.731
29.456
30.139
30.776
31.363
31.899
32.382
32.809
33.179
33.491
33.743
33.934
34.063
34.129
34.132
34.072
33.95
33.767
33.524
33.226
32.876
32.482
32.049
31.583
31.09
30.576
30.05
29.516
28.98
28.445
27.917
27.403
26.912
26.453
26.036
25.67
25.368
25.139
24.997
24.952
25.011
25.178
25.457
25.857
26.39
27.07
27.908
28.904
30.058
31.367
32.826
34.421
36.128
37.905
39.714
41.531
43.346
45.163
46.983
48.8
50.606
52.397
54.184
55.982
57.799
59.634
61.488
63.381
65.359
67.502
69.872
72.498
75.376
78.47
81.746
85.171
88.698
92.26
95.762
99.09
102.156
104.911
107.302
109.264
110.719
111.486
111.404
110.478
108.729
106.218
103.05
99.145
94.416
89.036
83.204
76.896
70.144
62.819
54.711
46.208
37.774
29.555
21.764
14.719
8.57
3.74
0.703
-0.902
-1.496
-1.249
-0.511
0.461
1.547
2.29
2.228
1.506
0.239
-1.585
-3.896
-6.856
-10.604
-14.978
-19.699
-24.538
-29.21
-33.447
-36.904
-39.047
-39.46
-37.973
-34.878
-30.958
-27.067
-23.968
-22.354
-22.893
-26.096
-32.071
-39.958
-47.88
-53.523
-54.453
-48.261
-32.567
-5.054
36.363
91.205
156.3
228.261
302.595
378.243
457.68
537.625
611.804
667.435
685.737
659.649
589.879
485.428
362.709
227.62
84.952
-59.541
-198.842
-314.208
-393.826
-435.242
-441.925
-430.45
-409.867
-381.324
-349.124
-310.763
-268.956
-232.181
-199.599
-171.963
-149.622
-128.891
-112.501
-102.607
-98.492
-100.698
-107.407
-116.214
-125.885
-134.848
-141.762
-146.075
-147.668
-146.643
-143.254
-137.936
-131.28
-124.062
-117.28
-111.491
-106.75
-102.981
-99.943
-97.405
-95.233
-93.168
-90.851
-88.098
-84.89
-81.287
-77.455
-73.507
-69.481
-65.446
-61.481
-57.65
-54.016
-50.619
-47.473
-44.595
-42.001
-39.703
-37.715
-36.038
-34.661
-33.568
-32.736
-32.15
-31.802
-31.683
-31.787
-32.1
-32.602
-33.275
-34.101
-35.06
-36.134
-37.3
-38.538
-39.826
-41.149
-42.492
-43.841
-45.178
-46.487
-47.748
-48.945
-50.059
-51.076
-51.981
-52.757
-53.392
-53.875
-54.196
-54.347
-54.319
-54.105
-53.7
-53.097
-52.293
-51.284
-50.07
-48.65
-47.025
-45.198
-43.172
-40.953
-38.549
-35.966
-33.215
-30.306
-27.251
-24.063
-20.756
-17.344
-13.843
-10.268
-6.636
-2.966
0.727
4.423
8.104
11.752
15.348
18.873
22.31
25.64
28.846
31.911
34.818
37.552
40.096
42.437
44.559
46.451
48.101
49.498
50.633
51.497
52.086
52.392
52.412
52.145
51.587
50.741
49.606
48.187
46.486
44.51
42.265
39.759
37.002
34.005
30.78
27.338
23.696
19.866
15.866
11.713
7.422
3.013
-1.497
-6.088
-10.742
-15.439
-20.16
-24.887
-29.602
-34.286
-38.922
-43.493
-47.983
-52.377
-56.661
-60.819
-64.839
-68.709
-72.416
-75.95
-79.302
-82.464
-85.426
-88.182
-90.727
-93.057
-95.169
-97.059
-98.729
-100.177
-101.406
-102.419
-103.221
-103.817
-104.214
-104.421
-104.449
-104.306
-104.004
-103.556
-102.973
-102.267
-101.449
-100.531
-99.523
-98.437
-97.284
-96.077
-94.827
-93.547
-92.248
-90.945
-89.65
-88.373
-87.126
-85.916
-84.747
-83.628
-82.568
-81.579
-80.671
-79.85
-79.115
-78.466
-77.897
-77.397
-76.946
-76.506
-76.039
-75.513
-74.898
-74.174
-73.321
-72.314
-71.119
-69.703
-68.038
-66.106
-63.905
-61.432
-58.695
-55.72
-52.576
-49.372
-46.225
-43.241
-40.5
-38.052
-35.968
-34.336
-33.254
-32.813
-33.092
-34.125
-35.963
-38.703
-42.322
-46.68
-51.487
-56.234
-60.447
-63.799
-65.876
-66.212
-64.663
-61.258
-56.346
-50.849
-45.442
-40.488
-36.631
-34.399
-33.643
-33.908
-33.999
-31.694
-25.283
-13.323
6.191
34.793
73.093
120.951
176.666
237.017
298.997
359.256
413.133
455.959
483.725
493.168
483.815
457.824
415.562
357.176
282.614
189.962
83.638
-26.644
-129.748
-212.791
-270.364
-306.939
-332.195
-356.553
-386.35
-420.885
-453.129
-478.433
-494.847
-502.285
-505.994
-508.903
-511.33
-514.492
-516.991
-517.438
-515.916
-511.607
-503.886
-492.939
-478.798
-461.608
-441.847
-419.86
-395.943
-370.648
-344.62
-318.318
-292.057
-266.002
-240.19
-214.711
-189.76
-165.559
-142.287
-120.103
-99.174
-79.652
-61.726
-45.581
-31.301
-18.897
-8.328
0.494
7.625
13.08
16.916
19.213
20.108
19.808
18.508
16.384
13.645
10.503
7.188
3.946
0.946
-1.719
-3.985
-5.831
-7.223
-8.113
-8.488
-8.358
-7.757
-6.749
-5.389
-3.722
-1.823
0.221
2.31
4.333
6.231
7.996
9.632
11.167
12.631
14.054
15.486
16.995
18.643
20.492
22.597
25.001
27.763
30.953
34.638
38.895
43.769
49.277
55.429
62.221
69.632
77.639
86.191
95.223
104.682
114.519
124.693
135.174
145.916
156.87
167.995
179.239
190.566
201.958
213.396
224.869
236.388
247.963
259.622
271.414
283.353
295.442
307.671
320.008
332.423
344.879
357.309
369.639
381.788
393.647
405.107
416.05
426.321
435.784
444.298
451.706
457.892
462.76
466.216
468.195
468.641
467.51
464.812
460.584
454.871
447.757
439.333
429.709
419.037
407.444
395.041
381.952
368.279
354.125
339.619
324.886
310.052
295.254
280.587
266.115
251.905
237.995
224.409
211.163
198.25
185.687
173.523
161.818
150.629
139.998
129.927
120.398
111.38
102.809
94.641
86.852
79.412
72.317
65.569
59.175
53.146
47.478
42.136
37.063
32.209
27.53
23.014
18.668
14.512
10.594
6.951
3.614
0.604
-2.075
-4.43
-6.473
-8.223
-9.699
-10.908
-11.842
-12.498
-12.872
-12.977
-12.834
-12.477
-11.948
-11.291
-10.547
-9.75
-8.929
-8.102
-7.284
-6.485
-5.708
-4.961
-4.252
-3.592
-2.992
-2.459
-1.998
-1.61
-1.292
-1.041
-0.852
-0.72
-0.641
-0.61
-0.625
-0.685
-0.79
-0.94
-1.131
-1.363
-1.631
-1.93
-2.255
-2.602
-2.964
-3.336
-3.714
-4.094
-4.47
-4.841
-5.203
-5.553
-5.889
-6.207
-6.508
-6.788
-7.046
-7.282
-7.494
-7.681
-7.844
-7.984
-8.101
-8.195
-8.269
-8.324
-8.362
-8.385
-8.394
-8.391
-8.378
-8.358
-8.332
-8.301
-8.269
-8.238
-8.209
-8.186
-8.169
-8.16
-8.161
-8.173
-8.197
-8.233
-8.281
-8.343
-8.418
-8.507
-8.61
-8.727
-8.86
-9.007
-9.169
-9.346
-9.537
-9.742
-9.96
-10.19
-10.433
-10.686
-10.95
-11.223
-11.505
-11.794
-12.09
-12.391
-12.698
-13.009
-13.323
-13.639
-13.956
-14.275
-14.595
-14.916
-15.237
-15.559
-15.882
-16.206
-16.532
-16.859
-17.188
-17.519
-17.852
-18.186
-18.523
-18.861
-19.2
-19.541
-19.884
-20.228
-20.573
-20.918
-21.264
-21.609
-21.953
-22.296
-22.638
-22.976
-23.313
-23.645
-23.975
-24.299
-24.618
-24.931
-25.237
-25.533
-25.818
-26.091
-26.35
-26.592
-26.817
-27.023
-27.207
-27.369
-27.508
-27.62
-27.705
-27.763
-27.791
-27.788
-27.755
-27.691
-27.595
-27.468
-27.31
-27.123
-26.906
-26.66
-26.387
-26.087
-25.762
-25.412
-25.04
-24.647
-24.236
-23.81
-23.372
-22.927
-22.477
-22.027
-21.583
-21.148
-20.726
-20.322
-19.941
-19.587
-19.264
-18.977
-18.731
-18.531
-18.38
-18.283
-18.244
-18.265
-18.349
-18.499
-18.716
-19.002
-19.358
-19.786
-20.287
-20.862
-21.511
-22.234
-23.03
-23.898
-24.834
-25.835
-26.897
-28.012
-29.176
-30.381
-31.618
-32.88
-34.16
-35.45
-36.745
-38.036
-39.315
-40.574
-41.806
-43.001
-44.147
-45.234
-46.247
-47.175
-48.009
-48.739
-49.358
-49.857
-50.228
-50.47
-50.576
-50.539
-50.351
-49.996
-49.461
-48.748
-47.861
-46.812
-45.62
-44.303
-42.878
-41.375
-39.815
-38.207
-36.554
-34.841
-33.049
-31.177
-29.235
-27.249
-25.244
-23.221
-21.18
-19.119
-17.017
-14.857
-12.614
-10.235
-7.693
-4.996
-2.174
0.698
3.529
6.261
8.847
11.257
13.469
15.444
17.146
18.549
19.607
20.267
20.457
20.075
19.05
17.369
15.05
12.175
8.857
5.184
1.248
-2.866
-7.096
-11.377
-15.652
-19.884
-24.017
-27.978
-31.672
-34.986
-37.827
-40.151
-41.952
-43.291
-44.266
-44.983
-45.56
-46.09
-46.657
-47.348
-48.24
-49.406
-50.914
-52.813
-55.2
-58.222
-61.94
-66.315
-71.148
-76.022
-80.523
-84.318
-86.996
-88.117
-87.433
-84.913
-80.955
-76.43
-72.169
-68.795
-66.901
-66.997
-69.273
-73.494
-78.672
-83.062
-84.709
-81.701
-72.142
-54.252
-26.758
11.107
59.353
116.915
181.748
249.841
315.473
373.085
418.528
451.673
474.431
486.895
486.213
462.624
405.711
309.158
171.897
7.833
-163.09
-318.273
-434.094
-504.784
-533.006
-527.781
-506.465
-473.71
-433.047
-390.95
-347.472
-310.284
-283.733
-262.422
-244.536
-225.993
-204.628
-185.428
-170.69
-161.222
-157.138
-155.457
-153.969
-151.451
-147.139
-141.411
-134.748
-127.573
-120.307
-113.174
-106.635
-101.457
-98.08
-96.608
-96.901
-98.473
-100.857
-103.777
-106.889
-109.776
-112.147
-113.759
-114.468
-114.318
-113.362
-111.63
-109.193
-106.117
-102.467
-98.367
-93.947
-89.342
-84.716
-80.18
-75.81
-71.682
-67.849
-64.367
-61.285
-58.609
-56.32
-54.404
-52.849
-51.645
-50.783
-50.217
-49.889
-49.738
-49.692
-49.705
-49.739
-49.756
-49.725
-49.621
-49.423
-49.123
-48.722
-48.212
-47.581
-46.817
-45.905
-44.84
-43.62
-42.242
-40.705
-39.006
-37.146
-35.122
-32.937
-30.589
-28.076
-25.397
-22.549
-19.536
-16.361
-13.029
-9.549
-5.929
-2.179
1.689
5.663
9.73
13.877
18.091
22.358
26.665
30.996
35.337
39.674
43.99
48.271
52.501
56.665
60.746
64.729
68.6
72.344
75.946
79.393
82.671
85.769
88.674
91.375
93.861
96.122
98.15
99.938
101.477
102.762
103.789
104.553
105.054
105.288
105.257
104.959
104.398
103.575
102.493
101.157
99.571
97.742
95.678
93.385
90.873
88.152
85.232
82.125
78.843
75.398
71.804
68.074
64.223
60.264
56.213
52.086
47.896
43.66
39.394
35.113
30.832
26.567
22.331
18.14
14.006
9.943
5.964
2.079
-1.7
-5.363
-8.9
-12.302
-15.562
-18.672
-21.626
-24.42
-27.048
-29.508
-31.798
-33.917
-35.863
-37.638
-39.242
-40.678
-41.949
-43.059
-44.011
-44.813
-45.47
-45.99
-46.384
-46.662
-46.835
-46.914
-46.911
-46.837
-46.704
-46.522
-46.3
-46.047
-45.771
-45.481
-45.19
-44.906
-44.64
-44.398
-44.189
-44.02
-43.898
-43.825
-43.799
-43.819
-43.884
-44.001
-44.182
-44.435
-44.757
-45.149
-45.603
-46.107
-46.647
-47.196
-47.714
-48.166
-48.516
-48.741
-48.832
-48.767
-48.52
-48.059
-47.337
-46.325
-45.018
-43.404
-41.48
-39.277
-36.831
-34.216
-31.546
-28.892
-26.329
-23.934
-21.766
-19.912
-18.468
-17.501
-17.115
-17.434
-18.486
-20.229
-22.516
-25.014
-27.387
-29.368
-30.586
-30.63
-29.285
-26.59
-22.915
-19.039
-15.738
-13.404
-12.396
-13.2
-15.94
-20.175
-24.842
-27.996
-27.461
-21.856
-9.918
10.125
39.354
77.948
125.431
178.45
232.987
287.563
339.089
386.125
428.083
458.09
471.577
464.346
431.597
378.436
310.884
234.793
158.047
82.043
7.484
-63.208
-128.627
-185.715
-232.69
-270.148
-299.082
-321.398
-338.794
-352.746
-365.404
-378.168
-391.526
-405.551
-419.603
-432.844
-444.778
-454.614
-461.191
-463.862
-462.305
-456.444
-446.708
-433.545
-417.314
-398.569
-377.953
-355.96
-333.018
-309.471
-285.526
-261.384
-237.226
-213.197
-189.457
-166.209
-143.723
-122.277
-102.112
-83.445
-66.451
-51.253
-37.946
-26.558
-17.04
-9.313
-3.269
1.189
4.126
5.642
5.877
5.003
3.238
0.812
-2.065
-5.159
-8.228
-11.081
-13.564
-15.58
-17.096
-18.099
-18.585
-18.563
-18.04
-17.039
-15.608
-13.801
-11.686
-9.346
-6.864
-4.343
-1.901
0.383
2.465
4.327
5.989
7.478
8.826
10.083
11.312
12.571
13.927
15.436
17.154
19.145
21.476
24.218
27.443
31.2
35.524
40.44
45.963
52.104
58.866
66.228
74.165
82.65
91.649
101.128
111.039
121.314
131.894
142.729
153.777
165.007
176.389
187.884
199.46
211.087
222.736
234.387
246.011
257.568
269.034
280.398
291.672
302.897
314.084
325.208
336.231
347.094
357.729
368.07
378.026
387.481
396.338
404.502
411.903
418.499
424.22
428.982
432.683
435.19
436.417
436.324
434.887
432.11
428.024
422.675
416.158
408.615
400.165
390.912
380.941
370.312
359.107
347.435
335.41
323.164
310.808
298.421
286.085
273.868
261.814
249.953
238.275
226.731
215.298
203.973
192.765
181.704
170.808
160.082
149.536
139.179
129.022
119.081
109.367
99.886
90.655
81.701
73.063
64.796
56.94
49.517
42.544
36.026
29.967
24.37
19.228
14.525
10.25
6.387
2.926
-0.143
-2.835
-5.169
-7.169
-8.861
-10.27
-11.418
-12.328
-13.021
-13.518
-13.84
-14.002
-14.019
-13.906
-13.679
-13.356
-12.953
-12.486
-11.969
-11.416
-10.841
-10.258
-9.675
-9.104
-8.552
-8.026
-7.532
-7.075
-6.66
-6.291
-5.968
-5.694
-5.47
-5.296
-5.173
-5.099
-5.073
-5.094
-5.159
-5.268
-5.416
-5.603
-5.824
-6.077
-6.36
-6.67
-7.003
-7.357
-7.729
-8.116
-8.514
-8.922
-9.335
-9.752
-10.168
-10.583
-10.994
-11.399
-11.795
-12.182
-12.558
-12.922
-13.272
-13.609
-13.93
-14.236
-14.526
-14.799
-15.054
-15.291
-15.51
-15.71
-15.892
-16.056
-16.201
-16.329
-16.44
-16.534
-16.612
-16.674
-16.722
-16.756
-16.777
-16.785
-16.781
-16.767
-16.744
-16.713
-16.674
-16.629
-16.58
-16.527
-16.472
-16.414
-16.356
-16.298
-16.241
-16.185
-16.133
-16.084
-16.041
-16.002
-15.97
-15.945
-15.926
-15.913
-15.908
-15.909
-15.916
-15.928
-15.946
-15.968
-15.995
-16.026
-16.06
-16.098
-16.138
-16.181
-16.224
-16.269
-16.315
-16.36
-16.406
-16.451
-16.497
-16.542
-16.588
-16.634
-16.681
-16.73
-16.78
-16.832
-16.887
-16.946
-17.009
-17.079
-17.155
-17.241
-17.338
-17.446
-17.569
-17.707
-17.863
-18.037
-18.23
-18.445
-18.681
-18.941
-19.224
-19.531
-19.863
-20.219
-20.6
-21.006
-21.435
-21.887
-22.361
-22.855
-23.368
-23.897
-24.442
-25
-25.57
-26.147
-26.732
-27.319
-27.907
-28.492
-29.071
-29.641
-30.198
-30.739
-31.261
-31.76
-32.235
-32.682
-33.1
-33.486
-33.838
-34.156
-34.438
-34.683
-34.891
-35.062
-35.197
-35.296
-35.36
-35.391
-35.392
-35.365
-35.311
-35.235
-35.139
-35.027
-34.901
-34.766
-34.626
-34.485
-34.347
-34.216
-34.098
-33.997
-33.918
-33.864
-33.839
-33.847
-33.892
-33.975
-34.1
-34.268
-34.48
-34.738
-35.042
-35.391
-35.785
-36.222
-36.7
-37.216
-37.766
-38.347
-38.952
-39.578
-40.216
-40.861
-41.505
-42.142
-42.764
-43.363
-43.93
-44.457
-44.934
-45.354
-45.708
-45.985
-46.178
-46.278
-46.278
-46.171
-45.95
-45.61
-45.145
-44.552
-43.827
-42.969
-41.975
-40.846
-39.583
-38.186
-36.662
-35.013
-33.249
-31.376
-29.404
-27.346
-25.215
-23.024
-20.789
-18.525
-16.249
-13.979
-11.731
-9.524
-7.374
-5.301
-3.321
-1.456
0.278
1.861
3.278
4.511
5.542
6.355
6.936
7.278
7.374
7.216
6.794
6.098
5.121
3.864
2.332
0.528
-1.538
-3.853
-6.391
-9.108
-11.959
-14.904
-17.902
-20.924
-23.939
-26.904
-29.776
-32.514
-35.082
-37.467
-39.655
-41.621
-43.354
-44.866
-46.202
-47.462
-48.753
-50.156
-51.748
-53.579
-55.708
-58.231
-61.216
-64.698
-68.698
-73.176
-78.144
-83.714
-89.869
-96.456
-103.188
-109.575
-115.162
-119.611
-122.395
-122.896
-120.831
-116.156
-109.262
-100.979
-92.07
-83.44
-76.316
-71.793
-69.227
-66.428
-61.119
-51.609
-40.35
-31.952
-26.648
-20.147
-1.613
42.656
116.886
216.187
326.972
428.72
507.926
557.101
574.159
565.106
533.72
483.621
417.257
332.08
227.574
103.714
-33.541
-170.041
-291.83
-384.913
-444.274
-475.815
-485.718
-481.402
-466.247
-438.258
-398.777
-350.668
-298.511
-248.758
-205.586
-171.854
-149.083
-136.716
-133.458
-137.383
-145.804
-156.521
-167.42
-175.948
-180.574
-180.735
-176.386
-168.431
-158.201
-146.74
-135.265
-125.216
-117.349
-111.999
-109.259
-108.674
-109.695
-111.858
-114.548
-117.186
-119.482
-121.269
-122.477
-123.159
-123.296
-122.866
-121.918
-120.488
-118.606
-116.295
-113.561
-110.446
-107.053
-103.514
-99.965
-96.502
-93.168
-89.999
-87.023
-84.271
-81.779
-79.555
-77.589
-75.88
-74.424
-73.218
-72.256
-71.505
-70.912
-70.417
-69.959
-69.485
-68.967
-68.374
-67.681
-66.872
-65.929
-64.844
-63.617
-62.242
-60.711
-59.012
-57.136
-55.077
-52.838
-50.419
-47.826
-45.061
-42.128
-39.03
-35.772
-32.356
-28.787
-25.065
-21.193
-17.175
-13.018
-8.732
-4.326
0.187
4.796
9.486
14.242
19.05
23.894
28.76
33.632
38.496
43.338
48.143
52.897
57.585
62.195
66.713
71.124
75.416
79.577
83.594
87.456
91.151
94.67
98.002
101.138
104.068
106.785
109.279
111.544
113.573
115.359
116.899
118.189
119.225
120.007
120.535
120.809
120.83
120.603
120.129
119.412
118.457
117.269
115.856
114.222
112.375
110.324
108.076
105.642
103.03
100.252
97.316
94.235
91.02
87.683
84.236
80.692
77.065
73.368
69.615
65.822
62.001
58.168
54.335
50.515
46.724
42.971
39.271
35.634
32.071
28.593
25.21
21.931
18.764
15.717
12.797
10.01
7.361
4.857
2.5
0.293
-1.76
-3.657
-5.397
-6.98
-8.405
-9.674
-10.79
-11.756
-12.577
-13.26
-13.811
-14.239
-14.551
-14.759
-14.871
-14.896
-14.845
-14.727
-14.548
-14.32
-14.051
-13.751
-13.429
-13.095
-12.759
-12.432
-12.123
-11.841
-11.595
-11.388
-11.22
-11.097
-11.025
-11.014
-11.073
-11.201
-11.4
-11.668
-12.001
-12.391
-12.817
-13.238
-13.615
-13.913
-14.1
-14.157
-14.062
-13.785
-13.293
-12.549
-11.529
-10.223
-8.627
-6.733
-4.545
-2.082
0.589
3.348
6.081
8.68
11.061
13.181
14.955
16.284
17.068
17.199
16.598
15.25
13.099
10.058
6.161
1.538
-3.48
-8.312
-12.461
-15.533
-17.105
-16.896
-14.847
-11.055
-6.102
-0.96
3.587
6.842
8.234
7.819
6.162
4.276
3.988
7.441
16.606
33.551
59.946
96.294
142.044
195.517
253.82
313.735
371.653
423.179
464.049
490.902
501.528
495.142
472.017
432.612
378.353
312.206
237.827
159.022
79.05
0.337
-74.829
-143.736
-204.266
-255.71
-298.414
-333.427
-361.677
-383.812
-400.839
-414.487
-426.585
-438.187
-449.495
-460.141
-469.757
-478.135
-484.94
-489.434
-490.602
-487.797
-480.904
-470.158
-455.986
-438.803
-418.974
-397.007
-373.572
-349.203
-324.287
-299.129
-273.856
-248.573
-223.444
-198.584
-174.12
-150.269
-127.231
-105.189
-84.34
-64.831
-46.787
-30.351
-15.615
-2.606
8.691
18.341
26.399
32.877
37.815
41.275
43.359
44.236
44.081
43.043
41.283
38.978
36.311
33.489
30.701
28.067
25.663
23.535
21.719
20.266
19.215
18.577
18.337
18.458
18.896
19.626
20.614
21.805
23.137
24.53
25.908
27.244
28.538
29.805
31.074
32.376
33.743
35.228
36.895
38.8
40.998
43.532
46.441
49.774
53.583
57.919
62.832
68.351
74.486
81.243
88.613
96.582
105.128
114.219
123.811
133.866
144.344
155.206
166.412
177.916
189.666
201.612
213.697
225.869
238.073
250.255
262.36
274.336
286.128
297.688
308.965
319.91
330.472
340.604
350.258
359.387
367.95
375.905
383.216
389.849
395.772
400.961
405.392
409.047
411.912
413.974
415.228
415.669
415.298
414.12
412.141
409.375
405.836
401.543
396.518
390.787
384.378
377.322
369.652
361.406
352.621
343.336
333.596
323.442
312.919
302.074
290.951
279.597
268.058
256.38
244.609
232.789
220.963
209.173
197.46
185.862
174.418
163.16
152.123
141.337
130.83
120.628
110.753
101.226
92.066
83.287
74.903
66.923
59.355
52.204
45.473
39.161
33.268
27.787
22.714
18.039
13.752
9.842
6.295
3.098
0.234
-2.313
-4.56
-6.524
-8.225
-9.68
-10.908
-11.929
-12.761
-13.423
-13.933
-14.308
-14.567
-14.725
-14.798
-14.801
-14.749
-14.655
-14.531
-14.388
-14.238
-14.09
-13.952
-13.832
-13.737
-13.671
-13.639
-13.645
-13.691
-13.78
-13.913
-14.091
-14.313
-14.581
-14.893
-15.246
-15.641
-16.074
-16.544
-17.047
-17.58
-18.14
-18.725
-19.33
-19.954
-20.592
-21.242
-21.899
-22.562
-23.227
-23.891
-24.551
-25.205
-25.85
-26.485
-27.107
-27.714
-28.307
-28.883
-29.443
-29.984
-30.507
-31.012
-31.499
-31.967
-32.416
-32.848
-33.262
-33.66
-34.042
-34.41
-34.764
-35.105
-35.436
-35.756
-36.068
-36.373
-36.673
-36.969
-37.263
-37.556
-37.852
-38.152
-38.458
-38.772
-39.095
-39.43
-39.778
-40.141
-40.518
-40.913
-41.325
-41.756
-42.205
-42.673
-43.161
-43.669
-44.196
-44.742
-45.306
-45.887
-46.486
-47.1
-47.729
-48.371
-49.026
-49.691
-50.367
-51.05
-51.739
-52.432
-53.127
-53.821
-54.512
-55.198
-55.875
-56.541
-57.193
-57.829
-58.446
-59.042
-59.616
-60.163
-60.684
-61.177
-61.64
-62.072
-62.472
-62.841
-63.177
-63.481
-63.754
-63.995
-64.206
-64.386
-64.538
-64.66
-64.756
-64.825
-64.869
-64.889
-64.887
-64.863
-64.822
-64.763
-64.69
-64.604
-64.508
-64.405
-64.297
-64.185
-64.074
-63.963
-63.857
-63.756
-63.662
-63.576
-63.501
-63.435
-63.381
-63.338
-63.306
-63.284
-63.273
-63.271
-63.279
-63.294
-63.316
-63.345
-63.379
-63.417
-63.458
-63.502
-63.546
-63.591
-63.634
-63.674
-63.711
-63.742
-63.767
-63.784
-63.792
-63.79
-63.777
-63.753
-63.716
-63.667
-63.605
-63.531
-63.446
-63.349
-63.244
-63.13
-63.011
-62.887
-62.762
-62.637
-62.515
-62.397
-62.288
-62.188
-62.1
-62.027
-61.971
-61.934
-61.918
-61.925
-61.956
-62.013
-62.097
-62.209
-62.35
-62.519
-62.718
-62.944
-63.198
-63.478
-63.781
-64.105
-64.448
-64.804
-65.169
-65.54
-65.91
-66.272
-66.622
-66.951
-67.253
-67.521
-67.749
-67.929
-68.053
-68.116
-68.109
-68.026
-67.861
-67.605
-67.253
-66.8
-66.238
-65.565
-64.776
-63.866
-62.833
-61.675
-60.393
-58.986
-57.456
-55.804
-54.035
-52.155
-50.17
-48.088
-45.919
-43.673
-41.362
-39.001
-36.606
-34.192
-31.775
-29.373
-27.003
-24.683
-22.429
-20.257
-18.182
-16.218
-14.383
-12.695
-11.169
-9.822
-8.667
-7.718
-6.985
-6.482
-6.214
-6.18
-6.379
-6.811
-7.477
-8.387
-9.545
-10.944
-12.582
-14.448
-16.528
-18.805
-21.251
-23.825
-26.49
-29.213
-31.966
-34.739
-37.509
-40.248
-42.927
-45.497
-47.923
-50.183
-52.242
-54.068
-55.665
-57.04
-58.229
-59.305
-60.301
-61.247
-62.194
-63.168
-64.229
-65.455
-66.879
-68.588
-70.706
-73.288
-76.356
-79.799
-83.275
-86.399
-88.821
-90.1
-89.828
-87.728
-83.696
-78.124
-71.92
-66.168
-61.912
-60.015
-61.191
-65.915
-74.151
-84.895
-96.172
-105.28
-109.359
-106.048
-92.95
-67.725
-28.783
24.314
89.488
162.01
236.868
310.332
381.349
450.228
514.356
566.025
591.643
578.196
520.252
423.082
303.231
177.555
56.362
-59.084
-175.022
-292.62
-405.786
-500.706
-560.001
-577.19
-554.618
-503.364
-442.684
-384.148
-334.09
-295.145
-260.687
-227.947
-197.531
-168.994
-146.719
-132.734
-125.844
-125.68
-129.619
-135.041
-140.237
-143.126
-142.89
-139.671
-133.748
-125.759
-116.323
-106.026
-95.947
-87.326
-80.887
-76.867
-75.118
-75.22
-76.79
-79.525
-82.936
-86.403
-89.495
-91.925
-93.579
-94.521
-94.783
-94.357
-93.275
-91.593
-89.369
-86.69
-83.625
-80.211
-76.524
-72.639
-68.652
-64.693
-60.862
-57.239
-53.885
-50.823
-48.066
-45.632
-43.521
-41.722
-40.213
-38.96
-37.928
-37.093
-36.421
-35.877
-35.413
-34.969
-34.499
-33.97
-33.355
-32.637
-31.801
-30.829
-29.714
-28.457
-27.055
-25.508
-23.813
-21.961
-19.948
-17.774
-15.439
-12.948
-10.302
-7.501
-4.545
-1.438
1.819
5.223
8.77
12.459
16.287
20.245
24.324
28.515
32.806
37.187
41.643
46.161
50.726
55.325
59.943
64.566
69.178
73.766
78.313
82.804
87.224
91.559
95.792
99.909
103.894
107.734
111.415
114.922
118.242
121.362
124.27
126.955
129.406
131.613
133.568
135.264
136.693
137.852
138.736
139.342
139.668
139.714
139.481
138.969
138.182
137.123
135.798
134.212
132.373
130.287
127.965
125.415
122.647
119.674
116.507
113.158
109.641
105.971
102.161
98.227
94.185
90.05
85.839
81.568
77.252
72.909
68.554
64.201
59.865
55.562
51.305
47.109
42.985
38.947
35.006
31.174
27.461
23.876
20.427
17.122
13.968
10.97
8.134
5.463
2.961
0.629
-1.531
-3.52
-5.337
-6.985
-8.467
-9.788
-10.952
-11.966
-12.837
-13.573
-14.185
-14.68
-15.069
-15.363
-15.57
-15.703
-15.768
-15.777
-15.739
-15.663
-15.56
-15.441
-15.317
-15.197
-15.093
-15.014
-14.967
-14.963
-15.002
-15.086
-15.217
-15.4
-15.647
-15.963
-16.348
-16.8
-17.315
-17.885
-18.498
-19.131
-19.744
-20.304
-20.78
-21.143
-21.383
-21.484
-21.42
-21.163
-20.674
-19.923
-18.905
-17.612
-16.038
-14.184
-12.072
-9.767
-7.377
-5.002
-2.711
-0.549
1.454
3.229
4.685
5.732
6.273
6.26
5.642
4.308
2.242
-0.474
-3.634
-6.798
-9.505
-11.458
-12.287
-11.594
-9.34
-5.626
-0.861
3.976
8.163
11.294
12.737
12.049
9.492
5.692
2.041
0.86
3.936
12.789
29.323
54.955
90.25
134.924
187.201
244.057
302.559
359.281
410
450.668
477.536
487.807
480.274
454.724
411.566
352.663
281.205
201.059
116.739
32.325
-48.859
-123.495
-188.84
-243.638
-287.844
-322.42
-349.202
-369.862
-385.946
-399.544
-412.574
-426.065
-440.356
-455.069
-469.312
-482.388
-493.674
-502.209
-507.075
-507.777
-504.158
-496.443
-485.121
-470.624
-453.381
-433.954
-412.925
-390.758
-367.79
-344.251
-320.296
-296.082
-271.755
-247.419
-223.155
-199.079
-175.356
-152.196
-129.819
-108.401
-88.077
-68.962
-51.158
-34.755
-19.839
-6.44
5.453
15.837
24.709
32.051
37.853
42.156
45.046
46.655
47.13
46.612
45.222
43.092
40.34
37.08
33.457
29.571
25.493
21.325
17.156
13.095
9.273
5.766
2.614
-0.161
-2.57
-4.614
-6.271
-7.527
-8.357
-8.719
-8.62
-8.045
-6.962
-5.378
-3.299
-0.754
2.182
5.468
9.106
13.095
17.46
22.233
27.404
32.967
38.91
45.189
51.788
58.686
65.834
73.211
80.811
88.641
96.753
105.184
113.928
122.978
132.31
141.888
151.703
161.753
172.026
182.536
193.307
204.357
215.724
227.447
239.52
251.919
264.593
277.469
290.498
303.628
316.786
329.907
342.907
355.676
368.109
380.082
391.424
401.978
411.579
420.045
427.254
433.105
437.516
440.441
441.84
441.687
439.996
436.796
432.123
426.052
418.671
410.092
400.486
390.01
378.82
367.091
354.955
342.529
329.93
317.242
304.538
291.887
279.331
266.904
254.645
242.57
230.681
218.968
207.383
195.893
184.477
173.109
161.786
150.513
139.294
128.149
117.115
106.222
95.505
85.002
74.737
64.745
55.062
45.729
36.794
28.297
20.264
12.717
5.671
-0.867
-6.892
-12.411
-17.439
-21.992
-26.084
-29.731
-32.948
-35.75
-38.16
-40.198
-41.887
-43.252
-44.313
-45.093
-45.613
-45.895
-45.96
-45.828
-45.516
-45.044
-44.432
-43.699
-42.865
-41.949
-40.97
-39.944
-38.889
-37.82
-36.752
-35.698
-34.668
-33.672
-32.721
-31.822
-30.981
-30.204
-29.496
-28.86
-28.299
-27.814
-27.406
-27.075
-26.82
-26.641
-26.536
-26.502
-26.538
-26.64
-26.804
-27.027
-27.304
-27.631
-28.004
-28.416
-28.864
-29.343
-29.848
-30.374
-30.916
-31.47
-32.032
-32.597
-33.162
-33.724
-34.279
-34.824
-35.356
-35.874
-36.376
-36.861
-37.326
-37.771
-38.195
-38.598
-38.98
-39.339
-39.677
-39.993
-40.288
-40.562
-40.817
-41.051
-41.268
-41.467
-41.65
-41.818
-41.971
-42.112
-42.241
-42.359
-42.468
-42.569
-42.663
-42.752
-42.836
-42.917
-42.995
-43.072
-43.149
-43.225
-43.302
-43.38
-43.459
-43.539
-43.62
-43.702
-43.785
-43.868
-43.951
-44.034
-44.115
-44.194
-44.27
-44.342
-44.41
-44.471
-44.526
-44.573
-44.611
-44.638
-44.654
-44.657
-44.646
-44.62
-44.577
-44.515
-44.435
-44.335
-44.214
-44.071
-43.907
-43.719
-43.509
-43.277
-43.022
-42.746
-42.448
-42.131
-41.795
-41.442
-41.072
-40.689
-40.293
-39.887
-39.473
-39.053
-38.629
-38.206
-37.784
-37.367
-36.957
-36.558
-36.173
-35.804
-35.455
-35.129
-34.828
-34.555
-34.313
-34.105
-33.931
-33.794
-33.696
-33.638
-33.62
-33.643
-33.707
-33.812
-33.957
-34.142
-34.364
-34.623
-34.916
-35.242
-35.597
-35.98
-36.387
-36.815
-37.262
-37.723
-38.195
-38.674
-39.156
-39.638
-40.116
-40.585
-41.042
-41.484
-41.906
-42.306
-42.681
-43.028
-43.346
-43.631
-43.884
-44.103
-44.288
-44.438
-44.556
-44.641
-44.696
-44.722
-44.722
-44.699
-44.656
-44.595
-44.52
-44.436
-44.346
-44.254
-44.164
-44.081
-44.009
-43.951
-43.914
-43.899
-43.912
-43.956
-44.034
-44.149
-44.303
-44.497
-44.734
-45.013
-45.334
-45.696
-46.098
-46.537
-47.01
-47.512
-48.039
-48.586
-49.144
-49.709
-50.271
-50.822
-51.355
-51.86
-52.329
-52.753
-53.122
-53.427
-53.659
-53.809
-53.868
-53.827
-53.677
-53.411
-53.02
-52.5
-51.843
-51.045
-50.102
-49.012
-47.772
-46.382
-44.844
-43.16
-41.332
-39.366
-37.269
-35.05
-32.719
-30.286
-27.765
-25.171
-22.523
-19.836
-17.13
-14.422
-11.733
-9.083
-6.49
-3.973
-1.55
0.762
2.944
4.976
6.84
8.518
9.991
11.246
12.268
13.042
13.561
13.822
13.821
13.556
13.025
12.214
11.12
9.747
8.098
6.182
4.014
1.616
-0.98
-3.728
-6.584
-9.508
-12.467
-15.439
-18.393
-21.291
-24.095
-26.755
-29.234
-31.512
-33.56
-35.349
-36.888
-38.204
-39.356
-40.446
-41.542
-42.685
-43.936
-45.345
-46.99
-48.967
-51.347
-54.18
-57.534
-61.505
-66.122
-71.329
-76.883
-82.343
-87.249
-91.184
-93.721
-94.403
-92.961
-89.387
-84.07
-77.875
-71.722
-66.368
-62.562
-61.016
-62.02
-65.327
-69.934
-73.988
-75.286
-71.536
-60.372
-39.574
-7.343
37.426
94.647
163.012
238.877
316.499
390.145
454.664
508.226
551.248
581.211
592.88
577.446
525.437
434.876
308.782
154.695
-13.338
-181.931
-334.111
-450.965
-523.972
-550.814
-540.156
-508.862
-466.549
-422.088
-378.372
-333.181
-290.557
-250.207
-212.838
-181.89
-155.794
-136.193
-124.433
-118.913
-118.962
-122.09
-125.211
-126.175
-123.607
-117.338
-107.812
-95.761
-82.167
-67.858
-53.891
-41.675
-31.987
-25.144
-21.213
-19.767
-20.32
-22.489
-25.751
-29.495
-33.325
-36.931
-40.039
-42.586
-44.521
-45.784
-46.402
-46.398
-45.764
-44.526
-42.732
-40.424
-37.693
-34.634
-31.307
-27.791
-24.174
-20.555
-17.068
-13.807
-10.823
-8.146
-5.791
-3.771
-2.1
-0.765
0.278
1.077
1.675
2.113
2.417
2.625
2.786
2.95
3.174
3.501
3.957
4.566
5.348
6.32
7.496
8.88
10.464
12.245
14.221
16.393
18.766
21.336
24.098
27.045
30.17
33.466
36.929
40.548
44.315
48.221
52.257
56.413
60.682
65.053
69.513
74.048
78.644
83.285
87.956
92.64
97.323
101.986
106.615
111.194
115.71
120.148
124.494
128.734
132.856
136.846
140.694
144.386
147.913
151.263
154.427
157.396
160.162
162.715
165.049
167.158
169.035
170.676
172.077
173.235
174.147
174.813
175.232
175.404
175.331
175.014
174.456
173.661
172.633
171.377
169.898
168.203
166.299
164.191
161.889
159.4
156.733
153.897
150.901
147.756
144.472
141.061
137.533
133.902
130.178
126.375
122.507
118.586
114.626
110.64
106.641
102.642
98.656
94.694
90.77
86.896
83.082
79.34
75.68
72.112
68.647
65.291
62.053
58.939
55.957
53.113
50.409
47.852
45.443
43.186
41.083
39.133
37.338
35.695
34.202
32.856
31.653
30.586
29.647
28.828
28.12
27.513
26.997
26.562
26.195
25.887
25.629
25.411
25.222
25.054
24.895
24.733
24.556
24.356
24.123
23.848
23.522
23.139
22.697
22.195
21.63
20.997
20.283
19.48
18.586
17.604
16.535
15.391
14.186
12.943
11.7
10.494
9.357
8.319
7.398
6.613
5.993
5.572
5.39
5.485
5.875
6.565
7.568
8.87
10.434
12.201
14.067
15.934
17.74
19.413
20.884
22.08
22.901
23.254
23.076
22.268
20.728
18.44
15.461
11.972
8.312
4.812
1.768
-0.452
-1.433
-0.946
0.966
3.954
7.348
10.536
13.201
14.99
15.362
14.114
11.68
9.131
8.201
10.675
17.82
30.982
51.862
81.661
120.606
167.71
220.819
277.445
334.848
389.382
436.864
473.036
495.218
503.308
496.094
471.639
427.633
360.707
274.961
180.264
86.884
6.829
-56.479
-107.633
-150.641
-191.685
-232.224
-267.744
-296.619
-317.87
-332.526
-345.301
-358.625
-372.913
-388.264
-403.569
-417.824
-430.781
-441.694
-449.335
-453.082
-452.649
-447.979
-439.525
-427.755
-413.013
-395.84
-376.889
-356.637
-335.484
-313.767
-291.678
-269.399
-247.094
-224.875
-202.864
-181.242
-160.249
-140.116
-121.048
-103.215
-86.752
-71.798
-58.457
-46.769
-36.706
-28.186
-21.111
-15.413
-11.053
-7.972
-6.079
-5.236
-5.266
-6.007
-7.301
-8.977
-10.846
-12.702
-14.377
-15.769
-16.831
-17.55
-17.925
-17.938
-17.573
-16.838
-15.755
-14.367
-12.727
-10.873
-8.86
-6.758
-4.658
-2.662
-0.839
0.787
2.22
3.485
4.616
5.643
6.61
7.582
8.619
9.775
11.106
12.654
14.477
16.643
19.222
22.278
25.86
29.99
34.679
39.925
45.713
52.012
58.788
65.994
73.594
81.56
89.866
98.489
107.401
116.561
125.941
135.528
145.316
155.306
165.505
175.919
186.567
197.483
208.69
220.197
231.996
244.054
256.329
268.767
281.303
293.872
306.381
318.714
330.739
342.309
353.278
363.513
372.864
381.174
388.304
394.144
398.609
401.65
403.237
403.361
402.031
399.274
395.152
389.752
383.192
375.613
367.15
357.929
348.086
337.768
327.104
316.212
305.184
294.088
282.981
271.915
260.929
250.052
239.293
228.644
218.083
207.569
197.076
186.588
176.091
165.57
155.019
144.439
133.845
123.27
112.743
102.293
91.95
81.745
71.715
61.902
52.352
43.114
34.226
25.717
17.611
9.928
2.681
-4.124
-10.487
-16.418
-21.927
-27.022
-31.711
-36.006
-39.919
-43.467
-46.667
-49.54
-52.103
-54.376
-56.377
-58.123
-59.634
-60.925
-62.013
-62.913
-63.639
-64.209
-64.64
-64.95
-65.156
-65.274
-65.32
-65.311
-65.262
-65.185
-65.093
-64.997
-64.906
-64.829
-64.775
-64.75
-64.763
-64.817
-64.917
-65.069
-65.275
-65.537
-65.856
-66.233
-66.668
-67.16
-67.708
-68.311
-68.966
-69.673
-70.429
-71.232
-72.079
-72.966
-73.891
-74.849
-75.836
-76.846
-77.877
-78.922
-79.978
-81.04
-82.105
-83.168
-84.228
-85.281
-86.325
-87.356
-88.374
-89.375
-90.358
-91.32
-92.261
-93.18
-94.078
-94.953
-95.808
-96.644
-97.462
-98.263
-99.048
-99.818
-100.573
-101.313
-102.04
-102.753
-103.455
-104.147
-104.832
-105.512
-106.191
-106.871
-107.555
-108.243
-108.938
-109.639
-110.346
-111.059
-111.778
-112.502
-113.232
-113.971
-114.719
-115.479
-116.253
-117.042
-117.848
-118.671
-119.512
-120.371
-121.246
-122.138
-123.047
-123.977
-124.93
-125.909
-126.913
-127.94
-128.99
-130.058
-131.14
-132.223
-133.29
-134.329
-135.328
-136.281
-137.185
-138.044
-138.868
-139.673
-140.476
-141.296
-142.154
-143.054
-143.999
-144.985
-145.999
-147.056
-148.189
-149.426
-150.806
-152.363
-154.126
-156.113
-158.296
-160.592
-162.89
-165.036
-166.884
-168.356
-169.362
-169.912
-170.213
-170.455
-170.892
-171.872
-173.462
-175.634
-178.495
-181.532
-183.634
-183.797
-180.631
-174.096
-166.64
-159.906
-153.585
-143.811
-123.151
